{
  "AcquisitionMatrixPE": 82,
  "AcquisitionNumber": 1,
  "AcquisitionTime": "20:45:1.142500",
  "BandwidthPerPixelPhaseEncode": 24.888,
  "BaseResolution": 82,
  "BodyPartExamined": "BRAIN",
  "ConsistencyInfo": "N4_VE11E_LATEST_20181129",
  "ConversionSoftware": "dcm2niix",
  "ConversionSoftwareVersion": "v1.0.20201102",
  "DerivedVendorReportedEchoSpacing": 0.00049,
  "DeviceSerialNumber": "66112",
  "DwellTime": 2e-06,
  "EchoTime": 0.0272,
  "EchoTrainLength": 82,
  "EffectiveEchoSpacing": 0.00049,
  "FlipAngle": 44,
  "ImageComments": "Unaliased MB8/PE3",
  "ImageOrientationPatientDICOM": [0.994965, -0.00558305, 0.100071, -0.0116354, 0.985262, 0.170654],
  "ImageType": [
    "ORIGINAL",
    "PRIMARY",
    "M",
    "MB",
    "ND",
    "NORM",
    "MOSAIC"
],
  "ImagingFrequency": 123.259,
  "InPlanePhaseEncodingDirectionDICOM": "COL",
  "InstitutionAddress": "Maynard 3,Hanover,NH,US,03755",
  "InstitutionName": "Dartmouth College - PBS",
  "InstitutionalDepartmentName": "Department",
  "MRAcquisitionType": "2D",
  "MagneticFieldStrength": 3,
  "Manufacturer": "Siemens",
  "ManufacturersModelName": "Prisma",
  "Modality": "MR",
  "MultibandAccelerationFactor": 8,
  "PartialFourier": 1,
  "PatientPosition": "HFS",
  "PercentPhaseFOV": 100,
  "PercentSampling": 100,
  "PhaseEncodingDirection": "j-",
  "PhaseEncodingSteps": 82,
  "PhaseResolution": 1,
  "PixelBandwidth": 3050,
  "ProcedureStepDescription": "Wager_Wager^1076_spacetop",
  "ProtocolName": "func_run-01_task-alignvideo_acq-ap-mb8",
  "PulseSequenceDetails": "%CustomerSeq%\\cmrr_mbep2d_bold",
  "ReceiveCoilActiveElements": "HEA;HEP",
  "ReceiveCoilName": "Head_32",
  "ReconMatrixPE": 82,
  "RepetitionTime": 0.46,
  "SAR": 0.0843322,
  "ScanOptions": "FS",
  "ScanningSequence": "EP",
  "SequenceName": "epfid2d1_82",
  "SequenceVariant": "SK\\SS",
  "SeriesDescription": "func_run-01_task-alignvideo_acq-ap-mb8",
  "SeriesNumber": 31,
  "ShimSetting": [4245, -7816, -7246, 326, -164, -43, 116, 101],
  "SliceThickness": 2.7,
  "SliceTiming": [0, 0.2525, 0.0625, 0.315, 0.1275, 0.3775, 0.19, 0, 0.2525, 0.0625, 0.315, 0.1275, 0.3775, 0.19, 0, 0.2525, 0.0625, 0.315, 0.1275, 0.3775, 0.19, 0, 0.2525, 0.0625, 0.315, 0.1275, 0.3775, 0.19, 0, 0.2525, 0.0625, 0.315, 0.1275, 0.3775, 0.19, 0, 0.2525, 0.0625, 0.315, 0.1275, 0.3775, 0.19, 0, 0.2525, 0.0625, 0.315, 0.1275, 0.3775, 0.19, 0, 0.2525, 0.0625, 0.315, 0.1275, 0.3775, 0.19],
  "SoftwareVersions": "syngo MR E11",
  "SpacingBetweenSlices": 2.7,
  "StationName": "AWP66112",
  "TaskName": "alignvideo",
  "TotalReadoutTime": 0.03969,
  "TxRefAmp": 219.13,
  "WipMemBlock": "10cc4364-956b-41c2-af6a-b87e6391c98c||Sequence: R016 ve11e/master r/434b28f1; Aug  7 2019 18:53:46 by eja",
  "dcmmeta_affine": [
    [-2.669417381286621, -0.031216884031891823, 0.26878219842910767, 103.94681549072266],
    [0.014978926628828049, 2.6433866024017334, 0.4615907669067383, -99.42106628417969],
    [0.2684832215309143, -0.4578535258769989, 2.646637439727783, -57.32545471191406],
    [0.0, 0.0, 0.0, 1.0]
],
  "dcmmeta_reorient_transform": [
    [0.0, -1.0, 0.0, 81.0],
    [1.0, 0.0, 0.0, 0.0],
    [0.0, 0.0, 1.0, 0.0],
    [0.0, 0.0, 0.0, 1.0]
],
  "dcmmeta_shape": [82, 82, 56, 1073],
  "dcmmeta_slice_dim": 2,
  "dcmmeta_version": 0.6,
  "global": {
    "const": {
      "AccessionNumber": "A004774",
      "AcquisitionMatrix": [82, 0, 0, 82],
      "AngioFlag": "N",
      "BitsAllocated": 16,
      "BitsStored": 16,
      "BodyPartExamined": "BRAIN",
      "Columns": 656,
      "EchoNumbers": 1,
      "EchoTime": 27.2,
      "EchoTrainLength": 82,
      "FlipAngle": 44.0,
      "HighBit": 15,
      "ImageOrientationPatient": [0.99496463318167, -0.0055830543659, 0.10007101589183, -0.0116353841101, 0.98526223034375, 0.17065449098888],
      "ImagePositionPatient": [-858.58178827929, -869.04622467753, -302.87023426681],
      "ImageType": [
        "ORIGINAL",
        "PRIMARY",
        "M",
        "MB",
        "ND",
        "NORM",
        "MOSAIC"
],
      "ImagedNucleus": "1H",
      "ImagingFrequency": 123.259078,
      "InPlanePhaseEncodingDirection": "COL",
      "MRAcquisitionType": "2D",
      "MagneticFieldStrength": 3.0,
      "Manufacturer": "SIEMENS",
      "ManufacturerModelName": "Prisma",
      "Modality": "MR",
      "NumberOfAverages": 1.0,
      "NumberOfPhaseEncodingSteps": 82,
      "PercentPhaseFieldOfView": 100.0,
      "PercentSampling": 100.0,
      "PerformedProcedureStepStartTime": "190842.696000",
      "PhotometricInterpretation": "MONOCHROME2",
      "PixelBandwidth": 3050.0,
      "PixelRepresentation": 0,
      "PixelSpacing": [2.6829268932343, 2.6829268932343],
      "ProtocolName": "func_run-01_task-alignvideo_acq-ap-mb8",
      "RepetitionTime": 460.0,
      "Rows": 656,
      "SAR": 0.08433223415574,
      "SamplesPerPixel": 1,
      "ScanOptions": "FS",
      "ScanningSequence": "EP",
      "SequenceName": "epfid2d1_82",
      "SequenceVariant": [
        "SK",
        "SS"
],
      "SeriesDescription": "func_run-01_task-alignvideo_acq-ap-mb8",
      "SeriesNumber": 31,
      "SeriesTime": "204519.744000",
      "SliceLocation": -62.841662617649,
      "SliceThickness": 2.7000000476837,
      "SmallestImagePixelValue": 0,
      "SoftwareVersions": "syngo MR E11",
      "SpacingBetweenSlices": 2.7000000108477,
      "SpecificCharacterSet": "ISO_IR 100",
      "StudyID": "1",
      "StudyTime": "190842.597000",
      "TransmitCoilName": "Body",
      "VariableFlipAngleFlag": "N",
      "WindowCenterWidthExplanation": "Algo1"
    },
    "slices": {}
  },
  "time": {
    "samples": {
      "AcquisitionNumber": [1, 2, 3, 4, 5, 6, 7, 8, 9, 10, 11, 12, 13, 14, 15, 16, 17, 18, 19, 20, 21, 22, 23, 24, 25, 26, 27, 28, 29, 30, 31, 32, 33, 34, 35, 36, 37, 38, 39, 40, 41, 42, 43, 44, 45, 46, 47, 48, 49, 50, 51, 52, 53, 54, 55, 56, 57, 58, 59, 60, 61, 62, 63, 64, 65, 66, 67, 68, 69, 70, 71, 72, 73, 74, 75, 76, 77, 78, 79, 80, 81, 82, 83, 84, 85, 86, 87, 88, 89, 90, 91, 92, 93, 94, 95, 96, 97, 98, 99, 100, 101, 102, 103, 104, 105, 106, 107, 108, 109, 110, 111, 112, 113, 114, 115, 116, 117, 118, 119, 120, 121, 122, 123, 124, 125, 126, 127, 128, 129, 130, 131, 132, 133, 134, 135, 136, 137, 138, 139, 140, 141, 142, 143, 144, 145, 146, 147, 148, 149, 150, 151, 152, 153, 154, 155, 156, 157, 158, 159, 160, 161, 162, 163, 164, 165, 166, 167, 168, 169, 170, 171, 172, 173, 174, 175, 176, 177, 178, 179, 180, 181, 182, 183, 184, 185, 186, 187, 188, 189, 190, 191, 192, 193, 194, 195, 196, 197, 198, 199, 200, 201, 202, 203, 204, 205, 206, 207, 208, 209, 210, 211, 212, 213, 214, 215, 216, 217, 218, 219, 220, 221, 222, 223, 224, 225, 226, 227, 228, 229, 230, 231, 232, 233, 234, 235, 236, 237, 238, 239, 240, 241, 242, 243, 244, 245, 246, 247, 248, 249, 250, 251, 252, 253, 254, 255, 256, 257, 258, 259, 260, 261, 262, 263, 264, 265, 266, 267, 268, 269, 270, 271, 272, 273, 274, 275, 276, 277, 278, 279, 280, 281, 282, 283, 284, 285, 286, 287, 288, 289, 290, 291, 292, 293, 294, 295, 296, 297, 298, 299, 300, 301, 302, 303, 304, 305, 306, 307, 308, 309, 310, 311, 312, 313, 314, 315, 316, 317, 318, 319, 320, 321, 322, 323, 324, 325, 326, 327, 328, 329, 330, 331, 332, 333, 334, 335, 336, 337, 338, 339, 340, 341, 342, 343, 344, 345, 346, 347, 348, 349, 350, 351, 352, 353, 354, 355, 356, 357, 358, 359, 360, 361, 362, 363, 364, 365, 366, 367, 368, 369, 370, 371, 372, 373, 374, 375, 376, 377, 378, 379, 380, 381, 382, 383, 384, 385, 386, 387, 388, 389, 390, 391, 392, 393, 394, 395, 396, 397, 398, 399, 400, 401, 402, 403, 404, 405, 406, 407, 408, 409, 410, 411, 412, 413, 414, 415, 416, 417, 418, 419, 420, 421, 422, 423, 424, 425, 426, 427, 428, 429, 430, 431, 432, 433, 434, 435, 436, 437, 438, 439, 440, 441, 442, 443, 444, 445, 446, 447, 448, 449, 450, 451, 452, 453, 454, 455, 456, 457, 458, 459, 460, 461, 462, 463, 464, 465, 466, 467, 468, 469, 470, 471, 472, 473, 474, 475, 476, 477, 478, 479, 480, 481, 482, 483, 484, 485, 486, 487, 488, 489, 490, 491, 492, 493, 494, 495, 496, 497, 498, 499, 500, 501, 502, 503, 504, 505, 506, 507, 508, 509, 510, 511, 512, 513, 514, 515, 516, 517, 518, 519, 520, 521, 522, 523, 524, 525, 526, 527, 528, 529, 530, 531, 532, 533, 534, 535, 536, 537, 538, 539, 540, 541, 542, 543, 544, 545, 546, 547, 548, 549, 550, 551, 552, 553, 554, 555, 556, 557, 558, 559, 560, 561, 562, 563, 564, 565, 566, 567, 568, 569, 570, 571, 572, 573, 574, 575, 576, 577, 578, 579, 580, 581, 582, 583, 584, 585, 586, 587, 588, 589, 590, 591, 592, 593, 594, 595, 596, 597, 598, 599, 600, 601, 602, 603, 604, 605, 606, 607, 608, 609, 610, 611, 612, 613, 614, 615, 616, 617, 618, 619, 620, 621, 622, 623, 624, 625, 626, 627, 628, 629, 630, 631, 632, 633, 634, 635, 636, 637, 638, 639, 640, 641, 642, 643, 644, 645, 646, 647, 648, 649, 650, 651, 652, 653, 654, 655, 656, 657, 658, 659, 660, 661, 662, 663, 664, 665, 666, 667, 668, 669, 670, 671, 672, 673, 674, 675, 676, 677, 678, 679, 680, 681, 682, 683, 684, 685, 686, 687, 688, 689, 690, 691, 692, 693, 694, 695, 696, 697, 698, 699, 700, 701, 702, 703, 704, 705, 706, 707, 708, 709, 710, 711, 712, 713, 714, 715, 716, 717, 718, 719, 720, 721, 722, 723, 724, 725, 726, 727, 728, 729, 730, 731, 732, 733, 734, 735, 736, 737, 738, 739, 740, 741, 742, 743, 744, 745, 746, 747, 748, 749, 750, 751, 752, 753, 754, 755, 756, 757, 758, 759, 760, 761, 762, 763, 764, 765, 766, 767, 768, 769, 770, 771, 772, 773, 774, 775, 776, 777, 778, 779, 780, 781, 782, 783, 784, 785, 786, 787, 788, 789, 790, 791, 792, 793, 794, 795, 796, 797, 798, 799, 800, 801, 802, 803, 804, 805, 806, 807, 808, 809, 810, 811, 812, 813, 814, 815, 816, 817, 818, 819, 820, 821, 822, 823, 824, 825, 826, 827, 828, 829, 830, 831, 832, 833, 834, 835, 836, 837, 838, 839, 840, 841, 842, 843, 844, 845, 846, 847, 848, 849, 850, 851, 852, 853, 854, 855, 856, 857, 858, 859, 860, 861, 862, 863, 864, 865, 866, 867, 868, 869, 870, 871, 872, 873, 874, 875, 876, 877, 878, 879, 880, 881, 882, 883, 884, 885, 886, 887, 888, 889, 890, 891, 892, 893, 894, 895, 896, 897, 898, 899, 900, 901, 902, 903, 904, 905, 906, 907, 908, 909, 910, 911, 912, 913, 914, 915, 916, 917, 918, 919, 920, 921, 922, 923, 924, 925, 926, 927, 928, 929, 930, 931, 932, 933, 934, 935, 936, 937, 938, 939, 940, 941, 942, 943, 944, 945, 946, 947, 948, 949, 950, 951, 952, 953, 954, 955, 956, 957, 958, 959, 960, 961, 962, 963, 964, 965, 966, 967, 968, 969, 970, 971, 972, 973, 974, 975, 976, 977, 978, 979, 980, 981, 982, 983, 984, 985, 986, 987, 988, 989, 990, 991, 992, 993, 994, 995, 996, 997, 998, 999, 1000, 1001, 1002, 1003, 1004, 1005, 1006, 1007, 1008, 1009, 1010, 1011, 1012, 1013, 1014, 1015, 1016, 1017, 1018, 1019, 1020, 1021, 1022, 1023, 1024, 1025, 1026, 1027, 1028, 1029, 1030, 1031, 1032, 1033, 1034, 1035, 1036, 1037, 1038, 1039, 1040, 1041, 1042, 1043, 1044, 1045, 1046, 1047, 1048, 1049, 1050, 1051, 1052, 1053, 1054, 1055, 1056, 1057, 1058, 1059, 1060, 1061, 1062, 1063, 1064, 1065, 1066, 1067, 1068, 1069, 1070, 1071, 1072, 1073],
      "AcquisitionTime": ["204501.142500", "204501.602500", "204502.062500", "204502.522500", "204502.982500", "204503.442500", "204503.902500", "204504.362500", "204504.822500", "204505.282500", "204505.742500", "204506.202500", "204506.662500", "204507.122500", "204507.582500", "204508.042500", "204508.502500", "204508.962500", "204509.422500", "204509.882500", "204510.342500", "204510.802500", "204511.262500", "204511.722500", "204512.182500", "204512.642500", "204513.102500", "204513.562500", "204514.022500", "204514.482500", "204514.942500", "204515.402500", "204515.862500", "204516.322500", "204516.782500", "204517.242500", "204517.702500", "204518.162500", "204518.622500", "204519.082500", "204519.542500", "204520.002500", "204520.462500", "204520.922500", "204521.382500", "204521.842500", "204522.302500", "204522.762500", "204523.222500", "204523.682500", "204524.142500", "204524.602500", "204525.062500", "204525.522500", "204525.982500", "204526.442500", "204526.902500", "204527.362500", "204527.822500", "204528.282500", "204528.742500", "204529.202500", "204529.662500", "204530.122500", "204530.582500", "204531.042500", "204531.502500", "204531.962500", "204532.422500", "204532.882500", "204533.342500", "204533.802500", "204534.262500", "204534.722500", "204535.182500", "204535.642500", "204536.102500", "204536.562500", "204537.022500", "204537.482500", "204537.942500", "204538.402500", "204538.862500", "204539.322500", "204539.782500", "204540.242500", "204540.702500", "204541.162500", "204541.622500", "204542.082500", "204542.542500", "204543.002500", "204543.462500", "204543.922500", "204544.382500", "204544.842500", "204545.302500", "204545.762500", "204546.222500", "204546.682500", "204547.142500", "204547.602500", "204548.062500", "204548.522500", "204548.982500", "204549.442500", "204549.902500", "204550.362500", "204550.822500", "204551.282500", "204551.742500", "204552.202500", "204552.662500", "204553.122500", "204553.582500", "204554.042500", "204554.502500", "204554.962500", "204555.422500", "204555.882500", "204556.342500", "204556.802500", "204557.262500", "204557.722500", "204558.182500", "204558.642500", "204559.102500", "204559.562500", "204600.022500", "204600.482500", "204600.942500", "204601.402500", "204601.862500", "204602.322500", "204602.782500", "204603.242500", "204603.702500", "204604.162500", "204604.622500", "204605.082500", "204605.542500", "204606.002500", "204606.462500", "204606.922500", "204607.382500", "204607.842500", "204608.302500", "204608.762500", "204609.222500", "204609.682500", "204610.142500", "204610.602500", "204611.062500", "204611.522500", "204611.982500", "204612.442500", "204612.902500", "204613.362500", "204613.822500", "204614.282500", "204614.742500", "204615.202500", "204615.662500", "204616.122500", "204616.582500", "204617.042500", "204617.502500", "204617.962500", "204618.422500", "204618.882500", "204619.342500", "204619.802500", "204620.262500", "204620.722500", "204621.182500", "204621.642500", "204622.102500", "204622.562500", "204623.022500", "204623.482500", "204623.942500", "204624.402500", "204624.862500", "204625.322500", "204625.782500", "204626.242500", "204626.702500", "204627.162500", "204627.622500", "204628.082500", "204628.542500", "204629.002500", "204629.462500", "204629.922500", "204630.382500", "204630.842500", "204631.302500", "204631.762500", "204632.222500", "204632.682500", "204633.142500", "204633.602500", "204634.062500", "204634.522500", "204634.982500", "204635.442500", "204635.902500", "204636.362500", "204636.822500", "204637.282500", "204637.742500", "204638.202500", "204638.662500", "204639.122500", "204639.582500", "204640.042500", "204640.502500", "204640.962500", "204641.422500", "204641.882500", "204642.342500", "204642.802500", "204643.262500", "204643.722500", "204644.182500", "204644.642500", "204645.102500", "204645.562500", "204646.022500", "204646.482500", "204646.942500", "204647.402500", "204647.862500", "204648.322500", "204648.782500", "204649.242500", "204649.702500", "204650.162500", "204650.622500", "204651.082500", "204651.542500", "204652.002500", "204652.462500", "204652.922500", "204653.382500", "204653.842500", "204654.302500", "204654.762500", "204655.222500", "204655.682500", "204656.142500", "204656.602500", "204657.062500", "204657.522500", "204657.982500", "204658.442500", "204658.902500", "204659.362500", "204659.822500", "204700.282500", "204700.742500", "204701.202500", "204701.662500", "204702.122500", "204702.582500", "204703.042500", "204703.502500", "204703.962500", "204704.422500", "204704.882500", "204705.342500", "204705.802500", "204706.262500", "204706.722500", "204707.182500", "204707.642500", "204708.102500", "204708.562500", "204709.022500", "204709.482500", "204709.942500", "204710.402500", "204710.862500", "204711.322500", "204711.782500", "204712.242500", "204712.702500", "204713.162500", "204713.622500", "204714.082500", "204714.542500", "204715.002500", "204715.462500", "204715.922500", "204716.382500", "204716.842500", "204717.302500", "204717.762500", "204718.222500", "204718.682500", "204719.142500", "204719.602500", "204720.062500", "204720.522500", "204720.982500", "204721.442500", "204721.902500", "204722.362500", "204722.822500", "204723.282500", "204723.742500", "204724.202500", "204724.662500", "204725.122500", "204725.582500", "204726.042500", "204726.502500", "204726.962500", "204727.422500", "204727.882500", "204728.342500", "204728.802500", "204729.262500", "204729.722500", "204730.182500", "204730.642500", "204731.102500", "204731.562500", "204732.022500", "204732.482500", "204732.942500", "204733.402500", "204733.862500", "204734.322500", "204734.782500", "204735.242500", "204735.702500", "204736.162500", "204736.622500", "204737.082500", "204737.542500", "204738.002500", "204738.462500", "204738.922500", "204739.382500", "204739.842500", "204740.302500", "204740.762500", "204741.222500", "204741.682500", "204742.142500", "204742.602500", "204743.062500", "204743.522500", "204743.982500", "204744.442500", "204744.902500", "204745.362500", "204745.822500", "204746.282500", "204746.742500", "204747.202500", "204747.662500", "204748.122500", "204748.582500", "204749.042500", "204749.502500", "204749.962500", "204750.422500", "204750.882500", "204751.342500", "204751.802500", "204752.262500", "204752.722500", "204753.182500", "204753.642500", "204754.102500", "204754.562500", "204755.022500", "204755.482500", "204755.942500", "204756.402500", "204756.862500", "204757.322500", "204757.782500", "204758.242500", "204758.702500", "204759.162500", "204759.622500", "204800.082500", "204800.542500", "204801.002500", "204801.462500", "204801.922500", "204802.382500", "204802.842500", "204803.302500", "204803.762500", "204804.222500", "204804.682500", "204805.142500", "204805.602500", "204806.062500", "204806.522500", "204806.982500", "204807.442500", "204807.902500", "204808.362500", "204808.822500", "204809.282500", "204809.742500", "204810.202500", "204810.662500", "204811.122500", "204811.582500", "204812.042500", "204812.502500", "204812.962500", "204813.422500", "204813.882500", "204814.342500", "204814.802500", "204815.262500", "204815.722500", "204816.182500", "204816.642500", "204817.102500", "204817.562500", "204818.022500", "204818.482500", "204818.942500", "204819.402500", "204819.862500", "204820.322500", "204820.782500", "204821.242500", "204821.702500", "204822.162500", "204822.622500", "204823.082500", "204823.542500", "204824.002500", "204824.462500", "204824.922500", "204825.382500", "204825.842500", "204826.302500", "204826.762500", "204827.222500", "204827.682500", "204828.142500", "204828.602500", "204829.062500", "204829.522500", "204829.982500", "204830.442500", "204830.902500", "204831.362500", "204831.822500", "204832.282500", "204832.742500", "204833.202500", "204833.662500", "204834.122500", "204834.582500", "204835.042500", "204835.502500", "204835.962500", "204836.422500", "204836.882500", "204837.342500", "204837.802500", "204838.262500", "204838.722500", "204839.182500", "204839.642500", "204840.102500", "204840.562500", "204841.022500", "204841.482500", "204841.942500", "204842.402500", "204842.862500", "204843.322500", "204843.782500", "204844.242500", "204844.702500", "204845.162500", "204845.622500", "204846.082500", "204846.542500", "204847.002500", "204847.462500", "204847.922500", "204848.382500", "204848.842500", "204849.302500", "204849.762500", "204850.222500", "204850.682500", "204851.142500", "204851.602500", "204852.062500", "204852.522500", "204852.982500", "204853.442500", "204853.902500", "204854.362500", "204854.822500", "204855.282500", "204855.742500", "204856.202500", "204856.662500", "204857.122500", "204857.582500", "204858.042500", "204858.502500", "204858.962500", "204859.422500", "204859.882500", "204900.342500", "204900.802500", "204901.262500", "204901.722500", "204902.182500", "204902.642500", "204903.102500", "204903.562500", "204904.022500", "204904.482500", "204904.942500", "204905.402500", "204905.862500", "204906.322500", "204906.782500", "204907.242500", "204907.702500", "204908.162500", "204908.622500", "204909.082500", "204909.542500", "204910.002500", "204910.462500", "204910.922500", "204911.382500", "204911.842500", "204912.302500", "204912.762500", "204913.222500", "204913.682500", "204914.142500", "204914.602500", "204915.062500", "204915.522500", "204915.982500", "204916.442500", "204916.902500", "204917.362500", "204917.822500", "204918.282500", "204918.742500", "204919.202500", "204919.662500", "204920.122500", "204920.582500", "204921.042500", "204921.502500", "204921.962500", "204922.422500", "204922.882500", "204923.342500", "204923.802500", "204924.262500", "204924.722500", "204925.182500", "204925.642500", "204926.102500", "204926.562500", "204927.022500", "204927.482500", "204927.942500", "204928.402500", "204928.862500", "204929.322500", "204929.782500", "204930.242500", "204930.702500", "204931.162500", "204931.622500", "204932.082500", "204932.542500", "204933.002500", "204933.462500", "204933.922500", "204934.382500", "204934.842500", "204935.302500", "204935.762500", "204936.222500", "204936.682500", "204937.142500", "204937.602500", "204938.062500", "204938.522500", "204938.982500", "204939.442500", "204939.902500", "204940.362500", "204940.822500", "204941.282500", "204941.742500", "204942.202500", "204942.662500", "204943.122500", "204943.582500", "204944.042500", "204944.502500", "204944.962500", "204945.422500", "204945.882500", "204946.342500", "204946.802500", "204947.262500", "204947.722500", "204948.182500", "204948.642500", "204949.102500", "204949.562500", "204950.022500", "204950.482500", "204950.942500", "204951.402500", "204951.862500", "204952.322500", "204952.782500", "204953.242500", "204953.702500", "204954.162500", "204954.622500", "204955.082500", "204955.542500", "204956.002500", "204956.462500", "204956.922500", "204957.382500", "204957.842500", "204958.302500", "204958.762500", "204959.222500", "204959.682500", "205000.142500", "205000.602500", "205001.062500", "205001.522500", "205001.982500", "205002.442500", "205002.902500", "205003.362500", "205003.822500", "205004.282500", "205004.742500", "205005.202500", "205005.662500", "205006.122500", "205006.582500", "205007.042500", "205007.502500", "205007.962500", "205008.422500", "205008.882500", "205009.342500", "205009.802500", "205010.262500", "205010.722500", "205011.182500", "205011.642500", "205012.102500", "205012.562500", "205013.022500", "205013.482500", "205013.942500", "205014.402500", "205014.862500", "205015.322500", "205015.782500", "205016.242500", "205016.702500", "205017.162500", "205017.622500", "205018.082500", "205018.542500", "205019.002500", "205019.462500", "205019.922500", "205020.382500", "205020.842500", "205021.302500", "205021.762500", "205022.222500", "205022.682500", "205023.142500", "205023.602500", "205024.062500", "205024.522500", "205024.982500", "205025.442500", "205025.902500", "205026.362500", "205026.822500", "205027.282500", "205027.742500", "205028.202500", "205028.662500", "205029.122500", "205029.582500", "205030.042500", "205030.502500", "205030.962500", "205031.422500", "205031.882500", "205032.342500", "205032.802500", "205033.262500", "205033.722500", "205034.182500", "205034.642500", "205035.102500", "205035.562500", "205036.022500", "205036.482500", "205036.942500", "205037.402500", "205037.862500", "205038.322500", "205038.782500", "205039.242500", "205039.702500", "205040.162500", "205040.622500", "205041.082500", "205041.542500", "205042.002500", "205042.462500", "205042.922500", "205043.382500", "205043.842500", "205044.302500", "205044.762500", "205045.222500", "205045.682500", "205046.142500", "205046.602500", "205047.062500", "205047.522500", "205047.982500", "205048.442500", "205048.902500", "205049.362500", "205049.822500", "205050.282500", "205050.742500", "205051.202500", "205051.662500", "205052.122500", "205052.582500", "205053.042500", "205053.502500", "205053.962500", "205054.422500", "205054.882500", "205055.342500", "205055.802500", "205056.262500", "205056.722500", "205057.182500", "205057.642500", "205058.102500", "205058.562500", "205059.022500", "205059.482500", "205059.942500", "205100.402500", "205100.862500", "205101.322500", "205101.782500", "205102.242500", "205102.702500", "205103.162500", "205103.622500", "205104.082500", "205104.542500", "205105.002500", "205105.462500", "205105.922500", "205106.382500", "205106.842500", "205107.302500", "205107.762500", "205108.222500", "205108.682500", "205109.142500", "205109.602500", "205110.062500", "205110.522500", "205110.982500", "205111.442500", "205111.902500", "205112.362500", "205112.822500", "205113.282500", "205113.742500", "205114.202500", "205114.662500", "205115.122500", "205115.582500", "205116.042500", "205116.502500", "205116.962500", "205117.422500", "205117.882500", "205118.342500", "205118.802500", "205119.262500", "205119.722500", "205120.182500", "205120.642500", "205121.102500", "205121.562500", "205122.022500", "205122.482500", "205122.942500", "205123.402500", "205123.862500", "205124.322500", "205124.782500", "205125.242500", "205125.702500", "205126.162500", "205126.622500", "205127.082500", "205127.542500", "205128.002500", "205128.462500", "205128.922500", "205129.382500", "205129.842500", "205130.302500", "205130.762500", "205131.222500", "205131.682500", "205132.142500", "205132.602500", "205133.062500", "205133.522500", "205133.982500", "205134.442500", "205134.902500", "205135.362500", "205135.822500", "205136.282500", "205136.742500", "205137.202500", "205137.662500", "205138.122500", "205138.582500", "205139.042500", "205139.502500", "205139.962500", "205140.422500", "205140.882500", "205141.342500", "205141.802500", "205142.262500", "205142.722500", "205143.182500", "205143.642500", "205144.102500", "205144.562500", "205145.022500", "205145.482500", "205145.942500", "205146.402500", "205146.862500", "205147.322500", "205147.782500", "205148.242500", "205148.702500", "205149.162500", "205149.622500", "205150.082500", "205150.542500", "205151.002500", "205151.462500", "205151.922500", "205152.382500", "205152.842500", "205153.302500", "205153.762500", "205154.222500", "205154.682500", "205155.142500", "205155.602500", "205156.062500", "205156.522500", "205156.982500", "205157.442500", "205157.902500", "205158.362500", "205158.822500", "205159.282500", "205159.742500", "205200.202500", "205200.662500", "205201.122500", "205201.582500", "205202.042500", "205202.502500", "205202.962500", "205203.422500", "205203.882500", "205204.342500", "205204.802500", "205205.262500", "205205.722500", "205206.182500", "205206.642500", "205207.102500", "205207.562500", "205208.022500", "205208.482500", "205208.942500", "205209.402500", "205209.862500", "205210.322500", "205210.782500", "205211.242500", "205211.702500", "205212.162500", "205212.622500", "205213.082500", "205213.542500", "205214.002500", "205214.462500", "205214.922500", "205215.382500", "205215.842500", "205216.302500", "205216.762500", "205217.222500", "205217.682500", "205218.142500", "205218.602500", "205219.062500", "205219.522500", "205219.982500", "205220.442500", "205220.902500", "205221.362500", "205221.822500", "205222.282500", "205222.742500", "205223.202500", "205223.662500", "205224.122500", "205224.582500", "205225.042500", "205225.502500", "205225.962500", "205226.422500", "205226.882500", "205227.342500", "205227.802500", "205228.262500", "205228.722500", "205229.182500", "205229.642500", "205230.102500", "205230.562500", "205231.022500", "205231.482500", "205231.942500", "205232.402500", "205232.862500", "205233.322500", "205233.782500", "205234.242500", "205234.702500", "205235.162500", "205235.622500", "205236.082500", "205236.542500", "205237.002500", "205237.462500", "205237.922500", "205238.382500", "205238.842500", "205239.302500", "205239.762500", "205240.222500", "205240.682500", "205241.142500", "205241.602500", "205242.062500", "205242.522500", "205242.982500", "205243.442500", "205243.902500", "205244.362500", "205244.822500", "205245.282500", "205245.742500", "205246.202500", "205246.662500", "205247.122500", "205247.582500", "205248.042500", "205248.502500", "205248.962500", "205249.422500", "205249.882500", "205250.342500", "205250.802500", "205251.262500", "205251.722500", "205252.182500", "205252.642500", "205253.102500", "205253.562500", "205254.022500", "205254.482500", "205254.942500", "205255.402500", "205255.862500", "205256.322500", "205256.782500", "205257.242500", "205257.702500", "205258.162500", "205258.622500", "205259.082500", "205259.542500", "205300.002500", "205300.462500", "205300.922500", "205301.382500", "205301.842500", "205302.302500", "205302.762500", "205303.222500", "205303.682500", "205304.142500", "205304.602500", "205305.062500", "205305.522500", "205305.982500", "205306.442500", "205306.902500", "205307.362500", "205307.822500", "205308.282500", "205308.742500", "205309.202500", "205309.662500", "205310.122500", "205310.582500", "205311.042500", "205311.502500", "205311.962500", "205312.422500", "205312.882500", "205313.342500", "205313.802500", "205314.262500"],
