{
  "AcquisitionMatrixPE": 82,
  "AcquisitionNumber": 1,
  "AcquisitionTime": "20:18:8.582500",
  "BandwidthPerPixelPhaseEncode": 24.888,
  "BaseResolution": 82,
  "BodyPartExamined": "BRAIN",
  "ConsistencyInfo": "N4_VE11E_LATEST_20181129",
  "ConversionSoftware": "dcm2niix",
  "ConversionSoftwareVersion": "v1.0.20201102",
  "DerivedVendorReportedEchoSpacing": 0.00049,
  "DeviceSerialNumber": "66112",
  "DwellTime": 2e-06,
  "EchoTime": 0.0272,
  "EchoTrainLength": 82,
  "EffectiveEchoSpacing": 0.00049,
  "FlipAngle": 44,
  "ImageComments": "Unaliased MB8/PE3",
  "ImageOrientationPatientDICOM": [0.998662, -0.027073, 0.0440709, 0.0179548, 0.980541, 0.195492],
  "ImageType": [
    "ORIGINAL",
    "PRIMARY",
    "M",
    "MB",
    "ND",
    "NORM",
    "MOSAIC"
],
  "ImagingFrequency": 123.259,
  "InPlanePhaseEncodingDirectionDICOM": "COL",
  "InstitutionAddress": "Maynard 3,Hanover,NH,US,03755",
  "InstitutionName": "Dartmouth College - PBS",
  "InstitutionalDepartmentName": "Department",
  "MRAcquisitionType": "2D",
  "MagneticFieldStrength": 3,
  "Manufacturer": "Siemens",
  "ManufacturersModelName": "Prisma",
  "Modality": "MR",
  "MultibandAccelerationFactor": 8,
  "PartialFourier": 1,
  "PatientPosition": "HFS",
  "PercentPhaseFOV": 100,
  "PercentSampling": 100,
  "PhaseEncodingDirection": "j-",
  "PhaseEncodingSteps": 82,
  "PhaseResolution": 1,
  "PixelBandwidth": 3050,
  "ProcedureStepDescription": "Wager_Wager^1076_spacetop",
  "ProtocolName": "func_run-05_task-social_acq-ap-mb8",
  "PulseSequenceDetails": "%CustomerSeq%\\cmrr_mbep2d_bold",
  "ReceiveCoilActiveElements": "HEA;HEP",
  "ReceiveCoilName": "Head_32",
  "ReconMatrixPE": 82,
  "RepetitionTime": 0.46,
  "SAR": 0.084234,
  "ScanOptions": "FS",
  "ScanningSequence": "EP",
  "SequenceName": "epfid2d1_82",
  "SequenceVariant": "SK\\SS",
  "SeriesDescription": "func_run-05_task-social_acq-ap-mb8",
  "SeriesNumber": 20,
  "ShimSetting": [4245, -7815, -7248, 321, -167, -33, 118, 99],
  "SliceThickness": 2.7,
  "SliceTiming": [0, 0.2525, 0.065, 0.315, 0.1275, 0.3775, 0.19, 0, 0.2525, 0.065, 0.315, 0.1275, 0.3775, 0.19, 0, 0.2525, 0.065, 0.315, 0.1275, 0.3775, 0.19, 0, 0.2525, 0.065, 0.315, 0.1275, 0.3775, 0.19, 0, 0.2525, 0.065, 0.315, 0.1275, 0.3775, 0.19, 0, 0.2525, 0.065, 0.315, 0.1275, 0.3775, 0.19, 0, 0.2525, 0.065, 0.315, 0.1275, 0.3775, 0.19, 0, 0.2525, 0.065, 0.315, 0.1275, 0.3775, 0.19],
  "SoftwareVersions": "syngo MR E11",
  "SpacingBetweenSlices": 2.7,
  "StationName": "AWP66112",
  "TaskName": "social",
  "TotalReadoutTime": 0.03969,
  "TxRefAmp": 219.13,
  "WipMemBlock": "8390114d-00e0-4f67-a030-2cff875f8a8b||Sequence: R016 ve11e/master r/434b28f1; Aug  7 2019 18:53:46 by eja",
  "dcmmeta_affine": [
    [-2.679335832595825, 0.04817129671573639, 0.13096588850021362, 104.93226623535156],
    [0.0726349875330925, 2.6307196617126465, 0.5249849557876587, -101.50318908691406],
    [0.11823901534080505, -0.524490237236023, 2.6452295780181885, -46.44853973388672],
    [0.0, 0.0, 0.0, 1.0]
],
  "dcmmeta_reorient_transform": [
    [0.0, -1.0, 0.0, 81.0],
    [1.0, 0.0, 0.0, 0.0],
    [0.0, 0.0, 1.0, 0.0],
    [0.0, 0.0, 0.0, 1.0]
],
  "dcmmeta_shape": [82, 82, 56, 872],
  "dcmmeta_slice_dim": 2,
  "dcmmeta_version": 0.6,
  "global": {
    "const": {
      "AccessionNumber": "A004774",
      "AcquisitionMatrix": [82, 0, 0, 82],
      "AngioFlag": "N",
      "BitsAllocated": 16,
      "BitsStored": 16,
      "BodyPartExamined": "BRAIN",
      "Columns": 656,
      "EchoNumbers": 1,
      "EchoTime": 27.2,
      "EchoTrainLength": 82,
      "FlipAngle": 44.0,
      "HighBit": 15,
      "ImageOrientationPatient": [0.9986615070881, -0.0270730401652, 0.04407090601225, 0.01795475595182, 0.98054096226381, 0.1954918107274],
      "ImagePositionPatient": [-891.62867950717, -845.7554266671, -273.39554472562],
      "ImageType": [
        "ORIGINAL",
        "PRIMARY",
        "M",
        "MB",
        "ND",
        "NORM",
        "MOSAIC"
],
      "ImagedNucleus": "1H",
      "ImagingFrequency": 123.259088,
      "InPlanePhaseEncodingDirection": "COL",
      "MRAcquisitionType": "2D",
      "MagneticFieldStrength": 3.0,
      "Manufacturer": "SIEMENS",
      "ManufacturerModelName": "Prisma",
      "Modality": "MR",
      "NumberOfAverages": 1.0,
      "NumberOfPhaseEncodingSteps": 82,
      "PercentPhaseFieldOfView": 100.0,
      "PercentSampling": 100.0,
      "PerformedProcedureStepStartTime": "190842.696000",
      "PhotometricInterpretation": "MONOCHROME2",
      "PixelBandwidth": 3050.0,
      "PixelRepresentation": 0,
      "PixelSpacing": [2.6829268932343, 2.6829268932343],
      "ProtocolName": "func_run-05_task-social_acq-ap-mb8",
      "RepetitionTime": 460.0,
      "Rows": 656,
      "SAR": 0.08423399731619,
      "SamplesPerPixel": 1,
      "ScanOptions": "FS",
      "ScanningSequence": "EP",
      "SequenceName": "epfid2d1_82",
      "SequenceVariant": [
        "SK",
        "SS"
],
      "SeriesDescription": "func_run-05_task-social_acq-ap-mb8",
      "SeriesNumber": 20,
      "SeriesTime": "201819.721000",
      "SliceLocation": -60.152644458748,
      "SliceThickness": 2.7000000476837,
      "SmallestImagePixelValue": 0,
      "SoftwareVersions": "syngo MR E11",
      "SpacingBetweenSlices": 2.7000000374783,
      "SpecificCharacterSet": "ISO_IR 100",
      "StudyID": "1",
      "StudyTime": "190842.597000",
      "TransmitCoilName": "Body",
      "VariableFlipAngleFlag": "N",
      "WindowCenterWidthExplanation": "Algo1"
    },
    "slices": {}
  },
  "time": {
    "samples": {
      "AcquisitionNumber": [1, 2, 3, 4, 5, 6, 7, 8, 9, 10, 11, 12, 13, 14, 15, 16, 17, 18, 19, 20, 21, 22, 23, 24, 25, 26, 27, 28, 29, 30, 31, 32, 33, 34, 35, 36, 37, 38, 39, 40, 41, 42, 43, 44, 45, 46, 47, 48, 49, 50, 51, 52, 53, 54, 55, 56, 57, 58, 59, 60, 61, 62, 63, 64, 65, 66, 67, 68, 69, 70, 71, 72, 73, 74, 75, 76, 77, 78, 79, 80, 81, 82, 83, 84, 85, 86, 87, 88, 89, 90, 91, 92, 93, 94, 95, 96, 97, 98, 99, 100, 101, 102, 103, 104, 105, 106, 107, 108, 109, 110, 111, 112, 113, 114, 115, 116, 117, 118, 119, 120, 121, 122, 123, 124, 125, 126, 127, 128, 129, 130, 131, 132, 133, 134, 135, 136, 137, 138, 139, 140, 141, 142, 143, 144, 145, 146, 147, 148, 149, 150, 151, 152, 153, 154, 155, 156, 157, 158, 159, 160, 161, 162, 163, 164, 165, 166, 167, 168, 169, 170, 171, 172, 173, 174, 175, 176, 177, 178, 179, 180, 181, 182, 183, 184, 185, 186, 187, 188, 189, 190, 191, 192, 193, 194, 195, 196, 197, 198, 199, 200, 201, 202, 203, 204, 205, 206, 207, 208, 209, 210, 211, 212, 213, 214, 215, 216, 217, 218, 219, 220, 221, 222, 223, 224, 225, 226, 227, 228, 229, 230, 231, 232, 233, 234, 235, 236, 237, 238, 239, 240, 241, 242, 243, 244, 245, 246, 247, 248, 249, 250, 251, 252, 253, 254, 255, 256, 257, 258, 259, 260, 261, 262, 263, 264, 265, 266, 267, 268, 269, 270, 271, 272, 273, 274, 275, 276, 277, 278, 279, 280, 281, 282, 283, 284, 285, 286, 287, 288, 289, 290, 291, 292, 293, 294, 295, 296, 297, 298, 299, 300, 301, 302, 303, 304, 305, 306, 307, 308, 309, 310, 311, 312, 313, 314, 315, 316, 317, 318, 319, 320, 321, 322, 323, 324, 325, 326, 327, 328, 329, 330, 331, 332, 333, 334, 335, 336, 337, 338, 339, 340, 341, 342, 343, 344, 345, 346, 347, 348, 349, 350, 351, 352, 353, 354, 355, 356, 357, 358, 359, 360, 361, 362, 363, 364, 365, 366, 367, 368, 369, 370, 371, 372, 373, 374, 375, 376, 377, 378, 379, 380, 381, 382, 383, 384, 385, 386, 387, 388, 389, 390, 391, 392, 393, 394, 395, 396, 397, 398, 399, 400, 401, 402, 403, 404, 405, 406, 407, 408, 409, 410, 411, 412, 413, 414, 415, 416, 417, 418, 419, 420, 421, 422, 423, 424, 425, 426, 427, 428, 429, 430, 431, 432, 433, 434, 435, 436, 437, 438, 439, 440, 441, 442, 443, 444, 445, 446, 447, 448, 449, 450, 451, 452, 453, 454, 455, 456, 457, 458, 459, 460, 461, 462, 463, 464, 465, 466, 467, 468, 469, 470, 471, 472, 473, 474, 475, 476, 477, 478, 479, 480, 481, 482, 483, 484, 485, 486, 487, 488, 489, 490, 491, 492, 493, 494, 495, 496, 497, 498, 499, 500, 501, 502, 503, 504, 505, 506, 507, 508, 509, 510, 511, 512, 513, 514, 515, 516, 517, 518, 519, 520, 521, 522, 523, 524, 525, 526, 527, 528, 529, 530, 531, 532, 533, 534, 535, 536, 537, 538, 539, 540, 541, 542, 543, 544, 545, 546, 547, 548, 549, 550, 551, 552, 553, 554, 555, 556, 557, 558, 559, 560, 561, 562, 563, 564, 565, 566, 567, 568, 569, 570, 571, 572, 573, 574, 575, 576, 577, 578, 579, 580, 581, 582, 583, 584, 585, 586, 587, 588, 589, 590, 591, 592, 593, 594, 595, 596, 597, 598, 599, 600, 601, 602, 603, 604, 605, 606, 607, 608, 609, 610, 611, 612, 613, 614, 615, 616, 617, 618, 619, 620, 621, 622, 623, 624, 625, 626, 627, 628, 629, 630, 631, 632, 633, 634, 635, 636, 637, 638, 639, 640, 641, 642, 643, 644, 645, 646, 647, 648, 649, 650, 651, 652, 653, 654, 655, 656, 657, 658, 659, 660, 661, 662, 663, 664, 665, 666, 667, 668, 669, 670, 671, 672, 673, 674, 675, 676, 677, 678, 679, 680, 681, 682, 683, 684, 685, 686, 687, 688, 689, 690, 691, 692, 693, 694, 695, 696, 697, 698, 699, 700, 701, 702, 703, 704, 705, 706, 707, 708, 709, 710, 711, 712, 713, 714, 715, 716, 717, 718, 719, 720, 721, 722, 723, 724, 725, 726, 727, 728, 729, 730, 731, 732, 733, 734, 735, 736, 737, 738, 739, 740, 741, 742, 743, 744, 745, 746, 747, 748, 749, 750, 751, 752, 753, 754, 755, 756, 757, 758, 759, 760, 761, 762, 763, 764, 765, 766, 767, 768, 769, 770, 771, 772, 773, 774, 775, 776, 777, 778, 779, 780, 781, 782, 783, 784, 785, 786, 787, 788, 789, 790, 791, 792, 793, 794, 795, 796, 797, 798, 799, 800, 801, 802, 803, 804, 805, 806, 807, 808, 809, 810, 811, 812, 813, 814, 815, 816, 817, 818, 819, 820, 821, 822, 823, 824, 825, 826, 827, 828, 829, 830, 831, 832, 833, 834, 835, 836, 837, 838, 839, 840, 841, 842, 843, 844, 845, 846, 847, 848, 849, 850, 851, 852, 853, 854, 855, 856, 857, 858, 859, 860, 861, 862, 863, 864, 865, 866, 867, 868, 869, 870, 871, 872],
      "AcquisitionTime": ["201808.582500", "201809.042500", "201809.502500", "201809.962500", "201810.422500", "201810.882500", "201811.342500", "201811.802500", "201812.262500", "201812.722500", "201813.182500", "201813.642500", "201814.102500", "201814.562500", "201815.022500", "201815.482500", "201815.942500", "201816.402500", "201816.862500", "201817.322500", "201817.782500", "201818.242500", "201818.702500", "201819.162500", "201819.622500", "201820.082500", "201820.542500", "201821.002500", "201821.462500", "201821.922500", "201822.382500", "201822.842500", "201823.302500", "201823.762500", "201824.222500", "201824.682500", "201825.142500", "201825.602500", "201826.062500", "201826.522500", "201826.982500", "201827.442500", "201827.902500", "201828.362500", "201828.822500", "201829.282500", "201829.742500", "201830.202500", "201830.662500", "201831.122500", "201831.582500", "201832.042500", "201832.502500", "201832.962500", "201833.422500", "201833.882500", "201834.342500", "201834.802500", "201835.262500", "201835.722500", "201836.182500", "201836.642500", "201837.102500", "201837.562500", "201838.022500", "201838.482500", "201838.942500", "201839.402500", "201839.862500", "201840.322500", "201840.782500", "201841.242500", "201841.702500", "201842.162500", "201842.622500", "201843.082500", "201843.542500", "201844.002500", "201844.462500", "201844.922500", "201845.382500", "201845.842500", "201846.302500", "201846.762500", "201847.222500", "201847.682500", "201848.142500", "201848.602500", "201849.062500", "201849.522500", "201849.982500", "201850.442500", "201850.902500", "201851.362500", "201851.822500", "201852.282500", "201852.742500", "201853.202500", "201853.662500", "201854.122500", "201854.582500", "201855.042500", "201855.502500", "201855.962500", "201856.422500", "201856.882500", "201857.342500", "201857.802500", "201858.262500", "201858.722500", "201859.182500", "201859.642500", "201900.102500", "201900.562500", "201901.022500", "201901.482500", "201901.942500", "201902.402500", "201902.862500", "201903.322500", "201903.782500", "201904.242500", "201904.702500", "201905.162500", "201905.622500", "201906.082500", "201906.542500", "201907.002500", "201907.462500", "201907.922500", "201908.382500", "201908.842500", "201909.302500", "201909.762500", "201910.222500", "201910.682500", "201911.142500", "201911.602500", "201912.062500", "201912.522500", "201912.982500", "201913.442500", "201913.902500", "201914.362500", "201914.822500", "201915.282500", "201915.742500", "201916.202500", "201916.662500", "201917.122500", "201917.582500", "201918.042500", "201918.502500", "201918.962500", "201919.422500", "201919.882500", "201920.342500", "201920.802500", "201921.262500", "201921.722500", "201922.182500", "201922.642500", "201923.102500", "201923.562500", "201924.022500", "201924.482500", "201924.942500", "201925.402500", "201925.862500", "201926.322500", "201926.782500", "201927.242500", "201927.702500", "201928.162500", "201928.622500", "201929.082500", "201929.542500", "201930.002500", "201930.462500", "201930.922500", "201931.382500", "201931.842500", "201932.302500", "201932.762500", "201933.222500", "201933.682500", "201934.142500", "201934.602500", "201935.062500", "201935.522500", "201935.982500", "201936.442500", "201936.902500", "201937.362500", "201937.822500", "201938.282500", "201938.742500", "201939.202500", "201939.662500", "201940.122500", "201940.582500", "201941.042500", "201941.502500", "201941.962500", "201942.422500", "201942.882500", "201943.342500", "201943.802500", "201944.262500", "201944.722500", "201945.182500", "201945.642500", "201946.102500", "201946.562500", "201947.022500", "201947.482500", "201947.942500", "201948.402500", "201948.862500", "201949.322500", "201949.782500", "201950.242500", "201950.702500", "201951.162500", "201951.622500", "201952.082500", "201952.542500", "201953.002500", "201953.462500", "201953.922500", "201954.382500", "201954.842500", "201955.302500", "201955.762500", "201956.222500", "201956.682500", "201957.142500", "201957.602500", "201958.062500", "201958.522500", "201958.982500", "201959.442500", "201959.902500", "202000.362500", "202000.822500", "202001.282500", "202001.742500", "202002.202500", "202002.662500", "202003.122500", "202003.582500", "202004.042500", "202004.502500", "202004.962500", "202005.422500", "202005.882500", "202006.342500", "202006.802500", "202007.262500", "202007.722500", "202008.182500", "202008.642500", "202009.102500", "202009.562500", "202010.022500", "202010.482500", "202010.942500", "202011.402500", "202011.862500", "202012.322500", "202012.782500", "202013.242500", "202013.702500", "202014.162500", "202014.622500", "202015.082500", "202015.542500", "202016.002500", "202016.462500", "202016.922500", "202017.382500", "202017.842500", "202018.302500", "202018.762500", "202019.222500", "202019.682500", "202020.142500", "202020.602500", "202021.062500", "202021.522500", "202021.982500", "202022.442500", "202022.902500", "202023.362500", "202023.822500", "202024.282500", "202024.742500", "202025.202500", "202025.662500", "202026.122500", "202026.582500", "202027.042500", "202027.502500", "202027.962500", "202028.422500", "202028.882500", "202029.342500", "202029.802500", "202030.262500", "202030.722500", "202031.182500", "202031.642500", "202032.102500", "202032.562500", "202033.022500", "202033.482500", "202033.942500", "202034.402500", "202034.862500", "202035.322500", "202035.782500", "202036.242500", "202036.702500", "202037.162500", "202037.622500", "202038.082500", "202038.542500", "202039.002500", "202039.462500", "202039.922500", "202040.382500", "202040.842500", "202041.302500", "202041.762500", "202042.222500", "202042.682500", "202043.142500", "202043.602500", "202044.062500", "202044.522500", "202044.982500", "202045.442500", "202045.902500", "202046.362500", "202046.822500", "202047.282500", "202047.742500", "202048.202500", "202048.662500", "202049.122500", "202049.582500", "202050.042500", "202050.502500", "202050.962500", "202051.422500", "202051.882500", "202052.342500", "202052.802500", "202053.262500", "202053.722500", "202054.182500", "202054.642500", "202055.102500", "202055.562500", "202056.022500", "202056.482500", "202056.942500", "202057.402500", "202057.862500", "202058.322500", "202058.782500", "202059.242500", "202059.702500", "202100.162500", "202100.622500", "202101.082500", "202101.542500", "202102.002500", "202102.462500", "202102.922500", "202103.382500", "202103.842500", "202104.302500", "202104.762500", "202105.222500", "202105.682500", "202106.142500", "202106.602500", "202107.062500", "202107.522500", "202107.982500", "202108.442500", "202108.902500", "202109.362500", "202109.822500", "202110.282500", "202110.742500", "202111.202500", "202111.662500", "202112.122500", "202112.582500", "202113.042500", "202113.502500", "202113.962500", "202114.422500", "202114.882500", "202115.342500", "202115.802500", "202116.262500", "202116.722500", "202117.182500", "202117.642500", "202118.102500", "202118.562500", "202119.022500", "202119.482500", "202119.942500", "202120.402500", "202120.862500", "202121.322500", "202121.782500", "202122.242500", "202122.702500", "202123.162500", "202123.622500", "202124.082500", "202124.542500", "202125.002500", "202125.462500", "202125.922500", "202126.382500", "202126.842500", "202127.302500", "202127.762500", "202128.222500", "202128.682500", "202129.142500", "202129.602500", "202130.062500", "202130.522500", "202130.982500", "202131.442500", "202131.902500", "202132.362500", "202132.822500", "202133.282500", "202133.742500", "202134.202500", "202134.662500", "202135.122500", "202135.582500", "202136.042500", "202136.502500", "202136.962500", "202137.422500", "202137.882500", "202138.342500", "202138.802500", "202139.262500", "202139.722500", "202140.182500", "202140.642500", "202141.102500", "202141.562500", "202142.022500", "202142.482500", "202142.942500", "202143.402500", "202143.862500", "202144.322500", "202144.782500", "202145.242500", "202145.702500", "202146.162500", "202146.622500", "202147.082500", "202147.542500", "202148.002500", "202148.462500", "202148.922500", "202149.382500", "202149.842500", "202150.302500", "202150.762500", "202151.222500", "202151.682500", "202152.142500", "202152.602500", "202153.062500", "202153.522500", "202153.982500", "202154.442500", "202154.902500", "202155.362500", "202155.822500", "202156.282500", "202156.742500", "202157.202500", "202157.662500", "202158.122500", "202158.582500", "202159.042500", "202159.502500", "202159.962500", "202200.422500", "202200.882500", "202201.342500", "202201.802500", "202202.262500", "202202.722500", "202203.182500", "202203.642500", "202204.102500", "202204.562500", "202205.022500", "202205.482500", "202205.942500", "202206.402500", "202206.862500", "202207.322500", "202207.782500", "202208.242500", "202208.702500", "202209.162500", "202209.622500", "202210.082500", "202210.542500", "202211.002500", "202211.462500", "202211.922500", "202212.382500", "202212.842500", "202213.302500", "202213.762500", "202214.222500", "202214.682500", "202215.142500", "202215.602500", "202216.062500", "202216.522500", "202216.982500", "202217.442500", "202217.902500", "202218.362500", "202218.822500", "202219.282500", "202219.742500", "202220.202500", "202220.662500", "202221.122500", "202221.582500", "202222.042500", "202222.502500", "202222.962500", "202223.422500", "202223.882500", "202224.342500", "202224.802500", "202225.262500", "202225.722500", "202226.182500", "202226.642500", "202227.102500", "202227.562500", "202228.022500", "202228.482500", "202228.942500", "202229.402500", "202229.862500", "202230.322500", "202230.782500", "202231.242500", "202231.702500", "202232.162500", "202232.622500", "202233.082500", "202233.542500", "202234.002500", "202234.462500", "202234.922500", "202235.382500", "202235.842500", "202236.302500", "202236.762500", "202237.222500", "202237.682500", "202238.142500", "202238.602500", "202239.062500", "202239.522500", "202239.982500", "202240.442500", "202240.902500", "202241.362500", "202241.822500", "202242.282500", "202242.742500", "202243.202500", "202243.662500", "202244.122500", "202244.582500", "202245.042500", "202245.502500", "202245.962500", "202246.422500", "202246.882500", "202247.342500", "202247.802500", "202248.262500", "202248.722500", "202249.182500", "202249.642500", "202250.102500", "202250.562500", "202251.022500", "202251.482500", "202251.942500", "202252.402500", "202252.862500", "202253.322500", "202253.782500", "202254.242500", "202254.702500", "202255.162500", "202255.622500", "202256.082500", "202256.542500", "202257.002500", "202257.462500", "202257.922500", "202258.382500", "202258.842500", "202259.302500", "202259.762500", "202300.222500", "202300.682500", "202301.142500", "202301.602500", "202302.062500", "202302.522500", "202302.982500", "202303.442500", "202303.902500", "202304.362500", "202304.822500", "202305.282500", "202305.742500", "202306.202500", "202306.662500", "202307.122500", "202307.582500", "202308.042500", "202308.502500", "202308.962500", "202309.422500", "202309.882500", "202310.342500", "202310.802500", "202311.262500", "202311.722500", "202312.182500", "202312.642500", "202313.102500", "202313.562500", "202314.022500", "202314.482500", "202314.942500", "202315.402500", "202315.862500", "202316.322500", "202316.782500", "202317.242500", "202317.702500", "202318.162500", "202318.622500", "202319.082500", "202319.542500", "202320.002500", "202320.462500", "202320.922500", "202321.382500", "202321.842500", "202322.302500", "202322.762500", "202323.222500", "202323.682500", "202324.142500", "202324.602500", "202325.062500", "202325.522500", "202325.982500", "202326.442500", "202326.902500", "202327.362500", "202327.822500", "202328.282500", "202328.742500", "202329.202500", "202329.662500", "202330.122500", "202330.582500", "202331.042500", "202331.502500", "202331.962500", "202332.422500", "202332.882500", "202333.342500", "202333.802500", "202334.262500", "202334.722500", "202335.182500", "202335.642500", "202336.102500", "202336.562500", "202337.022500", "202337.482500", "202337.942500", "202338.402500", "202338.862500", "202339.322500", "202339.782500", "202340.242500", "202340.702500", "202341.162500", "202341.622500", "202342.082500", "202342.542500", "202343.002500", "202343.462500", "202343.922500", "202344.382500", "202344.842500", "202345.302500", "202345.762500", "202346.222500", "202346.682500", "202347.142500", "202347.602500", "202348.062500", "202348.522500", "202348.982500", "202349.442500", "202349.902500", "202350.362500", "202350.822500", "202351.282500", "202351.742500", "202352.202500", "202352.662500", "202353.122500", "202353.582500", "202354.042500", "202354.502500", "202354.962500", "202355.422500", "202355.882500", "202356.342500", "202356.802500", "202357.262500", "202357.722500", "202358.182500", "202358.642500", "202359.102500", "202359.562500", "202400.022500", "202400.482500", "202400.942500", "202401.402500", "202401.862500", "202402.322500", "202402.782500", "202403.242500", "202403.702500", "202404.162500", "202404.622500", "202405.082500", "202405.542500", "202406.002500", "202406.462500", "202406.922500", "202407.382500", "202407.842500", "202408.302500", "202408.762500", "202409.222500", "202409.682500", "202410.142500", "202410.602500", "202411.062500", "202411.522500", "202411.982500", "202412.442500", "202412.902500", "202413.362500", "202413.822500", "202414.282500", "202414.742500", "202415.202500", "202415.662500", "202416.122500", "202416.582500", "202417.042500", "202417.502500", "202417.962500", "202418.422500", "202418.882500", "202419.342500", "202419.802500", "202420.262500", "202420.722500", "202421.182500", "202421.642500", "202422.102500", "202422.562500", "202423.022500", "202423.482500", "202423.942500", "202424.402500", "202424.862500", "202425.322500", "202425.782500", "202426.242500", "202426.702500", "202427.162500", "202427.622500", "202428.082500", "202428.542500", "202429.002500", "202429.462500", "202429.922500", "202430.382500", "202430.842500", "202431.302500", "202431.762500", "202432.222500", "202432.682500", "202433.142500", "202433.602500", "202434.062500", "202434.522500", "202434.982500", "202435.442500", "202435.902500", "202436.362500", "202436.822500", "202437.282500", "202437.742500", "202438.202500", "202438.662500", "202439.122500", "202439.582500", "202440.042500", "202440.502500", "202440.962500", "202441.422500", "202441.882500", "202442.342500", "202442.802500", "202443.262500", "202443.722500", "202444.182500", "202444.642500", "202445.102500", "202445.562500", "202446.022500", "202446.482500", "202446.942500", "202447.402500", "202447.862500", "202448.322500", "202448.782500", "202449.242500"],
