{
  "AcquisitionMatrixPE": 82,
  "AcquisitionNumber": 1,
  "AcquisitionTime": "20:02:57.857500",
  "BandwidthPerPixelPhaseEncode": 24.888,
  "BaseResolution": 82,
  "BodyPartExamined": "BRAIN",
  "ConsistencyInfo": "N4_VE11E_LATEST_20181129",
  "ConversionSoftware": "dcm2niix",
  "ConversionSoftwareVersion": "v1.0.20201102",
  "DerivedVendorReportedEchoSpacing": 0.00049,
  "DeviceSerialNumber": "66112",
  "DwellTime": 2e-06,
  "EchoTime": 0.0272,
  "EchoTrainLength": 82,
  "EffectiveEchoSpacing": 0.00049,
  "FlipAngle": 44,
  "ImageComments": "Unaliased MB8/PE3",
  "ImageOrientationPatientDICOM": [0.998662, -0.027073, 0.0440709, 0.0179548, 0.980541, 0.195492],
  "ImageType": [
    "ORIGINAL",
    "PRIMARY",
    "M",
    "MB",
    "ND",
    "NORM",
    "MOSAIC"
],
  "ImagingFrequency": 123.259,
  "InPlanePhaseEncodingDirectionDICOM": "COL",
  "InstitutionAddress": "Maynard 3,Hanover,NH,US,03755",
  "InstitutionName": "Dartmouth College - PBS",
  "InstitutionalDepartmentName": "Department",
  "MRAcquisitionType": "2D",
  "MagneticFieldStrength": 3,
  "Manufacturer": "Siemens",
  "ManufacturersModelName": "Prisma",
  "Modality": "MR",
  "MultibandAccelerationFactor": 8,
  "PartialFourier": 1,
  "PatientPosition": "HFS",
  "PercentPhaseFOV": 100,
  "PercentSampling": 100,
  "PhaseEncodingDirection": "j-",
  "PhaseEncodingSteps": 82,
  "PhaseResolution": 1,
  "PixelBandwidth": 3050,
  "ProcedureStepDescription": "Wager_Wager^1076_spacetop",
  "ProtocolName": "func_run-03_task-social_acq-ap-mb8",
  "PulseSequenceDetails": "%CustomerSeq%\\cmrr_mbep2d_bold",
  "ReceiveCoilActiveElements": "HEA;HEP",
  "ReceiveCoilName": "Head_32",
  "ReconMatrixPE": 82,
  "RepetitionTime": 0.46,
  "SAR": 0.084234,
  "ScanOptions": "FS",
  "ScanningSequence": "EP",
  "SequenceName": "epfid2d1_82",
  "SequenceVariant": "SK\\SS",
  "SeriesDescription": "func_run-03_task-social_acq-ap-mb8",
  "SeriesNumber": 16,
  "ShimSetting": [4245, -7815, -7248, 321, -167, -33, 118, 99],
  "SliceThickness": 2.7,
  "SliceTiming": [0, 0.25, 0.0625, 0.3125, 0.125, 0.375, 0.1875, 0, 0.25, 0.0625, 0.3125, 0.125, 0.375, 0.1875, 0, 0.25, 0.0625, 0.3125, 0.125, 0.375, 0.1875, 0, 0.25, 0.0625, 0.3125, 0.125, 0.375, 0.1875, 0, 0.25, 0.0625, 0.3125, 0.125, 0.375, 0.1875, 0, 0.25, 0.0625, 0.3125, 0.125, 0.375, 0.1875, 0, 0.25, 0.0625, 0.3125, 0.125, 0.375, 0.1875, 0, 0.25, 0.0625, 0.3125, 0.125, 0.375, 0.1875],
  "SoftwareVersions": "syngo MR E11",
  "SpacingBetweenSlices": 2.7,
  "StationName": "AWP66112",
  "TaskName": "social",
  "TotalReadoutTime": 0.03969,
  "TxRefAmp": 219.13,
  "WipMemBlock": "fc145876-c41e-4fec-a52c-250cf749f9ee||Sequence: R016 ve11e/master r/434b28f1; Aug  7 2019 18:53:46 by eja",
  "dcmmeta_affine": [
    [-2.679335832595825, 0.04817129671573639, 0.13096588850021362, 104.93226623535156],
    [0.0726349875330925, 2.6307196617126465, 0.5249849557876587, -101.50318908691406],
    [0.11823901534080505, -0.524490237236023, 2.6452295780181885, -46.44853973388672],
    [0.0, 0.0, 0.0, 1.0]
],
  "dcmmeta_reorient_transform": [
    [0.0, -1.0, 0.0, 81.0],
    [1.0, 0.0, 0.0, 0.0],
    [0.0, 0.0, 1.0, 0.0],
    [0.0, 0.0, 0.0, 1.0]
],
  "dcmmeta_shape": [82, 82, 56, 872],
  "dcmmeta_slice_dim": 2,
  "dcmmeta_version": 0.6,
  "global": {
    "const": {
      "AccessionNumber": "A004774",
      "AcquisitionMatrix": [82, 0, 0, 82],
      "AngioFlag": "N",
      "BitsAllocated": 16,
      "BitsStored": 16,
      "BodyPartExamined": "BRAIN",
      "Columns": 656,
      "EchoNumbers": 1,
      "EchoTime": 27.2,
      "EchoTrainLength": 82,
      "FlipAngle": 44.0,
      "HighBit": 15,
      "ImageOrientationPatient": [0.9986615070881, -0.0270730401652, 0.04407090601225, 0.01795475595182, 0.98054096226381, 0.1954918107274],
      "ImagePositionPatient": [-891.62867950717, -845.7554266671, -273.39554472562],
      "ImageType": [
        "ORIGINAL",
        "PRIMARY",
        "M",
        "MB",
        "ND",
        "NORM",
        "MOSAIC"
],
      "ImagedNucleus": "1H",
      "ImagingFrequency": 123.259082,
      "InPlanePhaseEncodingDirection": "COL",
      "MRAcquisitionType": "2D",
      "MagneticFieldStrength": 3.0,
      "Manufacturer": "SIEMENS",
      "ManufacturerModelName": "Prisma",
      "Modality": "MR",
      "NumberOfAverages": 1.0,
      "NumberOfPhaseEncodingSteps": 82,
      "PercentPhaseFieldOfView": 100.0,
      "PercentSampling": 100.0,
      "PerformedProcedureStepStartTime": "190842.696000",
      "PhotometricInterpretation": "MONOCHROME2",
      "PixelBandwidth": 3050.0,
      "PixelRepresentation": 0,
      "PixelSpacing": [2.6829268932343, 2.6829268932343],
      "ProtocolName": "func_run-03_task-social_acq-ap-mb8",
      "RepetitionTime": 460.0,
      "Rows": 656,
      "SAR": 0.08423399731619,
      "SamplesPerPixel": 1,
      "ScanOptions": "FS",
      "ScanningSequence": "EP",
      "SequenceName": "epfid2d1_82",
      "SequenceVariant": [
        "SK",
        "SS"
],
      "SeriesDescription": "func_run-03_task-social_acq-ap-mb8",
      "SeriesNumber": 16,
      "SeriesTime": "200309.064000",
      "SliceLocation": -60.152644458748,
      "SliceThickness": 2.7000000476837,
      "SmallestImagePixelValue": 0,
      "SoftwareVersions": "syngo MR E11",
      "SpacingBetweenSlices": 2.7000000374783,
      "SpecificCharacterSet": "ISO_IR 100",
      "StudyID": "1",
      "StudyTime": "190842.597000",
      "TransmitCoilName": "Body",
      "VariableFlipAngleFlag": "N",
      "WindowCenterWidthExplanation": "Algo1"
    },
    "slices": {}
  },
  "time": {
    "samples": {
      "AcquisitionNumber": [1, 2, 3, 4, 5, 6, 7, 8, 9, 10, 11, 12, 13, 14, 15, 16, 17, 18, 19, 20, 21, 22, 23, 24, 25, 26, 27, 28, 29, 30, 31, 32, 33, 34, 35, 36, 37, 38, 39, 40, 41, 42, 43, 44, 45, 46, 47, 48, 49, 50, 51, 52, 53, 54, 55, 56, 57, 58, 59, 60, 61, 62, 63, 64, 65, 66, 67, 68, 69, 70, 71, 72, 73, 74, 75, 76, 77, 78, 79, 80, 81, 82, 83, 84, 85, 86, 87, 88, 89, 90, 91, 92, 93, 94, 95, 96, 97, 98, 99, 100, 101, 102, 103, 104, 105, 106, 107, 108, 109, 110, 111, 112, 113, 114, 115, 116, 117, 118, 119, 120, 121, 122, 123, 124, 125, 126, 127, 128, 129, 130, 131, 132, 133, 134, 135, 136, 137, 138, 139, 140, 141, 142, 143, 144, 145, 146, 147, 148, 149, 150, 151, 152, 153, 154, 155, 156, 157, 158, 159, 160, 161, 162, 163, 164, 165, 166, 167, 168, 169, 170, 171, 172, 173, 174, 175, 176, 177, 178, 179, 180, 181, 182, 183, 184, 185, 186, 187, 188, 189, 190, 191, 192, 193, 194, 195, 196, 197, 198, 199, 200, 201, 202, 203, 204, 205, 206, 207, 208, 209, 210, 211, 212, 213, 214, 215, 216, 217, 218, 219, 220, 221, 222, 223, 224, 225, 226, 227, 228, 229, 230, 231, 232, 233, 234, 235, 236, 237, 238, 239, 240, 241, 242, 243, 244, 245, 246, 247, 248, 249, 250, 251, 252, 253, 254, 255, 256, 257, 258, 259, 260, 261, 262, 263, 264, 265, 266, 267, 268, 269, 270, 271, 272, 273, 274, 275, 276, 277, 278, 279, 280, 281, 282, 283, 284, 285, 286, 287, 288, 289, 290, 291, 292, 293, 294, 295, 296, 297, 298, 299, 300, 301, 302, 303, 304, 305, 306, 307, 308, 309, 310, 311, 312, 313, 314, 315, 316, 317, 318, 319, 320, 321, 322, 323, 324, 325, 326, 327, 328, 329, 330, 331, 332, 333, 334, 335, 336, 337, 338, 339, 340, 341, 342, 343, 344, 345, 346, 347, 348, 349, 350, 351, 352, 353, 354, 355, 356, 357, 358, 359, 360, 361, 362, 363, 364, 365, 366, 367, 368, 369, 370, 371, 372, 373, 374, 375, 376, 377, 378, 379, 380, 381, 382, 383, 384, 385, 386, 387, 388, 389, 390, 391, 392, 393, 394, 395, 396, 397, 398, 399, 400, 401, 402, 403, 404, 405, 406, 407, 408, 409, 410, 411, 412, 413, 414, 415, 416, 417, 418, 419, 420, 421, 422, 423, 424, 425, 426, 427, 428, 429, 430, 431, 432, 433, 434, 435, 436, 437, 438, 439, 440, 441, 442, 443, 444, 445, 446, 447, 448, 449, 450, 451, 452, 453, 454, 455, 456, 457, 458, 459, 460, 461, 462, 463, 464, 465, 466, 467, 468, 469, 470, 471, 472, 473, 474, 475, 476, 477, 478, 479, 480, 481, 482, 483, 484, 485, 486, 487, 488, 489, 490, 491, 492, 493, 494, 495, 496, 497, 498, 499, 500, 501, 502, 503, 504, 505, 506, 507, 508, 509, 510, 511, 512, 513, 514, 515, 516, 517, 518, 519, 520, 521, 522, 523, 524, 525, 526, 527, 528, 529, 530, 531, 532, 533, 534, 535, 536, 537, 538, 539, 540, 541, 542, 543, 544, 545, 546, 547, 548, 549, 550, 551, 552, 553, 554, 555, 556, 557, 558, 559, 560, 561, 562, 563, 564, 565, 566, 567, 568, 569, 570, 571, 572, 573, 574, 575, 576, 577, 578, 579, 580, 581, 582, 583, 584, 585, 586, 587, 588, 589, 590, 591, 592, 593, 594, 595, 596, 597, 598, 599, 600, 601, 602, 603, 604, 605, 606, 607, 608, 609, 610, 611, 612, 613, 614, 615, 616, 617, 618, 619, 620, 621, 622, 623, 624, 625, 626, 627, 628, 629, 630, 631, 632, 633, 634, 635, 636, 637, 638, 639, 640, 641, 642, 643, 644, 645, 646, 647, 648, 649, 650, 651, 652, 653, 654, 655, 656, 657, 658, 659, 660, 661, 662, 663, 664, 665, 666, 667, 668, 669, 670, 671, 672, 673, 674, 675, 676, 677, 678, 679, 680, 681, 682, 683, 684, 685, 686, 687, 688, 689, 690, 691, 692, 693, 694, 695, 696, 697, 698, 699, 700, 701, 702, 703, 704, 705, 706, 707, 708, 709, 710, 711, 712, 713, 714, 715, 716, 717, 718, 719, 720, 721, 722, 723, 724, 725, 726, 727, 728, 729, 730, 731, 732, 733, 734, 735, 736, 737, 738, 739, 740, 741, 742, 743, 744, 745, 746, 747, 748, 749, 750, 751, 752, 753, 754, 755, 756, 757, 758, 759, 760, 761, 762, 763, 764, 765, 766, 767, 768, 769, 770, 771, 772, 773, 774, 775, 776, 777, 778, 779, 780, 781, 782, 783, 784, 785, 786, 787, 788, 789, 790, 791, 792, 793, 794, 795, 796, 797, 798, 799, 800, 801, 802, 803, 804, 805, 806, 807, 808, 809, 810, 811, 812, 813, 814, 815, 816, 817, 818, 819, 820, 821, 822, 823, 824, 825, 826, 827, 828, 829, 830, 831, 832, 833, 834, 835, 836, 837, 838, 839, 840, 841, 842, 843, 844, 845, 846, 847, 848, 849, 850, 851, 852, 853, 854, 855, 856, 857, 858, 859, 860, 861, 862, 863, 864, 865, 866, 867, 868, 869, 870, 871, 872],
      "AcquisitionTime": ["200257.857500", "200258.317500", "200258.777500", "200259.237500", "200259.697500", "200300.157500", "200300.617500", "200301.077500", "200301.537500", "200301.997500", "200302.457500", "200302.917500", "200303.377500", "200303.837500", "200304.297500", "200304.757500", "200305.217500", "200305.677500", "200306.137500", "200306.597500", "200307.057500", "200307.517500", "200307.977500", "200308.437500", "200308.897500", "200309.357500", "200309.817500", "200310.277500", "200310.737500", "200311.197500", "200311.657500", "200312.117500", "200312.577500", "200313.037500", "200313.497500", "200313.957500", "200314.417500", "200314.877500", "200315.337500", "200315.797500", "200316.257500", "200316.717500", "200317.177500", "200317.637500", "200318.097500", "200318.557500", "200319.017500", "200319.477500", "200319.937500", "200320.397500", "200320.857500", "200321.317500", "200321.777500", "200322.237500", "200322.697500", "200323.157500", "200323.617500", "200324.077500", "200324.537500", "200324.997500", "200325.457500", "200325.917500", "200326.377500", "200326.837500", "200327.297500", "200327.757500", "200328.217500", "200328.677500", "200329.137500", "200329.597500", "200330.057500", "200330.517500", "200330.977500", "200331.437500", "200331.897500", "200332.357500", "200332.817500", "200333.277500", "200333.737500", "200334.197500", "200334.657500", "200335.117500", "200335.577500", "200336.037500", "200336.497500", "200336.957500", "200337.417500", "200337.877500", "200338.337500", "200338.797500", "200339.257500", "200339.717500", "200340.177500", "200340.637500", "200341.097500", "200341.557500", "200342.017500", "200342.477500", "200342.937500", "200343.397500", "200343.857500", "200344.317500", "200344.777500", "200345.237500", "200345.697500", "200346.157500", "200346.617500", "200347.077500", "200347.537500", "200347.997500", "200348.457500", "200348.917500", "200349.377500", "200349.837500", "200350.297500", "200350.757500", "200351.217500", "200351.677500", "200352.137500", "200352.597500", "200353.057500", "200353.517500", "200353.977500", "200354.437500", "200354.897500", "200355.357500", "200355.817500", "200356.277500", "200356.737500", "200357.197500", "200357.657500", "200358.117500", "200358.577500", "200359.037500", "200359.497500", "200359.957500", "200400.417500", "200400.877500", "200401.337500", "200401.797500", "200402.257500", "200402.717500", "200403.177500", "200403.637500", "200404.097500", "200404.557500", "200405.017500", "200405.477500", "200405.937500", "200406.397500", "200406.857500", "200407.317500", "200407.777500", "200408.237500", "200408.697500", "200409.157500", "200409.617500", "200410.077500", "200410.537500", "200410.997500", "200411.457500", "200411.917500", "200412.377500", "200412.837500", "200413.297500", "200413.757500", "200414.217500", "200414.677500", "200415.137500", "200415.597500", "200416.057500", "200416.517500", "200416.977500", "200417.437500", "200417.897500", "200418.357500", "200418.817500", "200419.277500", "200419.737500", "200420.197500", "200420.657500", "200421.117500", "200421.577500", "200422.037500", "200422.497500", "200422.957500", "200423.417500", "200423.877500", "200424.337500", "200424.797500", "200425.257500", "200425.717500", "200426.177500", "200426.637500", "200427.097500", "200427.557500", "200428.017500", "200428.477500", "200428.937500", "200429.397500", "200429.857500", "200430.317500", "200430.777500", "200431.237500", "200431.697500", "200432.157500", "200432.617500", "200433.077500", "200433.537500", "200433.997500", "200434.457500", "200434.917500", "200435.377500", "200435.837500", "200436.297500", "200436.757500", "200437.217500", "200437.677500", "200438.137500", "200438.597500", "200439.057500", "200439.517500", "200439.977500", "200440.437500", "200440.897500", "200441.357500", "200441.817500", "200442.277500", "200442.737500", "200443.197500", "200443.657500", "200444.117500", "200444.577500", "200445.037500", "200445.497500", "200445.957500", "200446.417500", "200446.877500", "200447.337500", "200447.797500", "200448.257500", "200448.717500", "200449.177500", "200449.637500", "200450.097500", "200450.557500", "200451.017500", "200451.477500", "200451.937500", "200452.397500", "200452.857500", "200453.317500", "200453.777500", "200454.237500", "200454.697500", "200455.157500", "200455.617500", "200456.077500", "200456.537500", "200456.997500", "200457.457500", "200457.917500", "200458.377500", "200458.837500", "200459.297500", "200459.757500", "200500.217500", "200500.677500", "200501.137500", "200501.597500", "200502.057500", "200502.517500", "200502.977500", "200503.437500", "200503.897500", "200504.357500", "200504.817500", "200505.277500", "200505.737500", "200506.197500", "200506.657500", "200507.117500", "200507.577500", "200508.037500", "200508.497500", "200508.957500", "200509.417500", "200509.877500", "200510.337500", "200510.797500", "200511.257500", "200511.717500", "200512.177500", "200512.637500", "200513.097500", "200513.557500", "200514.017500", "200514.477500", "200514.937500", "200515.397500", "200515.857500", "200516.317500", "200516.777500", "200517.237500", "200517.697500", "200518.157500", "200518.617500", "200519.077500", "200519.537500", "200519.997500", "200520.457500", "200520.917500", "200521.377500", "200521.837500", "200522.297500", "200522.757500", "200523.217500", "200523.677500", "200524.137500", "200524.597500", "200525.057500", "200525.517500", "200525.977500", "200526.437500", "200526.897500", "200527.357500", "200527.817500", "200528.277500", "200528.737500", "200529.197500", "200529.657500", "200530.117500", "200530.577500", "200531.037500", "200531.497500", "200531.957500", "200532.417500", "200532.877500", "200533.337500", "200533.797500", "200534.257500", "200534.717500", "200535.177500", "200535.637500", "200536.097500", "200536.557500", "200537.017500", "200537.477500", "200537.937500", "200538.397500", "200538.857500", "200539.317500", "200539.777500", "200540.237500", "200540.697500", "200541.157500", "200541.617500", "200542.077500", "200542.537500", "200542.997500", "200543.457500", "200543.917500", "200544.377500", "200544.837500", "200545.297500", "200545.757500", "200546.217500", "200546.677500", "200547.137500", "200547.597500", "200548.057500", "200548.517500", "200548.977500", "200549.437500", "200549.897500", "200550.357500", "200550.817500", "200551.277500", "200551.737500", "200552.197500", "200552.657500", "200553.117500", "200553.577500", "200554.037500", "200554.497500", "200554.957500", "200555.417500", "200555.877500", "200556.337500", "200556.797500", "200557.257500", "200557.717500", "200558.177500", "200558.637500", "200559.097500", "200559.557500", "200600.017500", "200600.477500", "200600.937500", "200601.397500", "200601.857500", "200602.317500", "200602.777500", "200603.237500", "200603.697500", "200604.157500", "200604.617500", "200605.077500", "200605.537500", "200605.997500", "200606.457500", "200606.917500", "200607.377500", "200607.837500", "200608.297500", "200608.757500", "200609.217500", "200609.677500", "200610.137500", "200610.597500", "200611.057500", "200611.517500", "200611.977500", "200612.437500", "200612.897500", "200613.357500", "200613.817500", "200614.277500", "200614.737500", "200615.197500", "200615.657500", "200616.117500", "200616.577500", "200617.037500", "200617.497500", "200617.957500", "200618.417500", "200618.877500", "200619.337500", "200619.797500", "200620.257500", "200620.717500", "200621.177500", "200621.637500", "200622.097500", "200622.557500", "200623.017500", "200623.477500", "200623.937500", "200624.397500", "200624.857500", "200625.317500", "200625.777500", "200626.237500", "200626.697500", "200627.157500", "200627.617500", "200628.077500", "200628.537500", "200628.997500", "200629.457500", "200629.917500", "200630.377500", "200630.837500", "200631.297500", "200631.757500", "200632.217500", "200632.677500", "200633.137500", "200633.597500", "200634.057500", "200634.517500", "200634.977500", "200635.437500", "200635.897500", "200636.357500", "200636.817500", "200637.277500", "200637.737500", "200638.197500", "200638.657500", "200639.117500", "200639.577500", "200640.037500", "200640.497500", "200640.957500", "200641.417500", "200641.877500", "200642.337500", "200642.797500", "200643.257500", "200643.717500", "200644.177500", "200644.637500", "200645.097500", "200645.557500", "200646.017500", "200646.477500", "200646.937500", "200647.397500", "200647.857500", "200648.317500", "200648.777500", "200649.237500", "200649.697500", "200650.157500", "200650.617500", "200651.077500", "200651.537500", "200651.997500", "200652.457500", "200652.917500", "200653.377500", "200653.837500", "200654.297500", "200654.757500", "200655.217500", "200655.677500", "200656.137500", "200656.597500", "200657.057500", "200657.517500", "200657.977500", "200658.437500", "200658.897500", "200659.357500", "200659.817500", "200700.277500", "200700.737500", "200701.197500", "200701.657500", "200702.117500", "200702.577500", "200703.037500", "200703.497500", "200703.957500", "200704.417500", "200704.877500", "200705.337500", "200705.797500", "200706.257500", "200706.717500", "200707.177500", "200707.637500", "200708.097500", "200708.557500", "200709.017500", "200709.477500", "200709.937500", "200710.397500", "200710.857500", "200711.317500", "200711.777500", "200712.237500", "200712.697500", "200713.157500", "200713.617500", "200714.077500", "200714.537500", "200714.997500", "200715.457500", "200715.917500", "200716.377500", "200716.837500", "200717.297500", "200717.757500", "200718.217500", "200718.677500", "200719.137500", "200719.597500", "200720.057500", "200720.517500", "200720.977500", "200721.437500", "200721.897500", "200722.357500", "200722.817500", "200723.277500", "200723.737500", "200724.197500", "200724.657500", "200725.117500", "200725.577500", "200726.037500", "200726.497500", "200726.957500", "200727.417500", "200727.877500", "200728.337500", "200728.797500", "200729.257500", "200729.717500", "200730.177500", "200730.637500", "200731.097500", "200731.557500", "200732.017500", "200732.477500", "200732.937500", "200733.397500", "200733.857500", "200734.317500", "200734.777500", "200735.237500", "200735.697500", "200736.157500", "200736.617500", "200737.077500", "200737.537500", "200737.997500", "200738.457500", "200738.917500", "200739.377500", "200739.837500", "200740.297500", "200740.757500", "200741.217500", "200741.677500", "200742.137500", "200742.597500", "200743.057500", "200743.517500", "200743.977500", "200744.437500", "200744.897500", "200745.357500", "200745.817500", "200746.277500", "200746.737500", "200747.197500", "200747.657500", "200748.117500", "200748.577500", "200749.037500", "200749.497500", "200749.957500", "200750.417500", "200750.877500", "200751.337500", "200751.797500", "200752.257500", "200752.717500", "200753.177500", "200753.637500", "200754.097500", "200754.557500", "200755.017500", "200755.477500", "200755.937500", "200756.397500", "200756.857500", "200757.317500", "200757.777500", "200758.237500", "200758.697500", "200759.157500", "200759.617500", "200800.077500", "200800.537500", "200800.997500", "200801.457500", "200801.917500", "200802.377500", "200802.837500", "200803.297500", "200803.757500", "200804.217500", "200804.677500", "200805.137500", "200805.597500", "200806.057500", "200806.517500", "200806.977500", "200807.437500", "200807.897500", "200808.357500", "200808.817500", "200809.277500", "200809.737500", "200810.197500", "200810.657500", "200811.117500", "200811.577500", "200812.037500", "200812.497500", "200812.957500", "200813.417500", "200813.877500", "200814.337500", "200814.797500", "200815.257500", "200815.717500", "200816.177500", "200816.637500", "200817.097500", "200817.557500", "200818.017500", "200818.477500", "200818.937500", "200819.397500", "200819.857500", "200820.317500", "200820.777500", "200821.237500", "200821.697500", "200822.157500", "200822.617500", "200823.077500", "200823.537500", "200823.997500", "200824.457500", "200824.917500", "200825.377500", "200825.837500", "200826.297500", "200826.757500", "200827.217500", "200827.677500", "200828.137500", "200828.597500", "200829.057500", "200829.517500", "200829.977500", "200830.437500", "200830.897500", "200831.357500", "200831.817500", "200832.277500", "200832.737500", "200833.197500", "200833.657500", "200834.117500", "200834.577500", "200835.037500", "200835.497500", "200835.957500", "200836.417500", "200836.877500", "200837.337500", "200837.797500", "200838.257500", "200838.717500", "200839.177500", "200839.637500", "200840.097500", "200840.557500", "200841.017500", "200841.477500", "200841.937500", "200842.397500", "200842.857500", "200843.317500", "200843.777500", "200844.237500", "200844.697500", "200845.157500", "200845.617500", "200846.077500", "200846.537500", "200846.997500", "200847.457500", "200847.917500", "200848.377500", "200848.837500", "200849.297500", "200849.757500", "200850.217500", "200850.677500", "200851.137500", "200851.597500", "200852.057500", "200852.517500", "200852.977500", "200853.437500", "200853.897500", "200854.357500", "200854.817500", "200855.277500", "200855.737500", "200856.197500", "200856.657500", "200857.117500", "200857.577500", "200858.037500", "200858.497500", "200858.957500", "200859.417500", "200859.877500", "200900.337500", "200900.797500", "200901.257500", "200901.717500", "200902.177500", "200902.637500", "200903.097500", "200903.557500", "200904.017500", "200904.477500", "200904.937500", "200905.397500", "200905.857500", "200906.317500", "200906.777500", "200907.237500", "200907.697500", "200908.157500", "200908.617500", "200909.077500", "200909.537500", "200909.997500", "200910.457500", "200910.917500", "200911.377500", "200911.837500", "200912.297500", "200912.757500", "200913.217500", "200913.677500", "200914.137500", "200914.597500", "200915.057500", "200915.517500", "200915.977500", "200916.437500", "200916.897500", "200917.357500", "200917.817500", "200918.277500", "200918.737500", "200919.197500", "200919.657500", "200920.117500", "200920.577500", "200921.037500", "200921.497500", "200921.957500", "200922.417500", "200922.877500", "200923.337500", "200923.797500", "200924.257500", "200924.717500", "200925.177500", "200925.637500", "200926.097500", "200926.557500", "200927.017500", "200927.477500", "200927.937500", "200928.397500", "200928.857500", "200929.317500", "200929.777500", "200930.237500", "200930.697500", "200931.157500", "200931.617500", "200932.077500", "200932.537500", "200932.997500", "200933.457500", "200933.917500", "200934.377500", "200934.837500", "200935.297500", "200935.757500", "200936.217500", "200936.677500", "200937.137500", "200937.597500", "200938.057500", "200938.517500"],
