{
  "AcquisitionMatrixPE": 82,
  "AcquisitionNumber": 1,
  "AcquisitionTime": "19:09:57.692500",
  "BandwidthPerPixelPhaseEncode": 24.888,
  "BaseResolution": 82,
  "BodyPartExamined": "BRAIN",
  "ConsistencyInfo": "N4_VE11E_LATEST_20181129",
  "ConversionSoftware": "dcm2niix",
  "ConversionSoftwareVersion": "v1.0.20201102",
  "DerivedVendorReportedEchoSpacing": 0.00049,
  "DeviceSerialNumber": "66112",
  "DwellTime": 2e-06,
  "EchoTime": 0.0272,
  "EchoTrainLength": 82,
  "EffectiveEchoSpacing": 0.00049,
  "FlipAngle": 44,
  "ImageComments": "Unaliased MB8/PE3",
  "ImageOrientationPatientDICOM": [0.999891, -0.00966461, 0.0111419, 0.0113439, 0.986702, -0.162144],
  "ImageType": [
    "ORIGINAL",
    "PRIMARY",
    "M",
    "MB",
    "ND",
    "NORM",
    "MOSAIC"
],
  "ImagingFrequency": 123.259,
  "InPlanePhaseEncodingDirectionDICOM": "COL",
  "InstitutionAddress": "Maynard 3,Hanover,NH,US,03755",
  "InstitutionName": "Dartmouth College - PBS",
  "InstitutionalDepartmentName": "Department",
  "MRAcquisitionType": "2D",
  "MagneticFieldStrength": 3,
  "Manufacturer": "Siemens",
  "ManufacturersModelName": "Prisma",
  "Modality": "MR",
  "MultibandAccelerationFactor": 8,
  "PartialFourier": 1,
  "PatientPosition": "HFS",
  "PercentPhaseFOV": 100,
  "PercentSampling": 100,
  "PhaseEncodingDirection": "j-",
  "PhaseEncodingSteps": 82,
  "PhaseResolution": 1,
  "PixelBandwidth": 3050,
  "ProcedureStepDescription": "Wager_Wager^1076_spacetop",
  "ProtocolName": "func_run-01_task-social_acq-ap-mb8",
  "PulseSequenceDetails": "%CustomerSeq%\\cmrr_mbep2d_bold",
  "ReceiveCoilActiveElements": "HEA;HEP",
  "ReceiveCoilName": "Head_32",
  "ReconMatrixPE": 82,
  "RepetitionTime": 0.46,
  "SAR": 0.0935754,
  "ScanOptions": "FS",
  "ScanningSequence": "EP",
  "SequenceName": "epfid2d1_82",
  "SequenceVariant": "SK\\SS",
  "SeriesDescription": "func_run-01_task-social_acq-ap-mb8",
  "SeriesNumber": 8,
  "ShimSetting": [4228, -7734, -7282, 214, -123, -119, -114, 42],
  "SliceThickness": 2.7,
  "SliceTiming": [0, 0.25, 0.0625, 0.3125, 0.125, 0.3775, 0.1875, 0, 0.25, 0.0625, 0.3125, 0.125, 0.3775, 0.1875, 0, 0.25, 0.0625, 0.3125, 0.125, 0.3775, 0.1875, 0, 0.25, 0.0625, 0.3125, 0.125, 0.3775, 0.1875, 0, 0.25, 0.0625, 0.3125, 0.125, 0.3775, 0.1875, 0, 0.25, 0.0625, 0.3125, 0.125, 0.3775, 0.1875, 0, 0.25, 0.0625, 0.3125, 0.125, 0.3775, 0.1875, 0, 0.25, 0.0625, 0.3125, 0.125, 0.3775, 0.1875],
  "SoftwareVersions": "syngo MR E11",
  "SpacingBetweenSlices": 2.7,
  "StationName": "AWP66112",
  "TaskName": "social",
  "TotalReadoutTime": 0.03969,
  "TxRefAmp": 260.623,
  "WipMemBlock": "2fb55a47-97ce-4aa7-84b3-6cc7c33fd32d||Sequence: R016 ve11e/master r/434b28f1; Aug  7 2019 18:53:46 by eja",
  "dcmmeta_affine": [
    [-2.6826350688934326, 0.03043486922979355, 0.025451967492699623, 109.55797576904297],
    [0.02592943049967289, 2.647249221801758, -0.4380819499492645, -89.00827026367188],
    [0.02989283949136734, 0.4350200295448303, 2.6641013622283936, -102.42356872558594],
    [0.0, 0.0, 0.0, 1.0]
],
  "dcmmeta_reorient_transform": [
    [0.0, -1.0, 0.0, 81.0],
    [1.0, 0.0, 0.0, 0.0],
    [0.0, 0.0, 1.0, 0.0],
    [0.0, 0.0, 0.0, 1.0]
],
  "dcmmeta_shape": [82, 82, 56, 872],
  "dcmmeta_slice_dim": 2,
  "dcmmeta_version": 0.6,
  "global": {
    "const": {
      "AccessionNumber": "A004441",
      "AcquisitionMatrix": [82, 0, 0, 82],
      "AngioFlag": "N",
      "BitsAllocated": 16,
      "BitsStored": 16,
      "BodyPartExamined": "BRAIN",
      "Columns": 656,
      "EchoNumbers": 1,
      "EchoTime": 27.2,
      "EchoTrainLength": 82,
      "FlipAngle": 44.0,
      "HighBit": 15,
      "ImageOrientationPatient": [0.9998912210778, -0.0096646058571, 0.01114187619605, 0.01134390560179, 0.98670192921272, -0.1621438210158],
      "ImagePositionPatient": [-890.67426654069, -877.73766447525, 49.084549692519],
      "ImageType": [
        "ORIGINAL",
        "PRIMARY",
        "M",
        "MB",
        "ND",
        "NORM",
        "MOSAIC"
],
      "ImagedNucleus": "1H",
      "ImagingFrequency": 123.259092,
      "InPlanePhaseEncodingDirection": "COL",
      "MRAcquisitionType": "2D",
      "MagneticFieldStrength": 3.0,
      "Manufacturer": "SIEMENS",
      "ManufacturerModelName": "Prisma",
      "Modality": "MR",
      "NumberOfAverages": 1.0,
      "NumberOfPhaseEncodingSteps": 82,
      "PercentPhaseFieldOfView": 100.0,
      "PercentSampling": 100.0,
      "PerformedProcedureStepStartTime": "182815.717000",
      "PhotometricInterpretation": "MONOCHROME2",
      "PixelBandwidth": 3050.0,
      "PixelRepresentation": 0,
      "PixelSpacing": [2.6829268932343, 2.6829268932343],
      "ProtocolName": "func_run-01_task-social_acq-ap-mb8",
      "RepetitionTime": 460.0,
      "Rows": 656,
      "SAR": 0.0935753584373,
      "SamplesPerPixel": 1,
      "ScanOptions": "FS",
      "ScanningSequence": "EP",
      "SequenceName": "epfid2d1_82",
      "SequenceVariant": [
        "SK",
        "SS"
],
      "SeriesDescription": "func_run-01_task-social_acq-ap-mb8",
      "SeriesNumber": 8,
      "SeriesTime": "191013.817000",
      "SliceLocation": -85.587185187977,
      "SliceThickness": 2.7000000476837,
      "SmallestImagePixelValue": 0,
      "SoftwareVersions": "syngo MR E11",
      "SpacingBetweenSlices": 2.6999999879012,
      "SpecificCharacterSet": "ISO_IR 100",
      "StudyID": "1",
      "StudyTime": "182815.648000",
      "TransmitCoilName": "Body",
      "VariableFlipAngleFlag": "N",
      "WindowCenterWidthExplanation": "Algo1"
    },
    "slices": {}
  },
  "time": {
    "samples": {
      "AcquisitionNumber": [1, 2, 3, 4, 5, 6, 7, 8, 9, 10, 11, 12, 13, 14, 15, 16, 17, 18, 19, 20, 21, 22, 23, 24, 25, 26, 27, 28, 29, 30, 31, 32, 33, 34, 35, 36, 37, 38, 39, 40, 41, 42, 43, 44, 45, 46, 47, 48, 49, 50, 51, 52, 53, 54, 55, 56, 57, 58, 59, 60, 61, 62, 63, 64, 65, 66, 67, 68, 69, 70, 71, 72, 73, 74, 75, 76, 77, 78, 79, 80, 81, 82, 83, 84, 85, 86, 87, 88, 89, 90, 91, 92, 93, 94, 95, 96, 97, 98, 99, 100, 101, 102, 103, 104, 105, 106, 107, 108, 109, 110, 111, 112, 113, 114, 115, 116, 117, 118, 119, 120, 121, 122, 123, 124, 125, 126, 127, 128, 129, 130, 131, 132, 133, 134, 135, 136, 137, 138, 139, 140, 141, 142, 143, 144, 145, 146, 147, 148, 149, 150, 151, 152, 153, 154, 155, 156, 157, 158, 159, 160, 161, 162, 163, 164, 165, 166, 167, 168, 169, 170, 171, 172, 173, 174, 175, 176, 177, 178, 179, 180, 181, 182, 183, 184, 185, 186, 187, 188, 189, 190, 191, 192, 193, 194, 195, 196, 197, 198, 199, 200, 201, 202, 203, 204, 205, 206, 207, 208, 209, 210, 211, 212, 213, 214, 215, 216, 217, 218, 219, 220, 221, 222, 223, 224, 225, 226, 227, 228, 229, 230, 231, 232, 233, 234, 235, 236, 237, 238, 239, 240, 241, 242, 243, 244, 245, 246, 247, 248, 249, 250, 251, 252, 253, 254, 255, 256, 257, 258, 259, 260, 261, 262, 263, 264, 265, 266, 267, 268, 269, 270, 271, 272, 273, 274, 275, 276, 277, 278, 279, 280, 281, 282, 283, 284, 285, 286, 287, 288, 289, 290, 291, 292, 293, 294, 295, 296, 297, 298, 299, 300, 301, 302, 303, 304, 305, 306, 307, 308, 309, 310, 311, 312, 313, 314, 315, 316, 317, 318, 319, 320, 321, 322, 323, 324, 325, 326, 327, 328, 329, 330, 331, 332, 333, 334, 335, 336, 337, 338, 339, 340, 341, 342, 343, 344, 345, 346, 347, 348, 349, 350, 351, 352, 353, 354, 355, 356, 357, 358, 359, 360, 361, 362, 363, 364, 365, 366, 367, 368, 369, 370, 371, 372, 373, 374, 375, 376, 377, 378, 379, 380, 381, 382, 383, 384, 385, 386, 387, 388, 389, 390, 391, 392, 393, 394, 395, 396, 397, 398, 399, 400, 401, 402, 403, 404, 405, 406, 407, 408, 409, 410, 411, 412, 413, 414, 415, 416, 417, 418, 419, 420, 421, 422, 423, 424, 425, 426, 427, 428, 429, 430, 431, 432, 433, 434, 435, 436, 437, 438, 439, 440, 441, 442, 443, 444, 445, 446, 447, 448, 449, 450, 451, 452, 453, 454, 455, 456, 457, 458, 459, 460, 461, 462, 463, 464, 465, 466, 467, 468, 469, 470, 471, 472, 473, 474, 475, 476, 477, 478, 479, 480, 481, 482, 483, 484, 485, 486, 487, 488, 489, 490, 491, 492, 493, 494, 495, 496, 497, 498, 499, 500, 501, 502, 503, 504, 505, 506, 507, 508, 509, 510, 511, 512, 513, 514, 515, 516, 517, 518, 519, 520, 521, 522, 523, 524, 525, 526, 527, 528, 529, 530, 531, 532, 533, 534, 535, 536, 537, 538, 539, 540, 541, 542, 543, 544, 545, 546, 547, 548, 549, 550, 551, 552, 553, 554, 555, 556, 557, 558, 559, 560, 561, 562, 563, 564, 565, 566, 567, 568, 569, 570, 571, 572, 573, 574, 575, 576, 577, 578, 579, 580, 581, 582, 583, 584, 585, 586, 587, 588, 589, 590, 591, 592, 593, 594, 595, 596, 597, 598, 599, 600, 601, 602, 603, 604, 605, 606, 607, 608, 609, 610, 611, 612, 613, 614, 615, 616, 617, 618, 619, 620, 621, 622, 623, 624, 625, 626, 627, 628, 629, 630, 631, 632, 633, 634, 635, 636, 637, 638, 639, 640, 641, 642, 643, 644, 645, 646, 647, 648, 649, 650, 651, 652, 653, 654, 655, 656, 657, 658, 659, 660, 661, 662, 663, 664, 665, 666, 667, 668, 669, 670, 671, 672, 673, 674, 675, 676, 677, 678, 679, 680, 681, 682, 683, 684, 685, 686, 687, 688, 689, 690, 691, 692, 693, 694, 695, 696, 697, 698, 699, 700, 701, 702, 703, 704, 705, 706, 707, 708, 709, 710, 711, 712, 713, 714, 715, 716, 717, 718, 719, 720, 721, 722, 723, 724, 725, 726, 727, 728, 729, 730, 731, 732, 733, 734, 735, 736, 737, 738, 739, 740, 741, 742, 743, 744, 745, 746, 747, 748, 749, 750, 751, 752, 753, 754, 755, 756, 757, 758, 759, 760, 761, 762, 763, 764, 765, 766, 767, 768, 769, 770, 771, 772, 773, 774, 775, 776, 777, 778, 779, 780, 781, 782, 783, 784, 785, 786, 787, 788, 789, 790, 791, 792, 793, 794, 795, 796, 797, 798, 799, 800, 801, 802, 803, 804, 805, 806, 807, 808, 809, 810, 811, 812, 813, 814, 815, 816, 817, 818, 819, 820, 821, 822, 823, 824, 825, 826, 827, 828, 829, 830, 831, 832, 833, 834, 835, 836, 837, 838, 839, 840, 841, 842, 843, 844, 845, 846, 847, 848, 849, 850, 851, 852, 853, 854, 855, 856, 857, 858, 859, 860, 861, 862, 863, 864, 865, 866, 867, 868, 869, 870, 871, 872],
      "AcquisitionTime": ["190957.692500", "190958.152500", "190958.612500", "190959.072500", "190959.532500", "190959.992500", "191000.452500", "191000.912500", "191001.372500", "191001.832500", "191002.292500", "191002.752500", "191003.212500", "191003.672500", "191004.132500", "191004.592500", "191005.052500", "191005.512500", "191005.972500", "191006.432500", "191006.892500", "191007.352500", "191007.812500", "191008.272500", "191008.732500", "191009.192500", "191009.652500", "191010.112500", "191010.572500", "191011.032500", "191011.492500", "191011.952500", "191012.412500", "191012.872500", "191013.332500", "191013.792500", "191014.252500", "191014.712500", "191015.172500", "191015.632500", "191016.092500", "191016.552500", "191017.012500", "191017.472500", "191017.932500", "191018.392500", "191018.852500", "191019.312500", "191019.772500", "191020.232500", "191020.692500", "191021.152500", "191021.612500", "191022.072500", "191022.532500", "191022.992500", "191023.452500", "191023.912500", "191024.372500", "191024.832500", "191025.292500", "191025.752500", "191026.212500", "191026.672500", "191027.132500", "191027.592500", "191028.052500", "191028.512500", "191028.972500", "191029.432500", "191029.892500", "191030.352500", "191030.812500", "191031.272500", "191031.732500", "191032.192500", "191032.652500", "191033.112500", "191033.572500", "191034.032500", "191034.492500", "191034.952500", "191035.412500", "191035.872500", "191036.332500", "191036.792500", "191037.252500", "191037.712500", "191038.172500", "191038.632500", "191039.092500", "191039.552500", "191040.012500", "191040.472500", "191040.932500", "191041.392500", "191041.852500", "191042.312500", "191042.772500", "191043.232500", "191043.692500", "191044.152500", "191044.612500", "191045.072500", "191045.532500", "191045.992500", "191046.452500", "191046.912500", "191047.372500", "191047.832500", "191048.292500", "191048.752500", "191049.212500", "191049.672500", "191050.132500", "191050.592500", "191051.052500", "191051.512500", "191051.972500", "191052.432500", "191052.892500", "191053.352500", "191053.812500", "191054.272500", "191054.732500", "191055.192500", "191055.652500", "191056.112500", "191056.572500", "191057.032500", "191057.492500", "191057.952500", "191058.412500", "191058.872500", "191059.332500", "191059.792500", "191100.252500", "191100.712500", "191101.172500", "191101.632500", "191102.092500", "191102.552500", "191103.012500", "191103.472500", "191103.932500", "191104.392500", "191104.852500", "191105.312500", "191105.772500", "191106.232500", "191106.692500", "191107.152500", "191107.612500", "191108.072500", "191108.532500", "191108.992500", "191109.452500", "191109.912500", "191110.372500", "191110.832500", "191111.292500", "191111.752500", "191112.212500", "191112.672500", "191113.132500", "191113.592500", "191114.052500", "191114.512500", "191114.972500", "191115.432500", "191115.892500", "191116.352500", "191116.812500", "191117.272500", "191117.732500", "191118.192500", "191118.652500", "191119.112500", "191119.572500", "191120.032500", "191120.492500", "191120.952500", "191121.412500", "191121.872500", "191122.332500", "191122.792500", "191123.252500", "191123.712500", "191124.172500", "191124.632500", "191125.092500", "191125.552500", "191126.012500", "191126.472500", "191126.932500", "191127.392500", "191127.852500", "191128.312500", "191128.772500", "191129.232500", "191129.692500", "191130.152500", "191130.612500", "191131.072500", "191131.532500", "191131.992500", "191132.452500", "191132.912500", "191133.372500", "191133.832500", "191134.292500", "191134.752500", "191135.212500", "191135.672500", "191136.132500", "191136.592500", "191137.052500", "191137.512500", "191137.972500", "191138.432500", "191138.892500", "191139.352500", "191139.812500", "191140.272500", "191140.732500", "191141.192500", "191141.652500", "191142.112500", "191142.572500", "191143.032500", "191143.492500", "191143.952500", "191144.412500", "191144.872500", "191145.332500", "191145.792500", "191146.252500", "191146.712500", "191147.172500", "191147.632500", "191148.092500", "191148.552500", "191149.012500", "191149.472500", "191149.932500", "191150.392500", "191150.852500", "191151.312500", "191151.772500", "191152.232500", "191152.692500", "191153.152500", "191153.612500", "191154.072500", "191154.532500", "191154.992500", "191155.452500", "191155.912500", "191156.372500", "191156.832500", "191157.292500", "191157.752500", "191158.212500", "191158.672500", "191159.132500", "191159.592500", "191200.052500", "191200.512500", "191200.972500", "191201.432500", "191201.892500", "191202.352500", "191202.812500", "191203.272500", "191203.732500", "191204.192500", "191204.652500", "191205.112500", "191205.572500", "191206.032500", "191206.492500", "191206.952500", "191207.412500", "191207.872500", "191208.332500", "191208.792500", "191209.252500", "191209.712500", "191210.172500", "191210.632500", "191211.092500", "191211.552500", "191212.012500", "191212.472500", "191212.932500", "191213.392500", "191213.852500", "191214.312500", "191214.772500", "191215.232500", "191215.692500", "191216.152500", "191216.612500", "191217.072500", "191217.532500", "191217.992500", "191218.452500", "191218.912500", "191219.372500", "191219.832500", "191220.292500", "191220.752500", "191221.212500", "191221.672500", "191222.132500", "191222.592500", "191223.052500", "191223.512500", "191223.972500", "191224.432500", "191224.892500", "191225.352500", "191225.812500", "191226.272500", "191226.732500", "191227.192500", "191227.652500", "191228.112500", "191228.572500", "191229.032500", "191229.492500", "191229.952500", "191230.412500", "191230.872500", "191231.332500", "191231.792500", "191232.252500", "191232.712500", "191233.172500", "191233.632500", "191234.092500", "191234.552500", "191235.012500", "191235.472500", "191235.932500", "191236.392500", "191236.852500", "191237.312500", "191237.772500", "191238.232500", "191238.692500", "191239.152500", "191239.612500", "191240.072500", "191240.532500", "191240.992500", "191241.452500", "191241.912500", "191242.372500", "191242.832500", "191243.292500", "191243.752500", "191244.212500", "191244.672500", "191245.132500", "191245.592500", "191246.052500", "191246.512500", "191246.972500", "191247.432500", "191247.892500", "191248.352500", "191248.812500", "191249.272500", "191249.732500", "191250.192500", "191250.652500", "191251.112500", "191251.572500", "191252.032500", "191252.492500", "191252.952500", "191253.412500", "191253.872500", "191254.332500", "191254.792500", "191255.252500", "191255.712500", "191256.172500", "191256.632500", "191257.092500", "191257.552500", "191258.012500", "191258.472500", "191258.932500", "191259.392500", "191259.852500", "191300.312500", "191300.772500", "191301.232500", "191301.692500", "191302.152500", "191302.612500", "191303.072500", "191303.532500", "191303.992500", "191304.452500", "191304.912500", "191305.372500", "191305.832500", "191306.292500", "191306.752500", "191307.212500", "191307.672500", "191308.132500", "191308.592500", "191309.052500", "191309.512500", "191309.972500", "191310.432500", "191310.892500", "191311.352500", "191311.812500", "191312.272500", "191312.732500", "191313.192500", "191313.652500", "191314.112500", "191314.572500", "191315.032500", "191315.492500", "191315.952500", "191316.412500", "191316.872500", "191317.332500", "191317.792500", "191318.252500", "191318.712500", "191319.172500", "191319.632500", "191320.092500", "191320.552500", "191321.012500", "191321.472500", "191321.932500", "191322.392500", "191322.852500", "191323.312500", "191323.772500", "191324.232500", "191324.692500", "191325.152500", "191325.612500", "191326.072500", "191326.532500", "191326.992500", "191327.452500", "191327.912500", "191328.372500", "191328.832500", "191329.292500", "191329.752500", "191330.212500", "191330.672500", "191331.132500", "191331.592500", "191332.052500", "191332.512500", "191332.972500", "191333.432500", "191333.892500", "191334.352500", "191334.812500", "191335.272500", "191335.732500", "191336.192500", "191336.652500", "191337.112500", "191337.572500", "191338.032500", "191338.492500", "191338.952500", "191339.412500", "191339.872500", "191340.332500", "191340.792500", "191341.252500", "191341.712500", "191342.172500", "191342.632500", "191343.092500", "191343.552500", "191344.012500", "191344.472500", "191344.932500", "191345.392500", "191345.852500", "191346.312500", "191346.772500", "191347.232500", "191347.692500", "191348.152500", "191348.612500", "191349.072500", "191349.532500", "191349.992500", "191350.452500", "191350.912500", "191351.372500", "191351.832500", "191352.292500", "191352.752500", "191353.212500", "191353.672500", "191354.132500", "191354.592500", "191355.052500", "191355.512500", "191355.972500", "191356.432500", "191356.892500", "191357.352500", "191357.812500", "191358.272500", "191358.732500", "191359.192500", "191359.652500", "191400.112500", "191400.572500", "191401.032500", "191401.492500", "191401.952500", "191402.412500", "191402.872500", "191403.332500", "191403.792500", "191404.252500", "191404.712500", "191405.172500", "191405.632500", "191406.092500", "191406.552500", "191407.012500", "191407.472500", "191407.932500", "191408.392500", "191408.852500", "191409.312500", "191409.772500", "191410.232500", "191410.692500", "191411.152500", "191411.612500", "191412.072500", "191412.532500", "191412.992500", "191413.452500", "191413.912500", "191414.372500", "191414.832500", "191415.292500", "191415.752500", "191416.212500", "191416.672500", "191417.132500", "191417.592500", "191418.052500", "191418.512500", "191418.972500", "191419.432500", "191419.892500", "191420.352500", "191420.812500", "191421.272500", "191421.732500", "191422.192500", "191422.652500", "191423.112500", "191423.572500", "191424.032500", "191424.492500", "191424.952500", "191425.412500", "191425.872500", "191426.332500", "191426.792500", "191427.252500", "191427.712500", "191428.172500", "191428.632500", "191429.092500", "191429.552500", "191430.012500", "191430.472500", "191430.932500", "191431.392500", "191431.852500", "191432.312500", "191432.772500", "191433.232500", "191433.692500", "191434.152500", "191434.612500", "191435.072500", "191435.532500", "191435.992500", "191436.452500", "191436.912500", "191437.372500", "191437.832500", "191438.292500", "191438.752500", "191439.212500", "191439.672500", "191440.132500", "191440.592500", "191441.052500", "191441.512500", "191441.972500", "191442.432500", "191442.892500", "191443.352500", "191443.812500", "191444.272500", "191444.732500", "191445.192500", "191445.652500", "191446.112500", "191446.572500", "191447.032500", "191447.492500", "191447.952500", "191448.412500", "191448.872500", "191449.332500", "191449.792500", "191450.252500", "191450.712500", "191451.172500", "191451.632500", "191452.092500", "191452.552500", "191453.012500", "191453.472500", "191453.932500", "191454.392500", "191454.852500", "191455.312500", "191455.772500", "191456.232500", "191456.692500", "191457.152500", "191457.612500", "191458.072500", "191458.532500", "191458.992500", "191459.452500", "191459.912500", "191500.372500", "191500.832500", "191501.292500", "191501.752500", "191502.212500", "191502.672500", "191503.132500", "191503.592500", "191504.052500", "191504.512500", "191504.972500", "191505.432500", "191505.892500", "191506.352500", "191506.812500", "191507.272500", "191507.732500", "191508.192500", "191508.652500", "191509.112500", "191509.572500", "191510.032500", "191510.492500", "191510.952500", "191511.412500", "191511.872500", "191512.332500", "191512.792500", "191513.252500", "191513.712500", "191514.172500", "191514.632500", "191515.092500", "191515.552500", "191516.012500", "191516.472500", "191516.932500", "191517.392500", "191517.852500", "191518.312500", "191518.772500", "191519.232500", "191519.692500", "191520.152500", "191520.612500", "191521.072500", "191521.532500", "191521.992500", "191522.452500", "191522.912500", "191523.372500", "191523.832500", "191524.292500", "191524.752500", "191525.212500", "191525.672500", "191526.132500", "191526.592500", "191527.052500", "191527.512500", "191527.972500", "191528.432500", "191528.892500", "191529.352500", "191529.812500", "191530.272500", "191530.732500", "191531.192500", "191531.652500", "191532.112500", "191532.572500", "191533.032500", "191533.492500", "191533.952500", "191534.412500", "191534.872500", "191535.332500", "191535.792500", "191536.252500", "191536.712500", "191537.172500", "191537.632500", "191538.092500", "191538.552500", "191539.012500", "191539.472500", "191539.932500", "191540.392500", "191540.852500", "191541.312500", "191541.772500", "191542.232500", "191542.692500", "191543.152500", "191543.612500", "191544.072500", "191544.532500", "191544.992500", "191545.452500", "191545.912500", "191546.372500", "191546.832500", "191547.292500", "191547.752500", "191548.212500", "191548.672500", "191549.132500", "191549.592500", "191550.052500", "191550.512500", "191550.972500", "191551.432500", "191551.892500", "191552.352500", "191552.812500", "191553.272500", "191553.732500", "191554.192500", "191554.652500", "191555.112500", "191555.572500", "191556.032500", "191556.492500", "191556.952500", "191557.412500", "191557.872500", "191558.332500", "191558.792500", "191559.252500", "191559.712500", "191600.172500", "191600.632500", "191601.092500", "191601.552500", "191602.012500", "191602.472500", "191602.932500", "191603.392500", "191603.852500", "191604.312500", "191604.772500", "191605.232500", "191605.692500", "191606.152500", "191606.612500", "191607.072500", "191607.532500", "191607.992500", "191608.452500", "191608.912500", "191609.372500", "191609.832500", "191610.292500", "191610.752500", "191611.212500", "191611.672500", "191612.132500", "191612.592500", "191613.052500", "191613.512500", "191613.972500", "191614.432500", "191614.892500", "191615.352500", "191615.812500", "191616.272500", "191616.732500", "191617.192500", "191617.652500", "191618.112500", "191618.572500", "191619.032500", "191619.492500", "191619.952500", "191620.412500", "191620.872500", "191621.332500", "191621.792500", "191622.252500", "191622.712500", "191623.172500", "191623.632500", "191624.092500", "191624.552500", "191625.012500", "191625.472500", "191625.932500", "191626.392500", "191626.852500", "191627.312500", "191627.772500", "191628.232500", "191628.692500", "191629.152500", "191629.612500", "191630.072500", "191630.532500", "191630.992500", "191631.452500", "191631.912500", "191632.372500", "191632.832500", "191633.292500", "191633.752500", "191634.212500", "191634.672500", "191635.132500", "191635.592500", "191636.052500", "191636.512500", "191636.972500", "191637.432500", "191637.892500", "191638.352500"],
