{
  "AcquisitionMatrixPE": 82,
  "AcquisitionNumber": 1,
  "AcquisitionTime": "13:25:3.482500",
  "BandwidthPerPixelPhaseEncode": 24.888,
  "BaseResolution": 82,
  "BodyPartExamined": "BRAIN",
  "ConsistencyInfo": "N4_VE11E_LATEST_20181129",
  "ConversionSoftware": "dcm2niix",
  "ConversionSoftwareVersion": "v1.0.20201102",
  "DerivedVendorReportedEchoSpacing": 0.00049,
  "DeviceSerialNumber": "66112",
  "DwellTime": 2e-06,
  "EchoTime": 0.0272,
  "EchoTrainLength": 82,
  "EffectiveEchoSpacing": 0.00049,
  "FlipAngle": 44,
  "ImageComments": "Unaliased MB8/PE3",
  "ImageOrientationPatientDICOM": [0.995865, 0.0903364, 0.00961124, -0.0883531, 0.987715, -0.128894],
  "ImageType": [
    "ORIGINAL",
    "PRIMARY",
    "M",
    "MB",
    "ND",
    "NORM",
    "MOSAIC"
],
  "ImagingFrequency": 123.259,
  "InPlanePhaseEncodingDirectionDICOM": "COL",
  "InstitutionAddress": "Maynard 3,Hanover,NH,US,03755",
  "InstitutionName": "Dartmouth College - PBS",
  "InstitutionalDepartmentName": "Department",
  "MRAcquisitionType": "2D",
  "MagneticFieldStrength": 3,
  "Manufacturer": "Siemens",
  "ManufacturersModelName": "Prisma",
  "Modality": "MR",
  "MultibandAccelerationFactor": 8,
  "PartialFourier": 1,
  "PatientPosition": "HFS",
  "PercentPhaseFOV": 100,
  "PercentSampling": 100,
  "PhaseEncodingDirection": "j-",
  "PhaseEncodingSteps": 82,
  "PhaseResolution": 1,
  "PixelBandwidth": 3050,
  "ProcedureStepDescription": "Wager_Wager^1076_spacetop",
  "ProtocolName": "func_run-01_task-social_acq-ap-mb8",
  "PulseSequenceDetails": "%CustomerSeq%\\cmrr_mbep2d_bold",
  "ReceiveCoilActiveElements": "HEA;HEP",
  "ReceiveCoilName": "Head_32",
  "ReconMatrixPE": 82,
  "RepetitionTime": 0.46,
  "SAR": 0.0833881,
  "ScanOptions": "FS",
  "ScanningSequence": "EP",
  "SequenceName": "epfid2d1_82",
  "SequenceVariant": "SK\\SS",
  "SeriesDescription": "func_run-01_task-social_acq-ap-mb8",
  "SeriesNumber": 12,
  "ShimSetting": [4220, -7722, -7260, 289, -207, -16, -23, 127],
  "SliceThickness": 2.7,
  "SliceTiming": [0, 0.2525, 0.0625, 0.315, 0.125, 0.3775, 0.19, 0, 0.2525, 0.0625, 0.315, 0.125, 0.3775, 0.19, 0, 0.2525, 0.0625, 0.315, 0.125, 0.3775, 0.19, 0, 0.2525, 0.0625, 0.315, 0.125, 0.3775, 0.19, 0, 0.2525, 0.0625, 0.315, 0.125, 0.3775, 0.19, 0, 0.2525, 0.0625, 0.315, 0.125, 0.3775, 0.19, 0, 0.2525, 0.0625, 0.315, 0.125, 0.3775, 0.19, 0, 0.2525, 0.0625, 0.315, 0.125, 0.3775, 0.19],
  "SoftwareVersions": "syngo MR E11",
  "SpacingBetweenSlices": 2.7,
  "StationName": "AWP66112",
  "TaskName": "social",
  "TotalReadoutTime": 0.03969,
  "TxRefAmp": 228.948,
  "WipMemBlock": "9579c880-1f3e-4ac0-8b20-ef1fb2726ec7||Sequence: R016 ve11e/master r/434b28f1; Aug  7 2019 18:53:46 by eja",
  "dcmmeta_affine": [
    [-2.671832799911499, -0.2370448261499405, 0.05706977844238281, 117.84999084472656],
    [-0.24236588180065155, 2.64996600151062, -0.3442813456058502, -87.31549835205078],
    [0.025786247104406357, 0.34581258893013, 2.677351951599121, -105.10308837890625],
    [0.0, 0.0, 0.0, 1.0]
],
  "dcmmeta_reorient_transform": [
    [0.0, -1.0, 0.0, 81.0],
    [1.0, 0.0, 0.0, 0.0],
    [0.0, 0.0, 1.0, 0.0],
    [0.0, 0.0, 0.0, 1.0]
],
  "dcmmeta_shape": [82, 82, 56, 872],
  "dcmmeta_slice_dim": 2,
  "dcmmeta_version": 0.6,
  "global": {
    "const": {
      "AccessionNumber": "A004527",
      "AcquisitionMatrix": [82, 0, 0, 82],
      "AngioFlag": "N",
      "BitsAllocated": 16,
      "BitsStored": 16,
      "BodyPartExamined": "BRAIN",
      "Columns": 656,
      "EchoNumbers": 1,
      "EchoTime": 27.2,
      "EchoTrainLength": 82,
      "FlipAngle": 44.0,
      "HighBit": 15,
      "ImageOrientationPatient": [0.99586493264432, 0.09033637169528, 0.00961123708205, -0.0883530703774, 0.98771459893966, -0.1288937779582],
      "ImagePositionPatient": [-797.43351369863, -957.43101916455, 14.755290085027],
      "ImageType": [
        "ORIGINAL",
        "PRIMARY",
        "M",
        "MB",
        "ND",
        "NORM",
        "MOSAIC"
],
      "ImagedNucleus": "1H",
      "ImagingFrequency": 123.259114,
      "InPlanePhaseEncodingDirection": "COL",
      "MRAcquisitionType": "2D",
      "MagneticFieldStrength": 3.0,
      "Manufacturer": "SIEMENS",
      "ManufacturerModelName": "Prisma",
      "Modality": "MR",
      "NumberOfAverages": 1.0,
      "NumberOfPhaseEncodingSteps": 82,
      "PercentPhaseFieldOfView": 100.0,
      "PercentSampling": 100.0,
      "PerformedProcedureStepStartTime": "125042.586000",
      "PhotometricInterpretation": "MONOCHROME2",
      "PixelBandwidth": 3050.0,
      "PixelRepresentation": 0,
      "PixelSpacing": [2.6829268932343, 2.6829268932343],
      "ProtocolName": "func_run-01_task-social_acq-ap-mb8",
      "RepetitionTime": 460.0,
      "Rows": 656,
      "SAR": 0.08338805493411,
      "SamplesPerPixel": 1,
      "ScanOptions": "FS",
      "ScanningSequence": "EP",
      "SequenceName": "epfid2d1_82",
      "SequenceVariant": [
        "SK",
        "SS"
],
      "SeriesDescription": "func_run-01_task-social_acq-ap-mb8",
      "SeriesNumber": 12,
      "SeriesTime": "132524.918000",
      "SliceLocation": -90.596735060675,
      "SliceThickness": 2.7000000476837,
      "SmallestImagePixelValue": 0,
      "SoftwareVersions": "syngo MR E11",
      "SpacingBetweenSlices": 2.6999999977395,
      "SpecificCharacterSet": "ISO_IR 100",
      "StudyID": "1",
      "StudyTime": "125042.500000",
      "TransmitCoilName": "Body",
      "VariableFlipAngleFlag": "N",
      "WindowCenterWidthExplanation": "Algo1"
    },
    "slices": {}
  },
  "time": {
    "samples": {
      "AcquisitionNumber": [1, 2, 3, 4, 5, 6, 7, 8, 9, 10, 11, 12, 13, 14, 15, 16, 17, 18, 19, 20, 21, 22, 23, 24, 25, 26, 27, 28, 29, 30, 31, 32, 33, 34, 35, 36, 37, 38, 39, 40, 41, 42, 43, 44, 45, 46, 47, 48, 49, 50, 51, 52, 53, 54, 55, 56, 57, 58, 59, 60, 61, 62, 63, 64, 65, 66, 67, 68, 69, 70, 71, 72, 73, 74, 75, 76, 77, 78, 79, 80, 81, 82, 83, 84, 85, 86, 87, 88, 89, 90, 91, 92, 93, 94, 95, 96, 97, 98, 99, 100, 101, 102, 103, 104, 105, 106, 107, 108, 109, 110, 111, 112, 113, 114, 115, 116, 117, 118, 119, 120, 121, 122, 123, 124, 125, 126, 127, 128, 129, 130, 131, 132, 133, 134, 135, 136, 137, 138, 139, 140, 141, 142, 143, 144, 145, 146, 147, 148, 149, 150, 151, 152, 153, 154, 155, 156, 157, 158, 159, 160, 161, 162, 163, 164, 165, 166, 167, 168, 169, 170, 171, 172, 173, 174, 175, 176, 177, 178, 179, 180, 181, 182, 183, 184, 185, 186, 187, 188, 189, 190, 191, 192, 193, 194, 195, 196, 197, 198, 199, 200, 201, 202, 203, 204, 205, 206, 207, 208, 209, 210, 211, 212, 213, 214, 215, 216, 217, 218, 219, 220, 221, 222, 223, 224, 225, 226, 227, 228, 229, 230, 231, 232, 233, 234, 235, 236, 237, 238, 239, 240, 241, 242, 243, 244, 245, 246, 247, 248, 249, 250, 251, 252, 253, 254, 255, 256, 257, 258, 259, 260, 261, 262, 263, 264, 265, 266, 267, 268, 269, 270, 271, 272, 273, 274, 275, 276, 277, 278, 279, 280, 281, 282, 283, 284, 285, 286, 287, 288, 289, 290, 291, 292, 293, 294, 295, 296, 297, 298, 299, 300, 301, 302, 303, 304, 305, 306, 307, 308, 309, 310, 311, 312, 313, 314, 315, 316, 317, 318, 319, 320, 321, 322, 323, 324, 325, 326, 327, 328, 329, 330, 331, 332, 333, 334, 335, 336, 337, 338, 339, 340, 341, 342, 343, 344, 345, 346, 347, 348, 349, 350, 351, 352, 353, 354, 355, 356, 357, 358, 359, 360, 361, 362, 363, 364, 365, 366, 367, 368, 369, 370, 371, 372, 373, 374, 375, 376, 377, 378, 379, 380, 381, 382, 383, 384, 385, 386, 387, 388, 389, 390, 391, 392, 393, 394, 395, 396, 397, 398, 399, 400, 401, 402, 403, 404, 405, 406, 407, 408, 409, 410, 411, 412, 413, 414, 415, 416, 417, 418, 419, 420, 421, 422, 423, 424, 425, 426, 427, 428, 429, 430, 431, 432, 433, 434, 435, 436, 437, 438, 439, 440, 441, 442, 443, 444, 445, 446, 447, 448, 449, 450, 451, 452, 453, 454, 455, 456, 457, 458, 459, 460, 461, 462, 463, 464, 465, 466, 467, 468, 469, 470, 471, 472, 473, 474, 475, 476, 477, 478, 479, 480, 481, 482, 483, 484, 485, 486, 487, 488, 489, 490, 491, 492, 493, 494, 495, 496, 497, 498, 499, 500, 501, 502, 503, 504, 505, 506, 507, 508, 509, 510, 511, 512, 513, 514, 515, 516, 517, 518, 519, 520, 521, 522, 523, 524, 525, 526, 527, 528, 529, 530, 531, 532, 533, 534, 535, 536, 537, 538, 539, 540, 541, 542, 543, 544, 545, 546, 547, 548, 549, 550, 551, 552, 553, 554, 555, 556, 557, 558, 559, 560, 561, 562, 563, 564, 565, 566, 567, 568, 569, 570, 571, 572, 573, 574, 575, 576, 577, 578, 579, 580, 581, 582, 583, 584, 585, 586, 587, 588, 589, 590, 591, 592, 593, 594, 595, 596, 597, 598, 599, 600, 601, 602, 603, 604, 605, 606, 607, 608, 609, 610, 611, 612, 613, 614, 615, 616, 617, 618, 619, 620, 621, 622, 623, 624, 625, 626, 627, 628, 629, 630, 631, 632, 633, 634, 635, 636, 637, 638, 639, 640, 641, 642, 643, 644, 645, 646, 647, 648, 649, 650, 651, 652, 653, 654, 655, 656, 657, 658, 659, 660, 661, 662, 663, 664, 665, 666, 667, 668, 669, 670, 671, 672, 673, 674, 675, 676, 677, 678, 679, 680, 681, 682, 683, 684, 685, 686, 687, 688, 689, 690, 691, 692, 693, 694, 695, 696, 697, 698, 699, 700, 701, 702, 703, 704, 705, 706, 707, 708, 709, 710, 711, 712, 713, 714, 715, 716, 717, 718, 719, 720, 721, 722, 723, 724, 725, 726, 727, 728, 729, 730, 731, 732, 733, 734, 735, 736, 737, 738, 739, 740, 741, 742, 743, 744, 745, 746, 747, 748, 749, 750, 751, 752, 753, 754, 755, 756, 757, 758, 759, 760, 761, 762, 763, 764, 765, 766, 767, 768, 769, 770, 771, 772, 773, 774, 775, 776, 777, 778, 779, 780, 781, 782, 783, 784, 785, 786, 787, 788, 789, 790, 791, 792, 793, 794, 795, 796, 797, 798, 799, 800, 801, 802, 803, 804, 805, 806, 807, 808, 809, 810, 811, 812, 813, 814, 815, 816, 817, 818, 819, 820, 821, 822, 823, 824, 825, 826, 827, 828, 829, 830, 831, 832, 833, 834, 835, 836, 837, 838, 839, 840, 841, 842, 843, 844, 845, 846, 847, 848, 849, 850, 851, 852, 853, 854, 855, 856, 857, 858, 859, 860, 861, 862, 863, 864, 865, 866, 867, 868, 869, 870, 871, 872],
      "AcquisitionTime": ["132503.482500", "132503.942500", "132504.402500", "132504.862500", "132505.322500", "132505.782500", "132506.242500", "132506.702500", "132507.162500", "132507.622500", "132508.082500", "132508.542500", "132509.002500", "132509.462500", "132509.922500", "132510.382500", "132510.842500", "132511.302500", "132511.762500", "132512.222500", "132512.682500", "132513.142500", "132513.602500", "132514.062500", "132514.522500", "132514.982500", "132515.442500", "132515.902500", "132516.362500", "132516.822500", "132517.282500", "132517.742500", "132518.202500", "132518.662500", "132519.122500", "132519.582500", "132520.042500", "132520.502500", "132520.962500", "132521.422500", "132521.882500", "132522.342500", "132522.802500", "132523.262500", "132523.722500", "132524.182500", "132524.642500", "132525.102500", "132525.562500", "132526.022500", "132526.482500", "132526.942500", "132527.402500", "132527.862500", "132528.322500", "132528.782500", "132529.242500", "132529.702500", "132530.162500", "132530.622500", "132531.082500", "132531.542500", "132532.002500", "132532.462500", "132532.922500", "132533.382500", "132533.842500", "132534.302500", "132534.762500", "132535.222500", "132535.682500", "132536.142500", "132536.602500", "132537.062500", "132537.522500", "132537.982500", "132538.442500", "132538.902500", "132539.362500", "132539.822500", "132540.282500", "132540.742500", "132541.202500", "132541.662500", "132542.122500", "132542.582500", "132543.042500", "132543.502500", "132543.962500", "132544.422500", "132544.882500", "132545.342500", "132545.802500", "132546.262500", "132546.722500", "132547.182500", "132547.642500", "132548.102500", "132548.562500", "132549.022500", "132549.482500", "132549.942500", "132550.402500", "132550.862500", "132551.322500", "132551.782500", "132552.242500", "132552.702500", "132553.162500", "132553.622500", "132554.082500", "132554.542500", "132555.002500", "132555.462500", "132555.922500", "132556.382500", "132556.842500", "132557.302500", "132557.762500", "132558.222500", "132558.682500", "132559.142500", "132559.602500", "132600.062500", "132600.522500", "132600.982500", "132601.442500", "132601.902500", "132602.362500", "132602.822500", "132603.282500", "132603.742500", "132604.202500", "132604.662500", "132605.122500", "132605.582500", "132606.042500", "132606.502500", "132606.962500", "132607.422500", "132607.882500", "132608.342500", "132608.802500", "132609.262500", "132609.722500", "132610.182500", "132610.642500", "132611.102500", "132611.562500", "132612.022500", "132612.482500", "132612.942500", "132613.402500", "132613.862500", "132614.322500", "132614.782500", "132615.242500", "132615.702500", "132616.162500", "132616.622500", "132617.082500", "132617.542500", "132618.002500", "132618.462500", "132618.922500", "132619.382500", "132619.842500", "132620.302500", "132620.762500", "132621.222500", "132621.682500", "132622.142500", "132622.602500", "132623.062500", "132623.522500", "132623.982500", "132624.442500", "132624.902500", "132625.362500", "132625.822500", "132626.282500", "132626.742500", "132627.202500", "132627.662500", "132628.122500", "132628.582500", "132629.042500", "132629.502500", "132629.962500", "132630.422500", "132630.882500", "132631.342500", "132631.802500", "132632.262500", "132632.722500", "132633.182500", "132633.642500", "132634.102500", "132634.562500", "132635.022500", "132635.482500", "132635.942500", "132636.402500", "132636.862500", "132637.322500", "132637.782500", "132638.242500", "132638.702500", "132639.162500", "132639.622500", "132640.082500", "132640.542500", "132641.002500", "132641.462500", "132641.922500", "132642.382500", "132642.842500", "132643.302500", "132643.762500", "132644.222500", "132644.682500", "132645.142500", "132645.602500", "132646.062500", "132646.522500", "132646.982500", "132647.442500", "132647.902500", "132648.362500", "132648.822500", "132649.282500", "132649.742500", "132650.202500", "132650.662500", "132651.122500", "132651.582500", "132652.042500", "132652.502500", "132652.962500", "132653.422500", "132653.882500", "132654.342500", "132654.802500", "132655.262500", "132655.722500", "132656.182500", "132656.642500", "132657.102500", "132657.562500", "132658.022500", "132658.482500", "132658.942500", "132659.402500", "132659.862500", "132700.322500", "132700.782500", "132701.242500", "132701.702500", "132702.162500", "132702.622500", "132703.082500", "132703.542500", "132704.002500", "132704.462500", "132704.922500", "132705.382500", "132705.842500", "132706.302500", "132706.762500", "132707.222500", "132707.682500", "132708.142500", "132708.602500", "132709.062500", "132709.522500", "132709.982500", "132710.442500", "132710.902500", "132711.362500", "132711.822500", "132712.282500", "132712.742500", "132713.202500", "132713.662500", "132714.122500", "132714.582500", "132715.042500", "132715.502500", "132715.962500", "132716.422500", "132716.882500", "132717.342500", "132717.802500", "132718.262500", "132718.722500", "132719.182500", "132719.642500", "132720.102500", "132720.562500", "132721.022500", "132721.482500", "132721.942500", "132722.402500", "132722.862500", "132723.322500", "132723.782500", "132724.242500", "132724.702500", "132725.162500", "132725.622500", "132726.082500", "132726.542500", "132727.002500", "132727.462500", "132727.922500", "132728.382500", "132728.842500", "132729.302500", "132729.762500", "132730.222500", "132730.682500", "132731.142500", "132731.602500", "132732.062500", "132732.522500", "132732.982500", "132733.442500", "132733.902500", "132734.362500", "132734.822500", "132735.282500", "132735.742500", "132736.202500", "132736.662500", "132737.122500", "132737.582500", "132738.042500", "132738.502500", "132738.962500", "132739.422500", "132739.882500", "132740.342500", "132740.802500", "132741.262500", "132741.722500", "132742.182500", "132742.642500", "132743.102500", "132743.562500", "132744.022500", "132744.482500", "132744.942500", "132745.402500", "132745.862500", "132746.322500", "132746.782500", "132747.242500", "132747.702500", "132748.162500", "132748.622500", "132749.082500", "132749.542500", "132750.002500", "132750.462500", "132750.922500", "132751.382500", "132751.842500", "132752.302500", "132752.762500", "132753.222500", "132753.682500", "132754.142500", "132754.602500", "132755.062500", "132755.522500", "132755.982500", "132756.442500", "132756.902500", "132757.362500", "132757.822500", "132758.282500", "132758.742500", "132759.202500", "132759.662500", "132800.122500", "132800.582500", "132801.042500", "132801.502500", "132801.962500", "132802.422500", "132802.882500", "132803.342500", "132803.802500", "132804.262500", "132804.722500", "132805.182500", "132805.642500", "132806.102500", "132806.562500", "132807.022500", "132807.482500", "132807.942500", "132808.402500", "132808.862500", "132809.322500", "132809.782500", "132810.242500", "132810.702500", "132811.162500", "132811.622500", "132812.082500", "132812.542500", "132813.002500", "132813.462500", "132813.922500", "132814.382500", "132814.842500", "132815.302500", "132815.762500", "132816.222500", "132816.682500", "132817.142500", "132817.602500", "132818.062500", "132818.522500", "132818.982500", "132819.442500", "132819.902500", "132820.362500", "132820.822500", "132821.282500", "132821.742500", "132822.202500", "132822.662500", "132823.122500", "132823.582500", "132824.042500", "132824.502500", "132824.962500", "132825.422500", "132825.882500", "132826.342500", "132826.802500", "132827.262500", "132827.722500", "132828.182500", "132828.642500", "132829.102500", "132829.562500", "132830.022500", "132830.482500", "132830.942500", "132831.402500", "132831.862500", "132832.322500", "132832.782500", "132833.242500", "132833.702500", "132834.162500", "132834.622500", "132835.082500", "132835.542500", "132836.002500", "132836.462500", "132836.922500", "132837.382500", "132837.842500", "132838.302500", "132838.762500", "132839.222500", "132839.682500", "132840.142500", "132840.602500", "132841.062500", "132841.522500", "132841.982500", "132842.442500", "132842.902500", "132843.362500", "132843.822500", "132844.282500", "132844.742500", "132845.202500", "132845.662500", "132846.122500", "132846.582500", "132847.042500", "132847.502500", "132847.962500", "132848.422500", "132848.882500", "132849.342500", "132849.802500", "132850.262500", "132850.722500", "132851.182500", "132851.642500", "132852.102500", "132852.562500", "132853.022500", "132853.482500", "132853.942500", "132854.402500", "132854.862500", "132855.322500", "132855.782500", "132856.242500", "132856.702500", "132857.162500", "132857.622500", "132858.082500", "132858.542500", "132859.002500", "132859.462500", "132859.922500", "132900.382500", "132900.842500", "132901.302500", "132901.762500", "132902.222500", "132902.682500", "132903.142500", "132903.602500", "132904.062500", "132904.522500", "132904.982500", "132905.442500", "132905.902500", "132906.362500", "132906.822500", "132907.282500", "132907.742500", "132908.202500", "132908.662500", "132909.122500", "132909.582500", "132910.042500", "132910.502500", "132910.962500", "132911.422500", "132911.882500", "132912.342500", "132912.802500", "132913.262500", "132913.722500", "132914.182500", "132914.642500", "132915.102500", "132915.562500", "132916.022500", "132916.482500", "132916.942500", "132917.402500", "132917.862500", "132918.322500", "132918.782500", "132919.242500", "132919.702500", "132920.162500", "132920.622500", "132921.082500", "132921.542500", "132922.002500", "132922.462500", "132922.922500", "132923.382500", "132923.842500", "132924.302500", "132924.762500", "132925.222500", "132925.682500", "132926.142500", "132926.602500", "132927.062500", "132927.522500", "132927.982500", "132928.442500", "132928.902500", "132929.362500", "132929.822500", "132930.282500", "132930.742500", "132931.202500", "132931.662500", "132932.122500", "132932.582500", "132933.042500", "132933.502500", "132933.962500", "132934.422500", "132934.882500", "132935.342500", "132935.802500", "132936.262500", "132936.722500", "132937.182500", "132937.642500", "132938.102500", "132938.562500", "132939.022500", "132939.482500", "132939.942500", "132940.402500", "132940.862500", "132941.322500", "132941.782500", "132942.242500", "132942.702500", "132943.162500", "132943.622500", "132944.082500", "132944.542500", "132945.002500", "132945.462500", "132945.922500", "132946.382500", "132946.842500", "132947.302500", "132947.762500", "132948.222500", "132948.682500", "132949.142500", "132949.602500", "132950.062500", "132950.522500", "132950.982500", "132951.442500", "132951.902500", "132952.362500", "132952.822500", "132953.282500", "132953.742500", "132954.202500", "132954.662500", "132955.122500", "132955.582500", "132956.042500", "132956.502500", "132956.962500", "132957.422500", "132957.882500", "132958.342500", "132958.802500", "132959.262500", "132959.722500", "133000.182500", "133000.642500", "133001.102500", "133001.562500", "133002.022500", "133002.482500", "133002.942500", "133003.402500", "133003.862500", "133004.322500", "133004.782500", "133005.242500", "133005.702500", "133006.162500", "133006.622500", "133007.082500", "133007.542500", "133008.002500", "133008.462500", "133008.922500", "133009.382500", "133009.842500", "133010.302500", "133010.762500", "133011.222500", "133011.682500", "133012.142500", "133012.602500", "133013.062500", "133013.522500", "133013.982500", "133014.442500", "133014.902500", "133015.362500", "133015.822500", "133016.282500", "133016.742500", "133017.202500", "133017.662500", "133018.122500", "133018.582500", "133019.042500", "133019.502500", "133019.962500", "133020.422500", "133020.882500", "133021.342500", "133021.802500", "133022.262500", "133022.722500", "133023.182500", "133023.642500", "133024.102500", "133024.562500", "133025.022500", "133025.482500", "133025.942500", "133026.402500", "133026.862500", "133027.322500", "133027.782500", "133028.242500", "133028.702500", "133029.162500", "133029.622500", "133030.082500", "133030.542500", "133031.002500", "133031.462500", "133031.922500", "133032.382500", "133032.842500", "133033.302500", "133033.762500", "133034.222500", "133034.682500", "133035.142500", "133035.602500", "133036.062500", "133036.522500", "133036.982500", "133037.442500", "133037.902500", "133038.362500", "133038.822500", "133039.282500", "133039.742500", "133040.202500", "133040.662500", "133041.122500", "133041.582500", "133042.042500", "133042.502500", "133042.962500", "133043.422500", "133043.882500", "133044.342500", "133044.802500", "133045.262500", "133045.722500", "133046.182500", "133046.642500", "133047.102500", "133047.562500", "133048.022500", "133048.482500", "133048.942500", "133049.402500", "133049.862500", "133050.322500", "133050.782500", "133051.242500", "133051.702500", "133052.162500", "133052.622500", "133053.082500", "133053.542500", "133054.002500", "133054.462500", "133054.922500", "133055.382500", "133055.842500", "133056.302500", "133056.762500", "133057.222500", "133057.682500", "133058.142500", "133058.602500", "133059.062500", "133059.522500", "133059.982500", "133100.442500", "133100.902500", "133101.362500", "133101.822500", "133102.282500", "133102.742500", "133103.202500", "133103.662500", "133104.122500", "133104.582500", "133105.042500", "133105.502500", "133105.962500", "133106.422500", "133106.882500", "133107.342500", "133107.802500", "133108.262500", "133108.722500", "133109.182500", "133109.642500", "133110.102500", "133110.562500", "133111.022500", "133111.482500", "133111.942500", "133112.402500", "133112.862500", "133113.322500", "133113.782500", "133114.242500", "133114.702500", "133115.162500", "133115.622500", "133116.082500", "133116.542500", "133117.002500", "133117.462500", "133117.922500", "133118.382500", "133118.842500", "133119.302500", "133119.762500", "133120.222500", "133120.682500", "133121.142500", "133121.602500", "133122.062500", "133122.522500", "133122.982500", "133123.442500", "133123.902500", "133124.362500", "133124.822500", "133125.282500", "133125.742500", "133126.202500", "133126.662500", "133127.122500", "133127.582500", "133128.042500", "133128.502500", "133128.962500", "133129.422500", "133129.882500", "133130.342500", "133130.802500", "133131.262500", "133131.722500", "133132.182500", "133132.642500", "133133.102500", "133133.562500", "133134.022500", "133134.482500", "133134.942500", "133135.402500", "133135.862500", "133136.322500", "133136.782500", "133137.242500", "133137.702500", "133138.162500", "133138.622500", "133139.082500", "133139.542500", "133140.002500", "133140.462500", "133140.922500", "133141.382500", "133141.842500", "133142.302500", "133142.762500", "133143.222500", "133143.682500", "133144.142500"],
