{
  "AcquisitionMatrixPE": 82,
  "AcquisitionNumber": 1,
  "AcquisitionTime": "13:41:2.262500",
  "BandwidthPerPixelPhaseEncode": 24.888,
  "BaseResolution": 82,
  "BodyPartExamined": "BRAIN",
  "ConsistencyInfo": "N4_VE11E_LATEST_20181129",
  "ConversionSoftware": "dcm2niix",
  "ConversionSoftwareVersion": "v1.0.20201102",
  "DerivedVendorReportedEchoSpacing": 0.00049,
  "DeviceSerialNumber": "66112",
  "DwellTime": 2e-06,
  "EchoTime": 0.0272,
  "EchoTrainLength": 82,
  "EffectiveEchoSpacing": 0.00049,
  "FlipAngle": 44,
  "ImageComments": "Unaliased MB8/PE3",
  "ImageOrientationPatientDICOM": [0.995865, 0.0903364, 0.00961124, -0.0883531, 0.987715, -0.128894],
  "ImageType": [
    "ORIGINAL",
    "PRIMARY",
    "M",
    "MB",
    "ND",
    "NORM",
    "MOSAIC"
],
  "ImagingFrequency": 123.259,
  "InPlanePhaseEncodingDirectionDICOM": "COL",
  "InstitutionAddress": "Maynard 3,Hanover,NH,US,03755",
  "InstitutionName": "Dartmouth College - PBS",
  "InstitutionalDepartmentName": "Department",
  "MRAcquisitionType": "2D",
  "MagneticFieldStrength": 3,
  "Manufacturer": "Siemens",
  "ManufacturersModelName": "Prisma",
  "Modality": "MR",
  "MultibandAccelerationFactor": 8,
  "PartialFourier": 1,
  "PatientPosition": "HFS",
  "PercentPhaseFOV": 100,
  "PercentSampling": 100,
  "PhaseEncodingDirection": "j-",
  "PhaseEncodingSteps": 82,
  "PhaseResolution": 1,
  "PixelBandwidth": 3050,
  "ProcedureStepDescription": "Wager_Wager^1076_spacetop",
  "ProtocolName": "func_run-03_task-social_acq-ap-mb8",
  "PulseSequenceDetails": "%CustomerSeq%\\cmrr_mbep2d_bold",
  "ReceiveCoilActiveElements": "HEA;HEP",
  "ReceiveCoilName": "Head_32",
  "ReconMatrixPE": 82,
  "RepetitionTime": 0.46,
  "SAR": 0.0833881,
  "ScanOptions": "FS",
  "ScanningSequence": "EP",
  "SequenceName": "epfid2d1_82",
  "SequenceVariant": "SK\\SS",
  "SeriesDescription": "func_run-03_task-social_acq-ap-mb8",
  "SeriesNumber": 16,
  "ShimSetting": [4220, -7722, -7260, 289, -207, -16, -23, 127],
  "SliceThickness": 2.7,
  "SliceTiming": [0, 0.2525, 0.0625, 0.315, 0.1275, 0.3775, 0.19, 0, 0.2525, 0.0625, 0.315, 0.1275, 0.3775, 0.19, 0, 0.2525, 0.0625, 0.315, 0.1275, 0.3775, 0.19, 0, 0.2525, 0.0625, 0.315, 0.1275, 0.3775, 0.19, 0, 0.2525, 0.0625, 0.315, 0.1275, 0.3775, 0.19, 0, 0.2525, 0.0625, 0.315, 0.1275, 0.3775, 0.19, 0, 0.2525, 0.0625, 0.315, 0.1275, 0.3775, 0.19, 0, 0.2525, 0.0625, 0.315, 0.1275, 0.3775, 0.19],
  "SoftwareVersions": "syngo MR E11",
  "SpacingBetweenSlices": 2.7,
  "StationName": "AWP66112",
  "TaskName": "social",
  "TotalReadoutTime": 0.03969,
  "TxRefAmp": 228.948,
  "WipMemBlock": "57546615-7b7d-40b1-ac2b-2f9a5f7f0738||Sequence: R016 ve11e/master r/434b28f1; Aug  7 2019 18:53:46 by eja",
  "dcmmeta_affine": [
    [-2.671832799911499, -0.2370448261499405, 0.05706977844238281, 117.84999084472656],
    [-0.24236588180065155, 2.64996600151062, -0.3442813456058502, -87.31549835205078],
    [0.025786247104406357, 0.34581258893013, 2.677351951599121, -105.10308837890625],
    [0.0, 0.0, 0.0, 1.0]
],
  "dcmmeta_reorient_transform": [
    [0.0, -1.0, 0.0, 81.0],
    [1.0, 0.0, 0.0, 0.0],
    [0.0, 0.0, 1.0, 0.0],
    [0.0, 0.0, 0.0, 1.0]
],
  "dcmmeta_shape": [82, 82, 56, 872],
  "dcmmeta_slice_dim": 2,
  "dcmmeta_version": 0.6,
  "global": {
    "const": {
      "AccessionNumber": "A004527",
      "AcquisitionMatrix": [82, 0, 0, 82],
      "AngioFlag": "N",
      "BitsAllocated": 16,
      "BitsStored": 16,
      "BodyPartExamined": "BRAIN",
      "Columns": 656,
      "EchoNumbers": 1,
      "EchoTime": 27.2,
      "EchoTrainLength": 82,
      "FlipAngle": 44.0,
      "HighBit": 15,
      "ImageOrientationPatient": [0.99586493264432, 0.09033637169528, 0.00961123708205, -0.0883530703774, 0.98771459893966, -0.1288937779582],
      "ImagePositionPatient": [-797.43351369863, -957.43101916455, 14.755290085027],
      "ImageType": [
        "ORIGINAL",
        "PRIMARY",
        "M",
        "MB",
        "ND",
        "NORM",
        "MOSAIC"
],
      "ImagedNucleus": "1H",
      "ImagingFrequency": 123.259129,
      "InPlanePhaseEncodingDirection": "COL",
      "MRAcquisitionType": "2D",
      "MagneticFieldStrength": 3.0,
      "Manufacturer": "SIEMENS",
      "ManufacturerModelName": "Prisma",
      "Modality": "MR",
      "NumberOfAverages": 1.0,
      "NumberOfPhaseEncodingSteps": 82,
      "PercentPhaseFieldOfView": 100.0,
      "PercentSampling": 100.0,
      "PerformedProcedureStepStartTime": "125042.586000",
      "PhotometricInterpretation": "MONOCHROME2",
      "PixelBandwidth": 3050.0,
      "PixelRepresentation": 0,
      "PixelSpacing": [2.6829268932343, 2.6829268932343],
      "ProtocolName": "func_run-03_task-social_acq-ap-mb8",
      "RepetitionTime": 460.0,
      "Rows": 656,
      "SAR": 0.08338805493411,
      "SamplesPerPixel": 1,
      "ScanOptions": "FS",
      "ScanningSequence": "EP",
      "SequenceName": "epfid2d1_82",
      "SequenceVariant": [
        "SK",
        "SS"
],
      "SeriesDescription": "func_run-03_task-social_acq-ap-mb8",
      "SeriesNumber": 16,
      "SeriesTime": "134124.826000",
      "SliceLocation": -90.596735060675,
      "SliceThickness": 2.7000000476837,
      "SmallestImagePixelValue": 0,
      "SoftwareVersions": "syngo MR E11",
      "SpacingBetweenSlices": 2.6999999977395,
      "SpecificCharacterSet": "ISO_IR 100",
      "StudyID": "1",
      "StudyTime": "125042.500000",
      "TransmitCoilName": "Body",
      "VariableFlipAngleFlag": "N",
      "WindowCenterWidthExplanation": "Algo1"
    },
    "slices": {}
  },
  "time": {
    "samples": {
      "AcquisitionNumber": [1, 2, 3, 4, 5, 6, 7, 8, 9, 10, 11, 12, 13, 14, 15, 16, 17, 18, 19, 20, 21, 22, 23, 24, 25, 26, 27, 28, 29, 30, 31, 32, 33, 34, 35, 36, 37, 38, 39, 40, 41, 42, 43, 44, 45, 46, 47, 48, 49, 50, 51, 52, 53, 54, 55, 56, 57, 58, 59, 60, 61, 62, 63, 64, 65, 66, 67, 68, 69, 70, 71, 72, 73, 74, 75, 76, 77, 78, 79, 80, 81, 82, 83, 84, 85, 86, 87, 88, 89, 90, 91, 92, 93, 94, 95, 96, 97, 98, 99, 100, 101, 102, 103, 104, 105, 106, 107, 108, 109, 110, 111, 112, 113, 114, 115, 116, 117, 118, 119, 120, 121, 122, 123, 124, 125, 126, 127, 128, 129, 130, 131, 132, 133, 134, 135, 136, 137, 138, 139, 140, 141, 142, 143, 144, 145, 146, 147, 148, 149, 150, 151, 152, 153, 154, 155, 156, 157, 158, 159, 160, 161, 162, 163, 164, 165, 166, 167, 168, 169, 170, 171, 172, 173, 174, 175, 176, 177, 178, 179, 180, 181, 182, 183, 184, 185, 186, 187, 188, 189, 190, 191, 192, 193, 194, 195, 196, 197, 198, 199, 200, 201, 202, 203, 204, 205, 206, 207, 208, 209, 210, 211, 212, 213, 214, 215, 216, 217, 218, 219, 220, 221, 222, 223, 224, 225, 226, 227, 228, 229, 230, 231, 232, 233, 234, 235, 236, 237, 238, 239, 240, 241, 242, 243, 244, 245, 246, 247, 248, 249, 250, 251, 252, 253, 254, 255, 256, 257, 258, 259, 260, 261, 262, 263, 264, 265, 266, 267, 268, 269, 270, 271, 272, 273, 274, 275, 276, 277, 278, 279, 280, 281, 282, 283, 284, 285, 286, 287, 288, 289, 290, 291, 292, 293, 294, 295, 296, 297, 298, 299, 300, 301, 302, 303, 304, 305, 306, 307, 308, 309, 310, 311, 312, 313, 314, 315, 316, 317, 318, 319, 320, 321, 322, 323, 324, 325, 326, 327, 328, 329, 330, 331, 332, 333, 334, 335, 336, 337, 338, 339, 340, 341, 342, 343, 344, 345, 346, 347, 348, 349, 350, 351, 352, 353, 354, 355, 356, 357, 358, 359, 360, 361, 362, 363, 364, 365, 366, 367, 368, 369, 370, 371, 372, 373, 374, 375, 376, 377, 378, 379, 380, 381, 382, 383, 384, 385, 386, 387, 388, 389, 390, 391, 392, 393, 394, 395, 396, 397, 398, 399, 400, 401, 402, 403, 404, 405, 406, 407, 408, 409, 410, 411, 412, 413, 414, 415, 416, 417, 418, 419, 420, 421, 422, 423, 424, 425, 426, 427, 428, 429, 430, 431, 432, 433, 434, 435, 436, 437, 438, 439, 440, 441, 442, 443, 444, 445, 446, 447, 448, 449, 450, 451, 452, 453, 454, 455, 456, 457, 458, 459, 460, 461, 462, 463, 464, 465, 466, 467, 468, 469, 470, 471, 472, 473, 474, 475, 476, 477, 478, 479, 480, 481, 482, 483, 484, 485, 486, 487, 488, 489, 490, 491, 492, 493, 494, 495, 496, 497, 498, 499, 500, 501, 502, 503, 504, 505, 506, 507, 508, 509, 510, 511, 512, 513, 514, 515, 516, 517, 518, 519, 520, 521, 522, 523, 524, 525, 526, 527, 528, 529, 530, 531, 532, 533, 534, 535, 536, 537, 538, 539, 540, 541, 542, 543, 544, 545, 546, 547, 548, 549, 550, 551, 552, 553, 554, 555, 556, 557, 558, 559, 560, 561, 562, 563, 564, 565, 566, 567, 568, 569, 570, 571, 572, 573, 574, 575, 576, 577, 578, 579, 580, 581, 582, 583, 584, 585, 586, 587, 588, 589, 590, 591, 592, 593, 594, 595, 596, 597, 598, 599, 600, 601, 602, 603, 604, 605, 606, 607, 608, 609, 610, 611, 612, 613, 614, 615, 616, 617, 618, 619, 620, 621, 622, 623, 624, 625, 626, 627, 628, 629, 630, 631, 632, 633, 634, 635, 636, 637, 638, 639, 640, 641, 642, 643, 644, 645, 646, 647, 648, 649, 650, 651, 652, 653, 654, 655, 656, 657, 658, 659, 660, 661, 662, 663, 664, 665, 666, 667, 668, 669, 670, 671, 672, 673, 674, 675, 676, 677, 678, 679, 680, 681, 682, 683, 684, 685, 686, 687, 688, 689, 690, 691, 692, 693, 694, 695, 696, 697, 698, 699, 700, 701, 702, 703, 704, 705, 706, 707, 708, 709, 710, 711, 712, 713, 714, 715, 716, 717, 718, 719, 720, 721, 722, 723, 724, 725, 726, 727, 728, 729, 730, 731, 732, 733, 734, 735, 736, 737, 738, 739, 740, 741, 742, 743, 744, 745, 746, 747, 748, 749, 750, 751, 752, 753, 754, 755, 756, 757, 758, 759, 760, 761, 762, 763, 764, 765, 766, 767, 768, 769, 770, 771, 772, 773, 774, 775, 776, 777, 778, 779, 780, 781, 782, 783, 784, 785, 786, 787, 788, 789, 790, 791, 792, 793, 794, 795, 796, 797, 798, 799, 800, 801, 802, 803, 804, 805, 806, 807, 808, 809, 810, 811, 812, 813, 814, 815, 816, 817, 818, 819, 820, 821, 822, 823, 824, 825, 826, 827, 828, 829, 830, 831, 832, 833, 834, 835, 836, 837, 838, 839, 840, 841, 842, 843, 844, 845, 846, 847, 848, 849, 850, 851, 852, 853, 854, 855, 856, 857, 858, 859, 860, 861, 862, 863, 864, 865, 866, 867, 868, 869, 870, 871, 872],
      "AcquisitionTime": ["134102.262500", "134102.722500", "134103.182500", "134103.642500", "134104.102500", "134104.562500", "134105.022500", "134105.482500", "134105.942500", "134106.402500", "134106.862500", "134107.322500", "134107.782500", "134108.242500", "134108.702500", "134109.162500", "134109.622500", "134110.082500", "134110.542500", "134111.002500", "134111.462500", "134111.922500", "134112.382500", "134112.842500", "134113.302500", "134113.762500", "134114.222500", "134114.682500", "134115.142500", "134115.602500", "134116.062500", "134116.522500", "134116.982500", "134117.442500", "134117.902500", "134118.362500", "134118.822500", "134119.282500", "134119.742500", "134120.202500", "134120.662500", "134121.122500", "134121.582500", "134122.042500", "134122.502500", "134122.962500", "134123.422500", "134123.882500", "134124.342500", "134124.802500", "134125.262500", "134125.722500", "134126.182500", "134126.642500", "134127.102500", "134127.562500", "134128.022500", "134128.482500", "134128.942500", "134129.402500", "134129.862500", "134130.322500", "134130.782500", "134131.242500", "134131.702500", "134132.162500", "134132.622500", "134133.082500", "134133.542500", "134134.002500", "134134.462500", "134134.922500", "134135.382500", "134135.842500", "134136.302500", "134136.762500", "134137.222500", "134137.682500", "134138.142500", "134138.602500", "134139.062500", "134139.522500", "134139.982500", "134140.442500", "134140.902500", "134141.362500", "134141.822500", "134142.282500", "134142.742500", "134143.202500", "134143.662500", "134144.122500", "134144.582500", "134145.042500", "134145.502500", "134145.962500", "134146.422500", "134146.882500", "134147.342500", "134147.802500", "134148.262500", "134148.722500", "134149.182500", "134149.642500", "134150.102500", "134150.562500", "134151.022500", "134151.482500", "134151.942500", "134152.402500", "134152.862500", "134153.322500", "134153.782500", "134154.242500", "134154.702500", "134155.162500", "134155.622500", "134156.082500", "134156.542500", "134157.002500", "134157.462500", "134157.922500", "134158.382500", "134158.842500", "134159.302500", "134159.762500", "134200.222500", "134200.682500", "134201.142500", "134201.602500", "134202.062500", "134202.522500", "134202.982500", "134203.442500", "134203.902500", "134204.362500", "134204.822500", "134205.282500", "134205.742500", "134206.202500", "134206.662500", "134207.122500", "134207.582500", "134208.042500", "134208.502500", "134208.962500", "134209.422500", "134209.882500", "134210.342500", "134210.802500", "134211.262500", "134211.722500", "134212.182500", "134212.642500", "134213.102500", "134213.562500", "134214.022500", "134214.482500", "134214.942500", "134215.402500", "134215.862500", "134216.322500", "134216.782500", "134217.242500", "134217.702500", "134218.162500", "134218.622500", "134219.082500", "134219.542500", "134220.002500", "134220.462500", "134220.922500", "134221.382500", "134221.842500", "134222.302500", "134222.762500", "134223.222500", "134223.682500", "134224.142500", "134224.602500", "134225.062500", "134225.522500", "134225.982500", "134226.442500", "134226.902500", "134227.362500", "134227.822500", "134228.282500", "134228.742500", "134229.202500", "134229.662500", "134230.122500", "134230.582500", "134231.042500", "134231.502500", "134231.962500", "134232.422500", "134232.882500", "134233.342500", "134233.802500", "134234.262500", "134234.722500", "134235.182500", "134235.642500", "134236.102500", "134236.562500", "134237.022500", "134237.482500", "134237.942500", "134238.402500", "134238.862500", "134239.322500", "134239.782500", "134240.242500", "134240.702500", "134241.162500", "134241.622500", "134242.082500", "134242.542500", "134243.002500", "134243.462500", "134243.922500", "134244.382500", "134244.842500", "134245.302500", "134245.762500", "134246.222500", "134246.682500", "134247.142500", "134247.602500", "134248.062500", "134248.522500", "134248.982500", "134249.442500", "134249.902500", "134250.362500", "134250.822500", "134251.282500", "134251.742500", "134252.202500", "134252.662500", "134253.122500", "134253.582500", "134254.042500", "134254.502500", "134254.962500", "134255.422500", "134255.882500", "134256.342500", "134256.802500", "134257.262500", "134257.722500", "134258.182500", "134258.642500", "134259.102500", "134259.562500", "134300.022500", "134300.482500", "134300.942500", "134301.402500", "134301.862500", "134302.322500", "134302.782500", "134303.242500", "134303.702500", "134304.162500", "134304.622500", "134305.082500", "134305.542500", "134306.002500", "134306.462500", "134306.922500", "134307.382500", "134307.842500", "134308.302500", "134308.762500", "134309.222500", "134309.682500", "134310.142500", "134310.602500", "134311.062500", "134311.522500", "134311.982500", "134312.442500", "134312.902500", "134313.362500", "134313.822500", "134314.282500", "134314.742500", "134315.202500", "134315.662500", "134316.122500", "134316.582500", "134317.042500", "134317.502500", "134317.962500", "134318.422500", "134318.882500", "134319.342500", "134319.802500", "134320.262500", "134320.722500", "134321.182500", "134321.642500", "134322.102500", "134322.562500", "134323.022500", "134323.482500", "134323.942500", "134324.402500", "134324.862500", "134325.322500", "134325.782500", "134326.242500", "134326.702500", "134327.162500", "134327.622500", "134328.082500", "134328.542500", "134329.002500", "134329.462500", "134329.922500", "134330.382500", "134330.842500", "134331.302500", "134331.762500", "134332.222500", "134332.682500", "134333.142500", "134333.602500", "134334.062500", "134334.522500", "134334.982500", "134335.442500", "134335.902500", "134336.362500", "134336.822500", "134337.282500", "134337.742500", "134338.202500", "134338.662500", "134339.122500", "134339.582500", "134340.042500", "134340.502500", "134340.962500", "134341.422500", "134341.882500", "134342.342500", "134342.802500", "134343.262500", "134343.722500", "134344.182500", "134344.642500", "134345.102500", "134345.562500", "134346.022500", "134346.482500", "134346.942500", "134347.402500", "134347.862500", "134348.322500", "134348.782500", "134349.242500", "134349.702500", "134350.162500", "134350.622500", "134351.082500", "134351.542500", "134352.002500", "134352.462500", "134352.922500", "134353.382500", "134353.842500", "134354.302500", "134354.762500", "134355.222500", "134355.682500", "134356.142500", "134356.602500", "134357.062500", "134357.522500", "134357.982500", "134358.442500", "134358.902500", "134359.362500", "134359.822500", "134400.282500", "134400.742500", "134401.202500", "134401.662500", "134402.122500", "134402.582500", "134403.042500", "134403.502500", "134403.962500", "134404.422500", "134404.882500", "134405.342500", "134405.802500", "134406.262500", "134406.722500", "134407.182500", "134407.642500", "134408.102500", "134408.562500", "134409.022500", "134409.482500", "134409.942500", "134410.402500", "134410.862500", "134411.322500", "134411.782500", "134412.242500", "134412.702500", "134413.162500", "134413.622500", "134414.082500", "134414.542500", "134415.002500", "134415.462500", "134415.922500", "134416.382500", "134416.842500", "134417.302500", "134417.762500", "134418.222500", "134418.682500", "134419.142500", "134419.602500", "134420.062500", "134420.522500", "134420.982500", "134421.442500", "134421.902500", "134422.362500", "134422.822500", "134423.282500", "134423.742500", "134424.202500", "134424.662500", "134425.122500", "134425.582500", "134426.042500", "134426.502500", "134426.962500", "134427.422500", "134427.882500", "134428.342500", "134428.802500", "134429.262500", "134429.722500", "134430.182500", "134430.642500", "134431.102500", "134431.562500", "134432.022500", "134432.482500", "134432.942500", "134433.402500", "134433.862500", "134434.322500", "134434.782500", "134435.242500", "134435.702500", "134436.162500", "134436.622500", "134437.082500", "134437.542500", "134438.002500", "134438.462500", "134438.922500", "134439.382500", "134439.842500", "134440.302500", "134440.762500", "134441.222500", "134441.682500", "134442.142500", "134442.602500", "134443.062500", "134443.522500", "134443.982500", "134444.442500", "134444.902500", "134445.362500", "134445.822500", "134446.282500", "134446.742500", "134447.202500", "134447.662500", "134448.122500", "134448.582500", "134449.042500", "134449.502500", "134449.962500", "134450.422500", "134450.882500", "134451.342500", "134451.802500", "134452.262500", "134452.722500", "134453.182500", "134453.642500", "134454.102500", "134454.562500", "134455.022500", "134455.482500", "134455.942500", "134456.402500", "134456.862500", "134457.322500", "134457.782500", "134458.242500", "134458.702500", "134459.162500", "134459.622500", "134500.082500", "134500.542500", "134501.002500", "134501.462500", "134501.922500", "134502.382500", "134502.842500", "134503.302500", "134503.762500", "134504.222500", "134504.682500", "134505.142500", "134505.602500", "134506.062500", "134506.522500", "134506.982500", "134507.442500", "134507.902500", "134508.362500", "134508.822500", "134509.282500", "134509.742500", "134510.202500", "134510.662500", "134511.122500", "134511.582500", "134512.042500", "134512.502500", "134512.962500", "134513.422500", "134513.882500", "134514.342500", "134514.802500", "134515.262500", "134515.722500", "134516.182500", "134516.642500", "134517.102500", "134517.562500", "134518.022500", "134518.482500", "134518.942500", "134519.402500", "134519.862500", "134520.322500", "134520.782500", "134521.242500", "134521.702500", "134522.162500", "134522.622500", "134523.082500", "134523.542500", "134524.002500", "134524.462500", "134524.922500", "134525.382500", "134525.842500", "134526.302500", "134526.762500", "134527.222500", "134527.682500", "134528.142500", "134528.602500", "134529.062500", "134529.522500", "134529.982500", "134530.442500", "134530.902500", "134531.362500", "134531.822500", "134532.282500", "134532.742500", "134533.202500", "134533.662500", "134534.122500", "134534.582500", "134535.042500", "134535.502500", "134535.962500", "134536.422500", "134536.882500", "134537.342500", "134537.802500", "134538.262500", "134538.722500", "134539.182500", "134539.642500", "134540.102500", "134540.562500", "134541.022500", "134541.482500", "134541.942500", "134542.402500", "134542.862500", "134543.322500", "134543.782500", "134544.242500", "134544.702500", "134545.162500", "134545.622500", "134546.082500", "134546.542500", "134547.002500", "134547.462500", "134547.922500", "134548.382500", "134548.842500", "134549.302500", "134549.762500", "134550.222500", "134550.682500", "134551.142500", "134551.602500", "134552.062500", "134552.522500", "134552.982500", "134553.442500", "134553.902500", "134554.362500", "134554.822500", "134555.282500", "134555.742500", "134556.202500", "134556.662500", "134557.122500", "134557.582500", "134558.042500", "134558.502500", "134558.962500", "134559.422500", "134559.882500", "134600.342500", "134600.802500", "134601.262500", "134601.722500", "134602.182500", "134602.642500", "134603.102500", "134603.562500", "134604.022500", "134604.482500", "134604.942500", "134605.402500", "134605.862500", "134606.322500", "134606.782500", "134607.242500", "134607.702500", "134608.162500", "134608.622500", "134609.082500", "134609.542500", "134610.002500", "134610.462500", "134610.922500", "134611.382500", "134611.842500", "134612.302500", "134612.762500", "134613.222500", "134613.682500", "134614.142500", "134614.602500", "134615.062500", "134615.522500", "134615.982500", "134616.442500", "134616.902500", "134617.362500", "134617.822500", "134618.282500", "134618.742500", "134619.202500", "134619.662500", "134620.122500", "134620.582500", "134621.042500", "134621.502500", "134621.962500", "134622.422500", "134622.882500", "134623.342500", "134623.802500", "134624.262500", "134624.722500", "134625.182500", "134625.642500", "134626.102500", "134626.562500", "134627.022500", "134627.482500", "134627.942500", "134628.402500", "134628.862500", "134629.322500", "134629.782500", "134630.242500", "134630.702500", "134631.162500", "134631.622500", "134632.082500", "134632.542500", "134633.002500", "134633.462500", "134633.922500", "134634.382500", "134634.842500", "134635.302500", "134635.762500", "134636.222500", "134636.682500", "134637.142500", "134637.602500", "134638.062500", "134638.522500", "134638.982500", "134639.442500", "134639.902500", "134640.362500", "134640.822500", "134641.282500", "134641.742500", "134642.202500", "134642.662500", "134643.122500", "134643.582500", "134644.042500", "134644.502500", "134644.962500", "134645.422500", "134645.882500", "134646.342500", "134646.802500", "134647.262500", "134647.722500", "134648.182500", "134648.642500", "134649.102500", "134649.562500", "134650.022500", "134650.482500", "134650.942500", "134651.402500", "134651.862500", "134652.322500", "134652.782500", "134653.242500", "134653.702500", "134654.162500", "134654.622500", "134655.082500", "134655.542500", "134656.002500", "134656.462500", "134656.922500", "134657.382500", "134657.842500", "134658.302500", "134658.762500", "134659.222500", "134659.682500", "134700.142500", "134700.602500", "134701.062500", "134701.522500", "134701.982500", "134702.442500", "134702.902500", "134703.362500", "134703.822500", "134704.282500", "134704.742500", "134705.202500", "134705.662500", "134706.122500", "134706.582500", "134707.042500", "134707.502500", "134707.962500", "134708.422500", "134708.882500", "134709.342500", "134709.802500", "134710.262500", "134710.722500", "134711.182500", "134711.642500", "134712.102500", "134712.562500", "134713.022500", "134713.482500", "134713.942500", "134714.402500", "134714.862500", "134715.322500", "134715.782500", "134716.242500", "134716.702500", "134717.162500", "134717.622500", "134718.082500", "134718.542500", "134719.002500", "134719.462500", "134719.922500", "134720.382500", "134720.842500", "134721.302500", "134721.762500", "134722.222500", "134722.682500", "134723.142500", "134723.602500", "134724.062500", "134724.522500", "134724.982500", "134725.442500", "134725.902500", "134726.362500", "134726.822500", "134727.282500", "134727.742500", "134728.202500", "134728.662500", "134729.122500", "134729.582500", "134730.042500", "134730.502500", "134730.962500", "134731.422500", "134731.882500", "134732.342500", "134732.802500", "134733.262500", "134733.722500", "134734.182500", "134734.642500", "134735.102500", "134735.562500", "134736.022500", "134736.482500", "134736.942500", "134737.402500", "134737.862500", "134738.322500", "134738.782500", "134739.242500", "134739.702500", "134740.162500", "134740.622500", "134741.082500", "134741.542500", "134742.002500", "134742.462500", "134742.922500"],
