{
  "AcquisitionMatrixPE": 82,
  "AcquisitionNumber": 1,
  "AcquisitionTime": "13:49:18.387500",
  "BandwidthPerPixelPhaseEncode": 24.888,
  "BaseResolution": 82,
  "BodyPartExamined": "BRAIN",
  "ConsistencyInfo": "N4_VE11E_LATEST_20181129",
  "ConversionSoftware": "dcm2niix",
  "ConversionSoftwareVersion": "v1.0.20201102",
  "DerivedVendorReportedEchoSpacing": 0.00049,
  "DeviceSerialNumber": "66112",
  "DwellTime": 2e-06,
  "EchoTime": 0.0272,
  "EchoTrainLength": 82,
  "EffectiveEchoSpacing": 0.00049,
  "FlipAngle": 44,
  "ImageComments": "Unaliased MB8/PE3",
  "ImageOrientationPatientDICOM": [0.995865, 0.0903364, 0.00961124, -0.0883531, 0.987715, -0.128894],
  "ImageType": [
    "ORIGINAL",
    "PRIMARY",
    "M",
    "MB",
    "ND",
    "NORM",
    "MOSAIC"
],
  "ImagingFrequency": 123.259,
  "InPlanePhaseEncodingDirectionDICOM": "COL",
  "InstitutionAddress": "Maynard 3,Hanover,NH,US,03755",
  "InstitutionName": "Dartmouth College - PBS",
  "InstitutionalDepartmentName": "Department",
  "MRAcquisitionType": "2D",
  "MagneticFieldStrength": 3,
  "Manufacturer": "Siemens",
  "ManufacturersModelName": "Prisma",
  "Modality": "MR",
  "MultibandAccelerationFactor": 8,
  "PartialFourier": 1,
  "PatientPosition": "HFS",
  "PercentPhaseFOV": 100,
  "PercentSampling": 100,
  "PhaseEncodingDirection": "j-",
  "PhaseEncodingSteps": 82,
  "PhaseResolution": 1,
  "PixelBandwidth": 3050,
  "ProcedureStepDescription": "Wager_Wager^1076_spacetop",
  "ProtocolName": "func_run-04_task-social_acq-ap-mb8",
  "PulseSequenceDetails": "%CustomerSeq%\\cmrr_mbep2d_bold",
  "ReceiveCoilActiveElements": "HEA;HEP",
  "ReceiveCoilName": "Head_32",
  "ReconMatrixPE": 82,
  "RepetitionTime": 0.46,
  "SAR": 0.0833881,
  "ScanOptions": "FS",
  "ScanningSequence": "EP",
  "SequenceName": "epfid2d1_82",
  "SequenceVariant": "SK\\SS",
  "SeriesDescription": "func_run-04_task-social_acq-ap-mb8",
  "SeriesNumber": 18,
  "ShimSetting": [4220, -7722, -7260, 289, -207, -16, -23, 127],
  "SliceThickness": 2.7,
  "SliceTiming": [0, 0.2525, 0.065, 0.315, 0.1275, 0.3775, 0.19, 0, 0.2525, 0.065, 0.315, 0.1275, 0.3775, 0.19, 0, 0.2525, 0.065, 0.315, 0.1275, 0.3775, 0.19, 0, 0.2525, 0.065, 0.315, 0.1275, 0.3775, 0.19, 0, 0.2525, 0.065, 0.315, 0.1275, 0.3775, 0.19, 0, 0.2525, 0.065, 0.315, 0.1275, 0.3775, 0.19, 0, 0.2525, 0.065, 0.315, 0.1275, 0.3775, 0.19, 0, 0.2525, 0.065, 0.315, 0.1275, 0.3775, 0.19],
  "SoftwareVersions": "syngo MR E11",
  "SpacingBetweenSlices": 2.7,
  "StationName": "AWP66112",
  "TaskName": "social",
  "TotalReadoutTime": 0.03969,
  "TxRefAmp": 228.948,
  "WipMemBlock": "8811e86e-1e57-4262-b20b-633a6cdd7f42||Sequence: R016 ve11e/master r/434b28f1; Aug  7 2019 18:53:46 by eja",
  "dcmmeta_affine": [
    [-2.671832799911499, -0.2370448261499405, 0.05706977844238281, 117.84999084472656],
    [-0.24236588180065155, 2.64996600151062, -0.3442813456058502, -87.31549835205078],
    [0.025786247104406357, 0.34581258893013, 2.677351951599121, -105.10308837890625],
    [0.0, 0.0, 0.0, 1.0]
],
  "dcmmeta_reorient_transform": [
    [0.0, -1.0, 0.0, 81.0],
    [1.0, 0.0, 0.0, 0.0],
    [0.0, 0.0, 1.0, 0.0],
    [0.0, 0.0, 0.0, 1.0]
],
  "dcmmeta_shape": [82, 82, 56, 872],
  "dcmmeta_slice_dim": 2,
  "dcmmeta_version": 0.6,
  "global": {
    "const": {
      "AccessionNumber": "A004527",
      "AcquisitionMatrix": [82, 0, 0, 82],
      "AngioFlag": "N",
      "BitsAllocated": 16,
      "BitsStored": 16,
      "BodyPartExamined": "BRAIN",
      "Columns": 656,
      "EchoNumbers": 1,
      "EchoTime": 27.2,
      "EchoTrainLength": 82,
      "FlipAngle": 44.0,
      "HighBit": 15,
      "ImageOrientationPatient": [0.99586493264432, 0.09033637169528, 0.00961123708205, -0.0883530703774, 0.98771459893966, -0.1288937779582],
      "ImagePositionPatient": [-797.43351369863, -957.43101916455, 14.755290085027],
      "ImageType": [
        "ORIGINAL",
        "PRIMARY",
        "M",
        "MB",
        "ND",
        "NORM",
        "MOSAIC"
],
      "ImagedNucleus": "1H",
      "ImagingFrequency": 123.25913,
      "InPlanePhaseEncodingDirection": "COL",
      "MRAcquisitionType": "2D",
      "MagneticFieldStrength": 3.0,
      "Manufacturer": "SIEMENS",
      "ManufacturerModelName": "Prisma",
      "Modality": "MR",
      "NumberOfAverages": 1.0,
      "NumberOfPhaseEncodingSteps": 82,
      "PercentPhaseFieldOfView": 100.0,
      "PercentSampling": 100.0,
      "PerformedProcedureStepStartTime": "125042.586000",
      "PhotometricInterpretation": "MONOCHROME2",
      "PixelBandwidth": 3050.0,
      "PixelRepresentation": 0,
      "PixelSpacing": [2.6829268932343, 2.6829268932343],
      "ProtocolName": "func_run-04_task-social_acq-ap-mb8",
      "RepetitionTime": 460.0,
      "Rows": 656,
      "SAR": 0.08338805493411,
      "SamplesPerPixel": 1,
      "ScanOptions": "FS",
      "ScanningSequence": "EP",
      "SequenceName": "epfid2d1_82",
      "SequenceVariant": [
        "SK",
        "SS"
],
      "SeriesDescription": "func_run-04_task-social_acq-ap-mb8",
      "SeriesNumber": 18,
      "SeriesTime": "134944.915000",
      "SliceLocation": -90.596735060675,
      "SliceThickness": 2.7000000476837,
      "SmallestImagePixelValue": 0,
      "SoftwareVersions": "syngo MR E11",
      "SpacingBetweenSlices": 2.6999999977395,
      "SpecificCharacterSet": "ISO_IR 100",
      "StudyID": "1",
      "StudyTime": "125042.500000",
      "TransmitCoilName": "Body",
      "VariableFlipAngleFlag": "N",
      "WindowCenterWidthExplanation": "Algo1"
    },
    "slices": {}
  },
  "time": {
    "samples": {
      "AcquisitionNumber": [1, 2, 3, 4, 5, 6, 7, 8, 9, 10, 11, 12, 13, 14, 15, 16, 17, 18, 19, 20, 21, 22, 23, 24, 25, 26, 27, 28, 29, 30, 31, 32, 33, 34, 35, 36, 37, 38, 39, 40, 41, 42, 43, 44, 45, 46, 47, 48, 49, 50, 51, 52, 53, 54, 55, 56, 57, 58, 59, 60, 61, 62, 63, 64, 65, 66, 67, 68, 69, 70, 71, 72, 73, 74, 75, 76, 77, 78, 79, 80, 81, 82, 83, 84, 85, 86, 87, 88, 89, 90, 91, 92, 93, 94, 95, 96, 97, 98, 99, 100, 101, 102, 103, 104, 105, 106, 107, 108, 109, 110, 111, 112, 113, 114, 115, 116, 117, 118, 119, 120, 121, 122, 123, 124, 125, 126, 127, 128, 129, 130, 131, 132, 133, 134, 135, 136, 137, 138, 139, 140, 141, 142, 143, 144, 145, 146, 147, 148, 149, 150, 151, 152, 153, 154, 155, 156, 157, 158, 159, 160, 161, 162, 163, 164, 165, 166, 167, 168, 169, 170, 171, 172, 173, 174, 175, 176, 177, 178, 179, 180, 181, 182, 183, 184, 185, 186, 187, 188, 189, 190, 191, 192, 193, 194, 195, 196, 197, 198, 199, 200, 201, 202, 203, 204, 205, 206, 207, 208, 209, 210, 211, 212, 213, 214, 215, 216, 217, 218, 219, 220, 221, 222, 223, 224, 225, 226, 227, 228, 229, 230, 231, 232, 233, 234, 235, 236, 237, 238, 239, 240, 241, 242, 243, 244, 245, 246, 247, 248, 249, 250, 251, 252, 253, 254, 255, 256, 257, 258, 259, 260, 261, 262, 263, 264, 265, 266, 267, 268, 269, 270, 271, 272, 273, 274, 275, 276, 277, 278, 279, 280, 281, 282, 283, 284, 285, 286, 287, 288, 289, 290, 291, 292, 293, 294, 295, 296, 297, 298, 299, 300, 301, 302, 303, 304, 305, 306, 307, 308, 309, 310, 311, 312, 313, 314, 315, 316, 317, 318, 319, 320, 321, 322, 323, 324, 325, 326, 327, 328, 329, 330, 331, 332, 333, 334, 335, 336, 337, 338, 339, 340, 341, 342, 343, 344, 345, 346, 347, 348, 349, 350, 351, 352, 353, 354, 355, 356, 357, 358, 359, 360, 361, 362, 363, 364, 365, 366, 367, 368, 369, 370, 371, 372, 373, 374, 375, 376, 377, 378, 379, 380, 381, 382, 383, 384, 385, 386, 387, 388, 389, 390, 391, 392, 393, 394, 395, 396, 397, 398, 399, 400, 401, 402, 403, 404, 405, 406, 407, 408, 409, 410, 411, 412, 413, 414, 415, 416, 417, 418, 419, 420, 421, 422, 423, 424, 425, 426, 427, 428, 429, 430, 431, 432, 433, 434, 435, 436, 437, 438, 439, 440, 441, 442, 443, 444, 445, 446, 447, 448, 449, 450, 451, 452, 453, 454, 455, 456, 457, 458, 459, 460, 461, 462, 463, 464, 465, 466, 467, 468, 469, 470, 471, 472, 473, 474, 475, 476, 477, 478, 479, 480, 481, 482, 483, 484, 485, 486, 487, 488, 489, 490, 491, 492, 493, 494, 495, 496, 497, 498, 499, 500, 501, 502, 503, 504, 505, 506, 507, 508, 509, 510, 511, 512, 513, 514, 515, 516, 517, 518, 519, 520, 521, 522, 523, 524, 525, 526, 527, 528, 529, 530, 531, 532, 533, 534, 535, 536, 537, 538, 539, 540, 541, 542, 543, 544, 545, 546, 547, 548, 549, 550, 551, 552, 553, 554, 555, 556, 557, 558, 559, 560, 561, 562, 563, 564, 565, 566, 567, 568, 569, 570, 571, 572, 573, 574, 575, 576, 577, 578, 579, 580, 581, 582, 583, 584, 585, 586, 587, 588, 589, 590, 591, 592, 593, 594, 595, 596, 597, 598, 599, 600, 601, 602, 603, 604, 605, 606, 607, 608, 609, 610, 611, 612, 613, 614, 615, 616, 617, 618, 619, 620, 621, 622, 623, 624, 625, 626, 627, 628, 629, 630, 631, 632, 633, 634, 635, 636, 637, 638, 639, 640, 641, 642, 643, 644, 645, 646, 647, 648, 649, 650, 651, 652, 653, 654, 655, 656, 657, 658, 659, 660, 661, 662, 663, 664, 665, 666, 667, 668, 669, 670, 671, 672, 673, 674, 675, 676, 677, 678, 679, 680, 681, 682, 683, 684, 685, 686, 687, 688, 689, 690, 691, 692, 693, 694, 695, 696, 697, 698, 699, 700, 701, 702, 703, 704, 705, 706, 707, 708, 709, 710, 711, 712, 713, 714, 715, 716, 717, 718, 719, 720, 721, 722, 723, 724, 725, 726, 727, 728, 729, 730, 731, 732, 733, 734, 735, 736, 737, 738, 739, 740, 741, 742, 743, 744, 745, 746, 747, 748, 749, 750, 751, 752, 753, 754, 755, 756, 757, 758, 759, 760, 761, 762, 763, 764, 765, 766, 767, 768, 769, 770, 771, 772, 773, 774, 775, 776, 777, 778, 779, 780, 781, 782, 783, 784, 785, 786, 787, 788, 789, 790, 791, 792, 793, 794, 795, 796, 797, 798, 799, 800, 801, 802, 803, 804, 805, 806, 807, 808, 809, 810, 811, 812, 813, 814, 815, 816, 817, 818, 819, 820, 821, 822, 823, 824, 825, 826, 827, 828, 829, 830, 831, 832, 833, 834, 835, 836, 837, 838, 839, 840, 841, 842, 843, 844, 845, 846, 847, 848, 849, 850, 851, 852, 853, 854, 855, 856, 857, 858, 859, 860, 861, 862, 863, 864, 865, 866, 867, 868, 869, 870, 871, 872],
      "AcquisitionTime": ["134918.387500", "134918.847500", "134919.307500", "134919.767500", "134920.227500", "134920.687500", "134921.147500", "134921.607500", "134922.067500", "134922.527500", "134922.987500", "134923.447500", "134923.907500", "134924.367500", "134924.827500", "134925.287500", "134925.747500", "134926.207500", "134926.667500", "134927.127500", "134927.587500", "134928.047500", "134928.507500", "134928.967500", "134929.427500", "134929.887500", "134930.347500", "134930.807500", "134931.267500", "134931.727500", "134932.187500", "134932.647500", "134933.107500", "134933.567500", "134934.027500", "134934.487500", "134934.947500", "134935.407500", "134935.867500", "134936.327500", "134936.787500", "134937.247500", "134937.707500", "134938.167500", "134938.627500", "134939.087500", "134939.547500", "134940.007500", "134940.467500", "134940.927500", "134941.387500", "134941.847500", "134942.307500", "134942.767500", "134943.227500", "134943.687500", "134944.147500", "134944.607500", "134945.067500", "134945.527500", "134945.987500", "134946.447500", "134946.907500", "134947.367500", "134947.827500", "134948.287500", "134948.747500", "134949.207500", "134949.667500", "134950.127500", "134950.587500", "134951.047500", "134951.507500", "134951.967500", "134952.427500", "134952.887500", "134953.347500", "134953.807500", "134954.267500", "134954.727500", "134955.187500", "134955.647500", "134956.107500", "134956.567500", "134957.027500", "134957.487500", "134957.947500", "134958.407500", "134958.867500", "134959.327500", "134959.787500", "135000.247500", "135000.707500", "135001.167500", "135001.627500", "135002.087500", "135002.547500", "135003.007500", "135003.467500", "135003.927500", "135004.387500", "135004.847500", "135005.307500", "135005.767500", "135006.227500", "135006.687500", "135007.147500", "135007.607500", "135008.067500", "135008.527500", "135008.987500", "135009.447500", "135009.907500", "135010.367500", "135010.827500", "135011.287500", "135011.747500", "135012.207500", "135012.667500", "135013.127500", "135013.587500", "135014.047500", "135014.507500", "135014.967500", "135015.427500", "135015.887500", "135016.347500", "135016.807500", "135017.267500", "135017.727500", "135018.187500", "135018.647500", "135019.107500", "135019.567500", "135020.027500", "135020.487500", "135020.947500", "135021.407500", "135021.867500", "135022.327500", "135022.787500", "135023.247500", "135023.707500", "135024.167500", "135024.627500", "135025.087500", "135025.547500", "135026.007500", "135026.467500", "135026.927500", "135027.387500", "135027.847500", "135028.307500", "135028.767500", "135029.227500", "135029.687500", "135030.147500", "135030.607500", "135031.067500", "135031.527500", "135031.987500", "135032.447500", "135032.907500", "135033.367500", "135033.827500", "135034.287500", "135034.747500", "135035.207500", "135035.667500", "135036.127500", "135036.587500", "135037.047500", "135037.507500", "135037.967500", "135038.427500", "135038.887500", "135039.347500", "135039.807500", "135040.267500", "135040.727500", "135041.187500", "135041.647500", "135042.107500", "135042.567500", "135043.027500", "135043.487500", "135043.947500", "135044.407500", "135044.867500", "135045.327500", "135045.787500", "135046.247500", "135046.707500", "135047.167500", "135047.627500", "135048.087500", "135048.547500", "135049.007500", "135049.467500", "135049.927500", "135050.387500", "135050.847500", "135051.307500", "135051.767500", "135052.227500", "135052.687500", "135053.147500", "135053.607500", "135054.067500", "135054.527500", "135054.987500", "135055.447500", "135055.907500", "135056.367500", "135056.827500", "135057.287500", "135057.747500", "135058.207500", "135058.667500", "135059.127500", "135059.587500", "135100.047500", "135100.507500", "135100.967500", "135101.427500", "135101.887500", "135102.347500", "135102.807500", "135103.267500", "135103.727500", "135104.187500", "135104.647500", "135105.107500", "135105.567500", "135106.027500", "135106.487500", "135106.947500", "135107.407500", "135107.867500", "135108.327500", "135108.787500", "135109.247500", "135109.707500", "135110.167500", "135110.627500", "135111.087500", "135111.547500", "135112.007500", "135112.467500", "135112.927500", "135113.387500", "135113.847500", "135114.307500", "135114.767500", "135115.227500", "135115.687500", "135116.147500", "135116.607500", "135117.067500", "135117.527500", "135117.987500", "135118.447500", "135118.907500", "135119.367500", "135119.827500", "135120.287500", "135120.747500", "135121.207500", "135121.667500", "135122.127500", "135122.587500", "135123.047500", "135123.507500", "135123.967500", "135124.427500", "135124.887500", "135125.347500", "135125.807500", "135126.267500", "135126.727500", "135127.187500", "135127.647500", "135128.107500", "135128.567500", "135129.027500", "135129.487500", "135129.947500", "135130.407500", "135130.867500", "135131.327500", "135131.787500", "135132.247500", "135132.707500", "135133.167500", "135133.627500", "135134.087500", "135134.547500", "135135.007500", "135135.467500", "135135.927500", "135136.387500", "135136.847500", "135137.307500", "135137.767500", "135138.227500", "135138.687500", "135139.147500", "135139.607500", "135140.067500", "135140.527500", "135140.987500", "135141.447500", "135141.907500", "135142.367500", "135142.827500", "135143.287500", "135143.747500", "135144.207500", "135144.667500", "135145.127500", "135145.587500", "135146.047500", "135146.507500", "135146.967500", "135147.427500", "135147.887500", "135148.347500", "135148.807500", "135149.267500", "135149.727500", "135150.187500", "135150.647500", "135151.107500", "135151.567500", "135152.027500", "135152.487500", "135152.947500", "135153.407500", "135153.867500", "135154.327500", "135154.787500", "135155.247500", "135155.707500", "135156.167500", "135156.627500", "135157.087500", "135157.547500", "135158.007500", "135158.467500", "135158.927500", "135159.387500", "135159.847500", "135200.307500", "135200.767500", "135201.227500", "135201.687500", "135202.147500", "135202.607500", "135203.067500", "135203.527500", "135203.987500", "135204.447500", "135204.907500", "135205.367500", "135205.827500", "135206.287500", "135206.747500", "135207.207500", "135207.667500", "135208.127500", "135208.587500", "135209.047500", "135209.507500", "135209.967500", "135210.427500", "135210.887500", "135211.347500", "135211.807500", "135212.267500", "135212.727500", "135213.187500", "135213.647500", "135214.107500", "135214.567500", "135215.027500", "135215.487500", "135215.947500", "135216.407500", "135216.867500", "135217.327500", "135217.787500", "135218.247500", "135218.707500", "135219.167500", "135219.627500", "135220.087500", "135220.547500", "135221.007500", "135221.467500", "135221.927500", "135222.387500", "135222.847500", "135223.307500", "135223.767500", "135224.227500", "135224.687500", "135225.147500", "135225.607500", "135226.067500", "135226.527500", "135226.987500", "135227.447500", "135227.907500", "135228.367500", "135228.827500", "135229.287500", "135229.747500", "135230.207500", "135230.667500", "135231.127500", "135231.587500", "135232.047500", "135232.507500", "135232.967500", "135233.427500", "135233.887500", "135234.347500", "135234.807500", "135235.267500", "135235.727500", "135236.187500", "135236.647500", "135237.107500", "135237.567500", "135238.027500", "135238.487500", "135238.947500", "135239.407500", "135239.867500", "135240.327500", "135240.787500", "135241.247500", "135241.707500", "135242.167500", "135242.627500", "135243.087500", "135243.547500", "135244.007500", "135244.467500", "135244.927500", "135245.387500", "135245.847500", "135246.307500", "135246.767500", "135247.227500", "135247.687500", "135248.147500", "135248.607500", "135249.067500", "135249.527500", "135249.987500", "135250.447500", "135250.907500", "135251.367500", "135251.827500", "135252.287500", "135252.747500", "135253.207500", "135253.667500", "135254.127500", "135254.587500", "135255.047500", "135255.507500", "135255.967500", "135256.427500", "135256.887500", "135257.347500", "135257.807500", "135258.267500", "135258.727500", "135259.187500", "135259.647500", "135300.107500", "135300.567500", "135301.027500", "135301.487500", "135301.947500", "135302.407500", "135302.867500", "135303.327500", "135303.787500", "135304.247500", "135304.707500", "135305.167500", "135305.627500", "135306.087500", "135306.547500", "135307.007500", "135307.467500", "135307.927500", "135308.387500", "135308.847500", "135309.307500", "135309.767500", "135310.227500", "135310.687500", "135311.147500", "135311.607500", "135312.067500", "135312.527500", "135312.987500", "135313.447500", "135313.907500", "135314.367500", "135314.827500", "135315.287500", "135315.747500", "135316.207500", "135316.667500", "135317.127500", "135317.587500", "135318.047500", "135318.507500", "135318.967500", "135319.427500", "135319.887500", "135320.347500", "135320.807500", "135321.267500", "135321.727500", "135322.187500", "135322.647500", "135323.107500", "135323.567500", "135324.027500", "135324.487500", "135324.947500", "135325.407500", "135325.867500", "135326.327500", "135326.787500", "135327.247500", "135327.707500", "135328.167500", "135328.627500", "135329.087500", "135329.547500", "135330.007500", "135330.467500", "135330.927500", "135331.387500", "135331.847500", "135332.307500", "135332.767500", "135333.227500", "135333.687500", "135334.147500", "135334.607500", "135335.067500", "135335.527500", "135335.987500", "135336.447500", "135336.907500", "135337.367500", "135337.827500", "135338.287500", "135338.747500", "135339.207500", "135339.667500", "135340.127500", "135340.587500", "135341.047500", "135341.507500", "135341.967500", "135342.427500", "135342.887500", "135343.347500", "135343.807500", "135344.267500", "135344.727500", "135345.187500", "135345.647500", "135346.107500", "135346.567500", "135347.027500", "135347.487500", "135347.947500", "135348.407500", "135348.867500", "135349.327500", "135349.787500", "135350.247500", "135350.707500", "135351.167500", "135351.627500", "135352.087500", "135352.547500", "135353.007500", "135353.467500", "135353.927500", "135354.387500", "135354.847500", "135355.307500", "135355.767500", "135356.227500", "135356.687500", "135357.147500", "135357.607500", "135358.067500", "135358.527500", "135358.987500", "135359.447500", "135359.907500", "135400.367500", "135400.827500", "135401.287500", "135401.747500", "135402.207500", "135402.667500", "135403.127500", "135403.587500", "135404.047500", "135404.507500", "135404.967500", "135405.427500", "135405.887500", "135406.347500", "135406.807500", "135407.267500", "135407.727500", "135408.187500", "135408.647500", "135409.107500", "135409.567500", "135410.027500", "135410.487500", "135410.947500", "135411.407500", "135411.867500", "135412.327500", "135412.787500", "135413.247500", "135413.707500", "135414.167500", "135414.627500", "135415.087500", "135415.547500", "135416.007500", "135416.467500", "135416.927500", "135417.387500", "135417.847500", "135418.307500", "135418.767500", "135419.227500", "135419.687500", "135420.147500", "135420.607500", "135421.067500", "135421.527500", "135421.987500", "135422.447500", "135422.907500", "135423.367500", "135423.827500", "135424.287500", "135424.747500", "135425.207500", "135425.667500", "135426.127500", "135426.587500", "135427.047500", "135427.507500", "135427.967500", "135428.427500", "135428.887500", "135429.347500", "135429.807500", "135430.267500", "135430.727500", "135431.187500", "135431.647500", "135432.107500", "135432.567500", "135433.027500", "135433.487500", "135433.947500", "135434.407500", "135434.867500", "135435.327500", "135435.787500", "135436.247500", "135436.707500", "135437.167500", "135437.627500", "135438.087500", "135438.547500", "135439.007500", "135439.467500", "135439.927500", "135440.387500", "135440.847500", "135441.307500", "135441.767500", "135442.227500", "135442.687500", "135443.147500", "135443.607500", "135444.067500", "135444.527500", "135444.987500", "135445.447500", "135445.907500", "135446.367500", "135446.827500", "135447.287500", "135447.747500", "135448.207500", "135448.667500", "135449.127500", "135449.587500", "135450.047500", "135450.507500", "135450.967500", "135451.427500", "135451.887500", "135452.347500", "135452.807500", "135453.267500", "135453.727500", "135454.187500", "135454.647500", "135455.107500", "135455.567500", "135456.027500", "135456.487500", "135456.947500", "135457.407500", "135457.867500", "135458.327500", "135458.787500", "135459.247500", "135459.707500", "135500.167500", "135500.627500", "135501.087500", "135501.547500", "135502.007500", "135502.467500", "135502.927500", "135503.387500", "135503.847500", "135504.307500", "135504.767500", "135505.227500", "135505.687500", "135506.147500", "135506.607500", "135507.067500", "135507.527500", "135507.987500", "135508.447500", "135508.907500", "135509.367500", "135509.827500", "135510.287500", "135510.747500", "135511.207500", "135511.667500", "135512.127500", "135512.587500", "135513.047500", "135513.507500", "135513.967500", "135514.427500", "135514.887500", "135515.347500", "135515.807500", "135516.267500", "135516.727500", "135517.187500", "135517.647500", "135518.107500", "135518.567500", "135519.027500", "135519.487500", "135519.947500", "135520.407500", "135520.867500", "135521.327500", "135521.787500", "135522.247500", "135522.707500", "135523.167500", "135523.627500", "135524.087500", "135524.547500", "135525.007500", "135525.467500", "135525.927500", "135526.387500", "135526.847500", "135527.307500", "135527.767500", "135528.227500", "135528.687500", "135529.147500", "135529.607500", "135530.067500", "135530.527500", "135530.987500", "135531.447500", "135531.907500", "135532.367500", "135532.827500", "135533.287500", "135533.747500", "135534.207500", "135534.667500", "135535.127500", "135535.587500", "135536.047500", "135536.507500", "135536.967500", "135537.427500", "135537.887500", "135538.347500", "135538.807500", "135539.267500", "135539.727500", "135540.187500", "135540.647500", "135541.107500", "135541.567500", "135542.027500", "135542.487500", "135542.947500", "135543.407500", "135543.867500", "135544.327500", "135544.787500", "135545.247500", "135545.707500", "135546.167500", "135546.627500", "135547.087500", "135547.547500", "135548.007500", "135548.467500", "135548.927500", "135549.387500", "135549.847500", "135550.307500", "135550.767500", "135551.227500", "135551.687500", "135552.147500", "135552.607500", "135553.067500", "135553.527500", "135553.987500", "135554.447500", "135554.907500", "135555.367500", "135555.827500", "135556.287500", "135556.747500", "135557.207500", "135557.667500", "135558.127500", "135558.587500", "135559.047500"],
