{
  "AcquisitionMatrixPE": 82,
  "AcquisitionNumber": 1,
  "AcquisitionTime": "14:32:47.605000",
  "BandwidthPerPixelPhaseEncode": 24.888,
  "BaseResolution": 82,
  "BodyPartExamined": "BRAIN",
  "ConsistencyInfo": "N4_VE11E_LATEST_20181129",
  "ConversionSoftware": "dcm2niix",
  "ConversionSoftwareVersion": "v1.0.20201102",
  "DerivedVendorReportedEchoSpacing": 0.00049,
  "DeviceSerialNumber": "66112",
  "DwellTime": 2e-06,
  "EchoTime": 0.0272,
  "EchoTrainLength": 82,
  "EffectiveEchoSpacing": 0.00049,
  "FlipAngle": 44,
  "ImageComments": "Unaliased MB8/PE3",
  "ImageOrientationPatientDICOM": [0.995992, 0.0682628, 0.057787, -0.060743, 0.990527, -0.123151],
  "ImageType": [
    "ORIGINAL",
    "PRIMARY",
    "M",
    "MB",
    "ND",
    "NORM",
    "MOSAIC"
],
  "ImagingFrequency": 123.259,
  "InPlanePhaseEncodingDirectionDICOM": "COL",
  "InstitutionAddress": "Maynard 3,Hanover,NH,US,03755",
  "InstitutionName": "Dartmouth College - PBS",
  "InstitutionalDepartmentName": "Department",
  "MRAcquisitionType": "2D",
  "MagneticFieldStrength": 3,
  "Manufacturer": "Siemens",
  "ManufacturersModelName": "Prisma",
  "Modality": "MR",
  "MultibandAccelerationFactor": 8,
  "PartialFourier": 1,
  "PatientPosition": "HFS",
  "PercentPhaseFOV": 100,
  "PercentSampling": 100,
  "PhaseEncodingDirection": "j-",
  "PhaseEncodingSteps": 82,
  "PhaseResolution": 1,
  "PixelBandwidth": 3050,
  "ProcedureStepDescription": "Wager_Wager^1076_spacetop",
  "ProtocolName": "func_run-03_task-alignvideo_acq-ap-mb8",
  "PulseSequenceDetails": "%CustomerSeq%\\cmrr_mbep2d_bold",
  "ReceiveCoilActiveElements": "HEA;HEP",
  "ReceiveCoilName": "Head_32",
  "ReconMatrixPE": 82,
  "RepetitionTime": 0.46,
  "SAR": 0.0834616,
  "ScanOptions": "FS",
  "ScanningSequence": "EP",
  "SequenceName": "epfid2d1_82",
  "SequenceVariant": "SK\\SS",
  "SeriesDescription": "func_run-03_task-alignvideo_acq-ap-mb8",
  "SeriesNumber": 34,
  "ShimSetting": [4220, -7722, -7261, 286, -204, -19, -23, 128],
  "SliceThickness": 2.7,
  "SliceTiming": [0, 0.25, 0.0625, 0.3125, 0.125, 0.375, 0.1875, 0, 0.25, 0.0625, 0.3125, 0.125, 0.375, 0.1875, 0, 0.25, 0.0625, 0.3125, 0.125, 0.375, 0.1875, 0, 0.25, 0.0625, 0.3125, 0.125, 0.375, 0.1875, 0, 0.25, 0.0625, 0.3125, 0.125, 0.375, 0.1875, 0, 0.25, 0.0625, 0.3125, 0.125, 0.375, 0.1875, 0, 0.25, 0.0625, 0.3125, 0.125, 0.375, 0.1875, 0, 0.25, 0.0625, 0.3125, 0.125, 0.375, 0.1875],
  "SoftwareVersions": "syngo MR E11",
  "SpacingBetweenSlices": 2.7,
  "StationName": "AWP66112",
  "TaskName": "alignvideo",
  "TotalReadoutTime": 0.03969,
  "TxRefAmp": 228.948,
  "WipMemBlock": "5c749277-73a5-4860-9ef0-d8c9597d8bcf||Sequence: R016 ve11e/master r/434b28f1; Aug  7 2019 18:53:46 by eja",
  "dcmmeta_affine": [
    [-2.6721746921539307, -0.16296908259391785, 0.17724478244781494, 110.4969253540039],
    [-0.1831439882516861, 2.6575119495391846, -0.32169803977012634, -91.30328369140625],
    [0.1550382524728775, 0.33040544390678406, 2.674900770187378, -110.76958465576172],
    [0.0, 0.0, 0.0, 1.0]
],
  "dcmmeta_reorient_transform": [
    [0.0, -1.0, 0.0, 81.0],
    [1.0, 0.0, 0.0, 0.0],
    [0.0, 0.0, 1.0, 0.0],
    [0.0, 0.0, 0.0, 1.0]
],
  "dcmmeta_shape": [82, 82, 56, 1016],
  "dcmmeta_slice_dim": 2,
  "dcmmeta_version": 0.6,
  "global": {
    "const": {
      "AccessionNumber": "A004527",
      "AcquisitionMatrix": [82, 0, 0, 82],
      "AngioFlag": "N",
      "BitsAllocated": 16,
      "BitsStored": 16,
      "BodyPartExamined": "BRAIN",
      "Columns": 656,
      "EchoNumbers": 1,
      "EchoTime": 27.2,
      "EchoTrainLength": 82,
      "FlipAngle": 44.0,
      "HighBit": 15,
      "ImageOrientationPatient": [0.99599239974781, 0.06826275681039, 0.05778698536217, -0.0607430178268, 0.99052717707893, -0.1231511155181],
      "ImagePositionPatient": [-817.4384749079, -939.22345530047, -33.676364323326],
      "ImageType": [
        "ORIGINAL",
        "PRIMARY",
        "M",
        "MB",
        "ND",
        "NORM",
        "MOSAIC"
],
      "ImagedNucleus": "1H",
      "ImagingFrequency": 123.259153,
      "InPlanePhaseEncodingDirection": "COL",
      "MRAcquisitionType": "2D",
      "MagneticFieldStrength": 3.0,
      "Manufacturer": "SIEMENS",
      "ManufacturerModelName": "Prisma",
      "Modality": "MR",
      "NumberOfAverages": 1.0,
      "NumberOfPhaseEncodingSteps": 82,
      "PercentPhaseFieldOfView": 100.0,
      "PercentSampling": 100.0,
      "PerformedProcedureStepStartTime": "125042.586000",
      "PhotometricInterpretation": "MONOCHROME2",
      "PixelBandwidth": 3050.0,
      "PixelRepresentation": 0,
      "PixelSpacing": [2.6829268932343, 2.6829268932343],
      "ProtocolName": "func_run-03_task-alignvideo_acq-ap-mb8",
      "RepetitionTime": 460.0,
      "Rows": 656,
      "SAR": 0.08346157881185,
      "SamplesPerPixel": 1,
      "ScanOptions": "FS",
      "ScanningSequence": "EP",
      "SequenceName": "epfid2d1_82",
      "SequenceVariant": [
        "SK",
        "SS"
],
      "SeriesDescription": "func_run-03_task-alignvideo_acq-ap-mb8",
      "SeriesNumber": 34,
      "SeriesTime": "143304.827000",
      "SliceLocation": -91.607619297328,
      "SliceThickness": 2.7000000476837,
      "SmallestImagePixelValue": 0,
      "SoftwareVersions": "syngo MR E11",
      "SpacingBetweenSlices": 2.7000000185205,
      "SpecificCharacterSet": "ISO_IR 100",
      "StudyID": "1",
      "StudyTime": "125042.500000",
      "TransmitCoilName": "Body",
      "VariableFlipAngleFlag": "N",
      "WindowCenterWidthExplanation": "Algo1"
    },
    "slices": {}
  },
  "time": {
    "samples": {
      "AcquisitionNumber": [1, 2, 3, 4, 5, 6, 7, 8, 9, 10, 11, 12, 13, 14, 15, 16, 17, 18, 19, 20, 21, 22, 23, 24, 25, 26, 27, 28, 29, 30, 31, 32, 33, 34, 35, 36, 37, 38, 39, 40, 41, 42, 43, 44, 45, 46, 47, 48, 49, 50, 51, 52, 53, 54, 55, 56, 57, 58, 59, 60, 61, 62, 63, 64, 65, 66, 67, 68, 69, 70, 71, 72, 73, 74, 75, 76, 77, 78, 79, 80, 81, 82, 83, 84, 85, 86, 87, 88, 89, 90, 91, 92, 93, 94, 95, 96, 97, 98, 99, 100, 101, 102, 103, 104, 105, 106, 107, 108, 109, 110, 111, 112, 113, 114, 115, 116, 117, 118, 119, 120, 121, 122, 123, 124, 125, 126, 127, 128, 129, 130, 131, 132, 133, 134, 135, 136, 137, 138, 139, 140, 141, 142, 143, 144, 145, 146, 147, 148, 149, 150, 151, 152, 153, 154, 155, 156, 157, 158, 159, 160, 161, 162, 163, 164, 165, 166, 167, 168, 169, 170, 171, 172, 173, 174, 175, 176, 177, 178, 179, 180, 181, 182, 183, 184, 185, 186, 187, 188, 189, 190, 191, 192, 193, 194, 195, 196, 197, 198, 199, 200, 201, 202, 203, 204, 205, 206, 207, 208, 209, 210, 211, 212, 213, 214, 215, 216, 217, 218, 219, 220, 221, 222, 223, 224, 225, 226, 227, 228, 229, 230, 231, 232, 233, 234, 235, 236, 237, 238, 239, 240, 241, 242, 243, 244, 245, 246, 247, 248, 249, 250, 251, 252, 253, 254, 255, 256, 257, 258, 259, 260, 261, 262, 263, 264, 265, 266, 267, 268, 269, 270, 271, 272, 273, 274, 275, 276, 277, 278, 279, 280, 281, 282, 283, 284, 285, 286, 287, 288, 289, 290, 291, 292, 293, 294, 295, 296, 297, 298, 299, 300, 301, 302, 303, 304, 305, 306, 307, 308, 309, 310, 311, 312, 313, 314, 315, 316, 317, 318, 319, 320, 321, 322, 323, 324, 325, 326, 327, 328, 329, 330, 331, 332, 333, 334, 335, 336, 337, 338, 339, 340, 341, 342, 343, 344, 345, 346, 347, 348, 349, 350, 351, 352, 353, 354, 355, 356, 357, 358, 359, 360, 361, 362, 363, 364, 365, 366, 367, 368, 369, 370, 371, 372, 373, 374, 375, 376, 377, 378, 379, 380, 381, 382, 383, 384, 385, 386, 387, 388, 389, 390, 391, 392, 393, 394, 395, 396, 397, 398, 399, 400, 401, 402, 403, 404, 405, 406, 407, 408, 409, 410, 411, 412, 413, 414, 415, 416, 417, 418, 419, 420, 421, 422, 423, 424, 425, 426, 427, 428, 429, 430, 431, 432, 433, 434, 435, 436, 437, 438, 439, 440, 441, 442, 443, 444, 445, 446, 447, 448, 449, 450, 451, 452, 453, 454, 455, 456, 457, 458, 459, 460, 461, 462, 463, 464, 465, 466, 467, 468, 469, 470, 471, 472, 473, 474, 475, 476, 477, 478, 479, 480, 481, 482, 483, 484, 485, 486, 487, 488, 489, 490, 491, 492, 493, 494, 495, 496, 497, 498, 499, 500, 501, 502, 503, 504, 505, 506, 507, 508, 509, 510, 511, 512, 513, 514, 515, 516, 517, 518, 519, 520, 521, 522, 523, 524, 525, 526, 527, 528, 529, 530, 531, 532, 533, 534, 535, 536, 537, 538, 539, 540, 541, 542, 543, 544, 545, 546, 547, 548, 549, 550, 551, 552, 553, 554, 555, 556, 557, 558, 559, 560, 561, 562, 563, 564, 565, 566, 567, 568, 569, 570, 571, 572, 573, 574, 575, 576, 577, 578, 579, 580, 581, 582, 583, 584, 585, 586, 587, 588, 589, 590, 591, 592, 593, 594, 595, 596, 597, 598, 599, 600, 601, 602, 603, 604, 605, 606, 607, 608, 609, 610, 611, 612, 613, 614, 615, 616, 617, 618, 619, 620, 621, 622, 623, 624, 625, 626, 627, 628, 629, 630, 631, 632, 633, 634, 635, 636, 637, 638, 639, 640, 641, 642, 643, 644, 645, 646, 647, 648, 649, 650, 651, 652, 653, 654, 655, 656, 657, 658, 659, 660, 661, 662, 663, 664, 665, 666, 667, 668, 669, 670, 671, 672, 673, 674, 675, 676, 677, 678, 679, 680, 681, 682, 683, 684, 685, 686, 687, 688, 689, 690, 691, 692, 693, 694, 695, 696, 697, 698, 699, 700, 701, 702, 703, 704, 705, 706, 707, 708, 709, 710, 711, 712, 713, 714, 715, 716, 717, 718, 719, 720, 721, 722, 723, 724, 725, 726, 727, 728, 729, 730, 731, 732, 733, 734, 735, 736, 737, 738, 739, 740, 741, 742, 743, 744, 745, 746, 747, 748, 749, 750, 751, 752, 753, 754, 755, 756, 757, 758, 759, 760, 761, 762, 763, 764, 765, 766, 767, 768, 769, 770, 771, 772, 773, 774, 775, 776, 777, 778, 779, 780, 781, 782, 783, 784, 785, 786, 787, 788, 789, 790, 791, 792, 793, 794, 795, 796, 797, 798, 799, 800, 801, 802, 803, 804, 805, 806, 807, 808, 809, 810, 811, 812, 813, 814, 815, 816, 817, 818, 819, 820, 821, 822, 823, 824, 825, 826, 827, 828, 829, 830, 831, 832, 833, 834, 835, 836, 837, 838, 839, 840, 841, 842, 843, 844, 845, 846, 847, 848, 849, 850, 851, 852, 853, 854, 855, 856, 857, 858, 859, 860, 861, 862, 863, 864, 865, 866, 867, 868, 869, 870, 871, 872, 873, 874, 875, 876, 877, 878, 879, 880, 881, 882, 883, 884, 885, 886, 887, 888, 889, 890, 891, 892, 893, 894, 895, 896, 897, 898, 899, 900, 901, 902, 903, 904, 905, 906, 907, 908, 909, 910, 911, 912, 913, 914, 915, 916, 917, 918, 919, 920, 921, 922, 923, 924, 925, 926, 927, 928, 929, 930, 931, 932, 933, 934, 935, 936, 937, 938, 939, 940, 941, 942, 943, 944, 945, 946, 947, 948, 949, 950, 951, 952, 953, 954, 955, 956, 957, 958, 959, 960, 961, 962, 963, 964, 965, 966, 967, 968, 969, 970, 971, 972, 973, 974, 975, 976, 977, 978, 979, 980, 981, 982, 983, 984, 985, 986, 987, 988, 989, 990, 991, 992, 993, 994, 995, 996, 997, 998, 999, 1000, 1001, 1002, 1003, 1004, 1005, 1006, 1007, 1008, 1009, 1010, 1011, 1012, 1013, 1014, 1015, 1016],
      "AcquisitionTime": ["143247.605000", "143248.065000", "143248.525000", "143248.985000", "143249.445000", "143249.905000", "143250.365000", "143250.825000", "143251.285000", "143251.745000", "143252.205000", "143252.665000", "143253.125000", "143253.585000", "143254.045000", "143254.505000", "143254.965000", "143255.425000", "143255.885000", "143256.345000", "143256.805000", "143257.265000", "143257.725000", "143258.185000", "143258.645000", "143259.105000", "143259.565000", "143300.025000", "143300.485000", "143300.945000", "143301.405000", "143301.865000", "143302.325000", "143302.785000", "143303.245000", "143303.705000", "143304.165000", "143304.625000", "143305.085000", "143305.545000", "143306.005000", "143306.465000", "143306.925000", "143307.385000", "143307.845000", "143308.305000", "143308.765000", "143309.225000", "143309.685000", "143310.145000", "143310.605000", "143311.065000", "143311.525000", "143311.985000", "143312.445000", "143312.905000", "143313.365000", "143313.825000", "143314.285000", "143314.745000", "143315.205000", "143315.665000", "143316.125000", "143316.585000", "143317.045000", "143317.505000", "143317.965000", "143318.425000", "143318.885000", "143319.345000", "143319.805000", "143320.265000", "143320.725000", "143321.185000", "143321.645000", "143322.105000", "143322.565000", "143323.025000", "143323.485000", "143323.945000", "143324.405000", "143324.865000", "143325.325000", "143325.785000", "143326.245000", "143326.705000", "143327.165000", "143327.625000", "143328.085000", "143328.545000", "143329.005000", "143329.465000", "143329.925000", "143330.385000", "143330.845000", "143331.305000", "143331.765000", "143332.225000", "143332.685000", "143333.145000", "143333.605000", "143334.065000", "143334.525000", "143334.985000", "143335.445000", "143335.905000", "143336.365000", "143336.825000", "143337.285000", "143337.745000", "143338.205000", "143338.665000", "143339.125000", "143339.585000", "143340.045000", "143340.505000", "143340.965000", "143341.425000", "143341.885000", "143342.345000", "143342.805000", "143343.265000", "143343.725000", "143344.185000", "143344.645000", "143345.105000", "143345.565000", "143346.025000", "143346.485000", "143346.945000", "143347.405000", "143347.865000", "143348.325000", "143348.785000", "143349.245000", "143349.705000", "143350.165000", "143350.625000", "143351.085000", "143351.545000", "143352.005000", "143352.465000", "143352.925000", "143353.385000", "143353.845000", "143354.305000", "143354.765000", "143355.225000", "143355.685000", "143356.145000", "143356.605000", "143357.065000", "143357.525000", "143357.985000", "143358.445000", "143358.905000", "143359.365000", "143359.825000", "143400.285000", "143400.745000", "143401.205000", "143401.665000", "143402.125000", "143402.585000", "143403.045000", "143403.505000", "143403.965000", "143404.425000", "143404.885000", "143405.345000", "143405.805000", "143406.265000", "143406.725000", "143407.185000", "143407.645000", "143408.105000", "143408.565000", "143409.025000", "143409.485000", "143409.945000", "143410.405000", "143410.865000", "143411.325000", "143411.785000", "143412.245000", "143412.705000", "143413.165000", "143413.625000", "143414.085000", "143414.545000", "143415.005000", "143415.465000", "143415.925000", "143416.385000", "143416.845000", "143417.305000", "143417.765000", "143418.225000", "143418.685000", "143419.145000", "143419.605000", "143420.065000", "143420.525000", "143420.985000", "143421.445000", "143421.905000", "143422.365000", "143422.825000", "143423.285000", "143423.745000", "143424.205000", "143424.665000", "143425.125000", "143425.585000", "143426.045000", "143426.505000", "143426.965000", "143427.425000", "143427.885000", "143428.345000", "143428.805000", "143429.265000", "143429.725000", "143430.185000", "143430.645000", "143431.105000", "143431.565000", "143432.025000", "143432.485000", "143432.945000", "143433.405000", "143433.865000", "143434.325000", "143434.785000", "143435.245000", "143435.705000", "143436.165000", "143436.625000", "143437.085000", "143437.545000", "143438.005000", "143438.465000", "143438.925000", "143439.385000", "143439.845000", "143440.305000", "143440.765000", "143441.225000", "143441.685000", "143442.145000", "143442.605000", "143443.065000", "143443.525000", "143443.985000", "143444.445000", "143444.905000", "143445.365000", "143445.825000", "143446.285000", "143446.745000", "143447.205000", "143447.665000", "143448.125000", "143448.585000", "143449.045000", "143449.505000", "143449.965000", "143450.425000", "143450.885000", "143451.345000", "143451.805000", "143452.265000", "143452.725000", "143453.185000", "143453.645000", "143454.105000", "143454.565000", "143455.025000", "143455.485000", "143455.945000", "143456.405000", "143456.865000", "143457.325000", "143457.785000", "143458.245000", "143458.705000", "143459.165000", "143459.625000", "143500.085000", "143500.545000", "143501.005000", "143501.465000", "143501.925000", "143502.385000", "143502.845000", "143503.305000", "143503.765000", "143504.225000", "143504.685000", "143505.145000", "143505.605000", "143506.065000", "143506.525000", "143506.985000", "143507.445000", "143507.905000", "143508.365000", "143508.825000", "143509.285000", "143509.745000", "143510.205000", "143510.665000", "143511.125000", "143511.585000", "143512.045000", "143512.505000", "143512.965000", "143513.425000", "143513.885000", "143514.345000", "143514.805000", "143515.265000", "143515.725000", "143516.185000", "143516.645000", "143517.105000", "143517.565000", "143518.025000", "143518.485000", "143518.945000", "143519.405000", "143519.865000", "143520.325000", "143520.785000", "143521.245000", "143521.705000", "143522.165000", "143522.625000", "143523.085000", "143523.545000", "143524.005000", "143524.465000", "143524.925000", "143525.385000", "143525.845000", "143526.305000", "143526.765000", "143527.225000", "143527.685000", "143528.145000", "143528.605000", "143529.065000", "143529.525000", "143529.985000", "143530.445000", "143530.905000", "143531.365000", "143531.825000", "143532.285000", "143532.745000", "143533.205000", "143533.665000", "143534.125000", "143534.585000", "143535.045000", "143535.505000", "143535.965000", "143536.425000", "143536.885000", "143537.345000", "143537.805000", "143538.265000", "143538.725000", "143539.185000", "143539.645000", "143540.105000", "143540.565000", "143541.025000", "143541.485000", "143541.945000", "143542.405000", "143542.865000", "143543.325000", "143543.785000", "143544.245000", "143544.705000", "143545.165000", "143545.625000", "143546.085000", "143546.545000", "143547.005000", "143547.465000", "143547.925000", "143548.385000", "143548.845000", "143549.305000", "143549.765000", "143550.225000", "143550.685000", "143551.145000", "143551.605000", "143552.065000", "143552.525000", "143552.985000", "143553.445000", "143553.905000", "143554.365000", "143554.825000", "143555.285000", "143555.745000", "143556.205000", "143556.665000", "143557.125000", "143557.585000", "143558.045000", "143558.505000", "143558.965000", "143559.425000", "143559.885000", "143600.345000", "143600.805000", "143601.265000", "143601.725000", "143602.185000", "143602.645000", "143603.105000", "143603.565000", "143604.025000", "143604.485000", "143604.945000", "143605.405000", "143605.865000", "143606.325000", "143606.785000", "143607.245000", "143607.705000", "143608.165000", "143608.625000", "143609.085000", "143609.545000", "143610.005000", "143610.465000", "143610.925000", "143611.385000", "143611.845000", "143612.305000", "143612.765000", "143613.225000", "143613.685000", "143614.145000", "143614.605000", "143615.065000", "143615.525000", "143615.985000", "143616.445000", "143616.905000", "143617.365000", "143617.825000", "143618.285000", "143618.745000", "143619.205000", "143619.665000", "143620.125000", "143620.585000", "143621.045000", "143621.505000", "143621.965000", "143622.425000", "143622.885000", "143623.345000", "143623.805000", "143624.265000", "143624.725000", "143625.185000", "143625.645000", "143626.105000", "143626.565000", "143627.025000", "143627.485000", "143627.945000", "143628.405000", "143628.865000", "143629.325000", "143629.785000", "143630.245000", "143630.705000", "143631.165000", "143631.625000", "143632.085000", "143632.545000", "143633.005000", "143633.465000", "143633.925000", "143634.385000", "143634.845000", "143635.305000", "143635.765000", "143636.225000", "143636.685000", "143637.145000", "143637.605000", "143638.065000", "143638.525000", "143638.985000", "143639.445000", "143639.905000", "143640.365000", "143640.825000", "143641.285000", "143641.745000", "143642.205000", "143642.665000", "143643.125000", "143643.585000", "143644.045000", "143644.505000", "143644.965000", "143645.425000", "143645.885000", "143646.345000", "143646.805000", "143647.265000", "143647.725000", "143648.185000", "143648.645000", "143649.105000", "143649.565000", "143650.025000", "143650.485000", "143650.945000", "143651.405000", "143651.865000", "143652.325000", "143652.785000", "143653.245000", "143653.705000", "143654.165000", "143654.625000", "143655.085000", "143655.545000", "143656.005000", "143656.465000", "143656.925000", "143657.385000", "143657.845000", "143658.305000", "143658.765000", "143659.225000", "143659.685000", "143700.145000", "143700.605000", "143701.065000", "143701.525000", "143701.985000", "143702.445000", "143702.905000", "143703.365000", "143703.825000", "143704.285000", "143704.745000", "143705.205000", "143705.665000", "143706.125000", "143706.585000", "143707.045000", "143707.505000", "143707.965000", "143708.425000", "143708.885000", "143709.345000", "143709.805000", "143710.265000", "143710.725000", "143711.185000", "143711.645000", "143712.105000", "143712.565000", "143713.025000", "143713.485000", "143713.945000", "143714.405000", "143714.865000", "143715.325000", "143715.785000", "143716.245000", "143716.705000", "143717.165000", "143717.625000", "143718.085000", "143718.545000", "143719.005000", "143719.465000", "143719.925000", "143720.385000", "143720.845000", "143721.305000", "143721.765000", "143722.225000", "143722.685000", "143723.145000", "143723.605000", "143724.065000", "143724.525000", "143724.985000", "143725.445000", "143725.905000", "143726.365000", "143726.825000", "143727.285000", "143727.745000", "143728.205000", "143728.665000", "143729.125000", "143729.585000", "143730.045000", "143730.505000", "143730.965000", "143731.425000", "143731.885000", "143732.345000", "143732.805000", "143733.265000", "143733.725000", "143734.185000", "143734.645000", "143735.105000", "143735.565000", "143736.025000", "143736.485000", "143736.945000", "143737.405000", "143737.865000", "143738.325000", "143738.785000", "143739.245000", "143739.705000", "143740.165000", "143740.625000", "143741.085000", "143741.545000", "143742.005000", "143742.465000", "143742.925000", "143743.385000", "143743.845000", "143744.305000", "143744.765000", "143745.225000", "143745.685000", "143746.145000", "143746.605000", "143747.065000", "143747.525000", "143747.985000", "143748.445000", "143748.905000", "143749.365000", "143749.825000", "143750.285000", "143750.745000", "143751.205000", "143751.665000", "143752.125000", "143752.585000", "143753.045000", "143753.505000", "143753.965000", "143754.425000", "143754.885000", "143755.345000", "143755.805000", "143756.265000", "143756.725000", "143757.185000", "143757.645000", "143758.105000", "143758.565000", "143759.025000", "143759.485000", "143759.945000", "143800.405000", "143800.865000", "143801.325000", "143801.785000", "143802.245000", "143802.705000", "143803.165000", "143803.625000", "143804.085000", "143804.545000", "143805.005000", "143805.465000", "143805.925000", "143806.385000", "143806.845000", "143807.305000", "143807.765000", "143808.225000", "143808.685000", "143809.145000", "143809.605000", "143810.065000", "143810.525000", "143810.985000", "143811.445000", "143811.905000", "143812.365000", "143812.825000", "143813.285000", "143813.745000", "143814.205000", "143814.665000", "143815.125000", "143815.585000", "143816.045000", "143816.505000", "143816.965000", "143817.425000", "143817.885000", "143818.345000", "143818.805000", "143819.265000", "143819.725000", "143820.185000", "143820.645000", "143821.105000", "143821.565000", "143822.025000", "143822.485000", "143822.945000", "143823.405000", "143823.865000", "143824.325000", "143824.785000", "143825.245000", "143825.705000", "143826.165000", "143826.625000", "143827.085000", "143827.545000", "143828.005000", "143828.465000", "143828.925000", "143829.385000", "143829.845000", "143830.305000", "143830.765000", "143831.225000", "143831.685000", "143832.145000", "143832.605000", "143833.065000", "143833.525000", "143833.985000", "143834.445000", "143834.905000", "143835.365000", "143835.825000", "143836.285000", "143836.745000", "143837.205000", "143837.665000", "143838.125000", "143838.585000", "143839.045000", "143839.505000", "143839.965000", "143840.425000", "143840.885000", "143841.345000", "143841.805000", "143842.265000", "143842.725000", "143843.185000", "143843.645000", "143844.105000", "143844.565000", "143845.025000", "143845.485000", "143845.945000", "143846.405000", "143846.865000", "143847.325000", "143847.785000", "143848.245000", "143848.705000", "143849.165000", "143849.625000", "143850.085000", "143850.545000", "143851.005000", "143851.465000", "143851.925000", "143852.385000", "143852.845000", "143853.305000", "143853.765000", "143854.225000", "143854.685000", "143855.145000", "143855.605000", "143856.065000", "143856.525000", "143856.985000", "143857.445000", "143857.905000", "143858.365000", "143858.825000", "143859.285000", "143859.745000", "143900.205000", "143900.665000", "143901.125000", "143901.585000", "143902.045000", "143902.505000", "143902.965000", "143903.425000", "143903.885000", "143904.345000", "143904.805000", "143905.265000", "143905.725000", "143906.185000", "143906.645000", "143907.105000", "143907.565000", "143908.025000", "143908.485000", "143908.945000", "143909.405000", "143909.865000", "143910.325000", "143910.785000", "143911.245000", "143911.705000", "143912.165000", "143912.625000", "143913.085000", "143913.545000", "143914.005000", "143914.465000", "143914.925000", "143915.385000", "143915.845000", "143916.305000", "143916.765000", "143917.225000", "143917.685000", "143918.145000", "143918.605000", "143919.065000", "143919.525000", "143919.985000", "143920.445000", "143920.905000", "143921.365000", "143921.825000", "143922.285000", "143922.745000", "143923.205000", "143923.665000", "143924.125000", "143924.585000", "143925.045000", "143925.505000", "143925.965000", "143926.425000", "143926.885000", "143927.345000", "143927.805000", "143928.265000", "143928.725000", "143929.185000", "143929.645000", "143930.105000", "143930.565000", "143931.025000", "143931.485000", "143931.945000", "143932.405000", "143932.865000", "143933.325000", "143933.785000", "143934.245000", "143934.705000", "143935.165000", "143935.625000", "143936.085000", "143936.545000", "143937.005000", "143937.465000", "143937.925000", "143938.385000", "143938.845000", "143939.305000", "143939.765000", "143940.225000", "143940.685000", "143941.145000", "143941.605000", "143942.065000", "143942.525000", "143942.985000", "143943.445000", "143943.905000", "143944.365000", "143944.825000", "143945.285000", "143945.745000", "143946.205000", "143946.665000", "143947.125000", "143947.585000", "143948.045000", "143948.505000", "143948.965000", "143949.425000", "143949.885000", "143950.345000", "143950.805000", "143951.265000", "143951.725000", "143952.185000", "143952.645000", "143953.105000", "143953.565000", "143954.025000", "143954.485000", "143954.945000", "143955.405000", "143955.865000", "143956.325000", "143956.785000", "143957.245000", "143957.705000", "143958.165000", "143958.625000", "143959.085000", "143959.545000", "144000.005000", "144000.465000", "144000.925000", "144001.385000", "144001.845000", "144002.305000", "144002.765000", "144003.225000", "144003.685000", "144004.145000", "144004.605000", "144005.065000", "144005.525000", "144005.985000", "144006.445000", "144006.905000", "144007.365000", "144007.825000", "144008.285000", "144008.745000", "144009.205000", "144009.665000", "144010.125000", "144010.585000", "144011.045000", "144011.505000", "144011.965000", "144012.425000", "144012.885000", "144013.345000", "144013.805000", "144014.265000", "144014.725000", "144015.185000", "144015.645000", "144016.105000", "144016.565000", "144017.025000", "144017.485000", "144017.945000", "144018.405000", "144018.865000", "144019.325000", "144019.785000", "144020.245000", "144020.705000", "144021.165000", "144021.625000", "144022.085000", "144022.545000", "144023.005000", "144023.465000", "144023.925000", "144024.385000", "144024.845000", "144025.305000", "144025.765000", "144026.225000", "144026.685000", "144027.145000", "144027.605000", "144028.065000", "144028.525000", "144028.985000", "144029.445000", "144029.905000", "144030.365000", "144030.825000", "144031.285000", "144031.745000", "144032.205000", "144032.665000", "144033.125000", "144033.585000", "144034.045000", "144034.505000"],
