{
  "AcquisitionMatrixPE": 82,
  "AcquisitionNumber": 1,
  "AcquisitionTime": "21:16:30.760000",
  "BandwidthPerPixelPhaseEncode": 24.888,
  "BaseResolution": 82,
  "BodyPartExamined": "BRAIN",
  "ConsistencyInfo": "N4_VE11E_LATEST_20181129",
  "ConversionSoftware": "dcm2niix",
  "ConversionSoftwareVersion": "v1.0.20201102",
  "DerivedVendorReportedEchoSpacing": 0.00049,
  "DeviceSerialNumber": "66112",
  "DwellTime": 2e-06,
  "EchoTime": 0.0272,
  "EchoTrainLength": 82,
  "EffectiveEchoSpacing": 0.00049,
  "FlipAngle": 44,
  "ImageComments": "Unaliased MB8/PE3",
  "ImageOrientationPatientDICOM": [0.998252, -0.0582247, -0.0101064, 0.0589574, 0.992927, 0.103052],
  "ImageType": [
    "ORIGINAL",
    "PRIMARY",
    "M",
    "MB",
    "ND",
    "NORM",
    "MOSAIC"
],
  "ImagingFrequency": 123.252,
  "InPlanePhaseEncodingDirectionDICOM": "COL",
  "InstitutionAddress": "Maynard 3,Hanover,NH,US,03755",
  "InstitutionName": "Dartmouth College - PBS",
  "InstitutionalDepartmentName": "Department",
  "MRAcquisitionType": "2D",
  "MagneticFieldStrength": 3,
  "Manufacturer": "Siemens",
  "ManufacturersModelName": "Prisma",
  "Modality": "MR",
  "MultibandAccelerationFactor": 8,
  "PartialFourier": 1,
  "PatientPosition": "HFS",
  "PercentPhaseFOV": 100,
  "PercentSampling": 100,
  "PhaseEncodingDirection": "j-",
  "PhaseEncodingSteps": 82,
  "PhaseResolution": 1,
  "PixelBandwidth": 3050,
  "ProcedureStepDescription": "Wager_Wager^1076_spacetop",
  "ProtocolName": "func_run-01_task-faces_acq-ap-mb8",
  "PulseSequenceDetails": "%CustomerSeq%\\cmrr_mbep2d_bold",
  "ReceiveCoilActiveElements": "HEA;HEP",
  "ReceiveCoilName": "Head_32",
  "ReconMatrixPE": 82,
  "RepetitionTime": 0.46,
  "SAR": 0.10194,
  "ScanOptions": "FS",
  "ScanningSequence": "EP",
  "SequenceName": "epfid2d1_82",
  "SequenceVariant": "SK\\SS",
  "SeriesDescription": "func_run-01_task-faces_acq-ap-mb8",
  "SeriesNumber": 18,
  "ShimSetting": [4160, -7790, -7238, 518, -35, -280, 40, 66],
  "SliceThickness": 2.7,
  "SliceTiming": [0, 0.2525, 0.0625, 0.315, 0.1275, 0.3775, 0.19, 0, 0.2525, 0.0625, 0.315, 0.1275, 0.3775, 0.19, 0, 0.2525, 0.0625, 0.315, 0.1275, 0.3775, 0.19, 0, 0.2525, 0.0625, 0.315, 0.1275, 0.3775, 0.19, 0, 0.2525, 0.0625, 0.315, 0.1275, 0.3775, 0.19, 0, 0.2525, 0.0625, 0.315, 0.1275, 0.3775, 0.19, 0, 0.2525, 0.0625, 0.315, 0.1275, 0.3775, 0.19, 0, 0.2525, 0.0625, 0.315, 0.1275, 0.3775, 0.19],
  "SoftwareVersions": "syngo MR E11",
  "SpacingBetweenSlices": 2.7,
  "StationName": "AWP66112",
  "TaskName": "faces",
  "TotalReadoutTime": 0.03969,
  "TxRefAmp": 261.095,
  "WipMemBlock": "f2045c2b-460c-4546-a5ae-ce9586ed7a01||Sequence: R016 ve11e/master r/434b28f1; Aug  7 2019 18:53:46 by eja",
  "dcmmeta_affine": [
    [-2.6782381534576416, 0.1581784188747406, -0.010893895290791988, 103.1011962890625],
    [0.15621262788772583, 2.6639509201049805, 0.2793620526790619, -102.52864837646484],
    [-0.027114758267998695, -0.276480108499527, 2.6854865550994873, -49.669273376464844],
    [0.0, 0.0, 0.0, 1.0]
],
  "dcmmeta_reorient_transform": [
    [0.0, -1.0, 0.0, 81.0],
    [1.0, 0.0, 0.0, 0.0],
    [0.0, 0.0, 1.0, 0.0],
    [0.0, 0.0, 0.0, 1.0]
],
  "dcmmeta_shape": [82, 82, 56, 914],
  "dcmmeta_slice_dim": 2,
  "dcmmeta_version": 0.6,
  "global": {
    "const": {
      "AccessionNumber": "A004055",
      "AcquisitionMatrix": [82, 0, 0, 82],
      "AngioFlag": "N",
      "BitsAllocated": 16,
      "BitsStored": 16,
      "BodyPartExamined": "BRAIN",
      "Columns": 656,
      "EchoNumbers": 1,
      "EchoTime": 27.2,
      "EchoTrainLength": 82,
      "FlipAngle": 44.0,
      "HighBit": 15,
      "ImageOrientationPatient": [0.99825234508388, -0.0582247027933, -0.0101064098062, 0.0589574093585, 0.99292717577841, 0.10305167384595],
      "ImagePositionPatient": [-929.96517794217, -832.97230457186, -143.63201756314],
      "ImageType": [
        "ORIGINAL",
        "PRIMARY",
        "M",
        "MB",
        "ND",
        "NORM",
        "MOSAIC"
],
      "ImagedNucleus": "1H",
      "ImagingFrequency": 123.252167,
      "InPlanePhaseEncodingDirection": "COL",
      "MRAcquisitionType": "2D",
      "MagneticFieldStrength": 3.0,
      "Manufacturer": "SIEMENS",
      "ManufacturerModelName": "Prisma",
      "Modality": "MR",
      "NumberOfAverages": 1.0,
      "NumberOfPhaseEncodingSteps": 82,
      "PercentPhaseFieldOfView": 100.0,
      "PercentSampling": 100.0,
      "PerformedProcedureStepStartTime": "202600.512000",
      "PhotometricInterpretation": "MONOCHROME2",
      "PixelBandwidth": 3050.0,
      "PixelRepresentation": 0,
      "PixelSpacing": [2.6829268932343, 2.6829268932343],
      "ProtocolName": "func_run-01_task-faces_acq-ap-mb8",
      "RepetitionTime": 460.0,
      "Rows": 656,
      "SAR": 0.10193969516113,
      "SamplesPerPixel": 1,
      "ScanOptions": "FS",
      "ScanningSequence": "EP",
      "SequenceName": "epfid2d1_82",
      "SequenceVariant": [
        "SK",
        "SS"
],
      "SeriesDescription": "func_run-01_task-faces_acq-ap-mb8",
      "SeriesNumber": 18,
      "SeriesTime": "211657.599000",
      "SliceLocation": -60.426649959841,
      "SliceThickness": 2.7000000476837,
      "SmallestImagePixelValue": 0,
      "SoftwareVersions": "syngo MR E11",
      "SpacingBetweenSlices": 2.7000000218833,
      "SpecificCharacterSet": "ISO_IR 100",
      "StudyID": "2",
      "StudyTime": "202600.443000",
      "TransmitCoilName": "Body",
      "VariableFlipAngleFlag": "N",
      "WindowCenterWidthExplanation": "Algo1"
    },
    "slices": {}
  },
  "time": {
    "samples": {
      "AcquisitionNumber": [1, 2, 3, 4, 5, 6, 7, 8, 9, 10, 11, 12, 13, 14, 15, 16, 17, 18, 19, 20, 21, 22, 23, 24, 25, 26, 27, 28, 29, 30, 31, 32, 33, 34, 35, 36, 37, 38, 39, 40, 41, 42, 43, 44, 45, 46, 47, 48, 49, 50, 51, 52, 53, 54, 55, 56, 57, 58, 59, 60, 61, 62, 63, 64, 65, 66, 67, 68, 69, 70, 71, 72, 73, 74, 75, 76, 77, 78, 79, 80, 81, 82, 83, 84, 85, 86, 87, 88, 89, 90, 91, 92, 93, 94, 95, 96, 97, 98, 99, 100, 101, 102, 103, 104, 105, 106, 107, 108, 109, 110, 111, 112, 113, 114, 115, 116, 117, 118, 119, 120, 121, 122, 123, 124, 125, 126, 127, 128, 129, 130, 131, 132, 133, 134, 135, 136, 137, 138, 139, 140, 141, 142, 143, 144, 145, 146, 147, 148, 149, 150, 151, 152, 153, 154, 155, 156, 157, 158, 159, 160, 161, 162, 163, 164, 165, 166, 167, 168, 169, 170, 171, 172, 173, 174, 175, 176, 177, 178, 179, 180, 181, 182, 183, 184, 185, 186, 187, 188, 189, 190, 191, 192, 193, 194, 195, 196, 197, 198, 199, 200, 201, 202, 203, 204, 205, 206, 207, 208, 209, 210, 211, 212, 213, 214, 215, 216, 217, 218, 219, 220, 221, 222, 223, 224, 225, 226, 227, 228, 229, 230, 231, 232, 233, 234, 235, 236, 237, 238, 239, 240, 241, 242, 243, 244, 245, 246, 247, 248, 249, 250, 251, 252, 253, 254, 255, 256, 257, 258, 259, 260, 261, 262, 263, 264, 265, 266, 267, 268, 269, 270, 271, 272, 273, 274, 275, 276, 277, 278, 279, 280, 281, 282, 283, 284, 285, 286, 287, 288, 289, 290, 291, 292, 293, 294, 295, 296, 297, 298, 299, 300, 301, 302, 303, 304, 305, 306, 307, 308, 309, 310, 311, 312, 313, 314, 315, 316, 317, 318, 319, 320, 321, 322, 323, 324, 325, 326, 327, 328, 329, 330, 331, 332, 333, 334, 335, 336, 337, 338, 339, 340, 341, 342, 343, 344, 345, 346, 347, 348, 349, 350, 351, 352, 353, 354, 355, 356, 357, 358, 359, 360, 361, 362, 363, 364, 365, 366, 367, 368, 369, 370, 371, 372, 373, 374, 375, 376, 377, 378, 379, 380, 381, 382, 383, 384, 385, 386, 387, 388, 389, 390, 391, 392, 393, 394, 395, 396, 397, 398, 399, 400, 401, 402, 403, 404, 405, 406, 407, 408, 409, 410, 411, 412, 413, 414, 415, 416, 417, 418, 419, 420, 421, 422, 423, 424, 425, 426, 427, 428, 429, 430, 431, 432, 433, 434, 435, 436, 437, 438, 439, 440, 441, 442, 443, 444, 445, 446, 447, 448, 449, 450, 451, 452, 453, 454, 455, 456, 457, 458, 459, 460, 461, 462, 463, 464, 465, 466, 467, 468, 469, 470, 471, 472, 473, 474, 475, 476, 477, 478, 479, 480, 481, 482, 483, 484, 485, 486, 487, 488, 489, 490, 491, 492, 493, 494, 495, 496, 497, 498, 499, 500, 501, 502, 503, 504, 505, 506, 507, 508, 509, 510, 511, 512, 513, 514, 515, 516, 517, 518, 519, 520, 521, 522, 523, 524, 525, 526, 527, 528, 529, 530, 531, 532, 533, 534, 535, 536, 537, 538, 539, 540, 541, 542, 543, 544, 545, 546, 547, 548, 549, 550, 551, 552, 553, 554, 555, 556, 557, 558, 559, 560, 561, 562, 563, 564, 565, 566, 567, 568, 569, 570, 571, 572, 573, 574, 575, 576, 577, 578, 579, 580, 581, 582, 583, 584, 585, 586, 587, 588, 589, 590, 591, 592, 593, 594, 595, 596, 597, 598, 599, 600, 601, 602, 603, 604, 605, 606, 607, 608, 609, 610, 611, 612, 613, 614, 615, 616, 617, 618, 619, 620, 621, 622, 623, 624, 625, 626, 627, 628, 629, 630, 631, 632, 633, 634, 635, 636, 637, 638, 639, 640, 641, 642, 643, 644, 645, 646, 647, 648, 649, 650, 651, 652, 653, 654, 655, 656, 657, 658, 659, 660, 661, 662, 663, 664, 665, 666, 667, 668, 669, 670, 671, 672, 673, 674, 675, 676, 677, 678, 679, 680, 681, 682, 683, 684, 685, 686, 687, 688, 689, 690, 691, 692, 693, 694, 695, 696, 697, 698, 699, 700, 701, 702, 703, 704, 705, 706, 707, 708, 709, 710, 711, 712, 713, 714, 715, 716, 717, 718, 719, 720, 721, 722, 723, 724, 725, 726, 727, 728, 729, 730, 731, 732, 733, 734, 735, 736, 737, 738, 739, 740, 741, 742, 743, 744, 745, 746, 747, 748, 749, 750, 751, 752, 753, 754, 755, 756, 757, 758, 759, 760, 761, 762, 763, 764, 765, 766, 767, 768, 769, 770, 771, 772, 773, 774, 775, 776, 777, 778, 779, 780, 781, 782, 783, 784, 785, 786, 787, 788, 789, 790, 791, 792, 793, 794, 795, 796, 797, 798, 799, 800, 801, 802, 803, 804, 805, 806, 807, 808, 809, 810, 811, 812, 813, 814, 815, 816, 817, 818, 819, 820, 821, 822, 823, 824, 825, 826, 827, 828, 829, 830, 831, 832, 833, 834, 835, 836, 837, 838, 839, 840, 841, 842, 843, 844, 845, 846, 847, 848, 849, 850, 851, 852, 853, 854, 855, 856, 857, 858, 859, 860, 861, 862, 863, 864, 865, 866, 867, 868, 869, 870, 871, 872, 873, 874, 875, 876, 877, 878, 879, 880, 881, 882, 883, 884, 885, 886, 887, 888, 889, 890, 891, 892, 893, 894, 895, 896, 897, 898, 899, 900, 901, 902, 903, 904, 905, 906, 907, 908, 909, 910, 911, 912, 913, 914],
      "AcquisitionTime": ["211630.760000", "211631.220000", "211631.680000", "211632.140000", "211632.600000", "211633.060000", "211633.520000", "211633.980000", "211634.440000", "211634.900000", "211635.360000", "211635.820000", "211636.280000", "211636.740000", "211637.200000", "211637.660000", "211638.120000", "211638.580000", "211639.040000", "211639.500000", "211639.960000", "211640.420000", "211640.880000", "211641.340000", "211641.800000", "211642.260000", "211642.720000", "211643.180000", "211643.640000", "211644.100000", "211644.560000", "211645.020000", "211645.480000", "211645.940000", "211646.400000", "211646.860000", "211647.320000", "211647.780000", "211648.240000", "211648.700000", "211649.160000", "211649.620000", "211650.080000", "211650.540000", "211651.000000", "211651.460000", "211651.920000", "211652.380000", "211652.840000", "211653.300000", "211653.760000", "211654.220000", "211654.680000", "211655.140000", "211655.600000", "211656.060000", "211656.520000", "211656.980000", "211657.440000", "211657.900000", "211658.360000", "211658.820000", "211659.280000", "211659.740000", "211700.200000", "211700.660000", "211701.120000", "211701.580000", "211702.040000", "211702.500000", "211702.960000", "211703.420000", "211703.880000", "211704.340000", "211704.800000", "211705.260000", "211705.720000", "211706.180000", "211706.640000", "211707.100000", "211707.560000", "211708.020000", "211708.480000", "211708.940000", "211709.400000", "211709.860000", "211710.320000", "211710.780000", "211711.240000", "211711.700000", "211712.160000", "211712.620000", "211713.080000", "211713.540000", "211714.000000", "211714.460000", "211714.920000", "211715.380000", "211715.840000", "211716.300000", "211716.760000", "211717.220000", "211717.680000", "211718.140000", "211718.600000", "211719.060000", "211719.520000", "211719.980000", "211720.440000", "211720.900000", "211721.360000", "211721.820000", "211722.280000", "211722.740000", "211723.200000", "211723.660000", "211724.120000", "211724.580000", "211725.040000", "211725.500000", "211725.960000", "211726.420000", "211726.880000", "211727.340000", "211727.800000", "211728.260000", "211728.720000", "211729.180000", "211729.640000", "211730.100000", "211730.560000", "211731.020000", "211731.480000", "211731.940000", "211732.400000", "211732.860000", "211733.320000", "211733.780000", "211734.240000", "211734.700000", "211735.160000", "211735.620000", "211736.080000", "211736.540000", "211737.000000", "211737.460000", "211737.920000", "211738.380000", "211738.840000", "211739.300000", "211739.760000", "211740.220000", "211740.680000", "211741.140000", "211741.600000", "211742.060000", "211742.520000", "211742.980000", "211743.440000", "211743.900000", "211744.360000", "211744.820000", "211745.280000", "211745.740000", "211746.200000", "211746.660000", "211747.120000", "211747.580000", "211748.040000", "211748.500000", "211748.960000", "211749.420000", "211749.880000", "211750.340000", "211750.800000", "211751.260000", "211751.720000", "211752.180000", "211752.640000", "211753.100000", "211753.560000", "211754.020000", "211754.480000", "211754.940000", "211755.400000", "211755.860000", "211756.320000", "211756.780000", "211757.240000", "211757.700000", "211758.160000", "211758.620000", "211759.080000", "211759.540000", "211800.000000", "211800.460000", "211800.920000", "211801.380000", "211801.840000", "211802.300000", "211802.760000", "211803.220000", "211803.680000", "211804.140000", "211804.600000", "211805.060000", "211805.520000", "211805.980000", "211806.440000", "211806.900000", "211807.360000", "211807.820000", "211808.280000", "211808.740000", "211809.200000", "211809.660000", "211810.120000", "211810.580000", "211811.040000", "211811.500000", "211811.960000", "211812.420000", "211812.880000", "211813.340000", "211813.800000", "211814.260000", "211814.720000", "211815.180000", "211815.640000", "211816.100000", "211816.560000", "211817.020000", "211817.480000", "211817.940000", "211818.400000", "211818.860000", "211819.320000", "211819.780000", "211820.240000", "211820.700000", "211821.160000", "211821.620000", "211822.080000", "211822.540000", "211823.000000", "211823.460000", "211823.920000", "211824.380000", "211824.840000", "211825.300000", "211825.760000", "211826.220000", "211826.680000", "211827.140000", "211827.600000", "211828.060000", "211828.520000", "211828.980000", "211829.440000", "211829.900000", "211830.360000", "211830.820000", "211831.280000", "211831.740000", "211832.200000", "211832.660000", "211833.120000", "211833.580000", "211834.040000", "211834.500000", "211834.960000", "211835.420000", "211835.880000", "211836.340000", "211836.800000", "211837.260000", "211837.720000", "211838.180000", "211838.640000", "211839.100000", "211839.560000", "211840.020000", "211840.480000", "211840.940000", "211841.400000", "211841.860000", "211842.320000", "211842.780000", "211843.240000", "211843.700000", "211844.160000", "211844.620000", "211845.080000", "211845.540000", "211846.000000", "211846.460000", "211846.920000", "211847.380000", "211847.840000", "211848.300000", "211848.760000", "211849.220000", "211849.680000", "211850.140000", "211850.600000", "211851.060000", "211851.520000", "211851.980000", "211852.440000", "211852.900000", "211853.360000", "211853.820000", "211854.280000", "211854.740000", "211855.200000", "211855.660000", "211856.120000", "211856.580000", "211857.040000", "211857.500000", "211857.960000", "211858.420000", "211858.880000", "211859.340000", "211859.800000", "211900.260000", "211900.720000", "211901.180000", "211901.640000", "211902.100000", "211902.560000", "211903.020000", "211903.480000", "211903.940000", "211904.400000", "211904.860000", "211905.320000", "211905.780000", "211906.240000", "211906.700000", "211907.160000", "211907.620000", "211908.080000", "211908.540000", "211909.000000", "211909.460000", "211909.920000", "211910.380000", "211910.840000", "211911.300000", "211911.760000", "211912.220000", "211912.680000", "211913.140000", "211913.600000", "211914.060000", "211914.520000", "211914.980000", "211915.440000", "211915.900000", "211916.360000", "211916.820000", "211917.280000", "211917.740000", "211918.200000", "211918.660000", "211919.120000", "211919.580000", "211920.040000", "211920.500000", "211920.960000", "211921.420000", "211921.880000", "211922.340000", "211922.800000", "211923.260000", "211923.720000", "211924.180000", "211924.640000", "211925.100000", "211925.560000", "211926.020000", "211926.480000", "211926.940000", "211927.400000", "211927.860000", "211928.320000", "211928.780000", "211929.240000", "211929.700000", "211930.160000", "211930.620000", "211931.080000", "211931.540000", "211932.000000", "211932.460000", "211932.920000", "211933.380000", "211933.840000", "211934.300000", "211934.760000", "211935.220000", "211935.680000", "211936.140000", "211936.600000", "211937.060000", "211937.520000", "211937.980000", "211938.440000", "211938.900000", "211939.360000", "211939.820000", "211940.280000", "211940.740000", "211941.200000", "211941.660000", "211942.120000", "211942.580000", "211943.040000", "211943.500000", "211943.960000", "211944.420000", "211944.880000", "211945.340000", "211945.800000", "211946.260000", "211946.720000", "211947.180000", "211947.640000", "211948.100000", "211948.560000", "211949.020000", "211949.480000", "211949.940000", "211950.400000", "211950.860000", "211951.320000", "211951.780000", "211952.240000", "211952.700000", "211953.160000", "211953.620000", "211954.080000", "211954.540000", "211955.000000", "211955.460000", "211955.920000", "211956.380000", "211956.840000", "211957.300000", "211957.760000", "211958.220000", "211958.680000", "211959.140000", "211959.600000", "212000.060000", "212000.520000", "212000.980000", "212001.440000", "212001.900000", "212002.360000", "212002.820000", "212003.280000", "212003.740000", "212004.200000", "212004.660000", "212005.120000", "212005.580000", "212006.040000", "212006.500000", "212006.960000", "212007.420000", "212007.880000", "212008.340000", "212008.800000", "212009.260000", "212009.720000", "212010.180000", "212010.640000", "212011.100000", "212011.560000", "212012.020000", "212012.480000", "212012.940000", "212013.400000", "212013.860000", "212014.320000", "212014.780000", "212015.240000", "212015.700000", "212016.160000", "212016.620000", "212017.080000", "212017.540000", "212018.000000", "212018.460000", "212018.920000", "212019.380000", "212019.840000", "212020.300000", "212020.760000", "212021.220000", "212021.680000", "212022.140000", "212022.600000", "212023.060000", "212023.520000", "212023.980000", "212024.440000", "212024.900000", "212025.360000", "212025.820000", "212026.280000", "212026.740000", "212027.200000", "212027.660000", "212028.120000", "212028.580000", "212029.040000", "212029.500000", "212029.960000", "212030.420000", "212030.880000", "212031.340000", "212031.800000", "212032.260000", "212032.720000", "212033.180000", "212033.640000", "212034.100000", "212034.560000", "212035.020000", "212035.480000", "212035.940000", "212036.400000", "212036.860000", "212037.320000", "212037.780000", "212038.240000", "212038.700000", "212039.160000", "212039.620000", "212040.080000", "212040.540000", "212041.000000", "212041.460000", "212041.920000", "212042.380000", "212042.840000", "212043.300000", "212043.760000", "212044.220000", "212044.680000", "212045.140000", "212045.600000", "212046.060000", "212046.520000", "212046.980000", "212047.440000", "212047.900000", "212048.360000", "212048.820000", "212049.280000", "212049.740000", "212050.200000", "212050.660000", "212051.120000", "212051.580000", "212052.040000", "212052.500000", "212052.960000", "212053.420000", "212053.880000", "212054.340000", "212054.800000", "212055.260000", "212055.720000", "212056.180000", "212056.640000", "212057.100000", "212057.560000", "212058.020000", "212058.480000", "212058.940000", "212059.400000", "212059.860000", "212100.320000", "212100.780000", "212101.240000", "212101.700000", "212102.160000", "212102.620000", "212103.080000", "212103.540000", "212104.000000", "212104.460000", "212104.920000", "212105.380000", "212105.840000", "212106.300000", "212106.760000", "212107.220000", "212107.680000", "212108.140000", "212108.600000", "212109.060000", "212109.520000", "212109.980000", "212110.440000", "212110.900000", "212111.360000", "212111.820000", "212112.280000", "212112.740000", "212113.200000", "212113.660000", "212114.120000", "212114.580000", "212115.040000", "212115.500000", "212115.960000", "212116.420000", "212116.880000", "212117.340000", "212117.800000", "212118.260000", "212118.720000", "212119.180000", "212119.640000", "212120.100000", "212120.560000", "212121.020000", "212121.480000", "212121.940000", "212122.400000", "212122.860000", "212123.320000", "212123.780000", "212124.240000", "212124.700000", "212125.160000", "212125.620000", "212126.080000", "212126.540000", "212127.000000", "212127.460000", "212127.920000", "212128.380000", "212128.840000", "212129.300000", "212129.760000", "212130.220000", "212130.680000", "212131.140000", "212131.600000", "212132.060000", "212132.520000", "212132.980000", "212133.440000", "212133.900000", "212134.360000", "212134.820000", "212135.280000", "212135.740000", "212136.200000", "212136.660000", "212137.120000", "212137.580000", "212138.040000", "212138.500000", "212138.960000", "212139.420000", "212139.880000", "212140.340000", "212140.800000", "212141.260000", "212141.720000", "212142.180000", "212142.640000", "212143.100000", "212143.560000", "212144.020000", "212144.480000", "212144.940000", "212145.400000", "212145.860000", "212146.320000", "212146.780000", "212147.240000", "212147.700000", "212148.160000", "212148.620000", "212149.080000", "212149.540000", "212150.000000", "212150.460000", "212150.920000", "212151.380000", "212151.840000", "212152.300000", "212152.760000", "212153.220000", "212153.680000", "212154.140000", "212154.600000", "212155.060000", "212155.520000", "212155.980000", "212156.440000", "212156.900000", "212157.360000", "212157.820000", "212158.280000", "212158.740000", "212159.200000", "212159.660000", "212200.120000", "212200.580000", "212201.040000", "212201.500000", "212201.960000", "212202.420000", "212202.880000", "212203.340000", "212203.800000", "212204.260000", "212204.720000", "212205.180000", "212205.640000", "212206.100000", "212206.560000", "212207.020000", "212207.480000", "212207.940000", "212208.400000", "212208.860000", "212209.320000", "212209.780000", "212210.240000", "212210.700000", "212211.160000", "212211.620000", "212212.080000", "212212.540000", "212213.000000", "212213.460000", "212213.920000", "212214.380000", "212214.840000", "212215.300000", "212215.760000", "212216.220000", "212216.680000", "212217.140000", "212217.600000", "212218.060000", "212218.520000", "212218.980000", "212219.440000", "212219.900000", "212220.360000", "212220.820000", "212221.280000", "212221.740000", "212222.200000", "212222.660000", "212223.120000", "212223.580000", "212224.040000", "212224.500000", "212224.960000", "212225.420000", "212225.880000", "212226.340000", "212226.800000", "212227.260000", "212227.720000", "212228.180000", "212228.640000", "212229.100000", "212229.560000", "212230.020000", "212230.480000", "212230.940000", "212231.400000", "212231.860000", "212232.320000", "212232.780000", "212233.240000", "212233.700000", "212234.160000", "212234.620000", "212235.080000", "212235.540000", "212236.000000", "212236.460000", "212236.920000", "212237.380000", "212237.840000", "212238.300000", "212238.760000", "212239.220000", "212239.680000", "212240.140000", "212240.600000", "212241.060000", "212241.520000", "212241.980000", "212242.440000", "212242.900000", "212243.360000", "212243.820000", "212244.280000", "212244.740000", "212245.200000", "212245.660000", "212246.120000", "212246.580000", "212247.040000", "212247.500000", "212247.960000", "212248.420000", "212248.880000", "212249.340000", "212249.800000", "212250.260000", "212250.720000", "212251.180000", "212251.640000", "212252.100000", "212252.560000", "212253.020000", "212253.480000", "212253.940000", "212254.400000", "212254.860000", "212255.320000", "212255.780000", "212256.240000", "212256.700000", "212257.160000", "212257.620000", "212258.080000", "212258.540000", "212259.000000", "212259.460000", "212259.920000", "212300.380000", "212300.840000", "212301.300000", "212301.760000", "212302.220000", "212302.680000", "212303.140000", "212303.600000", "212304.060000", "212304.520000", "212304.980000", "212305.440000", "212305.900000", "212306.360000", "212306.820000", "212307.280000", "212307.740000", "212308.200000", "212308.660000", "212309.120000", "212309.580000", "212310.040000", "212310.500000", "212310.960000", "212311.420000", "212311.880000", "212312.340000", "212312.800000", "212313.260000", "212313.720000", "212314.180000", "212314.640000", "212315.100000", "212315.560000", "212316.020000", "212316.480000", "212316.940000", "212317.400000", "212317.860000", "212318.320000", "212318.780000", "212319.240000", "212319.700000", "212320.160000", "212320.620000", "212321.080000", "212321.540000", "212322.000000", "212322.460000", "212322.920000", "212323.380000", "212323.840000", "212324.300000", "212324.760000", "212325.220000", "212325.680000", "212326.140000", "212326.600000", "212327.060000", "212327.520000", "212327.980000", "212328.440000", "212328.900000", "212329.360000", "212329.820000", "212330.280000", "212330.740000"],
