{
  "AcquisitionMatrixPE": 82,
  "AcquisitionNumber": 1,
  "AcquisitionTime": "21:35:1.272500",
  "BandwidthPerPixelPhaseEncode": 24.888,
  "BaseResolution": 82,
  "BodyPartExamined": "BRAIN",
  "ConsistencyInfo": "N4_VE11E_LATEST_20181129",
  "ConversionSoftware": "dcm2niix",
  "ConversionSoftwareVersion": "v1.0.20201102",
  "DerivedVendorReportedEchoSpacing": 0.00049,
  "DeviceSerialNumber": "66112",
  "DwellTime": 2e-06,
  "EchoTime": 0.0272,
  "EchoTrainLength": 82,
  "EffectiveEchoSpacing": 0.00049,
  "FlipAngle": 44,
  "ImageComments": "Unaliased MB8/PE3",
  "ImageOrientationPatientDICOM": [0.998252, -0.0582247, -0.0101064, 0.0589574, 0.992927, 0.103052],
  "ImageType": [
    "ORIGINAL",
    "PRIMARY",
    "M",
    "MB",
    "ND",
    "NORM",
    "MOSAIC"
],
  "ImagingFrequency": 123.252,
  "InPlanePhaseEncodingDirectionDICOM": "COL",
  "InstitutionAddress": "Maynard 3,Hanover,NH,US,03755",
  "InstitutionName": "Dartmouth College - PBS",
  "InstitutionalDepartmentName": "Department",
  "MRAcquisitionType": "2D",
  "MagneticFieldStrength": 3,
  "Manufacturer": "Siemens",
  "ManufacturersModelName": "Prisma",
  "Modality": "MR",
  "MultibandAccelerationFactor": 8,
  "PartialFourier": 1,
  "PatientPosition": "HFS",
  "PercentPhaseFOV": 100,
  "PercentSampling": 100,
  "PhaseEncodingDirection": "j-",
  "PhaseEncodingSteps": 82,
  "PhaseResolution": 1,
  "PixelBandwidth": 3050,
  "ProcedureStepDescription": "Wager_Wager^1076_spacetop",
  "ProtocolName": "func_run-03_task-faces_acq-ap-mb8",
  "PulseSequenceDetails": "%CustomerSeq%\\cmrr_mbep2d_bold",
  "ReceiveCoilActiveElements": "HEA;HEP",
  "ReceiveCoilName": "Head_32",
  "ReconMatrixPE": 82,
  "RepetitionTime": 0.46,
  "SAR": 0.10194,
  "ScanOptions": "FS",
  "ScanningSequence": "EP",
  "SequenceName": "epfid2d1_82",
  "SequenceVariant": "SK\\SS",
  "SeriesDescription": "func_run-03_task-faces_acq-ap-mb8",
  "SeriesNumber": 24,
  "ShimSetting": [4160, -7790, -7238, 518, -35, -280, 40, 66],
  "SliceThickness": 2.7,
  "SliceTiming": [0, 0.25, 0.0625, 0.3125, 0.125, 0.3775, 0.1875, 0, 0.25, 0.0625, 0.3125, 0.125, 0.3775, 0.1875, 0, 0.25, 0.0625, 0.3125, 0.125, 0.3775, 0.1875, 0, 0.25, 0.0625, 0.3125, 0.125, 0.3775, 0.1875, 0, 0.25, 0.0625, 0.3125, 0.125, 0.3775, 0.1875, 0, 0.25, 0.0625, 0.3125, 0.125, 0.3775, 0.1875, 0, 0.25, 0.0625, 0.3125, 0.125, 0.3775, 0.1875, 0, 0.25, 0.0625, 0.3125, 0.125, 0.3775, 0.1875],
  "SoftwareVersions": "syngo MR E11",
  "SpacingBetweenSlices": 2.7,
  "StationName": "AWP66112",
  "TaskName": "faces",
  "TotalReadoutTime": 0.03969,
  "TxRefAmp": 261.095,
  "WipMemBlock": "8bc7b779-d2e9-4068-8cad-a7e7e84ecbc5||Sequence: R016 ve11e/master r/434b28f1; Aug  7 2019 18:53:46 by eja",
  "dcmmeta_affine": [
    [-2.6782381534576416, 0.1581784188747406, -0.010893895290791988, 103.1011962890625],
    [0.15621262788772583, 2.6639509201049805, 0.2793620526790619, -102.52864837646484],
    [-0.027114758267998695, -0.276480108499527, 2.6854865550994873, -49.669273376464844],
    [0.0, 0.0, 0.0, 1.0]
],
  "dcmmeta_reorient_transform": [
    [0.0, -1.0, 0.0, 81.0],
    [1.0, 0.0, 0.0, 0.0],
    [0.0, 0.0, 1.0, 0.0],
    [0.0, 0.0, 0.0, 1.0]
],
  "dcmmeta_shape": [82, 82, 56, 914],
  "dcmmeta_slice_dim": 2,
  "dcmmeta_version": 0.6,
  "global": {
    "const": {
      "AccessionNumber": "A004055",
      "AcquisitionMatrix": [82, 0, 0, 82],
      "AngioFlag": "N",
      "BitsAllocated": 16,
      "BitsStored": 16,
      "BodyPartExamined": "BRAIN",
      "Columns": 656,
      "EchoNumbers": 1,
      "EchoTime": 27.2,
      "EchoTrainLength": 82,
      "FlipAngle": 44.0,
      "HighBit": 15,
      "ImageOrientationPatient": [0.99825234508388, -0.0582247027933, -0.0101064098062, 0.0589574093585, 0.99292717577841, 0.10305167384595],
      "ImagePositionPatient": [-929.96517794217, -832.97230457186, -143.63201756314],
      "ImageType": [
        "ORIGINAL",
        "PRIMARY",
        "M",
        "MB",
        "ND",
        "NORM",
        "MOSAIC"
],
      "ImagedNucleus": "1H",
      "ImagingFrequency": 123.252168,
      "InPlanePhaseEncodingDirection": "COL",
      "MRAcquisitionType": "2D",
      "MagneticFieldStrength": 3.0,
      "Manufacturer": "SIEMENS",
      "ManufacturerModelName": "Prisma",
      "Modality": "MR",
      "NumberOfAverages": 1.0,
      "NumberOfPhaseEncodingSteps": 82,
      "PercentPhaseFieldOfView": 100.0,
      "PercentSampling": 100.0,
      "PerformedProcedureStepStartTime": "202600.512000",
      "PhotometricInterpretation": "MONOCHROME2",
      "PixelBandwidth": 3050.0,
      "PixelRepresentation": 0,
      "PixelSpacing": [2.6829268932343, 2.6829268932343],
      "ProtocolName": "func_run-03_task-faces_acq-ap-mb8",
      "RepetitionTime": 460.0,
      "Rows": 656,
      "SAR": 0.10193969516113,
      "SamplesPerPixel": 1,
      "ScanOptions": "FS",
      "ScanningSequence": "EP",
      "SequenceName": "epfid2d1_82",
      "SequenceVariant": [
        "SK",
        "SS"
],
      "SeriesDescription": "func_run-03_task-faces_acq-ap-mb8",
      "SeriesNumber": 24,
      "SeriesTime": "213517.628000",
      "SliceLocation": -60.426649959841,
      "SliceThickness": 2.7000000476837,
      "SmallestImagePixelValue": 0,
      "SoftwareVersions": "syngo MR E11",
      "SpacingBetweenSlices": 2.7000000218833,
      "SpecificCharacterSet": "ISO_IR 100",
      "StudyID": "2",
      "StudyTime": "202600.443000",
      "TransmitCoilName": "Body",
      "VariableFlipAngleFlag": "N",
      "WindowCenterWidthExplanation": "Algo1"
    },
    "slices": {}
  },
  "time": {
    "samples": {
      "AcquisitionNumber": [1, 2, 3, 4, 5, 6, 7, 8, 9, 10, 11, 12, 13, 14, 15, 16, 17, 18, 19, 20, 21, 22, 23, 24, 25, 26, 27, 28, 29, 30, 31, 32, 33, 34, 35, 36, 37, 38, 39, 40, 41, 42, 43, 44, 45, 46, 47, 48, 49, 50, 51, 52, 53, 54, 55, 56, 57, 58, 59, 60, 61, 62, 63, 64, 65, 66, 67, 68, 69, 70, 71, 72, 73, 74, 75, 76, 77, 78, 79, 80, 81, 82, 83, 84, 85, 86, 87, 88, 89, 90, 91, 92, 93, 94, 95, 96, 97, 98, 99, 100, 101, 102, 103, 104, 105, 106, 107, 108, 109, 110, 111, 112, 113, 114, 115, 116, 117, 118, 119, 120, 121, 122, 123, 124, 125, 126, 127, 128, 129, 130, 131, 132, 133, 134, 135, 136, 137, 138, 139, 140, 141, 142, 143, 144, 145, 146, 147, 148, 149, 150, 151, 152, 153, 154, 155, 156, 157, 158, 159, 160, 161, 162, 163, 164, 165, 166, 167, 168, 169, 170, 171, 172, 173, 174, 175, 176, 177, 178, 179, 180, 181, 182, 183, 184, 185, 186, 187, 188, 189, 190, 191, 192, 193, 194, 195, 196, 197, 198, 199, 200, 201, 202, 203, 204, 205, 206, 207, 208, 209, 210, 211, 212, 213, 214, 215, 216, 217, 218, 219, 220, 221, 222, 223, 224, 225, 226, 227, 228, 229, 230, 231, 232, 233, 234, 235, 236, 237, 238, 239, 240, 241, 242, 243, 244, 245, 246, 247, 248, 249, 250, 251, 252, 253, 254, 255, 256, 257, 258, 259, 260, 261, 262, 263, 264, 265, 266, 267, 268, 269, 270, 271, 272, 273, 274, 275, 276, 277, 278, 279, 280, 281, 282, 283, 284, 285, 286, 287, 288, 289, 290, 291, 292, 293, 294, 295, 296, 297, 298, 299, 300, 301, 302, 303, 304, 305, 306, 307, 308, 309, 310, 311, 312, 313, 314, 315, 316, 317, 318, 319, 320, 321, 322, 323, 324, 325, 326, 327, 328, 329, 330, 331, 332, 333, 334, 335, 336, 337, 338, 339, 340, 341, 342, 343, 344, 345, 346, 347, 348, 349, 350, 351, 352, 353, 354, 355, 356, 357, 358, 359, 360, 361, 362, 363, 364, 365, 366, 367, 368, 369, 370, 371, 372, 373, 374, 375, 376, 377, 378, 379, 380, 381, 382, 383, 384, 385, 386, 387, 388, 389, 390, 391, 392, 393, 394, 395, 396, 397, 398, 399, 400, 401, 402, 403, 404, 405, 406, 407, 408, 409, 410, 411, 412, 413, 414, 415, 416, 417, 418, 419, 420, 421, 422, 423, 424, 425, 426, 427, 428, 429, 430, 431, 432, 433, 434, 435, 436, 437, 438, 439, 440, 441, 442, 443, 444, 445, 446, 447, 448, 449, 450, 451, 452, 453, 454, 455, 456, 457, 458, 459, 460, 461, 462, 463, 464, 465, 466, 467, 468, 469, 470, 471, 472, 473, 474, 475, 476, 477, 478, 479, 480, 481, 482, 483, 484, 485, 486, 487, 488, 489, 490, 491, 492, 493, 494, 495, 496, 497, 498, 499, 500, 501, 502, 503, 504, 505, 506, 507, 508, 509, 510, 511, 512, 513, 514, 515, 516, 517, 518, 519, 520, 521, 522, 523, 524, 525, 526, 527, 528, 529, 530, 531, 532, 533, 534, 535, 536, 537, 538, 539, 540, 541, 542, 543, 544, 545, 546, 547, 548, 549, 550, 551, 552, 553, 554, 555, 556, 557, 558, 559, 560, 561, 562, 563, 564, 565, 566, 567, 568, 569, 570, 571, 572, 573, 574, 575, 576, 577, 578, 579, 580, 581, 582, 583, 584, 585, 586, 587, 588, 589, 590, 591, 592, 593, 594, 595, 596, 597, 598, 599, 600, 601, 602, 603, 604, 605, 606, 607, 608, 609, 610, 611, 612, 613, 614, 615, 616, 617, 618, 619, 620, 621, 622, 623, 624, 625, 626, 627, 628, 629, 630, 631, 632, 633, 634, 635, 636, 637, 638, 639, 640, 641, 642, 643, 644, 645, 646, 647, 648, 649, 650, 651, 652, 653, 654, 655, 656, 657, 658, 659, 660, 661, 662, 663, 664, 665, 666, 667, 668, 669, 670, 671, 672, 673, 674, 675, 676, 677, 678, 679, 680, 681, 682, 683, 684, 685, 686, 687, 688, 689, 690, 691, 692, 693, 694, 695, 696, 697, 698, 699, 700, 701, 702, 703, 704, 705, 706, 707, 708, 709, 710, 711, 712, 713, 714, 715, 716, 717, 718, 719, 720, 721, 722, 723, 724, 725, 726, 727, 728, 729, 730, 731, 732, 733, 734, 735, 736, 737, 738, 739, 740, 741, 742, 743, 744, 745, 746, 747, 748, 749, 750, 751, 752, 753, 754, 755, 756, 757, 758, 759, 760, 761, 762, 763, 764, 765, 766, 767, 768, 769, 770, 771, 772, 773, 774, 775, 776, 777, 778, 779, 780, 781, 782, 783, 784, 785, 786, 787, 788, 789, 790, 791, 792, 793, 794, 795, 796, 797, 798, 799, 800, 801, 802, 803, 804, 805, 806, 807, 808, 809, 810, 811, 812, 813, 814, 815, 816, 817, 818, 819, 820, 821, 822, 823, 824, 825, 826, 827, 828, 829, 830, 831, 832, 833, 834, 835, 836, 837, 838, 839, 840, 841, 842, 843, 844, 845, 846, 847, 848, 849, 850, 851, 852, 853, 854, 855, 856, 857, 858, 859, 860, 861, 862, 863, 864, 865, 866, 867, 868, 869, 870, 871, 872, 873, 874, 875, 876, 877, 878, 879, 880, 881, 882, 883, 884, 885, 886, 887, 888, 889, 890, 891, 892, 893, 894, 895, 896, 897, 898, 899, 900, 901, 902, 903, 904, 905, 906, 907, 908, 909, 910, 911, 912, 913, 914],
      "AcquisitionTime": ["213501.272500", "213501.732500", "213502.192500", "213502.652500", "213503.112500", "213503.572500", "213504.032500", "213504.492500", "213504.952500", "213505.412500", "213505.872500", "213506.332500", "213506.792500", "213507.252500", "213507.712500", "213508.172500", "213508.632500", "213509.092500", "213509.552500", "213510.012500", "213510.472500", "213510.932500", "213511.392500", "213511.852500", "213512.312500", "213512.772500", "213513.232500", "213513.692500", "213514.152500", "213514.612500", "213515.072500", "213515.532500", "213515.992500", "213516.452500", "213516.912500", "213517.372500", "213517.832500", "213518.292500", "213518.752500", "213519.212500", "213519.672500", "213520.132500", "213520.592500", "213521.052500", "213521.512500", "213521.972500", "213522.432500", "213522.892500", "213523.352500", "213523.812500", "213524.272500", "213524.732500", "213525.192500", "213525.652500", "213526.112500", "213526.572500", "213527.032500", "213527.492500", "213527.952500", "213528.412500", "213528.872500", "213529.332500", "213529.792500", "213530.252500", "213530.712500", "213531.172500", "213531.632500", "213532.092500", "213532.552500", "213533.012500", "213533.472500", "213533.932500", "213534.392500", "213534.852500", "213535.312500", "213535.772500", "213536.232500", "213536.692500", "213537.152500", "213537.612500", "213538.072500", "213538.532500", "213538.992500", "213539.452500", "213539.912500", "213540.372500", "213540.832500", "213541.292500", "213541.752500", "213542.212500", "213542.672500", "213543.132500", "213543.592500", "213544.052500", "213544.512500", "213544.972500", "213545.432500", "213545.892500", "213546.352500", "213546.812500", "213547.272500", "213547.732500", "213548.192500", "213548.652500", "213549.112500", "213549.572500", "213550.032500", "213550.492500", "213550.952500", "213551.412500", "213551.872500", "213552.332500", "213552.792500", "213553.252500", "213553.712500", "213554.172500", "213554.632500", "213555.092500", "213555.552500", "213556.012500", "213556.472500", "213556.932500", "213557.392500", "213557.852500", "213558.312500", "213558.772500", "213559.232500", "213559.692500", "213600.152500", "213600.612500", "213601.072500", "213601.532500", "213601.992500", "213602.452500", "213602.912500", "213603.372500", "213603.832500", "213604.292500", "213604.752500", "213605.212500", "213605.672500", "213606.132500", "213606.592500", "213607.052500", "213607.512500", "213607.972500", "213608.432500", "213608.892500", "213609.352500", "213609.812500", "213610.272500", "213610.732500", "213611.192500", "213611.652500", "213612.112500", "213612.572500", "213613.032500", "213613.492500", "213613.952500", "213614.412500", "213614.872500", "213615.332500", "213615.792500", "213616.252500", "213616.712500", "213617.172500", "213617.632500", "213618.092500", "213618.552500", "213619.012500", "213619.472500", "213619.932500", "213620.392500", "213620.852500", "213621.312500", "213621.772500", "213622.232500", "213622.692500", "213623.152500", "213623.612500", "213624.072500", "213624.532500", "213624.992500", "213625.452500", "213625.912500", "213626.372500", "213626.832500", "213627.292500", "213627.752500", "213628.212500", "213628.672500", "213629.132500", "213629.592500", "213630.052500", "213630.512500", "213630.972500", "213631.432500", "213631.892500", "213632.352500", "213632.812500", "213633.272500", "213633.732500", "213634.192500", "213634.652500", "213635.112500", "213635.572500", "213636.032500", "213636.492500", "213636.952500", "213637.412500", "213637.872500", "213638.332500", "213638.792500", "213639.252500", "213639.712500", "213640.172500", "213640.632500", "213641.092500", "213641.552500", "213642.012500", "213642.472500", "213642.932500", "213643.392500", "213643.852500", "213644.312500", "213644.772500", "213645.232500", "213645.692500", "213646.152500", "213646.612500", "213647.072500", "213647.532500", "213647.992500", "213648.452500", "213648.912500", "213649.372500", "213649.832500", "213650.292500", "213650.752500", "213651.212500", "213651.672500", "213652.132500", "213652.592500", "213653.052500", "213653.512500", "213653.972500", "213654.432500", "213654.892500", "213655.352500", "213655.812500", "213656.272500", "213656.732500", "213657.192500", "213657.652500", "213658.112500", "213658.572500", "213659.032500", "213659.492500", "213659.952500", "213700.412500", "213700.872500", "213701.332500", "213701.792500", "213702.252500", "213702.712500", "213703.172500", "213703.632500", "213704.092500", "213704.552500", "213705.012500", "213705.472500", "213705.932500", "213706.392500", "213706.852500", "213707.312500", "213707.772500", "213708.232500", "213708.692500", "213709.152500", "213709.612500", "213710.072500", "213710.532500", "213710.992500", "213711.452500", "213711.912500", "213712.372500", "213712.832500", "213713.292500", "213713.752500", "213714.212500", "213714.672500", "213715.132500", "213715.592500", "213716.052500", "213716.512500", "213716.972500", "213717.432500", "213717.892500", "213718.352500", "213718.812500", "213719.272500", "213719.732500", "213720.192500", "213720.652500", "213721.112500", "213721.572500", "213722.032500", "213722.492500", "213722.952500", "213723.412500", "213723.872500", "213724.332500", "213724.792500", "213725.252500", "213725.712500", "213726.172500", "213726.632500", "213727.092500", "213727.552500", "213728.012500", "213728.472500", "213728.932500", "213729.392500", "213729.852500", "213730.312500", "213730.772500", "213731.232500", "213731.692500", "213732.152500", "213732.612500", "213733.072500", "213733.532500", "213733.992500", "213734.452500", "213734.912500", "213735.372500", "213735.832500", "213736.292500", "213736.752500", "213737.212500", "213737.672500", "213738.132500", "213738.592500", "213739.052500", "213739.512500", "213739.972500", "213740.432500", "213740.892500", "213741.352500", "213741.812500", "213742.272500", "213742.732500", "213743.192500", "213743.652500", "213744.112500", "213744.572500", "213745.032500", "213745.492500", "213745.952500", "213746.412500", "213746.872500", "213747.332500", "213747.792500", "213748.252500", "213748.712500", "213749.172500", "213749.632500", "213750.092500", "213750.552500", "213751.012500", "213751.472500", "213751.932500", "213752.392500", "213752.852500", "213753.312500", "213753.772500", "213754.232500", "213754.692500", "213755.152500", "213755.612500", "213756.072500", "213756.532500", "213756.992500", "213757.452500", "213757.912500", "213758.372500", "213758.832500", "213759.292500", "213759.752500", "213800.212500", "213800.672500", "213801.132500", "213801.592500", "213802.052500", "213802.512500", "213802.972500", "213803.432500", "213803.892500", "213804.352500", "213804.812500", "213805.272500", "213805.732500", "213806.192500", "213806.652500", "213807.112500", "213807.572500", "213808.032500", "213808.492500", "213808.952500", "213809.412500", "213809.872500", "213810.332500", "213810.792500", "213811.252500", "213811.712500", "213812.172500", "213812.632500", "213813.092500", "213813.552500", "213814.012500", "213814.472500", "213814.932500", "213815.392500", "213815.852500", "213816.312500", "213816.772500", "213817.232500", "213817.692500", "213818.152500", "213818.612500", "213819.072500", "213819.532500", "213819.992500", "213820.452500", "213820.912500", "213821.372500", "213821.832500", "213822.292500", "213822.752500", "213823.212500", "213823.672500", "213824.132500", "213824.592500", "213825.052500", "213825.512500", "213825.972500", "213826.432500", "213826.892500", "213827.352500", "213827.812500", "213828.272500", "213828.732500", "213829.192500", "213829.652500", "213830.112500", "213830.572500", "213831.032500", "213831.492500", "213831.952500", "213832.412500", "213832.872500", "213833.332500", "213833.792500", "213834.252500", "213834.712500", "213835.172500", "213835.632500", "213836.092500", "213836.552500", "213837.012500", "213837.472500", "213837.932500", "213838.392500", "213838.852500", "213839.312500", "213839.772500", "213840.232500", "213840.692500", "213841.152500", "213841.612500", "213842.072500", "213842.532500", "213842.992500", "213843.452500", "213843.912500", "213844.372500", "213844.832500", "213845.292500", "213845.752500", "213846.212500", "213846.672500", "213847.132500", "213847.592500", "213848.052500", "213848.512500", "213848.972500", "213849.432500", "213849.892500", "213850.352500", "213850.812500", "213851.272500", "213851.732500", "213852.192500", "213852.652500", "213853.112500", "213853.572500", "213854.032500", "213854.492500", "213854.952500", "213855.412500", "213855.872500", "213856.332500", "213856.792500", "213857.252500", "213857.712500", "213858.172500", "213858.632500", "213859.092500", "213859.552500", "213900.012500", "213900.472500", "213900.932500", "213901.392500", "213901.852500", "213902.312500", "213902.772500", "213903.232500", "213903.692500", "213904.152500", "213904.612500", "213905.072500", "213905.532500", "213905.992500", "213906.452500", "213906.912500", "213907.372500", "213907.832500", "213908.292500", "213908.752500", "213909.212500", "213909.672500", "213910.132500", "213910.592500", "213911.052500", "213911.512500", "213911.972500", "213912.432500", "213912.892500", "213913.352500", "213913.812500", "213914.272500", "213914.732500", "213915.192500", "213915.652500", "213916.112500", "213916.572500", "213917.032500", "213917.492500", "213917.952500", "213918.412500", "213918.872500", "213919.332500", "213919.792500", "213920.252500", "213920.712500", "213921.172500", "213921.632500", "213922.092500", "213922.552500", "213923.012500", "213923.472500", "213923.932500", "213924.392500", "213924.852500", "213925.312500", "213925.772500", "213926.232500", "213926.692500", "213927.152500", "213927.612500", "213928.072500", "213928.532500", "213928.992500", "213929.452500", "213929.912500", "213930.372500", "213930.832500", "213931.292500", "213931.752500", "213932.212500", "213932.672500", "213933.132500", "213933.592500", "213934.052500", "213934.512500", "213934.972500", "213935.432500", "213935.892500", "213936.352500", "213936.812500", "213937.272500", "213937.732500", "213938.192500", "213938.652500", "213939.112500", "213939.572500", "213940.032500", "213940.492500", "213940.952500", "213941.412500", "213941.872500", "213942.332500", "213942.792500", "213943.252500", "213943.712500", "213944.172500", "213944.632500", "213945.092500", "213945.552500", "213946.012500", "213946.472500", "213946.932500", "213947.392500", "213947.852500", "213948.312500", "213948.772500", "213949.232500", "213949.692500", "213950.152500", "213950.612500", "213951.072500", "213951.532500", "213951.992500", "213952.452500", "213952.912500", "213953.372500", "213953.832500", "213954.292500", "213954.752500", "213955.212500", "213955.672500", "213956.132500", "213956.592500", "213957.052500", "213957.512500", "213957.972500", "213958.432500", "213958.892500", "213959.352500", "213959.812500", "214000.272500", "214000.732500", "214001.192500", "214001.652500", "214002.112500", "214002.572500", "214003.032500", "214003.492500", "214003.952500", "214004.412500", "214004.872500", "214005.332500", "214005.792500", "214006.252500", "214006.712500", "214007.172500", "214007.632500", "214008.092500", "214008.552500", "214009.012500", "214009.472500", "214009.932500", "214010.392500", "214010.852500", "214011.312500", "214011.772500", "214012.232500", "214012.692500", "214013.152500", "214013.612500", "214014.072500", "214014.532500", "214014.992500", "214015.452500", "214015.912500", "214016.372500", "214016.832500", "214017.292500", "214017.752500", "214018.212500", "214018.672500", "214019.132500", "214019.592500", "214020.052500", "214020.512500", "214020.972500", "214021.432500", "214021.892500", "214022.352500", "214022.812500", "214023.272500", "214023.732500", "214024.192500", "214024.652500", "214025.112500", "214025.572500", "214026.032500", "214026.492500", "214026.952500", "214027.412500", "214027.872500", "214028.332500", "214028.792500", "214029.252500", "214029.712500", "214030.172500", "214030.632500", "214031.092500", "214031.552500", "214032.012500", "214032.472500", "214032.932500", "214033.392500", "214033.852500", "214034.312500", "214034.772500", "214035.232500", "214035.692500", "214036.152500", "214036.612500", "214037.072500", "214037.532500", "214037.992500", "214038.452500", "214038.912500", "214039.372500", "214039.832500", "214040.292500", "214040.752500", "214041.212500", "214041.672500", "214042.132500", "214042.592500", "214043.052500", "214043.512500", "214043.972500", "214044.432500", "214044.892500", "214045.352500", "214045.812500", "214046.272500", "214046.732500", "214047.192500", "214047.652500", "214048.112500", "214048.572500", "214049.032500", "214049.492500", "214049.952500", "214050.412500", "214050.872500", "214051.332500", "214051.792500", "214052.252500", "214052.712500", "214053.172500", "214053.632500", "214054.092500", "214054.552500", "214055.012500", "214055.472500", "214055.932500", "214056.392500", "214056.852500", "214057.312500", "214057.772500", "214058.232500", "214058.692500", "214059.152500", "214059.612500", "214100.072500", "214100.532500", "214100.992500", "214101.452500", "214101.912500", "214102.372500", "214102.832500", "214103.292500", "214103.752500", "214104.212500", "214104.672500", "214105.132500", "214105.592500", "214106.052500", "214106.512500", "214106.972500", "214107.432500", "214107.892500", "214108.352500", "214108.812500", "214109.272500", "214109.732500", "214110.192500", "214110.652500", "214111.112500", "214111.572500", "214112.032500", "214112.492500", "214112.952500", "214113.412500", "214113.872500", "214114.332500", "214114.792500", "214115.252500", "214115.712500", "214116.172500", "214116.632500", "214117.092500", "214117.552500", "214118.012500", "214118.472500", "214118.932500", "214119.392500", "214119.852500", "214120.312500", "214120.772500", "214121.232500", "214121.692500", "214122.152500", "214122.612500", "214123.072500", "214123.532500", "214123.992500", "214124.452500", "214124.912500", "214125.372500", "214125.832500", "214126.292500", "214126.752500", "214127.212500", "214127.672500", "214128.132500", "214128.592500", "214129.052500", "214129.512500", "214129.972500", "214130.432500", "214130.892500", "214131.352500", "214131.812500", "214132.272500", "214132.732500", "214133.192500", "214133.652500", "214134.112500", "214134.572500", "214135.032500", "214135.492500", "214135.952500", "214136.412500", "214136.872500", "214137.332500", "214137.792500", "214138.252500", "214138.712500", "214139.172500", "214139.632500", "214140.092500", "214140.552500", "214141.012500", "214141.472500", "214141.932500", "214142.392500", "214142.852500", "214143.312500", "214143.772500", "214144.232500", "214144.692500", "214145.152500", "214145.612500", "214146.072500", "214146.532500", "214146.992500", "214147.452500", "214147.912500", "214148.372500", "214148.832500", "214149.292500", "214149.752500", "214150.212500", "214150.672500", "214151.132500", "214151.592500", "214152.052500", "214152.512500", "214152.972500", "214153.432500", "214153.892500", "214154.352500", "214154.812500", "214155.272500", "214155.732500", "214156.192500", "214156.652500", "214157.112500", "214157.572500", "214158.032500", "214158.492500", "214158.952500", "214159.412500", "214159.872500", "214200.332500", "214200.792500", "214201.252500"],
