{
  "AcquisitionMatrixPE": 82,
  "AcquisitionNumber": 1,
  "AcquisitionTime": "18:48:6.425000",
  "BandwidthPerPixelPhaseEncode": 24.888,
  "BaseResolution": 82,
  "BodyPartExamined": "BRAIN",
  "ConsistencyInfo": "N4_VE11E_LATEST_20181129",
  "ConversionSoftware": "dcm2niix",
  "ConversionSoftwareVersion": "v1.0.20201102",
  "DerivedVendorReportedEchoSpacing": 0.00049,
  "DeviceSerialNumber": "66112",
  "DwellTime": 2e-06,
  "EchoTime": 0.0272,
  "EchoTrainLength": 82,
  "EffectiveEchoSpacing": 0.00049,
  "FlipAngle": 44,
  "ImageComments": "Unaliased MB8/PE3",
  "ImageOrientationPatientDICOM": [0.998717, -0.0133422, 0.0488426, 0.00435783, 0.983727, 0.179614],
  "ImageType": [
    "ORIGINAL",
    "PRIMARY",
    "M",
    "MB",
    "ND",
    "NORM",
    "MOSAIC"
],
  "ImagingFrequency": 123.259,
  "InPlanePhaseEncodingDirectionDICOM": "COL",
  "InstitutionAddress": "Maynard 3,Hanover,NH,US,03755",
  "InstitutionName": "Dartmouth College - PBS",
  "InstitutionalDepartmentName": "Department",
  "MRAcquisitionType": "2D",
  "MagneticFieldStrength": 3,
  "Manufacturer": "Siemens",
  "ManufacturersModelName": "Prisma",
  "Modality": "MR",
  "MultibandAccelerationFactor": 8,
  "PartialFourier": 1,
  "PatientPosition": "HFS",
  "PercentPhaseFOV": 100,
  "PercentSampling": 100,
  "PhaseEncodingDirection": "j-",
  "PhaseEncodingSteps": 82,
  "PhaseResolution": 1,
  "PixelBandwidth": 3050,
  "ProcedureStepDescription": "Wager_Wager^1076_spacetop",
  "ProtocolName": "func_run-01_task-social_acq-ap-mb8",
  "PulseSequenceDetails": "%CustomerSeq%\\cmrr_mbep2d_bold",
  "ReceiveCoilActiveElements": "HEA;HEP",
  "ReceiveCoilName": "Head_32",
  "ReconMatrixPE": 82,
  "RepetitionTime": 0.46,
  "SAR": 0.085361,
  "ScanOptions": "FS",
  "ScanningSequence": "EP",
  "SequenceName": "epfid2d1_82",
  "SequenceVariant": "SK\\SS",
  "SeriesDescription": "func_run-01_task-social_acq-ap-mb8",
  "SeriesNumber": 8,
  "ShimSetting": [4241, -7815, -7240, 397, -77, -90, 93, 56],
  "SliceThickness": 2.7,
  "SliceTiming": [0, 0.25, 0.0625, 0.3125, 0.125, 0.375, 0.1875, 0, 0.25, 0.0625, 0.3125, 0.125, 0.375, 0.1875, 0, 0.25, 0.0625, 0.3125, 0.125, 0.375, 0.1875, 0, 0.25, 0.0625, 0.3125, 0.125, 0.375, 0.1875, 0, 0.25, 0.0625, 0.3125, 0.125, 0.375, 0.1875, 0, 0.25, 0.0625, 0.3125, 0.125, 0.375, 0.1875, 0, 0.25, 0.0625, 0.3125, 0.125, 0.375, 0.1875, 0, 0.25, 0.0625, 0.3125, 0.125, 0.375, 0.1875],
  "SoftwareVersions": "syngo MR E11",
  "SpacingBetweenSlices": 2.7,
  "StationName": "AWP66112",
  "TaskName": "social",
  "TotalReadoutTime": 0.03969,
  "TxRefAmp": 231.217,
  "WipMemBlock": "bd9d7e23-146e-4b49-b984-2f995a4667d1||Sequence: R016 ve11e/master r/434b28f1; Aug  7 2019 18:53:46 by eja",
  "dcmmeta_affine": [
    [-2.67948579788208, 0.011691738851368427, 0.13619960844516754, 109.97077178955078],
    [0.035796139389276505, 2.6392688751220703, 0.48376232385635376, -113.89017486572266],
    [0.1310412436723709, -0.481892466545105, 2.6528143882751465, -55.20155334472656],
    [0.0, 0.0, 0.0, 1.0]
],
  "dcmmeta_reorient_transform": [
    [0.0, -1.0, 0.0, 81.0],
    [1.0, 0.0, 0.0, 0.0],
    [0.0, 0.0, 1.0, 0.0],
    [0.0, 0.0, 0.0, 1.0]
],
  "dcmmeta_shape": [82, 82, 56, 872],
  "dcmmeta_slice_dim": 2,
  "dcmmeta_version": 0.6,
  "global": {
    "const": {
      "AccessionNumber": "A004510",
      "AcquisitionMatrix": [82, 0, 0, 82],
      "AngioFlag": "N",
      "BitsAllocated": 16,
      "BitsStored": 16,
      "BodyPartExamined": "BRAIN",
      "Columns": 656,
      "EchoNumbers": 1,
      "EchoTime": 27.2,
      "EchoTrainLength": 82,
      "FlipAngle": 44.0,
      "HighBit": 15,
      "ImageOrientationPatient": [0.99871736850327, -0.0133421968998, 0.0488426415316, 0.00435782972984, 0.98372742878623, 0.17961446259606],
      "ImagePositionPatient": [-883.28572477592, -847.0872435281, -270.14681727762],
      "ImageType": [
        "ORIGINAL",
        "PRIMARY",
        "M",
        "MB",
        "ND",
        "NORM",
        "MOSAIC"
],
      "ImagedNucleus": "1H",
      "ImagingFrequency": 123.259068,
      "InPlanePhaseEncodingDirection": "COL",
      "MRAcquisitionType": "2D",
      "MagneticFieldStrength": 3.0,
      "Manufacturer": "SIEMENS",
      "ManufacturerModelName": "Prisma",
      "Modality": "MR",
      "NumberOfAverages": 1.0,
      "NumberOfPhaseEncodingSteps": 82,
      "PercentPhaseFieldOfView": 100.0,
      "PercentSampling": 100.0,
      "PerformedProcedureStepStartTime": "182409.256000",
      "PhotometricInterpretation": "MONOCHROME2",
      "PixelBandwidth": 3050.0,
      "PixelRepresentation": 0,
      "PixelSpacing": [2.6829268932343, 2.6829268932343],
      "ProtocolName": "func_run-01_task-social_acq-ap-mb8",
      "RepetitionTime": 460.0,
      "Rows": 656,
      "SAR": 0.08536103499214,
      "SamplesPerPixel": 1,
      "ScanOptions": "FS",
      "ScanningSequence": "EP",
      "SequenceName": "epfid2d1_82",
      "SequenceVariant": [
        "SK",
        "SS"
],
      "SeriesDescription": "func_run-01_task-social_acq-ap-mb8",
      "SeriesNumber": 8,
      "SeriesTime": "184835.895000",
      "SliceLocation": -69.095284656602,
      "SliceThickness": 2.7000000476837,
      "SmallestImagePixelValue": 0,
      "SoftwareVersions": "syngo MR E11",
      "SpacingBetweenSlices": 2.6999999841367,
      "SpecificCharacterSet": "ISO_IR 100",
      "StudyID": "1",
      "StudyTime": "182409.166000",
      "TransmitCoilName": "Body",
      "VariableFlipAngleFlag": "N",
      "WindowCenterWidthExplanation": "Algo1"
    },
    "slices": {}
  },
  "time": {
    "samples": {
      "AcquisitionNumber": [1, 2, 3, 4, 5, 6, 7, 8, 9, 10, 11, 12, 13, 14, 15, 16, 17, 18, 19, 20, 21, 22, 23, 24, 25, 26, 27, 28, 29, 30, 31, 32, 33, 34, 35, 36, 37, 38, 39, 40, 41, 42, 43, 44, 45, 46, 47, 48, 49, 50, 51, 52, 53, 54, 55, 56, 57, 58, 59, 60, 61, 62, 63, 64, 65, 66, 67, 68, 69, 70, 71, 72, 73, 74, 75, 76, 77, 78, 79, 80, 81, 82, 83, 84, 85, 86, 87, 88, 89, 90, 91, 92, 93, 94, 95, 96, 97, 98, 99, 100, 101, 102, 103, 104, 105, 106, 107, 108, 109, 110, 111, 112, 113, 114, 115, 116, 117, 118, 119, 120, 121, 122, 123, 124, 125, 126, 127, 128, 129, 130, 131, 132, 133, 134, 135, 136, 137, 138, 139, 140, 141, 142, 143, 144, 145, 146, 147, 148, 149, 150, 151, 152, 153, 154, 155, 156, 157, 158, 159, 160, 161, 162, 163, 164, 165, 166, 167, 168, 169, 170, 171, 172, 173, 174, 175, 176, 177, 178, 179, 180, 181, 182, 183, 184, 185, 186, 187, 188, 189, 190, 191, 192, 193, 194, 195, 196, 197, 198, 199, 200, 201, 202, 203, 204, 205, 206, 207, 208, 209, 210, 211, 212, 213, 214, 215, 216, 217, 218, 219, 220, 221, 222, 223, 224, 225, 226, 227, 228, 229, 230, 231, 232, 233, 234, 235, 236, 237, 238, 239, 240, 241, 242, 243, 244, 245, 246, 247, 248, 249, 250, 251, 252, 253, 254, 255, 256, 257, 258, 259, 260, 261, 262, 263, 264, 265, 266, 267, 268, 269, 270, 271, 272, 273, 274, 275, 276, 277, 278, 279, 280, 281, 282, 283, 284, 285, 286, 287, 288, 289, 290, 291, 292, 293, 294, 295, 296, 297, 298, 299, 300, 301, 302, 303, 304, 305, 306, 307, 308, 309, 310, 311, 312, 313, 314, 315, 316, 317, 318, 319, 320, 321, 322, 323, 324, 325, 326, 327, 328, 329, 330, 331, 332, 333, 334, 335, 336, 337, 338, 339, 340, 341, 342, 343, 344, 345, 346, 347, 348, 349, 350, 351, 352, 353, 354, 355, 356, 357, 358, 359, 360, 361, 362, 363, 364, 365, 366, 367, 368, 369, 370, 371, 372, 373, 374, 375, 376, 377, 378, 379, 380, 381, 382, 383, 384, 385, 386, 387, 388, 389, 390, 391, 392, 393, 394, 395, 396, 397, 398, 399, 400, 401, 402, 403, 404, 405, 406, 407, 408, 409, 410, 411, 412, 413, 414, 415, 416, 417, 418, 419, 420, 421, 422, 423, 424, 425, 426, 427, 428, 429, 430, 431, 432, 433, 434, 435, 436, 437, 438, 439, 440, 441, 442, 443, 444, 445, 446, 447, 448, 449, 450, 451, 452, 453, 454, 455, 456, 457, 458, 459, 460, 461, 462, 463, 464, 465, 466, 467, 468, 469, 470, 471, 472, 473, 474, 475, 476, 477, 478, 479, 480, 481, 482, 483, 484, 485, 486, 487, 488, 489, 490, 491, 492, 493, 494, 495, 496, 497, 498, 499, 500, 501, 502, 503, 504, 505, 506, 507, 508, 509, 510, 511, 512, 513, 514, 515, 516, 517, 518, 519, 520, 521, 522, 523, 524, 525, 526, 527, 528, 529, 530, 531, 532, 533, 534, 535, 536, 537, 538, 539, 540, 541, 542, 543, 544, 545, 546, 547, 548, 549, 550, 551, 552, 553, 554, 555, 556, 557, 558, 559, 560, 561, 562, 563, 564, 565, 566, 567, 568, 569, 570, 571, 572, 573, 574, 575, 576, 577, 578, 579, 580, 581, 582, 583, 584, 585, 586, 587, 588, 589, 590, 591, 592, 593, 594, 595, 596, 597, 598, 599, 600, 601, 602, 603, 604, 605, 606, 607, 608, 609, 610, 611, 612, 613, 614, 615, 616, 617, 618, 619, 620, 621, 622, 623, 624, 625, 626, 627, 628, 629, 630, 631, 632, 633, 634, 635, 636, 637, 638, 639, 640, 641, 642, 643, 644, 645, 646, 647, 648, 649, 650, 651, 652, 653, 654, 655, 656, 657, 658, 659, 660, 661, 662, 663, 664, 665, 666, 667, 668, 669, 670, 671, 672, 673, 674, 675, 676, 677, 678, 679, 680, 681, 682, 683, 684, 685, 686, 687, 688, 689, 690, 691, 692, 693, 694, 695, 696, 697, 698, 699, 700, 701, 702, 703, 704, 705, 706, 707, 708, 709, 710, 711, 712, 713, 714, 715, 716, 717, 718, 719, 720, 721, 722, 723, 724, 725, 726, 727, 728, 729, 730, 731, 732, 733, 734, 735, 736, 737, 738, 739, 740, 741, 742, 743, 744, 745, 746, 747, 748, 749, 750, 751, 752, 753, 754, 755, 756, 757, 758, 759, 760, 761, 762, 763, 764, 765, 766, 767, 768, 769, 770, 771, 772, 773, 774, 775, 776, 777, 778, 779, 780, 781, 782, 783, 784, 785, 786, 787, 788, 789, 790, 791, 792, 793, 794, 795, 796, 797, 798, 799, 800, 801, 802, 803, 804, 805, 806, 807, 808, 809, 810, 811, 812, 813, 814, 815, 816, 817, 818, 819, 820, 821, 822, 823, 824, 825, 826, 827, 828, 829, 830, 831, 832, 833, 834, 835, 836, 837, 838, 839, 840, 841, 842, 843, 844, 845, 846, 847, 848, 849, 850, 851, 852, 853, 854, 855, 856, 857, 858, 859, 860, 861, 862, 863, 864, 865, 866, 867, 868, 869, 870, 871, 872],
      "AcquisitionTime": ["184806.425000", "184806.885000", "184807.345000", "184807.805000", "184808.265000", "184808.725000", "184809.185000", "184809.645000", "184810.105000", "184810.565000", "184811.025000", "184811.485000", "184811.945000", "184812.405000", "184812.865000", "184813.325000", "184813.785000", "184814.245000", "184814.705000", "184815.165000", "184815.625000", "184816.085000", "184816.545000", "184817.005000", "184817.465000", "184817.925000", "184818.385000", "184818.845000", "184819.305000", "184819.765000", "184820.225000", "184820.685000", "184821.145000", "184821.605000", "184822.065000", "184822.525000", "184822.985000", "184823.445000", "184823.905000", "184824.365000", "184824.825000", "184825.285000", "184825.745000", "184826.205000", "184826.665000", "184827.125000", "184827.585000", "184828.045000", "184828.505000", "184828.965000", "184829.425000", "184829.885000", "184830.345000", "184830.805000", "184831.265000", "184831.725000", "184832.185000", "184832.645000", "184833.105000", "184833.565000", "184834.025000", "184834.485000", "184834.945000", "184835.405000", "184835.865000", "184836.325000", "184836.785000", "184837.245000", "184837.705000", "184838.165000", "184838.625000", "184839.085000", "184839.545000", "184840.005000", "184840.465000", "184840.925000", "184841.385000", "184841.845000", "184842.305000", "184842.765000", "184843.225000", "184843.685000", "184844.145000", "184844.605000", "184845.065000", "184845.525000", "184845.985000", "184846.445000", "184846.905000", "184847.365000", "184847.825000", "184848.285000", "184848.745000", "184849.205000", "184849.665000", "184850.125000", "184850.585000", "184851.045000", "184851.505000", "184851.965000", "184852.425000", "184852.885000", "184853.345000", "184853.805000", "184854.265000", "184854.725000", "184855.185000", "184855.645000", "184856.105000", "184856.565000", "184857.025000", "184857.485000", "184857.945000", "184858.405000", "184858.865000", "184859.325000", "184859.785000", "184900.245000", "184900.705000", "184901.165000", "184901.625000", "184902.085000", "184902.545000", "184903.005000", "184903.465000", "184903.925000", "184904.385000", "184904.845000", "184905.305000", "184905.765000", "184906.225000", "184906.685000", "184907.145000", "184907.605000", "184908.065000", "184908.525000", "184908.985000", "184909.445000", "184909.905000", "184910.365000", "184910.825000", "184911.285000", "184911.745000", "184912.205000", "184912.665000", "184913.125000", "184913.585000", "184914.045000", "184914.505000", "184914.965000", "184915.425000", "184915.885000", "184916.345000", "184916.805000", "184917.265000", "184917.725000", "184918.185000", "184918.645000", "184919.105000", "184919.565000", "184920.025000", "184920.485000", "184920.945000", "184921.405000", "184921.865000", "184922.325000", "184922.785000", "184923.245000", "184923.705000", "184924.165000", "184924.625000", "184925.085000", "184925.545000", "184926.005000", "184926.465000", "184926.925000", "184927.385000", "184927.845000", "184928.305000", "184928.765000", "184929.225000", "184929.685000", "184930.145000", "184930.605000", "184931.065000", "184931.525000", "184931.985000", "184932.445000", "184932.905000", "184933.365000", "184933.825000", "184934.285000", "184934.745000", "184935.205000", "184935.665000", "184936.125000", "184936.585000", "184937.045000", "184937.505000", "184937.965000", "184938.425000", "184938.885000", "184939.345000", "184939.805000", "184940.265000", "184940.725000", "184941.185000", "184941.645000", "184942.105000", "184942.565000", "184943.025000", "184943.485000", "184943.945000", "184944.405000", "184944.865000", "184945.325000", "184945.785000", "184946.245000", "184946.705000", "184947.165000", "184947.625000", "184948.085000", "184948.545000", "184949.005000", "184949.465000", "184949.925000", "184950.385000", "184950.845000", "184951.305000", "184951.765000", "184952.225000", "184952.685000", "184953.145000", "184953.605000", "184954.065000", "184954.525000", "184954.985000", "184955.445000", "184955.905000", "184956.365000", "184956.825000", "184957.285000", "184957.745000", "184958.205000", "184958.665000", "184959.125000", "184959.585000", "185000.045000", "185000.505000", "185000.965000", "185001.425000", "185001.885000", "185002.345000", "185002.805000", "185003.265000", "185003.725000", "185004.185000", "185004.645000", "185005.105000", "185005.565000", "185006.025000", "185006.485000", "185006.945000", "185007.405000", "185007.865000", "185008.325000", "185008.785000", "185009.245000", "185009.705000", "185010.165000", "185010.625000", "185011.085000", "185011.545000", "185012.005000", "185012.465000", "185012.925000", "185013.385000", "185013.845000", "185014.305000", "185014.765000", "185015.225000", "185015.685000", "185016.145000", "185016.605000", "185017.065000", "185017.525000", "185017.985000", "185018.445000", "185018.905000", "185019.365000", "185019.825000", "185020.285000", "185020.745000", "185021.205000", "185021.665000", "185022.125000", "185022.585000", "185023.045000", "185023.505000", "185023.965000", "185024.425000", "185024.885000", "185025.345000", "185025.805000", "185026.265000", "185026.725000", "185027.185000", "185027.645000", "185028.105000", "185028.565000", "185029.025000", "185029.485000", "185029.945000", "185030.405000", "185030.865000", "185031.325000", "185031.785000", "185032.245000", "185032.705000", "185033.165000", "185033.625000", "185034.085000", "185034.545000", "185035.005000", "185035.465000", "185035.925000", "185036.385000", "185036.845000", "185037.305000", "185037.765000", "185038.225000", "185038.685000", "185039.145000", "185039.605000", "185040.065000", "185040.525000", "185040.985000", "185041.445000", "185041.905000", "185042.365000", "185042.825000", "185043.285000", "185043.745000", "185044.205000", "185044.665000", "185045.125000", "185045.585000", "185046.045000", "185046.505000", "185046.965000", "185047.425000", "185047.885000", "185048.345000", "185048.805000", "185049.265000", "185049.725000", "185050.185000", "185050.645000", "185051.105000", "185051.565000", "185052.025000", "185052.485000", "185052.945000", "185053.405000", "185053.865000", "185054.325000", "185054.785000", "185055.245000", "185055.705000", "185056.165000", "185056.625000", "185057.085000", "185057.545000", "185058.005000", "185058.465000", "185058.925000", "185059.385000", "185059.845000", "185100.305000", "185100.765000", "185101.225000", "185101.685000", "185102.145000", "185102.605000", "185103.065000", "185103.525000", "185103.985000", "185104.445000", "185104.905000", "185105.365000", "185105.825000", "185106.285000", "185106.745000", "185107.205000", "185107.665000", "185108.125000", "185108.585000", "185109.045000", "185109.505000", "185109.965000", "185110.425000", "185110.885000", "185111.345000", "185111.805000", "185112.265000", "185112.725000", "185113.185000", "185113.645000", "185114.105000", "185114.565000", "185115.025000", "185115.485000", "185115.945000", "185116.405000", "185116.865000", "185117.325000", "185117.785000", "185118.245000", "185118.705000", "185119.165000", "185119.625000", "185120.085000", "185120.545000", "185121.005000", "185121.465000", "185121.925000", "185122.385000", "185122.845000", "185123.305000", "185123.765000", "185124.225000", "185124.685000", "185125.145000", "185125.605000", "185126.065000", "185126.525000", "185126.985000", "185127.445000", "185127.905000", "185128.365000", "185128.825000", "185129.285000", "185129.745000", "185130.205000", "185130.665000", "185131.125000", "185131.585000", "185132.045000", "185132.505000", "185132.965000", "185133.425000", "185133.885000", "185134.345000", "185134.805000", "185135.265000", "185135.725000", "185136.185000", "185136.645000", "185137.105000", "185137.565000", "185138.025000", "185138.485000", "185138.945000", "185139.405000", "185139.865000", "185140.325000", "185140.785000", "185141.245000", "185141.705000", "185142.165000", "185142.625000", "185143.085000", "185143.545000", "185144.005000", "185144.465000", "185144.925000", "185145.385000", "185145.845000", "185146.305000", "185146.765000", "185147.225000", "185147.685000", "185148.145000", "185148.605000", "185149.065000", "185149.525000", "185149.985000", "185150.445000", "185150.905000", "185151.365000", "185151.825000", "185152.285000", "185152.745000", "185153.205000", "185153.665000", "185154.125000", "185154.585000", "185155.045000", "185155.505000", "185155.965000", "185156.425000", "185156.885000", "185157.345000", "185157.805000", "185158.265000", "185158.725000", "185159.185000", "185159.645000", "185200.105000", "185200.565000", "185201.025000", "185201.485000", "185201.945000", "185202.405000", "185202.865000", "185203.325000", "185203.785000", "185204.245000", "185204.705000", "185205.165000", "185205.625000", "185206.085000", "185206.545000", "185207.005000", "185207.465000", "185207.925000", "185208.385000", "185208.845000", "185209.305000", "185209.765000", "185210.225000", "185210.685000", "185211.145000", "185211.605000", "185212.065000", "185212.525000", "185212.985000", "185213.445000", "185213.905000", "185214.365000", "185214.825000", "185215.285000", "185215.745000", "185216.205000", "185216.665000", "185217.125000", "185217.585000", "185218.045000", "185218.505000", "185218.965000", "185219.425000", "185219.885000", "185220.345000", "185220.805000", "185221.265000", "185221.725000", "185222.185000", "185222.645000", "185223.105000", "185223.565000", "185224.025000", "185224.485000", "185224.945000", "185225.405000", "185225.865000", "185226.325000", "185226.785000", "185227.245000", "185227.705000", "185228.165000", "185228.625000", "185229.085000", "185229.545000", "185230.005000", "185230.465000", "185230.925000", "185231.385000", "185231.845000", "185232.305000", "185232.765000", "185233.225000", "185233.685000", "185234.145000", "185234.605000", "185235.065000", "185235.525000", "185235.985000", "185236.445000", "185236.905000", "185237.365000", "185237.825000", "185238.285000", "185238.745000", "185239.205000", "185239.665000", "185240.125000", "185240.585000", "185241.045000", "185241.505000", "185241.965000", "185242.425000", "185242.885000", "185243.345000", "185243.805000", "185244.265000", "185244.725000", "185245.185000", "185245.645000", "185246.105000", "185246.565000", "185247.025000", "185247.485000", "185247.945000", "185248.405000", "185248.865000", "185249.325000", "185249.785000", "185250.245000", "185250.705000", "185251.165000", "185251.625000", "185252.085000", "185252.545000", "185253.005000", "185253.465000", "185253.925000", "185254.385000", "185254.845000", "185255.305000", "185255.765000", "185256.225000", "185256.685000", "185257.145000", "185257.605000", "185258.065000", "185258.525000", "185258.985000", "185259.445000", "185259.905000", "185300.365000", "185300.825000", "185301.285000", "185301.745000", "185302.205000", "185302.665000", "185303.125000", "185303.585000", "185304.045000", "185304.505000", "185304.965000", "185305.425000", "185305.885000", "185306.345000", "185306.805000", "185307.265000", "185307.725000", "185308.185000", "185308.645000", "185309.105000", "185309.565000", "185310.025000", "185310.485000", "185310.945000", "185311.405000", "185311.865000", "185312.325000", "185312.785000", "185313.245000", "185313.705000", "185314.165000", "185314.625000", "185315.085000", "185315.545000", "185316.005000", "185316.465000", "185316.925000", "185317.385000", "185317.845000", "185318.305000", "185318.765000", "185319.225000", "185319.685000", "185320.145000", "185320.605000", "185321.065000", "185321.525000", "185321.985000", "185322.445000", "185322.905000", "185323.365000", "185323.825000", "185324.285000", "185324.745000", "185325.205000", "185325.665000", "185326.125000", "185326.585000", "185327.045000", "185327.505000", "185327.965000", "185328.425000", "185328.885000", "185329.345000", "185329.805000", "185330.265000", "185330.725000", "185331.185000", "185331.645000", "185332.105000", "185332.565000", "185333.025000", "185333.485000", "185333.945000", "185334.405000", "185334.865000", "185335.325000", "185335.785000", "185336.245000", "185336.705000", "185337.165000", "185337.625000", "185338.085000", "185338.545000", "185339.005000", "185339.465000", "185339.925000", "185340.385000", "185340.845000", "185341.305000", "185341.765000", "185342.225000", "185342.685000", "185343.145000", "185343.605000", "185344.065000", "185344.525000", "185344.985000", "185345.445000", "185345.905000", "185346.365000", "185346.825000", "185347.285000", "185347.745000", "185348.205000", "185348.665000", "185349.125000", "185349.585000", "185350.045000", "185350.505000", "185350.965000", "185351.425000", "185351.885000", "185352.345000", "185352.805000", "185353.265000", "185353.725000", "185354.185000", "185354.645000", "185355.105000", "185355.565000", "185356.025000", "185356.485000", "185356.945000", "185357.405000", "185357.865000", "185358.325000", "185358.785000", "185359.245000", "185359.705000", "185400.165000", "185400.625000", "185401.085000", "185401.545000", "185402.005000", "185402.465000", "185402.925000", "185403.385000", "185403.845000", "185404.305000", "185404.765000", "185405.225000", "185405.685000", "185406.145000", "185406.605000", "185407.065000", "185407.525000", "185407.985000", "185408.445000", "185408.905000", "185409.365000", "185409.825000", "185410.285000", "185410.745000", "185411.205000", "185411.665000", "185412.125000", "185412.585000", "185413.045000", "185413.505000", "185413.965000", "185414.425000", "185414.885000", "185415.345000", "185415.805000", "185416.265000", "185416.725000", "185417.185000", "185417.645000", "185418.105000", "185418.565000", "185419.025000", "185419.485000", "185419.945000", "185420.405000", "185420.865000", "185421.325000", "185421.785000", "185422.245000", "185422.705000", "185423.165000", "185423.625000", "185424.085000", "185424.545000", "185425.005000", "185425.465000", "185425.925000", "185426.385000", "185426.845000", "185427.305000", "185427.765000", "185428.225000", "185428.685000", "185429.145000", "185429.605000", "185430.065000", "185430.525000", "185430.985000", "185431.445000", "185431.905000", "185432.365000", "185432.825000", "185433.285000", "185433.745000", "185434.205000", "185434.665000", "185435.125000", "185435.585000", "185436.045000", "185436.505000", "185436.965000", "185437.425000", "185437.885000", "185438.345000", "185438.805000", "185439.265000", "185439.725000", "185440.185000", "185440.645000", "185441.105000", "185441.565000", "185442.025000", "185442.485000", "185442.945000", "185443.405000", "185443.865000", "185444.325000", "185444.785000", "185445.245000", "185445.705000", "185446.165000", "185446.625000", "185447.085000"],
