{
  "AcquisitionMatrixPE": 82,
  "AcquisitionNumber": 1,
  "AcquisitionTime": "19:21:44.587500",
  "BandwidthPerPixelPhaseEncode": 24.888,
  "BaseResolution": 82,
  "BodyPartExamined": "BRAIN",
  "ConsistencyInfo": "N4_VE11E_LATEST_20181129",
  "ConversionSoftware": "dcm2niix",
  "ConversionSoftwareVersion": "v1.0.20201102",
  "DerivedVendorReportedEchoSpacing": 0.00049,
  "DeviceSerialNumber": "66112",
  "DwellTime": 2e-06,
  "EchoTime": 0.0272,
  "EchoTrainLength": 82,
  "EffectiveEchoSpacing": 0.00049,
  "FlipAngle": 44,
  "ImageComments": "Unaliased MB8/PE3",
  "ImageOrientationPatientDICOM": [0.99281, -0.0901588, 0.0787324, 0.078659, 0.987219, 0.138608],
  "ImageType": [
    "ORIGINAL",
    "PRIMARY",
    "M",
    "MB",
    "ND",
    "NORM",
    "MOSAIC"
],
  "ImagingFrequency": 123.259,
  "InPlanePhaseEncodingDirectionDICOM": "COL",
  "InstitutionAddress": "Maynard 3,Hanover,NH,US,03755",
  "InstitutionName": "Dartmouth College - PBS",
  "InstitutionalDepartmentName": "Department",
  "MRAcquisitionType": "2D",
  "MagneticFieldStrength": 3,
  "Manufacturer": "Siemens",
  "ManufacturersModelName": "Prisma",
  "Modality": "MR",
  "MultibandAccelerationFactor": 8,
  "PartialFourier": 1,
  "PatientPosition": "HFS",
  "PercentPhaseFOV": 100,
  "PercentSampling": 100,
  "PhaseEncodingDirection": "j-",
  "PhaseEncodingSteps": 82,
  "PhaseResolution": 1,
  "PixelBandwidth": 3050,
  "ProcedureStepDescription": "Wager_Wager^1076_spacetop",
  "ProtocolName": "func_run-05_task-social_acq-ap-mb8",
  "PulseSequenceDetails": "%CustomerSeq%\\cmrr_mbep2d_bold",
  "ReceiveCoilActiveElements": "HEA;HEP",
  "ReceiveCoilName": "Head_32",
  "ReconMatrixPE": 82,
  "RepetitionTime": 0.46,
  "SAR": 0.085361,
  "ScanOptions": "FS",
  "ScanningSequence": "EP",
  "SequenceName": "epfid2d1_82",
  "SequenceVariant": "SK\\SS",
  "SeriesDescription": "func_run-05_task-social_acq-ap-mb8",
  "SeriesNumber": 22,
  "ShimSetting": [4241, -7815, -7237, 408, -73, -87, 92, 56],
  "SliceThickness": 2.7,
  "SliceTiming": [0, 0.2525, 0.0625, 0.315, 0.1275, 0.3775, 0.19, 0, 0.2525, 0.0625, 0.315, 0.1275, 0.3775, 0.19, 0, 0.2525, 0.0625, 0.315, 0.1275, 0.3775, 0.19, 0, 0.2525, 0.0625, 0.315, 0.1275, 0.3775, 0.19, 0, 0.2525, 0.0625, 0.315, 0.1275, 0.3775, 0.19, 0, 0.2525, 0.0625, 0.315, 0.1275, 0.3775, 0.19, 0, 0.2525, 0.0625, 0.315, 0.1275, 0.3775, 0.19, 0, 0.2525, 0.0625, 0.315, 0.1275, 0.3775, 0.19],
  "SoftwareVersions": "syngo MR E11",
  "SpacingBetweenSlices": 2.7,
  "StationName": "AWP66112",
  "TaskName": "social",
  "TotalReadoutTime": 0.03969,
  "TxRefAmp": 231.217,
  "WipMemBlock": "e5729b34-ee6f-4c36-8c72-a92edfa05485||Sequence: R016 ve11e/master r/434b28f1; Aug  7 2019 18:53:46 by eja",
  "dcmmeta_affine": [
    [-2.66363787651062, 0.21103623509407043, 0.24360162019729614, 99.4771957397461],
    [0.2418893724679947, 2.648635149002075, 0.35483095049858093, -121.42250061035156],
    [0.2112331986427307, -0.37187620997428894, 2.6654744148254395, -62.1318244934082],
    [0.0, 0.0, 0.0, 1.0]
],
  "dcmmeta_reorient_transform": [
    [0.0, -1.0, 0.0, 81.0],
    [1.0, 0.0, 0.0, 0.0],
    [0.0, 0.0, 1.0, 0.0],
    [0.0, 0.0, 0.0, 1.0]
],
  "dcmmeta_shape": [82, 82, 56, 872],
  "dcmmeta_slice_dim": 2,
  "dcmmeta_version": 0.6,
  "global": {
    "const": {
      "AccessionNumber": "A004510",
      "AcquisitionMatrix": [82, 0, 0, 82],
      "AngioFlag": "N",
      "BitsAllocated": 16,
      "BitsStored": 16,
      "BodyPartExamined": "BRAIN",
      "Columns": 656,
      "EchoNumbers": 1,
      "EchoTime": 27.2,
      "EchoTrainLength": 82,
      "FlipAngle": 44.0,
      "HighBit": 15,
      "ImageOrientationPatient": [0.99281046072485, -0.0901587653952, 0.07873237007565, 0.07865895958717, 0.98721855630313, 0.13860840583248],
      "ImagePositionPatient": [-941.60260384622, -783.85300490294, -259.60620083571],
      "ImageType": [
        "ORIGINAL",
        "PRIMARY",
        "M",
        "MB",
        "ND",
        "NORM",
        "MOSAIC"
],
      "ImagedNucleus": "1H",
      "ImagingFrequency": 123.259085,
      "InPlanePhaseEncodingDirection": "COL",
      "MRAcquisitionType": "2D",
      "MagneticFieldStrength": 3.0,
      "Manufacturer": "SIEMENS",
      "ManufacturerModelName": "Prisma",
      "Modality": "MR",
      "NumberOfAverages": 1.0,
      "NumberOfPhaseEncodingSteps": 82,
      "PercentPhaseFieldOfView": 100.0,
      "PercentSampling": 100.0,
      "PerformedProcedureStepStartTime": "182409.256000",
      "PhotometricInterpretation": "MONOCHROME2",
      "PixelBandwidth": 3050.0,
      "PixelRepresentation": 0,
      "PixelSpacing": [2.6829268932343, 2.6829268932343],
      "ProtocolName": "func_run-05_task-social_acq-ap-mb8",
      "RepetitionTime": 460.0,
      "Rows": 656,
      "SAR": 0.08536103499214,
      "SamplesPerPixel": 1,
      "ScanOptions": "FS",
      "ScanningSequence": "EP",
      "SequenceName": "epfid2d1_82",
      "SequenceVariant": [
        "SK",
        "SS"
],
      "SeriesDescription": "func_run-05_task-social_acq-ap-mb8",
      "SeriesNumber": 22,
      "SeriesTime": "192156.050000",
      "SliceLocation": -68.319422554803,
      "SliceThickness": 2.7000000476837,
      "SmallestImagePixelValue": 0,
      "SoftwareVersions": "syngo MR E11",
      "SpacingBetweenSlices": 2.7000000532276,
      "SpecificCharacterSet": "ISO_IR 100",
      "StudyID": "1",
      "StudyTime": "182409.166000",
      "TransmitCoilName": "Body",
      "VariableFlipAngleFlag": "N",
      "WindowCenterWidthExplanation": "Algo1"
    },
    "slices": {}
  },
  "time": {
    "samples": {
      "AcquisitionNumber": [1, 2, 3, 4, 5, 6, 7, 8, 9, 10, 11, 12, 13, 14, 15, 16, 17, 18, 19, 20, 21, 22, 23, 24, 25, 26, 27, 28, 29, 30, 31, 32, 33, 34, 35, 36, 37, 38, 39, 40, 41, 42, 43, 44, 45, 46, 47, 48, 49, 50, 51, 52, 53, 54, 55, 56, 57, 58, 59, 60, 61, 62, 63, 64, 65, 66, 67, 68, 69, 70, 71, 72, 73, 74, 75, 76, 77, 78, 79, 80, 81, 82, 83, 84, 85, 86, 87, 88, 89, 90, 91, 92, 93, 94, 95, 96, 97, 98, 99, 100, 101, 102, 103, 104, 105, 106, 107, 108, 109, 110, 111, 112, 113, 114, 115, 116, 117, 118, 119, 120, 121, 122, 123, 124, 125, 126, 127, 128, 129, 130, 131, 132, 133, 134, 135, 136, 137, 138, 139, 140, 141, 142, 143, 144, 145, 146, 147, 148, 149, 150, 151, 152, 153, 154, 155, 156, 157, 158, 159, 160, 161, 162, 163, 164, 165, 166, 167, 168, 169, 170, 171, 172, 173, 174, 175, 176, 177, 178, 179, 180, 181, 182, 183, 184, 185, 186, 187, 188, 189, 190, 191, 192, 193, 194, 195, 196, 197, 198, 199, 200, 201, 202, 203, 204, 205, 206, 207, 208, 209, 210, 211, 212, 213, 214, 215, 216, 217, 218, 219, 220, 221, 222, 223, 224, 225, 226, 227, 228, 229, 230, 231, 232, 233, 234, 235, 236, 237, 238, 239, 240, 241, 242, 243, 244, 245, 246, 247, 248, 249, 250, 251, 252, 253, 254, 255, 256, 257, 258, 259, 260, 261, 262, 263, 264, 265, 266, 267, 268, 269, 270, 271, 272, 273, 274, 275, 276, 277, 278, 279, 280, 281, 282, 283, 284, 285, 286, 287, 288, 289, 290, 291, 292, 293, 294, 295, 296, 297, 298, 299, 300, 301, 302, 303, 304, 305, 306, 307, 308, 309, 310, 311, 312, 313, 314, 315, 316, 317, 318, 319, 320, 321, 322, 323, 324, 325, 326, 327, 328, 329, 330, 331, 332, 333, 334, 335, 336, 337, 338, 339, 340, 341, 342, 343, 344, 345, 346, 347, 348, 349, 350, 351, 352, 353, 354, 355, 356, 357, 358, 359, 360, 361, 362, 363, 364, 365, 366, 367, 368, 369, 370, 371, 372, 373, 374, 375, 376, 377, 378, 379, 380, 381, 382, 383, 384, 385, 386, 387, 388, 389, 390, 391, 392, 393, 394, 395, 396, 397, 398, 399, 400, 401, 402, 403, 404, 405, 406, 407, 408, 409, 410, 411, 412, 413, 414, 415, 416, 417, 418, 419, 420, 421, 422, 423, 424, 425, 426, 427, 428, 429, 430, 431, 432, 433, 434, 435, 436, 437, 438, 439, 440, 441, 442, 443, 444, 445, 446, 447, 448, 449, 450, 451, 452, 453, 454, 455, 456, 457, 458, 459, 460, 461, 462, 463, 464, 465, 466, 467, 468, 469, 470, 471, 472, 473, 474, 475, 476, 477, 478, 479, 480, 481, 482, 483, 484, 485, 486, 487, 488, 489, 490, 491, 492, 493, 494, 495, 496, 497, 498, 499, 500, 501, 502, 503, 504, 505, 506, 507, 508, 509, 510, 511, 512, 513, 514, 515, 516, 517, 518, 519, 520, 521, 522, 523, 524, 525, 526, 527, 528, 529, 530, 531, 532, 533, 534, 535, 536, 537, 538, 539, 540, 541, 542, 543, 544, 545, 546, 547, 548, 549, 550, 551, 552, 553, 554, 555, 556, 557, 558, 559, 560, 561, 562, 563, 564, 565, 566, 567, 568, 569, 570, 571, 572, 573, 574, 575, 576, 577, 578, 579, 580, 581, 582, 583, 584, 585, 586, 587, 588, 589, 590, 591, 592, 593, 594, 595, 596, 597, 598, 599, 600, 601, 602, 603, 604, 605, 606, 607, 608, 609, 610, 611, 612, 613, 614, 615, 616, 617, 618, 619, 620, 621, 622, 623, 624, 625, 626, 627, 628, 629, 630, 631, 632, 633, 634, 635, 636, 637, 638, 639, 640, 641, 642, 643, 644, 645, 646, 647, 648, 649, 650, 651, 652, 653, 654, 655, 656, 657, 658, 659, 660, 661, 662, 663, 664, 665, 666, 667, 668, 669, 670, 671, 672, 673, 674, 675, 676, 677, 678, 679, 680, 681, 682, 683, 684, 685, 686, 687, 688, 689, 690, 691, 692, 693, 694, 695, 696, 697, 698, 699, 700, 701, 702, 703, 704, 705, 706, 707, 708, 709, 710, 711, 712, 713, 714, 715, 716, 717, 718, 719, 720, 721, 722, 723, 724, 725, 726, 727, 728, 729, 730, 731, 732, 733, 734, 735, 736, 737, 738, 739, 740, 741, 742, 743, 744, 745, 746, 747, 748, 749, 750, 751, 752, 753, 754, 755, 756, 757, 758, 759, 760, 761, 762, 763, 764, 765, 766, 767, 768, 769, 770, 771, 772, 773, 774, 775, 776, 777, 778, 779, 780, 781, 782, 783, 784, 785, 786, 787, 788, 789, 790, 791, 792, 793, 794, 795, 796, 797, 798, 799, 800, 801, 802, 803, 804, 805, 806, 807, 808, 809, 810, 811, 812, 813, 814, 815, 816, 817, 818, 819, 820, 821, 822, 823, 824, 825, 826, 827, 828, 829, 830, 831, 832, 833, 834, 835, 836, 837, 838, 839, 840, 841, 842, 843, 844, 845, 846, 847, 848, 849, 850, 851, 852, 853, 854, 855, 856, 857, 858, 859, 860, 861, 862, 863, 864, 865, 866, 867, 868, 869, 870, 871, 872],
      "AcquisitionTime": ["192144.587500", "192145.047500", "192145.507500", "192145.967500", "192146.427500", "192146.887500", "192147.347500", "192147.807500", "192148.267500", "192148.727500", "192149.187500", "192149.647500", "192150.107500", "192150.567500", "192151.027500", "192151.487500", "192151.947500", "192152.407500", "192152.867500", "192153.327500", "192153.787500", "192154.247500", "192154.707500", "192155.167500", "192155.627500", "192156.087500", "192156.547500", "192157.007500", "192157.467500", "192157.927500", "192158.387500", "192158.847500", "192159.307500", "192159.767500", "192200.227500", "192200.687500", "192201.147500", "192201.607500", "192202.067500", "192202.527500", "192202.987500", "192203.447500", "192203.907500", "192204.367500", "192204.827500", "192205.287500", "192205.747500", "192206.207500", "192206.667500", "192207.127500", "192207.587500", "192208.047500", "192208.507500", "192208.967500", "192209.427500", "192209.887500", "192210.347500", "192210.807500", "192211.267500", "192211.727500", "192212.187500", "192212.647500", "192213.107500", "192213.567500", "192214.027500", "192214.487500", "192214.947500", "192215.407500", "192215.867500", "192216.327500", "192216.787500", "192217.247500", "192217.707500", "192218.167500", "192218.627500", "192219.087500", "192219.547500", "192220.007500", "192220.467500", "192220.927500", "192221.387500", "192221.847500", "192222.307500", "192222.767500", "192223.227500", "192223.687500", "192224.147500", "192224.607500", "192225.067500", "192225.527500", "192225.987500", "192226.447500", "192226.907500", "192227.367500", "192227.827500", "192228.287500", "192228.747500", "192229.207500", "192229.667500", "192230.127500", "192230.587500", "192231.047500", "192231.507500", "192231.967500", "192232.427500", "192232.887500", "192233.347500", "192233.807500", "192234.267500", "192234.727500", "192235.187500", "192235.647500", "192236.107500", "192236.567500", "192237.027500", "192237.487500", "192237.947500", "192238.407500", "192238.867500", "192239.327500", "192239.787500", "192240.247500", "192240.707500", "192241.167500", "192241.627500", "192242.087500", "192242.547500", "192243.007500", "192243.467500", "192243.927500", "192244.387500", "192244.847500", "192245.307500", "192245.767500", "192246.227500", "192246.687500", "192247.147500", "192247.607500", "192248.067500", "192248.527500", "192248.987500", "192249.447500", "192249.907500", "192250.367500", "192250.827500", "192251.287500", "192251.747500", "192252.207500", "192252.667500", "192253.127500", "192253.587500", "192254.047500", "192254.507500", "192254.967500", "192255.427500", "192255.887500", "192256.347500", "192256.807500", "192257.267500", "192257.727500", "192258.187500", "192258.647500", "192259.107500", "192259.567500", "192300.027500", "192300.487500", "192300.947500", "192301.407500", "192301.867500", "192302.327500", "192302.787500", "192303.247500", "192303.707500", "192304.167500", "192304.627500", "192305.087500", "192305.547500", "192306.007500", "192306.467500", "192306.927500", "192307.387500", "192307.847500", "192308.307500", "192308.767500", "192309.227500", "192309.687500", "192310.147500", "192310.607500", "192311.067500", "192311.527500", "192311.987500", "192312.447500", "192312.907500", "192313.367500", "192313.827500", "192314.287500", "192314.747500", "192315.207500", "192315.667500", "192316.127500", "192316.587500", "192317.047500", "192317.507500", "192317.967500", "192318.427500", "192318.887500", "192319.347500", "192319.807500", "192320.267500", "192320.727500", "192321.187500", "192321.647500", "192322.107500", "192322.567500", "192323.027500", "192323.487500", "192323.947500", "192324.407500", "192324.867500", "192325.327500", "192325.787500", "192326.247500", "192326.707500", "192327.167500", "192327.627500", "192328.087500", "192328.547500", "192329.007500", "192329.467500", "192329.927500", "192330.387500", "192330.847500", "192331.307500", "192331.767500", "192332.227500", "192332.687500", "192333.147500", "192333.607500", "192334.067500", "192334.527500", "192334.987500", "192335.447500", "192335.907500", "192336.367500", "192336.827500", "192337.287500", "192337.747500", "192338.207500", "192338.667500", "192339.127500", "192339.587500", "192340.047500", "192340.507500", "192340.967500", "192341.427500", "192341.887500", "192342.347500", "192342.807500", "192343.267500", "192343.727500", "192344.187500", "192344.647500", "192345.107500", "192345.567500", "192346.027500", "192346.487500", "192346.947500", "192347.407500", "192347.867500", "192348.327500", "192348.787500", "192349.247500", "192349.707500", "192350.167500", "192350.627500", "192351.087500", "192351.547500", "192352.007500", "192352.467500", "192352.927500", "192353.387500", "192353.847500", "192354.307500", "192354.767500", "192355.227500", "192355.687500", "192356.147500", "192356.607500", "192357.067500", "192357.527500", "192357.987500", "192358.447500", "192358.907500", "192359.367500", "192359.827500", "192400.287500", "192400.747500", "192401.207500", "192401.667500", "192402.127500", "192402.587500", "192403.047500", "192403.507500", "192403.967500", "192404.427500", "192404.887500", "192405.347500", "192405.807500", "192406.267500", "192406.727500", "192407.187500", "192407.647500", "192408.107500", "192408.567500", "192409.027500", "192409.487500", "192409.947500", "192410.407500", "192410.867500", "192411.327500", "192411.787500", "192412.247500", "192412.707500", "192413.167500", "192413.627500", "192414.087500", "192414.547500", "192415.007500", "192415.467500", "192415.927500", "192416.387500", "192416.847500", "192417.307500", "192417.767500", "192418.227500", "192418.687500", "192419.147500", "192419.607500", "192420.067500", "192420.527500", "192420.987500", "192421.447500", "192421.907500", "192422.367500", "192422.827500", "192423.287500", "192423.747500", "192424.207500", "192424.667500", "192425.127500", "192425.587500", "192426.047500", "192426.507500", "192426.967500", "192427.427500", "192427.887500", "192428.347500", "192428.807500", "192429.267500", "192429.727500", "192430.187500", "192430.647500", "192431.107500", "192431.567500", "192432.027500", "192432.487500", "192432.947500", "192433.407500", "192433.867500", "192434.327500", "192434.787500", "192435.247500", "192435.707500", "192436.167500", "192436.627500", "192437.087500", "192437.547500", "192438.007500", "192438.467500", "192438.927500", "192439.387500", "192439.847500", "192440.307500", "192440.767500", "192441.227500", "192441.687500", "192442.147500", "192442.607500", "192443.067500", "192443.527500", "192443.987500", "192444.447500", "192444.907500", "192445.367500", "192445.827500", "192446.287500", "192446.747500", "192447.207500", "192447.667500", "192448.127500", "192448.587500", "192449.047500", "192449.507500", "192449.967500", "192450.427500", "192450.887500", "192451.347500", "192451.807500", "192452.267500", "192452.727500", "192453.187500", "192453.647500", "192454.107500", "192454.567500", "192455.027500", "192455.487500", "192455.947500", "192456.407500", "192456.867500", "192457.327500", "192457.787500", "192458.247500", "192458.707500", "192459.167500", "192459.627500", "192500.087500", "192500.547500", "192501.007500", "192501.467500", "192501.927500", "192502.387500", "192502.847500", "192503.307500", "192503.767500", "192504.227500", "192504.687500", "192505.147500", "192505.607500", "192506.067500", "192506.527500", "192506.987500", "192507.447500", "192507.907500", "192508.367500", "192508.827500", "192509.287500", "192509.747500", "192510.207500", "192510.667500", "192511.127500", "192511.587500", "192512.047500", "192512.507500", "192512.967500", "192513.427500", "192513.887500", "192514.347500", "192514.807500", "192515.267500", "192515.727500", "192516.187500", "192516.647500", "192517.107500", "192517.567500", "192518.027500", "192518.487500", "192518.947500", "192519.407500", "192519.867500", "192520.327500", "192520.787500", "192521.247500", "192521.707500", "192522.167500", "192522.627500", "192523.087500", "192523.547500", "192524.007500", "192524.467500", "192524.927500", "192525.387500", "192525.847500", "192526.307500", "192526.767500", "192527.227500", "192527.687500", "192528.147500", "192528.607500", "192529.067500", "192529.527500", "192529.987500", "192530.447500", "192530.907500", "192531.367500", "192531.827500", "192532.287500", "192532.747500", "192533.207500", "192533.667500", "192534.127500", "192534.587500", "192535.047500", "192535.507500", "192535.967500", "192536.427500", "192536.887500", "192537.347500", "192537.807500", "192538.267500", "192538.727500", "192539.187500", "192539.647500", "192540.107500", "192540.567500", "192541.027500", "192541.487500", "192541.947500", "192542.407500", "192542.867500", "192543.327500", "192543.787500", "192544.247500", "192544.707500", "192545.167500", "192545.627500", "192546.087500", "192546.547500", "192547.007500", "192547.467500", "192547.927500", "192548.387500", "192548.847500", "192549.307500", "192549.767500", "192550.227500", "192550.687500", "192551.147500", "192551.607500", "192552.067500", "192552.527500", "192552.987500", "192553.447500", "192553.907500", "192554.367500", "192554.827500", "192555.287500", "192555.747500", "192556.207500", "192556.667500", "192557.127500", "192557.587500", "192558.047500", "192558.507500", "192558.967500", "192559.427500", "192559.887500", "192600.347500", "192600.807500", "192601.267500", "192601.727500", "192602.187500", "192602.647500", "192603.107500", "192603.567500", "192604.027500", "192604.487500", "192604.947500", "192605.407500", "192605.867500", "192606.327500", "192606.787500", "192607.247500", "192607.707500", "192608.167500", "192608.627500", "192609.087500", "192609.547500", "192610.007500", "192610.467500", "192610.927500", "192611.387500", "192611.847500", "192612.307500", "192612.767500", "192613.227500", "192613.687500", "192614.147500", "192614.607500", "192615.067500", "192615.527500", "192615.987500", "192616.447500", "192616.907500", "192617.367500", "192617.827500", "192618.287500", "192618.747500", "192619.207500", "192619.667500", "192620.127500", "192620.587500", "192621.047500", "192621.507500", "192621.967500", "192622.427500", "192622.887500", "192623.347500", "192623.807500", "192624.267500", "192624.727500", "192625.187500", "192625.647500", "192626.107500", "192626.567500", "192627.027500", "192627.487500", "192627.947500", "192628.407500", "192628.867500", "192629.327500", "192629.787500", "192630.247500", "192630.707500", "192631.167500", "192631.627500", "192632.087500", "192632.547500", "192633.007500", "192633.467500", "192633.927500", "192634.387500", "192634.847500", "192635.307500", "192635.767500", "192636.227500", "192636.687500", "192637.147500", "192637.607500", "192638.067500", "192638.527500", "192638.987500", "192639.447500", "192639.907500", "192640.367500", "192640.827500", "192641.287500", "192641.747500", "192642.207500", "192642.667500", "192643.127500", "192643.587500", "192644.047500", "192644.507500", "192644.967500", "192645.427500", "192645.887500", "192646.347500", "192646.807500", "192647.267500", "192647.727500", "192648.187500", "192648.647500", "192649.107500", "192649.567500", "192650.027500", "192650.487500", "192650.947500", "192651.407500", "192651.867500", "192652.327500", "192652.787500", "192653.247500", "192653.707500", "192654.167500", "192654.627500", "192655.087500", "192655.547500", "192656.007500", "192656.467500", "192656.927500", "192657.387500", "192657.847500", "192658.307500", "192658.767500", "192659.227500", "192659.687500", "192700.147500", "192700.607500", "192701.067500", "192701.527500", "192701.987500", "192702.447500", "192702.907500", "192703.367500", "192703.827500", "192704.287500", "192704.747500", "192705.207500", "192705.667500", "192706.127500", "192706.587500", "192707.047500", "192707.507500", "192707.967500", "192708.427500", "192708.887500", "192709.347500", "192709.807500", "192710.267500", "192710.727500", "192711.187500", "192711.647500", "192712.107500", "192712.567500", "192713.027500", "192713.487500", "192713.947500", "192714.407500", "192714.867500", "192715.327500", "192715.787500", "192716.247500", "192716.707500", "192717.167500", "192717.627500", "192718.087500", "192718.547500", "192719.007500", "192719.467500", "192719.927500", "192720.387500", "192720.847500", "192721.307500", "192721.767500", "192722.227500", "192722.687500", "192723.147500", "192723.607500", "192724.067500", "192724.527500", "192724.987500", "192725.447500", "192725.907500", "192726.367500", "192726.827500", "192727.287500", "192727.747500", "192728.207500", "192728.667500", "192729.127500", "192729.587500", "192730.047500", "192730.507500", "192730.967500", "192731.427500", "192731.887500", "192732.347500", "192732.807500", "192733.267500", "192733.727500", "192734.187500", "192734.647500", "192735.107500", "192735.567500", "192736.027500", "192736.487500", "192736.947500", "192737.407500", "192737.867500", "192738.327500", "192738.787500", "192739.247500", "192739.707500", "192740.167500", "192740.627500", "192741.087500", "192741.547500", "192742.007500", "192742.467500", "192742.927500", "192743.387500", "192743.847500", "192744.307500", "192744.767500", "192745.227500", "192745.687500", "192746.147500", "192746.607500", "192747.067500", "192747.527500", "192747.987500", "192748.447500", "192748.907500", "192749.367500", "192749.827500", "192750.287500", "192750.747500", "192751.207500", "192751.667500", "192752.127500", "192752.587500", "192753.047500", "192753.507500", "192753.967500", "192754.427500", "192754.887500", "192755.347500", "192755.807500", "192756.267500", "192756.727500", "192757.187500", "192757.647500", "192758.107500", "192758.567500", "192759.027500", "192759.487500", "192759.947500", "192800.407500", "192800.867500", "192801.327500", "192801.787500", "192802.247500", "192802.707500", "192803.167500", "192803.627500", "192804.087500", "192804.547500", "192805.007500", "192805.467500", "192805.927500", "192806.387500", "192806.847500", "192807.307500", "192807.767500", "192808.227500", "192808.687500", "192809.147500", "192809.607500", "192810.067500", "192810.527500", "192810.987500", "192811.447500", "192811.907500", "192812.367500", "192812.827500", "192813.287500", "192813.747500", "192814.207500", "192814.667500", "192815.127500", "192815.587500", "192816.047500", "192816.507500", "192816.967500", "192817.427500", "192817.887500", "192818.347500", "192818.807500", "192819.267500", "192819.727500", "192820.187500", "192820.647500", "192821.107500", "192821.567500", "192822.027500", "192822.487500", "192822.947500", "192823.407500", "192823.867500", "192824.327500", "192824.787500", "192825.247500"],
