{
  "AcquisitionMatrixPE": 82,
  "AcquisitionNumber": 1,
  "AcquisitionTime": "19:28:52.555000",
  "BandwidthPerPixelPhaseEncode": 24.888,
  "BaseResolution": 82,
  "BodyPartExamined": "BRAIN",
  "ConsistencyInfo": "N4_VE11E_LATEST_20181129",
  "ConversionSoftware": "dcm2niix",
  "ConversionSoftwareVersion": "v1.0.20201102",
  "DerivedVendorReportedEchoSpacing": 0.00049,
  "DeviceSerialNumber": "66112",
  "DwellTime": 2e-06,
  "EchoTime": 0.0272,
  "EchoTrainLength": 82,
  "EffectiveEchoSpacing": 0.00049,
  "FlipAngle": 44,
  "ImageComments": "Unaliased MB8/PE3",
  "ImageOrientationPatientDICOM": [0.99281, -0.0901588, 0.0787324, 0.078659, 0.987219, 0.138608],
  "ImageType": [
    "ORIGINAL",
    "PRIMARY",
    "M",
    "MB",
    "ND",
    "NORM",
    "MOSAIC"
],
  "ImagingFrequency": 123.259,
  "InPlanePhaseEncodingDirectionDICOM": "COL",
  "InstitutionAddress": "Maynard 3,Hanover,NH,US,03755",
  "InstitutionName": "Dartmouth College - PBS",
  "InstitutionalDepartmentName": "Department",
  "MRAcquisitionType": "2D",
  "MagneticFieldStrength": 3,
  "Manufacturer": "Siemens",
  "ManufacturersModelName": "Prisma",
  "Modality": "MR",
  "MultibandAccelerationFactor": 8,
  "PartialFourier": 1,
  "PatientPosition": "HFS",
  "PercentPhaseFOV": 100,
  "PercentSampling": 100,
  "PhaseEncodingDirection": "j-",
  "PhaseEncodingSteps": 82,
  "PhaseResolution": 1,
  "PixelBandwidth": 3050,
  "ProcedureStepDescription": "Wager_Wager^1076_spacetop",
  "ProtocolName": "func_run-06_task-social_acq-ap-mb8",
  "PulseSequenceDetails": "%CustomerSeq%\\cmrr_mbep2d_bold",
  "ReceiveCoilActiveElements": "HEA;HEP",
  "ReceiveCoilName": "Head_32",
  "ReconMatrixPE": 82,
  "RepetitionTime": 0.46,
  "SAR": 0.085361,
  "ScanOptions": "FS",
  "ScanningSequence": "EP",
  "SequenceName": "epfid2d1_82",
  "SequenceVariant": "SK\\SS",
  "SeriesDescription": "func_run-06_task-social_acq-ap-mb8",
  "SeriesNumber": 24,
  "ShimSetting": [4241, -7815, -7237, 408, -73, -87, 92, 56],
  "SliceThickness": 2.7,
  "SliceTiming": [0, 0.2525, 0.0625, 0.315, 0.125, 0.3775, 0.1875, 0, 0.2525, 0.0625, 0.315, 0.125, 0.3775, 0.1875, 0, 0.2525, 0.0625, 0.315, 0.125, 0.3775, 0.1875, 0, 0.2525, 0.0625, 0.315, 0.125, 0.3775, 0.1875, 0, 0.2525, 0.0625, 0.315, 0.125, 0.3775, 0.1875, 0, 0.2525, 0.0625, 0.315, 0.125, 0.3775, 0.1875, 0, 0.2525, 0.0625, 0.315, 0.125, 0.3775, 0.1875, 0, 0.2525, 0.0625, 0.315, 0.125, 0.3775, 0.1875],
  "SoftwareVersions": "syngo MR E11",
  "SpacingBetweenSlices": 2.7,
  "StationName": "AWP66112",
  "TaskName": "social",
  "TotalReadoutTime": 0.03969,
  "TxRefAmp": 231.217,
  "WipMemBlock": "7cd72eee-3c7a-42b7-923a-a70e96f9badf||Sequence: R016 ve11e/master r/434b28f1; Aug  7 2019 18:53:46 by eja",
  "dcmmeta_affine": [
    [-2.66363787651062, 0.21103623509407043, 0.24360162019729614, 99.4771957397461],
    [0.2418893724679947, 2.648635149002075, 0.35483095049858093, -121.42250061035156],
    [0.2112331986427307, -0.37187620997428894, 2.6654744148254395, -62.1318244934082],
    [0.0, 0.0, 0.0, 1.0]
],
  "dcmmeta_reorient_transform": [
    [0.0, -1.0, 0.0, 81.0],
    [1.0, 0.0, 0.0, 0.0],
    [0.0, 0.0, 1.0, 0.0],
    [0.0, 0.0, 0.0, 1.0]
],
  "dcmmeta_shape": [82, 82, 56, 872],
  "dcmmeta_slice_dim": 2,
  "dcmmeta_version": 0.6,
  "global": {
    "const": {
      "AccessionNumber": "A004510",
      "AcquisitionMatrix": [82, 0, 0, 82],
      "AngioFlag": "N",
      "BitsAllocated": 16,
      "BitsStored": 16,
      "BodyPartExamined": "BRAIN",
      "Columns": 656,
      "EchoNumbers": 1,
      "EchoTime": 27.2,
      "EchoTrainLength": 82,
      "FlipAngle": 44.0,
      "HighBit": 15,
      "ImageOrientationPatient": [0.99281046072485, -0.0901587653952, 0.07873237007565, 0.07865895958717, 0.98721855630313, 0.13860840583248],
      "ImagePositionPatient": [-941.60260384622, -783.85300490294, -259.60620083571],
      "ImageType": [
        "ORIGINAL",
        "PRIMARY",
        "M",
        "MB",
        "ND",
        "NORM",
        "MOSAIC"
],
      "ImagedNucleus": "1H",
      "ImagingFrequency": 123.259092,
      "InPlanePhaseEncodingDirection": "COL",
      "MRAcquisitionType": "2D",
      "MagneticFieldStrength": 3.0,
      "Manufacturer": "SIEMENS",
      "ManufacturerModelName": "Prisma",
      "Modality": "MR",
      "NumberOfAverages": 1.0,
      "NumberOfPhaseEncodingSteps": 82,
      "PercentPhaseFieldOfView": 100.0,
      "PercentSampling": 100.0,
      "PerformedProcedureStepStartTime": "182409.256000",
      "PhotometricInterpretation": "MONOCHROME2",
      "PixelBandwidth": 3050.0,
      "PixelRepresentation": 0,
      "PixelSpacing": [2.6829268932343, 2.6829268932343],
      "ProtocolName": "func_run-06_task-social_acq-ap-mb8",
      "RepetitionTime": 460.0,
      "Rows": 656,
      "SAR": 0.08536103499214,
      "SamplesPerPixel": 1,
      "ScanOptions": "FS",
      "ScanningSequence": "EP",
      "SequenceName": "epfid2d1_82",
      "SequenceVariant": [
        "SK",
        "SS"
],
      "SeriesDescription": "func_run-06_task-social_acq-ap-mb8",
      "SeriesNumber": 24,
      "SeriesTime": "192915.868000",
      "SliceLocation": -68.319422554803,
      "SliceThickness": 2.7000000476837,
      "SmallestImagePixelValue": 0,
      "SoftwareVersions": "syngo MR E11",
      "SpacingBetweenSlices": 2.7000000532276,
      "SpecificCharacterSet": "ISO_IR 100",
      "StudyID": "1",
      "StudyTime": "182409.166000",
      "TransmitCoilName": "Body",
      "VariableFlipAngleFlag": "N",
      "WindowCenterWidthExplanation": "Algo1"
    },
    "slices": {}
  },
  "time": {
    "samples": {
      "AcquisitionNumber": [1, 2, 3, 4, 5, 6, 7, 8, 9, 10, 11, 12, 13, 14, 15, 16, 17, 18, 19, 20, 21, 22, 23, 24, 25, 26, 27, 28, 29, 30, 31, 32, 33, 34, 35, 36, 37, 38, 39, 40, 41, 42, 43, 44, 45, 46, 47, 48, 49, 50, 51, 52, 53, 54, 55, 56, 57, 58, 59, 60, 61, 62, 63, 64, 65, 66, 67, 68, 69, 70, 71, 72, 73, 74, 75, 76, 77, 78, 79, 80, 81, 82, 83, 84, 85, 86, 87, 88, 89, 90, 91, 92, 93, 94, 95, 96, 97, 98, 99, 100, 101, 102, 103, 104, 105, 106, 107, 108, 109, 110, 111, 112, 113, 114, 115, 116, 117, 118, 119, 120, 121, 122, 123, 124, 125, 126, 127, 128, 129, 130, 131, 132, 133, 134, 135, 136, 137, 138, 139, 140, 141, 142, 143, 144, 145, 146, 147, 148, 149, 150, 151, 152, 153, 154, 155, 156, 157, 158, 159, 160, 161, 162, 163, 164, 165, 166, 167, 168, 169, 170, 171, 172, 173, 174, 175, 176, 177, 178, 179, 180, 181, 182, 183, 184, 185, 186, 187, 188, 189, 190, 191, 192, 193, 194, 195, 196, 197, 198, 199, 200, 201, 202, 203, 204, 205, 206, 207, 208, 209, 210, 211, 212, 213, 214, 215, 216, 217, 218, 219, 220, 221, 222, 223, 224, 225, 226, 227, 228, 229, 230, 231, 232, 233, 234, 235, 236, 237, 238, 239, 240, 241, 242, 243, 244, 245, 246, 247, 248, 249, 250, 251, 252, 253, 254, 255, 256, 257, 258, 259, 260, 261, 262, 263, 264, 265, 266, 267, 268, 269, 270, 271, 272, 273, 274, 275, 276, 277, 278, 279, 280, 281, 282, 283, 284, 285, 286, 287, 288, 289, 290, 291, 292, 293, 294, 295, 296, 297, 298, 299, 300, 301, 302, 303, 304, 305, 306, 307, 308, 309, 310, 311, 312, 313, 314, 315, 316, 317, 318, 319, 320, 321, 322, 323, 324, 325, 326, 327, 328, 329, 330, 331, 332, 333, 334, 335, 336, 337, 338, 339, 340, 341, 342, 343, 344, 345, 346, 347, 348, 349, 350, 351, 352, 353, 354, 355, 356, 357, 358, 359, 360, 361, 362, 363, 364, 365, 366, 367, 368, 369, 370, 371, 372, 373, 374, 375, 376, 377, 378, 379, 380, 381, 382, 383, 384, 385, 386, 387, 388, 389, 390, 391, 392, 393, 394, 395, 396, 397, 398, 399, 400, 401, 402, 403, 404, 405, 406, 407, 408, 409, 410, 411, 412, 413, 414, 415, 416, 417, 418, 419, 420, 421, 422, 423, 424, 425, 426, 427, 428, 429, 430, 431, 432, 433, 434, 435, 436, 437, 438, 439, 440, 441, 442, 443, 444, 445, 446, 447, 448, 449, 450, 451, 452, 453, 454, 455, 456, 457, 458, 459, 460, 461, 462, 463, 464, 465, 466, 467, 468, 469, 470, 471, 472, 473, 474, 475, 476, 477, 478, 479, 480, 481, 482, 483, 484, 485, 486, 487, 488, 489, 490, 491, 492, 493, 494, 495, 496, 497, 498, 499, 500, 501, 502, 503, 504, 505, 506, 507, 508, 509, 510, 511, 512, 513, 514, 515, 516, 517, 518, 519, 520, 521, 522, 523, 524, 525, 526, 527, 528, 529, 530, 531, 532, 533, 534, 535, 536, 537, 538, 539, 540, 541, 542, 543, 544, 545, 546, 547, 548, 549, 550, 551, 552, 553, 554, 555, 556, 557, 558, 559, 560, 561, 562, 563, 564, 565, 566, 567, 568, 569, 570, 571, 572, 573, 574, 575, 576, 577, 578, 579, 580, 581, 582, 583, 584, 585, 586, 587, 588, 589, 590, 591, 592, 593, 594, 595, 596, 597, 598, 599, 600, 601, 602, 603, 604, 605, 606, 607, 608, 609, 610, 611, 612, 613, 614, 615, 616, 617, 618, 619, 620, 621, 622, 623, 624, 625, 626, 627, 628, 629, 630, 631, 632, 633, 634, 635, 636, 637, 638, 639, 640, 641, 642, 643, 644, 645, 646, 647, 648, 649, 650, 651, 652, 653, 654, 655, 656, 657, 658, 659, 660, 661, 662, 663, 664, 665, 666, 667, 668, 669, 670, 671, 672, 673, 674, 675, 676, 677, 678, 679, 680, 681, 682, 683, 684, 685, 686, 687, 688, 689, 690, 691, 692, 693, 694, 695, 696, 697, 698, 699, 700, 701, 702, 703, 704, 705, 706, 707, 708, 709, 710, 711, 712, 713, 714, 715, 716, 717, 718, 719, 720, 721, 722, 723, 724, 725, 726, 727, 728, 729, 730, 731, 732, 733, 734, 735, 736, 737, 738, 739, 740, 741, 742, 743, 744, 745, 746, 747, 748, 749, 750, 751, 752, 753, 754, 755, 756, 757, 758, 759, 760, 761, 762, 763, 764, 765, 766, 767, 768, 769, 770, 771, 772, 773, 774, 775, 776, 777, 778, 779, 780, 781, 782, 783, 784, 785, 786, 787, 788, 789, 790, 791, 792, 793, 794, 795, 796, 797, 798, 799, 800, 801, 802, 803, 804, 805, 806, 807, 808, 809, 810, 811, 812, 813, 814, 815, 816, 817, 818, 819, 820, 821, 822, 823, 824, 825, 826, 827, 828, 829, 830, 831, 832, 833, 834, 835, 836, 837, 838, 839, 840, 841, 842, 843, 844, 845, 846, 847, 848, 849, 850, 851, 852, 853, 854, 855, 856, 857, 858, 859, 860, 861, 862, 863, 864, 865, 866, 867, 868, 869, 870, 871, 872],
      "AcquisitionTime": ["192852.555000", "192853.015000", "192853.475000", "192853.935000", "192854.395000", "192854.855000", "192855.315000", "192855.775000", "192856.235000", "192856.695000", "192857.155000", "192857.615000", "192858.075000", "192858.535000", "192858.995000", "192859.455000", "192859.915000", "192900.375000", "192900.835000", "192901.295000", "192901.755000", "192902.215000", "192902.675000", "192903.135000", "192903.595000", "192904.055000", "192904.515000", "192904.975000", "192905.435000", "192905.895000", "192906.355000", "192906.815000", "192907.275000", "192907.735000", "192908.195000", "192908.655000", "192909.115000", "192909.575000", "192910.035000", "192910.495000", "192910.955000", "192911.415000", "192911.875000", "192912.335000", "192912.795000", "192913.255000", "192913.715000", "192914.175000", "192914.635000", "192915.095000", "192915.555000", "192916.015000", "192916.475000", "192916.935000", "192917.395000", "192917.855000", "192918.315000", "192918.775000", "192919.235000", "192919.695000", "192920.155000", "192920.615000", "192921.075000", "192921.535000", "192921.995000", "192922.455000", "192922.915000", "192923.375000", "192923.835000", "192924.295000", "192924.755000", "192925.215000", "192925.675000", "192926.135000", "192926.595000", "192927.055000", "192927.515000", "192927.975000", "192928.435000", "192928.895000", "192929.355000", "192929.815000", "192930.275000", "192930.735000", "192931.195000", "192931.655000", "192932.115000", "192932.575000", "192933.035000", "192933.495000", "192933.955000", "192934.415000", "192934.875000", "192935.335000", "192935.795000", "192936.255000", "192936.715000", "192937.175000", "192937.635000", "192938.095000", "192938.555000", "192939.015000", "192939.475000", "192939.935000", "192940.395000", "192940.855000", "192941.315000", "192941.775000", "192942.235000", "192942.695000", "192943.155000", "192943.615000", "192944.075000", "192944.535000", "192944.995000", "192945.455000", "192945.915000", "192946.375000", "192946.835000", "192947.295000", "192947.755000", "192948.215000", "192948.675000", "192949.135000", "192949.595000", "192950.055000", "192950.515000", "192950.975000", "192951.435000", "192951.895000", "192952.355000", "192952.815000", "192953.275000", "192953.735000", "192954.195000", "192954.655000", "192955.115000", "192955.575000", "192956.035000", "192956.495000", "192956.955000", "192957.415000", "192957.875000", "192958.335000", "192958.795000", "192959.255000", "192959.715000", "193000.175000", "193000.635000", "193001.095000", "193001.555000", "193002.015000", "193002.475000", "193002.935000", "193003.395000", "193003.855000", "193004.315000", "193004.775000", "193005.235000", "193005.695000", "193006.155000", "193006.615000", "193007.075000", "193007.535000", "193007.995000", "193008.455000", "193008.915000", "193009.375000", "193009.835000", "193010.295000", "193010.755000", "193011.215000", "193011.675000", "193012.135000", "193012.595000", "193013.055000", "193013.515000", "193013.975000", "193014.435000", "193014.895000", "193015.355000", "193015.815000", "193016.275000", "193016.735000", "193017.195000", "193017.655000", "193018.115000", "193018.575000", "193019.035000", "193019.495000", "193019.955000", "193020.415000", "193020.875000", "193021.335000", "193021.795000", "193022.255000", "193022.715000", "193023.175000", "193023.635000", "193024.095000", "193024.555000", "193025.015000", "193025.475000", "193025.935000", "193026.395000", "193026.855000", "193027.315000", "193027.775000", "193028.235000", "193028.695000", "193029.155000", "193029.615000", "193030.075000", "193030.535000", "193030.995000", "193031.455000", "193031.915000", "193032.375000", "193032.835000", "193033.295000", "193033.755000", "193034.215000", "193034.675000", "193035.135000", "193035.595000", "193036.055000", "193036.515000", "193036.975000", "193037.435000", "193037.895000", "193038.355000", "193038.815000", "193039.275000", "193039.735000", "193040.195000", "193040.655000", "193041.115000", "193041.575000", "193042.035000", "193042.495000", "193042.955000", "193043.415000", "193043.875000", "193044.335000", "193044.795000", "193045.255000", "193045.715000", "193046.175000", "193046.635000", "193047.095000", "193047.555000", "193048.015000", "193048.475000", "193048.935000", "193049.395000", "193049.855000", "193050.315000", "193050.775000", "193051.235000", "193051.695000", "193052.155000", "193052.615000", "193053.075000", "193053.535000", "193053.995000", "193054.455000", "193054.915000", "193055.375000", "193055.835000", "193056.295000", "193056.755000", "193057.215000", "193057.675000", "193058.135000", "193058.595000", "193059.055000", "193059.515000", "193059.975000", "193100.435000", "193100.895000", "193101.355000", "193101.815000", "193102.275000", "193102.735000", "193103.195000", "193103.655000", "193104.115000", "193104.575000", "193105.035000", "193105.495000", "193105.955000", "193106.415000", "193106.875000", "193107.335000", "193107.795000", "193108.255000", "193108.715000", "193109.175000", "193109.635000", "193110.095000", "193110.555000", "193111.015000", "193111.475000", "193111.935000", "193112.395000", "193112.855000", "193113.315000", "193113.775000", "193114.235000", "193114.695000", "193115.155000", "193115.615000", "193116.075000", "193116.535000", "193116.995000", "193117.455000", "193117.915000", "193118.375000", "193118.835000", "193119.295000", "193119.755000", "193120.215000", "193120.675000", "193121.135000", "193121.595000", "193122.055000", "193122.515000", "193122.975000", "193123.435000", "193123.895000", "193124.355000", "193124.815000", "193125.275000", "193125.735000", "193126.195000", "193126.655000", "193127.115000", "193127.575000", "193128.035000", "193128.495000", "193128.955000", "193129.415000", "193129.875000", "193130.335000", "193130.795000", "193131.255000", "193131.715000", "193132.175000", "193132.635000", "193133.095000", "193133.555000", "193134.015000", "193134.475000", "193134.935000", "193135.395000", "193135.855000", "193136.315000", "193136.775000", "193137.235000", "193137.695000", "193138.155000", "193138.615000", "193139.075000", "193139.535000", "193139.995000", "193140.455000", "193140.915000", "193141.375000", "193141.835000", "193142.295000", "193142.755000", "193143.215000", "193143.675000", "193144.135000", "193144.595000", "193145.055000", "193145.515000", "193145.975000", "193146.435000", "193146.895000", "193147.355000", "193147.815000", "193148.275000", "193148.735000", "193149.195000", "193149.655000", "193150.115000", "193150.575000", "193151.035000", "193151.495000", "193151.955000", "193152.415000", "193152.875000", "193153.335000", "193153.795000", "193154.255000", "193154.715000", "193155.175000", "193155.635000", "193156.095000", "193156.555000", "193157.015000", "193157.475000", "193157.935000", "193158.395000", "193158.855000", "193159.315000", "193159.775000", "193200.235000", "193200.695000", "193201.155000", "193201.615000", "193202.075000", "193202.535000", "193202.995000", "193203.455000", "193203.915000", "193204.375000", "193204.835000", "193205.295000", "193205.755000", "193206.215000", "193206.675000", "193207.135000", "193207.595000", "193208.055000", "193208.515000", "193208.975000", "193209.435000", "193209.895000", "193210.355000", "193210.815000", "193211.275000", "193211.735000", "193212.195000", "193212.655000", "193213.115000", "193213.575000", "193214.035000", "193214.495000", "193214.955000", "193215.415000", "193215.875000", "193216.335000", "193216.795000", "193217.255000", "193217.715000", "193218.175000", "193218.635000", "193219.095000", "193219.555000", "193220.015000", "193220.475000", "193220.935000", "193221.395000", "193221.855000", "193222.315000", "193222.775000", "193223.235000", "193223.695000", "193224.155000", "193224.615000", "193225.075000", "193225.535000", "193225.995000", "193226.455000", "193226.915000", "193227.375000", "193227.835000", "193228.295000", "193228.755000", "193229.215000", "193229.675000", "193230.135000", "193230.595000", "193231.055000", "193231.515000", "193231.975000", "193232.435000", "193232.895000", "193233.355000", "193233.815000", "193234.275000", "193234.735000", "193235.195000", "193235.655000", "193236.115000", "193236.575000", "193237.035000", "193237.495000", "193237.955000", "193238.415000", "193238.875000", "193239.335000", "193239.795000", "193240.255000", "193240.715000", "193241.175000", "193241.635000", "193242.095000", "193242.555000", "193243.015000", "193243.475000", "193243.935000", "193244.395000", "193244.855000", "193245.315000", "193245.775000", "193246.235000", "193246.695000", "193247.155000", "193247.615000", "193248.075000", "193248.535000", "193248.995000", "193249.455000", "193249.915000", "193250.375000", "193250.835000", "193251.295000", "193251.755000", "193252.215000", "193252.675000", "193253.135000", "193253.595000", "193254.055000", "193254.515000", "193254.975000", "193255.435000", "193255.895000", "193256.355000", "193256.815000", "193257.275000", "193257.735000", "193258.195000", "193258.655000", "193259.115000", "193259.575000", "193300.035000", "193300.495000", "193300.955000", "193301.415000", "193301.875000", "193302.335000", "193302.795000", "193303.255000", "193303.715000", "193304.175000", "193304.635000", "193305.095000", "193305.555000", "193306.015000", "193306.475000", "193306.935000", "193307.395000", "193307.855000", "193308.315000", "193308.775000", "193309.235000", "193309.695000", "193310.155000", "193310.615000", "193311.075000", "193311.535000", "193311.995000", "193312.455000", "193312.915000", "193313.375000", "193313.835000", "193314.295000", "193314.755000", "193315.215000", "193315.675000", "193316.135000", "193316.595000", "193317.055000", "193317.515000", "193317.975000", "193318.435000", "193318.895000", "193319.355000", "193319.815000", "193320.275000", "193320.735000", "193321.195000", "193321.655000", "193322.115000", "193322.575000", "193323.035000", "193323.495000", "193323.955000", "193324.415000", "193324.875000", "193325.335000", "193325.795000", "193326.255000", "193326.715000", "193327.175000", "193327.635000", "193328.095000", "193328.555000", "193329.015000", "193329.475000", "193329.935000", "193330.395000", "193330.855000", "193331.315000", "193331.775000", "193332.235000", "193332.695000", "193333.155000", "193333.615000", "193334.075000", "193334.535000", "193334.995000", "193335.455000", "193335.915000", "193336.375000", "193336.835000", "193337.295000", "193337.755000", "193338.215000", "193338.675000", "193339.135000", "193339.595000", "193340.055000", "193340.515000", "193340.975000", "193341.435000", "193341.895000", "193342.355000", "193342.815000", "193343.275000", "193343.735000", "193344.195000", "193344.655000", "193345.115000", "193345.575000", "193346.035000", "193346.495000", "193346.955000", "193347.415000", "193347.875000", "193348.335000", "193348.795000", "193349.255000", "193349.715000", "193350.175000", "193350.635000", "193351.095000", "193351.555000", "193352.015000", "193352.475000", "193352.935000", "193353.395000", "193353.855000", "193354.315000", "193354.775000", "193355.235000", "193355.695000", "193356.155000", "193356.615000", "193357.075000", "193357.535000", "193357.995000", "193358.455000", "193358.915000", "193359.375000", "193359.835000", "193400.295000", "193400.755000", "193401.215000", "193401.675000", "193402.135000", "193402.595000", "193403.055000", "193403.515000", "193403.975000", "193404.435000", "193404.895000", "193405.355000", "193405.815000", "193406.275000", "193406.735000", "193407.195000", "193407.655000", "193408.115000", "193408.575000", "193409.035000", "193409.495000", "193409.955000", "193410.415000", "193410.875000", "193411.335000", "193411.795000", "193412.255000", "193412.715000", "193413.175000", "193413.635000", "193414.095000", "193414.555000", "193415.015000", "193415.475000", "193415.935000", "193416.395000", "193416.855000", "193417.315000", "193417.775000", "193418.235000", "193418.695000", "193419.155000", "193419.615000", "193420.075000", "193420.535000", "193420.995000", "193421.455000", "193421.915000", "193422.375000", "193422.835000", "193423.295000", "193423.755000", "193424.215000", "193424.675000", "193425.135000", "193425.595000", "193426.055000", "193426.515000", "193426.975000", "193427.435000", "193427.895000", "193428.355000", "193428.815000", "193429.275000", "193429.735000", "193430.195000", "193430.655000", "193431.115000", "193431.575000", "193432.035000", "193432.495000", "193432.955000", "193433.415000", "193433.875000", "193434.335000", "193434.795000", "193435.255000", "193435.715000", "193436.175000", "193436.635000", "193437.095000", "193437.555000", "193438.015000", "193438.475000", "193438.935000", "193439.395000", "193439.855000", "193440.315000", "193440.775000", "193441.235000", "193441.695000", "193442.155000", "193442.615000", "193443.075000", "193443.535000", "193443.995000", "193444.455000", "193444.915000", "193445.375000", "193445.835000", "193446.295000", "193446.755000", "193447.215000", "193447.675000", "193448.135000", "193448.595000", "193449.055000", "193449.515000", "193449.975000", "193450.435000", "193450.895000", "193451.355000", "193451.815000", "193452.275000", "193452.735000", "193453.195000", "193453.655000", "193454.115000", "193454.575000", "193455.035000", "193455.495000", "193455.955000", "193456.415000", "193456.875000", "193457.335000", "193457.795000", "193458.255000", "193458.715000", "193459.175000", "193459.635000", "193500.095000", "193500.555000", "193501.015000", "193501.475000", "193501.935000", "193502.395000", "193502.855000", "193503.315000", "193503.775000", "193504.235000", "193504.695000", "193505.155000", "193505.615000", "193506.075000", "193506.535000", "193506.995000", "193507.455000", "193507.915000", "193508.375000", "193508.835000", "193509.295000", "193509.755000", "193510.215000", "193510.675000", "193511.135000", "193511.595000", "193512.055000", "193512.515000", "193512.975000", "193513.435000", "193513.895000", "193514.355000", "193514.815000", "193515.275000", "193515.735000", "193516.195000", "193516.655000", "193517.115000", "193517.575000", "193518.035000", "193518.495000", "193518.955000", "193519.415000", "193519.875000", "193520.335000", "193520.795000", "193521.255000", "193521.715000", "193522.175000", "193522.635000", "193523.095000", "193523.555000", "193524.015000", "193524.475000", "193524.935000", "193525.395000", "193525.855000", "193526.315000", "193526.775000", "193527.235000", "193527.695000", "193528.155000", "193528.615000", "193529.075000", "193529.535000", "193529.995000", "193530.455000", "193530.915000", "193531.375000", "193531.835000", "193532.295000", "193532.755000", "193533.215000"],
