{
  "AcquisitionMatrixPE": 82,
  "AcquisitionNumber": 1,
  "AcquisitionTime": "20:12:40.235000",
  "BandwidthPerPixelPhaseEncode": 24.888,
  "BaseResolution": 82,
  "BodyPartExamined": "BRAIN",
  "ConsistencyInfo": "N4_VE11E_LATEST_20181129",
  "ConversionSoftware": "dcm2niix",
  "ConversionSoftwareVersion": "v1.0.20201102",
  "DerivedVendorReportedEchoSpacing": 0.00049,
  "DeviceSerialNumber": "66112",
  "DwellTime": 2e-06,
  "EchoTime": 0.0272,
  "EchoTrainLength": 82,
  "EffectiveEchoSpacing": 0.00049,
  "FlipAngle": 44,
  "ImageComments": "Unaliased MB8/PE3",
  "ImageOrientationPatientDICOM": [0.991853, -0.0956694, 0.0841151, 0.0834626, 0.986871, 0.138272],
  "ImageType": [
    "ORIGINAL",
    "PRIMARY",
    "M",
    "MB",
    "ND",
    "NORM",
    "MOSAIC"
],
  "ImagingFrequency": 123.259,
  "InPlanePhaseEncodingDirectionDICOM": "COL",
  "InstitutionAddress": "Maynard 3,Hanover,NH,US,03755",
  "InstitutionName": "Dartmouth College - PBS",
  "InstitutionalDepartmentName": "Department",
  "MRAcquisitionType": "2D",
  "MagneticFieldStrength": 3,
  "Manufacturer": "Siemens",
  "ManufacturersModelName": "Prisma",
  "Modality": "MR",
  "MultibandAccelerationFactor": 8,
  "PartialFourier": 1,
  "PatientPosition": "HFS",
  "PercentPhaseFOV": 100,
  "PercentSampling": 100,
  "PhaseEncodingDirection": "j-",
  "PhaseEncodingSteps": 82,
  "PhaseResolution": 1,
  "PixelBandwidth": 3050,
  "ProcedureStepDescription": "Wager_Wager^1076_spacetop",
  "ProtocolName": "func_run-03_task-alignvideo_acq-ap-mb8",
  "PulseSequenceDetails": "%CustomerSeq%\\cmrr_mbep2d_bold",
  "ReceiveCoilActiveElements": "HEA;HEP",
  "ReceiveCoilName": "Head_32",
  "ReconMatrixPE": 82,
  "RepetitionTime": 0.46,
  "SAR": 0.0854573,
  "ScanOptions": "FS",
  "ScanningSequence": "EP",
  "SequenceName": "epfid2d1_82",
  "SequenceVariant": "SK\\SS",
  "SeriesDescription": "func_run-03_task-alignvideo_acq-ap-mb8",
  "SeriesNumber": 38,
  "ShimSetting": [4241, -7815, -7237, 408, -72, -86, 92, 57],
  "SliceThickness": 2.7,
  "SliceTiming": [0, 0.2525, 0.065, 0.315, 0.1275, 0.3775, 0.19, 0, 0.2525, 0.065, 0.315, 0.1275, 0.3775, 0.19, 0, 0.2525, 0.065, 0.315, 0.1275, 0.3775, 0.19, 0, 0.2525, 0.065, 0.315, 0.1275, 0.3775, 0.19, 0, 0.2525, 0.065, 0.315, 0.1275, 0.3775, 0.19, 0, 0.2525, 0.065, 0.315, 0.1275, 0.3775, 0.19, 0, 0.2525, 0.065, 0.315, 0.1275, 0.3775, 0.19, 0, 0.2525, 0.065, 0.315, 0.1275, 0.3775, 0.19],
  "SoftwareVersions": "syngo MR E11",
  "SpacingBetweenSlices": 2.7,
  "StationName": "AWP66112",
  "TaskName": "alignvideo",
  "TotalReadoutTime": 0.03969,
  "TxRefAmp": 231.217,
  "WipMemBlock": "49c8d1a8-b368-4b73-87a5-b475d3df1e6f||Sequence: R016 ve11e/master r/434b28f1; Aug  7 2019 18:53:46 by eja",
  "dcmmeta_affine": [
    [-2.6610686779022217, 0.2239239364862442, 0.25984570384025574, 98.66255950927734],
    [0.2566738724708557, 2.6477034091949463, 0.35133740305900574, -122.24143981933594],
    [0.22567464411258698, -0.37097352743148804, 2.664402723312378, -62.61309051513672],
    [0.0, 0.0, 0.0, 1.0]
],
  "dcmmeta_reorient_transform": [
    [0.0, -1.0, 0.0, 81.0],
    [1.0, 0.0, 0.0, 0.0],
    [0.0, 0.0, 1.0, 0.0],
    [0.0, 0.0, 0.0, 1.0]
],
  "dcmmeta_shape": [82, 82, 56, 1065],
  "dcmmeta_slice_dim": 2,
  "dcmmeta_version": 0.6,
  "global": {
    "const": {
      "AccessionNumber": "A004510",
      "AcquisitionMatrix": [82, 0, 0, 82],
      "AngioFlag": "N",
      "BitsAllocated": 16,
      "BitsStored": 16,
      "BodyPartExamined": "BRAIN",
      "Columns": 656,
      "EchoNumbers": 1,
      "EchoTime": 27.2,
      "EchoTrainLength": 82,
      "FlipAngle": 44.0,
      "HighBit": 15,
      "ImageOrientationPatient": [0.9918528252859, -0.0956693504636, 0.08411508993186, 0.0834625583497, 0.98687125271943, 0.13827194910649],
      "ImagePositionPatient": [-944.79326145428, -778.44801985079, -263.89997035751],
      "ImageType": [
        "ORIGINAL",
        "PRIMARY",
        "M",
        "MB",
        "ND",
        "NORM",
        "MOSAIC"
],
      "ImagedNucleus": "1H",
      "ImagingFrequency": 123.259104,
      "InPlanePhaseEncodingDirection": "COL",
      "MRAcquisitionType": "2D",
      "MagneticFieldStrength": 3.0,
      "Manufacturer": "SIEMENS",
      "ManufacturerModelName": "Prisma",
      "Modality": "MR",
      "NumberOfAverages": 1.0,
      "NumberOfPhaseEncodingSteps": 82,
      "PercentPhaseFieldOfView": 100.0,
      "PercentSampling": 100.0,
      "PerformedProcedureStepStartTime": "182409.256000",
      "PhotometricInterpretation": "MONOCHROME2",
      "PixelBandwidth": 3050.0,
      "PixelRepresentation": 0,
      "PixelSpacing": [2.6829268932343, 2.6829268932343],
      "ProtocolName": "func_run-03_task-alignvideo_acq-ap-mb8",
      "RepetitionTime": 460.0,
      "Rows": 656,
      "SAR": 0.08545732923102,
      "SamplesPerPixel": 1,
      "ScanOptions": "FS",
      "ScanningSequence": "EP",
      "SequenceName": "epfid2d1_82",
      "SequenceVariant": [
        "SK",
        "SS"
],
      "SeriesDescription": "func_run-03_task-alignvideo_acq-ap-mb8",
      "SeriesNumber": 38,
      "SeriesTime": "201255.959000",
      "SliceLocation": -68.199051634023,
      "SliceThickness": 2.7000000476837,
      "SmallestImagePixelValue": 0,
      "SoftwareVersions": "syngo MR E11",
      "SpacingBetweenSlices": 2.6999999767835,
      "SpecificCharacterSet": "ISO_IR 100",
      "StudyID": "1",
      "StudyTime": "182409.166000",
      "TransmitCoilName": "Body",
      "VariableFlipAngleFlag": "N",
      "WindowCenterWidthExplanation": "Algo1"
    },
    "slices": {}
  },
  "time": {
    "samples": {
      "AcquisitionNumber": [1, 2, 3, 4, 5, 6, 7, 8, 9, 10, 11, 12, 13, 14, 15, 16, 17, 18, 19, 20, 21, 22, 23, 24, 25, 26, 27, 28, 29, 30, 31, 32, 33, 34, 35, 36, 37, 38, 39, 40, 41, 42, 43, 44, 45, 46, 47, 48, 49, 50, 51, 52, 53, 54, 55, 56, 57, 58, 59, 60, 61, 62, 63, 64, 65, 66, 67, 68, 69, 70, 71, 72, 73, 74, 75, 76, 77, 78, 79, 80, 81, 82, 83, 84, 85, 86, 87, 88, 89, 90, 91, 92, 93, 94, 95, 96, 97, 98, 99, 100, 101, 102, 103, 104, 105, 106, 107, 108, 109, 110, 111, 112, 113, 114, 115, 116, 117, 118, 119, 120, 121, 122, 123, 124, 125, 126, 127, 128, 129, 130, 131, 132, 133, 134, 135, 136, 137, 138, 139, 140, 141, 142, 143, 144, 145, 146, 147, 148, 149, 150, 151, 152, 153, 154, 155, 156, 157, 158, 159, 160, 161, 162, 163, 164, 165, 166, 167, 168, 169, 170, 171, 172, 173, 174, 175, 176, 177, 178, 179, 180, 181, 182, 183, 184, 185, 186, 187, 188, 189, 190, 191, 192, 193, 194, 195, 196, 197, 198, 199, 200, 201, 202, 203, 204, 205, 206, 207, 208, 209, 210, 211, 212, 213, 214, 215, 216, 217, 218, 219, 220, 221, 222, 223, 224, 225, 226, 227, 228, 229, 230, 231, 232, 233, 234, 235, 236, 237, 238, 239, 240, 241, 242, 243, 244, 245, 246, 247, 248, 249, 250, 251, 252, 253, 254, 255, 256, 257, 258, 259, 260, 261, 262, 263, 264, 265, 266, 267, 268, 269, 270, 271, 272, 273, 274, 275, 276, 277, 278, 279, 280, 281, 282, 283, 284, 285, 286, 287, 288, 289, 290, 291, 292, 293, 294, 295, 296, 297, 298, 299, 300, 301, 302, 303, 304, 305, 306, 307, 308, 309, 310, 311, 312, 313, 314, 315, 316, 317, 318, 319, 320, 321, 322, 323, 324, 325, 326, 327, 328, 329, 330, 331, 332, 333, 334, 335, 336, 337, 338, 339, 340, 341, 342, 343, 344, 345, 346, 347, 348, 349, 350, 351, 352, 353, 354, 355, 356, 357, 358, 359, 360, 361, 362, 363, 364, 365, 366, 367, 368, 369, 370, 371, 372, 373, 374, 375, 376, 377, 378, 379, 380, 381, 382, 383, 384, 385, 386, 387, 388, 389, 390, 391, 392, 393, 394, 395, 396, 397, 398, 399, 400, 401, 402, 403, 404, 405, 406, 407, 408, 409, 410, 411, 412, 413, 414, 415, 416, 417, 418, 419, 420, 421, 422, 423, 424, 425, 426, 427, 428, 429, 430, 431, 432, 433, 434, 435, 436, 437, 438, 439, 440, 441, 442, 443, 444, 445, 446, 447, 448, 449, 450, 451, 452, 453, 454, 455, 456, 457, 458, 459, 460, 461, 462, 463, 464, 465, 466, 467, 468, 469, 470, 471, 472, 473, 474, 475, 476, 477, 478, 479, 480, 481, 482, 483, 484, 485, 486, 487, 488, 489, 490, 491, 492, 493, 494, 495, 496, 497, 498, 499, 500, 501, 502, 503, 504, 505, 506, 507, 508, 509, 510, 511, 512, 513, 514, 515, 516, 517, 518, 519, 520, 521, 522, 523, 524, 525, 526, 527, 528, 529, 530, 531, 532, 533, 534, 535, 536, 537, 538, 539, 540, 541, 542, 543, 544, 545, 546, 547, 548, 549, 550, 551, 552, 553, 554, 555, 556, 557, 558, 559, 560, 561, 562, 563, 564, 565, 566, 567, 568, 569, 570, 571, 572, 573, 574, 575, 576, 577, 578, 579, 580, 581, 582, 583, 584, 585, 586, 587, 588, 589, 590, 591, 592, 593, 594, 595, 596, 597, 598, 599, 600, 601, 602, 603, 604, 605, 606, 607, 608, 609, 610, 611, 612, 613, 614, 615, 616, 617, 618, 619, 620, 621, 622, 623, 624, 625, 626, 627, 628, 629, 630, 631, 632, 633, 634, 635, 636, 637, 638, 639, 640, 641, 642, 643, 644, 645, 646, 647, 648, 649, 650, 651, 652, 653, 654, 655, 656, 657, 658, 659, 660, 661, 662, 663, 664, 665, 666, 667, 668, 669, 670, 671, 672, 673, 674, 675, 676, 677, 678, 679, 680, 681, 682, 683, 684, 685, 686, 687, 688, 689, 690, 691, 692, 693, 694, 695, 696, 697, 698, 699, 700, 701, 702, 703, 704, 705, 706, 707, 708, 709, 710, 711, 712, 713, 714, 715, 716, 717, 718, 719, 720, 721, 722, 723, 724, 725, 726, 727, 728, 729, 730, 731, 732, 733, 734, 735, 736, 737, 738, 739, 740, 741, 742, 743, 744, 745, 746, 747, 748, 749, 750, 751, 752, 753, 754, 755, 756, 757, 758, 759, 760, 761, 762, 763, 764, 765, 766, 767, 768, 769, 770, 771, 772, 773, 774, 775, 776, 777, 778, 779, 780, 781, 782, 783, 784, 785, 786, 787, 788, 789, 790, 791, 792, 793, 794, 795, 796, 797, 798, 799, 800, 801, 802, 803, 804, 805, 806, 807, 808, 809, 810, 811, 812, 813, 814, 815, 816, 817, 818, 819, 820, 821, 822, 823, 824, 825, 826, 827, 828, 829, 830, 831, 832, 833, 834, 835, 836, 837, 838, 839, 840, 841, 842, 843, 844, 845, 846, 847, 848, 849, 850, 851, 852, 853, 854, 855, 856, 857, 858, 859, 860, 861, 862, 863, 864, 865, 866, 867, 868, 869, 870, 871, 872, 873, 874, 875, 876, 877, 878, 879, 880, 881, 882, 883, 884, 885, 886, 887, 888, 889, 890, 891, 892, 893, 894, 895, 896, 897, 898, 899, 900, 901, 902, 903, 904, 905, 906, 907, 908, 909, 910, 911, 912, 913, 914, 915, 916, 917, 918, 919, 920, 921, 922, 923, 924, 925, 926, 927, 928, 929, 930, 931, 932, 933, 934, 935, 936, 937, 938, 939, 940, 941, 942, 943, 944, 945, 946, 947, 948, 949, 950, 951, 952, 953, 954, 955, 956, 957, 958, 959, 960, 961, 962, 963, 964, 965, 966, 967, 968, 969, 970, 971, 972, 973, 974, 975, 976, 977, 978, 979, 980, 981, 982, 983, 984, 985, 986, 987, 988, 989, 990, 991, 992, 993, 994, 995, 996, 997, 998, 999, 1000, 1001, 1002, 1003, 1004, 1005, 1006, 1007, 1008, 1009, 1010, 1011, 1012, 1013, 1014, 1015, 1016, 1017, 1018, 1019, 1020, 1021, 1022, 1023, 1024, 1025, 1026, 1027, 1028, 1029, 1030, 1031, 1032, 1033, 1034, 1035, 1036, 1037, 1038, 1039, 1040, 1041, 1042, 1043, 1044, 1045, 1046, 1047, 1048, 1049, 1050, 1051, 1052, 1053, 1054, 1055, 1056, 1057, 1058, 1059, 1060, 1061, 1062, 1063, 1064, 1065],
      "AcquisitionTime": ["201240.235000", "201240.695000", "201241.155000", "201241.615000", "201242.075000", "201242.535000", "201242.995000", "201243.455000", "201243.915000", "201244.375000", "201244.835000", "201245.295000", "201245.755000", "201246.215000", "201246.675000", "201247.135000", "201247.595000", "201248.055000", "201248.515000", "201248.975000", "201249.435000", "201249.895000", "201250.355000", "201250.815000", "201251.275000", "201251.735000", "201252.195000", "201252.655000", "201253.115000", "201253.575000", "201254.035000", "201254.495000", "201254.955000", "201255.415000", "201255.875000", "201256.335000", "201256.795000", "201257.255000", "201257.715000", "201258.175000", "201258.635000", "201259.095000", "201259.555000", "201300.015000", "201300.475000", "201300.935000", "201301.395000", "201301.855000", "201302.315000", "201302.775000", "201303.235000", "201303.695000", "201304.155000", "201304.615000", "201305.075000", "201305.535000", "201305.995000", "201306.455000", "201306.915000", "201307.375000", "201307.835000", "201308.295000", "201308.755000", "201309.215000", "201309.675000", "201310.135000", "201310.595000", "201311.055000", "201311.515000", "201311.975000", "201312.435000", "201312.895000", "201313.355000", "201313.815000", "201314.275000", "201314.735000", "201315.195000", "201315.655000", "201316.115000", "201316.575000", "201317.035000", "201317.495000", "201317.955000", "201318.415000", "201318.875000", "201319.335000", "201319.795000", "201320.255000", "201320.715000", "201321.175000", "201321.635000", "201322.095000", "201322.555000", "201323.015000", "201323.475000", "201323.935000", "201324.395000", "201324.855000", "201325.315000", "201325.775000", "201326.235000", "201326.695000", "201327.155000", "201327.615000", "201328.075000", "201328.535000", "201328.995000", "201329.455000", "201329.915000", "201330.375000", "201330.835000", "201331.295000", "201331.755000", "201332.215000", "201332.675000", "201333.135000", "201333.595000", "201334.055000", "201334.515000", "201334.975000", "201335.435000", "201335.895000", "201336.355000", "201336.815000", "201337.275000", "201337.735000", "201338.195000", "201338.655000", "201339.115000", "201339.575000", "201340.035000", "201340.495000", "201340.955000", "201341.415000", "201341.875000", "201342.335000", "201342.795000", "201343.255000", "201343.715000", "201344.175000", "201344.635000", "201345.095000", "201345.555000", "201346.015000", "201346.475000", "201346.935000", "201347.395000", "201347.855000", "201348.315000", "201348.775000", "201349.235000", "201349.695000", "201350.155000", "201350.615000", "201351.075000", "201351.535000", "201351.995000", "201352.455000", "201352.915000", "201353.375000", "201353.835000", "201354.295000", "201354.755000", "201355.215000", "201355.675000", "201356.135000", "201356.595000", "201357.055000", "201357.515000", "201357.975000", "201358.435000", "201358.895000", "201359.355000", "201359.815000", "201400.275000", "201400.735000", "201401.195000", "201401.655000", "201402.115000", "201402.575000", "201403.035000", "201403.495000", "201403.955000", "201404.415000", "201404.875000", "201405.335000", "201405.795000", "201406.255000", "201406.715000", "201407.175000", "201407.635000", "201408.095000", "201408.555000", "201409.015000", "201409.475000", "201409.935000", "201410.395000", "201410.855000", "201411.315000", "201411.775000", "201412.235000", "201412.695000", "201413.155000", "201413.615000", "201414.075000", "201414.535000", "201414.995000", "201415.455000", "201415.915000", "201416.375000", "201416.835000", "201417.295000", "201417.755000", "201418.215000", "201418.675000", "201419.135000", "201419.595000", "201420.055000", "201420.515000", "201420.975000", "201421.435000", "201421.895000", "201422.355000", "201422.815000", "201423.275000", "201423.735000", "201424.195000", "201424.655000", "201425.115000", "201425.575000", "201426.035000", "201426.495000", "201426.955000", "201427.415000", "201427.875000", "201428.335000", "201428.795000", "201429.255000", "201429.715000", "201430.175000", "201430.635000", "201431.095000", "201431.555000", "201432.015000", "201432.475000", "201432.935000", "201433.395000", "201433.855000", "201434.315000", "201434.775000", "201435.235000", "201435.695000", "201436.155000", "201436.615000", "201437.075000", "201437.535000", "201437.995000", "201438.455000", "201438.915000", "201439.375000", "201439.835000", "201440.295000", "201440.755000", "201441.215000", "201441.675000", "201442.135000", "201442.595000", "201443.055000", "201443.515000", "201443.975000", "201444.435000", "201444.895000", "201445.355000", "201445.815000", "201446.275000", "201446.735000", "201447.195000", "201447.655000", "201448.115000", "201448.575000", "201449.035000", "201449.495000", "201449.955000", "201450.415000", "201450.875000", "201451.335000", "201451.795000", "201452.255000", "201452.715000", "201453.175000", "201453.635000", "201454.095000", "201454.555000", "201455.015000", "201455.475000", "201455.935000", "201456.395000", "201456.855000", "201457.315000", "201457.775000", "201458.235000", "201458.695000", "201459.155000", "201459.615000", "201500.075000", "201500.535000", "201500.995000", "201501.455000", "201501.915000", "201502.375000", "201502.835000", "201503.295000", "201503.755000", "201504.215000", "201504.675000", "201505.135000", "201505.595000", "201506.055000", "201506.515000", "201506.975000", "201507.435000", "201507.895000", "201508.355000", "201508.815000", "201509.275000", "201509.735000", "201510.195000", "201510.655000", "201511.115000", "201511.575000", "201512.035000", "201512.495000", "201512.955000", "201513.415000", "201513.875000", "201514.335000", "201514.795000", "201515.255000", "201515.715000", "201516.175000", "201516.635000", "201517.095000", "201517.555000", "201518.015000", "201518.475000", "201518.935000", "201519.395000", "201519.855000", "201520.315000", "201520.775000", "201521.235000", "201521.695000", "201522.155000", "201522.615000", "201523.075000", "201523.535000", "201523.995000", "201524.455000", "201524.915000", "201525.375000", "201525.835000", "201526.295000", "201526.755000", "201527.215000", "201527.675000", "201528.135000", "201528.595000", "201529.055000", "201529.515000", "201529.975000", "201530.435000", "201530.895000", "201531.355000", "201531.815000", "201532.275000", "201532.735000", "201533.195000", "201533.655000", "201534.115000", "201534.575000", "201535.035000", "201535.495000", "201535.955000", "201536.415000", "201536.875000", "201537.335000", "201537.795000", "201538.255000", "201538.715000", "201539.175000", "201539.635000", "201540.095000", "201540.555000", "201541.015000", "201541.475000", "201541.935000", "201542.395000", "201542.855000", "201543.315000", "201543.775000", "201544.235000", "201544.695000", "201545.155000", "201545.615000", "201546.075000", "201546.535000", "201546.995000", "201547.455000", "201547.915000", "201548.375000", "201548.835000", "201549.295000", "201549.755000", "201550.215000", "201550.675000", "201551.135000", "201551.595000", "201552.055000", "201552.515000", "201552.975000", "201553.435000", "201553.895000", "201554.355000", "201554.815000", "201555.275000", "201555.735000", "201556.195000", "201556.655000", "201557.115000", "201557.575000", "201558.035000", "201558.495000", "201558.955000", "201559.415000", "201559.875000", "201600.335000", "201600.795000", "201601.255000", "201601.715000", "201602.175000", "201602.635000", "201603.095000", "201603.555000", "201604.015000", "201604.475000", "201604.935000", "201605.395000", "201605.855000", "201606.315000", "201606.775000", "201607.235000", "201607.695000", "201608.155000", "201608.615000", "201609.075000", "201609.535000", "201609.995000", "201610.455000", "201610.915000", "201611.375000", "201611.835000", "201612.295000", "201612.755000", "201613.215000", "201613.675000", "201614.135000", "201614.595000", "201615.055000", "201615.515000", "201615.975000", "201616.435000", "201616.895000", "201617.355000", "201617.815000", "201618.275000", "201618.735000", "201619.195000", "201619.655000", "201620.115000", "201620.575000", "201621.035000", "201621.495000", "201621.955000", "201622.415000", "201622.875000", "201623.335000", "201623.795000", "201624.255000", "201624.715000", "201625.175000", "201625.635000", "201626.095000", "201626.555000", "201627.015000", "201627.475000", "201627.935000", "201628.395000", "201628.855000", "201629.315000", "201629.775000", "201630.235000", "201630.695000", "201631.155000", "201631.615000", "201632.075000", "201632.535000", "201632.995000", "201633.455000", "201633.915000", "201634.375000", "201634.835000", "201635.295000", "201635.755000", "201636.215000", "201636.675000", "201637.135000", "201637.595000", "201638.055000", "201638.515000", "201638.975000", "201639.435000", "201639.895000", "201640.355000", "201640.815000", "201641.275000", "201641.735000", "201642.195000", "201642.655000", "201643.115000", "201643.575000", "201644.035000", "201644.495000", "201644.955000", "201645.415000", "201645.875000", "201646.335000", "201646.795000", "201647.255000", "201647.715000", "201648.175000", "201648.635000", "201649.095000", "201649.555000", "201650.015000", "201650.475000", "201650.935000", "201651.395000", "201651.855000", "201652.315000", "201652.775000", "201653.235000", "201653.695000", "201654.155000", "201654.615000", "201655.075000", "201655.535000", "201655.995000", "201656.455000", "201656.915000", "201657.375000", "201657.835000", "201658.295000", "201658.755000", "201659.215000", "201659.675000", "201700.135000", "201700.595000", "201701.055000", "201701.515000", "201701.975000", "201702.435000", "201702.895000", "201703.355000", "201703.815000", "201704.275000", "201704.735000", "201705.195000", "201705.655000", "201706.115000", "201706.575000", "201707.035000", "201707.495000", "201707.955000", "201708.415000", "201708.875000", "201709.335000", "201709.795000", "201710.255000", "201710.715000", "201711.175000", "201711.635000", "201712.095000", "201712.555000", "201713.015000", "201713.475000", "201713.935000", "201714.395000", "201714.855000", "201715.315000", "201715.775000", "201716.235000", "201716.695000", "201717.155000", "201717.615000", "201718.075000", "201718.535000", "201718.995000", "201719.455000", "201719.915000", "201720.375000", "201720.835000", "201721.295000", "201721.755000", "201722.215000", "201722.675000", "201723.135000", "201723.595000", "201724.055000", "201724.515000", "201724.975000", "201725.435000", "201725.895000", "201726.355000", "201726.815000", "201727.275000", "201727.735000", "201728.195000", "201728.655000", "201729.115000", "201729.575000", "201730.035000", "201730.495000", "201730.955000", "201731.415000", "201731.875000", "201732.335000", "201732.795000", "201733.255000", "201733.715000", "201734.175000", "201734.635000", "201735.095000", "201735.555000", "201736.015000", "201736.475000", "201736.935000", "201737.395000", "201737.855000", "201738.315000", "201738.775000", "201739.235000", "201739.695000", "201740.155000", "201740.615000", "201741.075000", "201741.535000", "201741.995000", "201742.455000", "201742.915000", "201743.375000", "201743.835000", "201744.295000", "201744.755000", "201745.215000", "201745.675000", "201746.135000", "201746.595000", "201747.055000", "201747.515000", "201747.975000", "201748.435000", "201748.895000", "201749.355000", "201749.815000", "201750.275000", "201750.735000", "201751.195000", "201751.655000", "201752.115000", "201752.575000", "201753.035000", "201753.495000", "201753.955000", "201754.415000", "201754.875000", "201755.335000", "201755.795000", "201756.255000", "201756.715000", "201757.175000", "201757.635000", "201758.095000", "201758.555000", "201759.015000", "201759.475000", "201759.935000", "201800.395000", "201800.855000", "201801.315000", "201801.775000", "201802.235000", "201802.695000", "201803.155000", "201803.615000", "201804.075000", "201804.535000", "201804.995000", "201805.455000", "201805.915000", "201806.375000", "201806.835000", "201807.295000", "201807.755000", "201808.215000", "201808.675000", "201809.135000", "201809.595000", "201810.055000", "201810.515000", "201810.975000", "201811.435000", "201811.895000", "201812.355000", "201812.815000", "201813.275000", "201813.735000", "201814.195000", "201814.655000", "201815.115000", "201815.575000", "201816.035000", "201816.495000", "201816.955000", "201817.415000", "201817.875000", "201818.335000", "201818.795000", "201819.255000", "201819.715000", "201820.175000", "201820.635000", "201821.095000", "201821.555000", "201822.015000", "201822.475000", "201822.935000", "201823.395000", "201823.855000", "201824.315000", "201824.775000", "201825.235000", "201825.695000", "201826.155000", "201826.615000", "201827.075000", "201827.535000", "201827.995000", "201828.455000", "201828.915000", "201829.375000", "201829.835000", "201830.295000", "201830.755000", "201831.215000", "201831.675000", "201832.135000", "201832.595000", "201833.055000", "201833.515000", "201833.975000", "201834.435000", "201834.895000", "201835.355000", "201835.815000", "201836.275000", "201836.735000", "201837.195000", "201837.655000", "201838.115000", "201838.575000", "201839.035000", "201839.495000", "201839.955000", "201840.415000", "201840.875000", "201841.335000", "201841.795000", "201842.255000", "201842.715000", "201843.175000", "201843.635000", "201844.095000", "201844.555000", "201845.015000", "201845.475000", "201845.935000", "201846.395000", "201846.855000", "201847.315000", "201847.775000", "201848.235000", "201848.695000", "201849.155000", "201849.615000", "201850.075000", "201850.535000", "201850.995000", "201851.455000", "201851.915000", "201852.375000", "201852.835000", "201853.295000", "201853.755000", "201854.215000", "201854.675000", "201855.135000", "201855.595000", "201856.055000", "201856.515000", "201856.975000", "201857.435000", "201857.895000", "201858.355000", "201858.815000", "201859.275000", "201859.735000", "201900.195000", "201900.655000", "201901.115000", "201901.575000", "201902.035000", "201902.495000", "201902.955000", "201903.415000", "201903.875000", "201904.335000", "201904.795000", "201905.255000", "201905.715000", "201906.175000", "201906.635000", "201907.095000", "201907.555000", "201908.015000", "201908.475000", "201908.935000", "201909.395000", "201909.855000", "201910.315000", "201910.775000", "201911.235000", "201911.695000", "201912.155000", "201912.615000", "201913.075000", "201913.535000", "201913.995000", "201914.455000", "201914.915000", "201915.375000", "201915.835000", "201916.295000", "201916.755000", "201917.215000", "201917.675000", "201918.135000", "201918.595000", "201919.055000", "201919.515000", "201919.975000", "201920.435000", "201920.895000", "201921.355000", "201921.815000", "201922.275000", "201922.735000", "201923.195000", "201923.655000", "201924.115000", "201924.575000", "201925.035000", "201925.495000", "201925.955000", "201926.415000", "201926.875000", "201927.335000", "201927.795000", "201928.255000", "201928.715000", "201929.175000", "201929.635000", "201930.095000", "201930.555000", "201931.015000", "201931.475000", "201931.935000", "201932.395000", "201932.855000", "201933.315000", "201933.775000", "201934.235000", "201934.695000", "201935.155000", "201935.615000", "201936.075000", "201936.535000", "201936.995000", "201937.455000", "201937.915000", "201938.375000", "201938.835000", "201939.295000", "201939.755000", "201940.215000", "201940.675000", "201941.135000", "201941.595000", "201942.055000", "201942.515000", "201942.975000", "201943.435000", "201943.895000", "201944.355000", "201944.815000", "201945.275000", "201945.735000", "201946.195000", "201946.655000", "201947.115000", "201947.575000", "201948.035000", "201948.495000", "201948.955000", "201949.415000", "201949.875000", "201950.335000", "201950.795000", "201951.255000", "201951.715000", "201952.175000", "201952.635000", "201953.095000", "201953.555000", "201954.015000", "201954.475000", "201954.935000", "201955.395000", "201955.855000", "201956.315000", "201956.775000", "201957.235000", "201957.695000", "201958.155000", "201958.615000", "201959.075000", "201959.535000", "201959.995000", "202000.455000", "202000.915000", "202001.375000", "202001.835000", "202002.295000", "202002.755000", "202003.215000", "202003.675000", "202004.135000", "202004.595000", "202005.055000", "202005.515000", "202005.975000", "202006.435000", "202006.895000", "202007.355000", "202007.815000", "202008.275000", "202008.735000", "202009.195000", "202009.655000", "202010.115000", "202010.575000", "202011.035000", "202011.495000", "202011.955000", "202012.415000", "202012.875000", "202013.335000", "202013.795000", "202014.255000", "202014.715000", "202015.175000", "202015.635000", "202016.095000", "202016.555000", "202017.015000", "202017.475000", "202017.935000", "202018.395000", "202018.855000", "202019.315000", "202019.775000", "202020.235000", "202020.695000", "202021.155000", "202021.615000", "202022.075000", "202022.535000", "202022.995000", "202023.455000", "202023.915000", "202024.375000", "202024.835000", "202025.295000", "202025.755000", "202026.215000", "202026.675000", "202027.135000", "202027.595000", "202028.055000", "202028.515000", "202028.975000", "202029.435000", "202029.895000", "202030.355000", "202030.815000", "202031.275000", "202031.735000", "202032.195000", "202032.655000", "202033.115000", "202033.575000", "202034.035000", "202034.495000", "202034.955000", "202035.415000", "202035.875000", "202036.335000", "202036.795000", "202037.255000", "202037.715000", "202038.175000", "202038.635000", "202039.095000", "202039.555000", "202040.015000", "202040.475000", "202040.935000", "202041.395000", "202041.855000", "202042.315000", "202042.775000", "202043.235000", "202043.695000", "202044.155000", "202044.615000", "202045.075000", "202045.535000", "202045.995000", "202046.455000", "202046.915000", "202047.375000", "202047.835000", "202048.295000", "202048.755000", "202049.215000", "202049.675000"],
