{
  "AcquisitionMatrixPE": 82,
  "AcquisitionNumber": 1,
  "AcquisitionTime": "16:30:24.822500",
  "BandwidthPerPixelPhaseEncode": 24.888,
  "BaseResolution": 82,
  "BodyPartExamined": "BRAIN",
  "ConsistencyInfo": "N4_VE11E_LATEST_20181129",
  "ConversionSoftware": "dcm2niix",
  "ConversionSoftwareVersion": "v1.0.20201102",
  "DerivedVendorReportedEchoSpacing": 0.00049,
  "DeviceSerialNumber": "66112",
  "DwellTime": 2e-06,
  "EchoTime": 0.0272,
  "EchoTrainLength": 82,
  "EffectiveEchoSpacing": 0.00049,
  "FlipAngle": 44,
  "ImageComments": "Unaliased MB8/PE3",
  "ImageOrientationPatientDICOM": [0.999151, 0.0192973, 0.0364089, -0.0261638, 0.979703, 0.198739],
  "ImageType": [
    "ORIGINAL",
    "PRIMARY",
    "M",
    "MB",
    "ND",
    "NORM",
    "MOSAIC"
],
  "ImagingFrequency": 123.252,
  "InPlanePhaseEncodingDirectionDICOM": "COL",
  "InstitutionAddress": "Maynard 3,Hanover,NH,US,03755",
  "InstitutionName": "Dartmouth College - PBS",
  "InstitutionalDepartmentName": "Department",
  "MRAcquisitionType": "2D",
  "MagneticFieldStrength": 3,
  "Manufacturer": "Siemens",
  "ManufacturersModelName": "Prisma",
  "Modality": "MR",
  "MultibandAccelerationFactor": 8,
  "PartialFourier": 1,
  "PatientPosition": "HFS",
  "PercentPhaseFOV": 100,
  "PercentSampling": 100,
  "PhaseEncodingDirection": "j-",
  "PhaseEncodingSteps": 82,
  "PhaseResolution": 1,
  "PixelBandwidth": 3050,
  "ProcedureStepDescription": "Wager_Wager^1076_spacetop",
  "ProtocolName": "func_run-02_task-faces_acq-ap-mb8",
  "PulseSequenceDetails": "%CustomerSeq%\\cmrr_mbep2d_bold",
  "ReceiveCoilActiveElements": "HEA;HEP",
  "ReceiveCoilName": "Head_32",
  "ReconMatrixPE": 82,
  "RepetitionTime": 0.46,
  "SAR": 0.111977,
  "ScanOptions": "FS",
  "ScanningSequence": "EP",
  "SequenceName": "epfid2d1_82",
  "SequenceVariant": "SK\\SS",
  "SeriesDescription": "func_run-02_task-faces_acq-ap-mb8",
  "SeriesNumber": 18,
  "ShimSetting": [4155, -7781, -7234, 467, -76, -142, 9, 8],
  "SliceThickness": 2.7,
  "SliceTiming": [0, 0.2525, 0.065, 0.315, 0.1275, 0.3775, 0.19, 0, 0.2525, 0.065, 0.315, 0.1275, 0.3775, 0.19, 0, 0.2525, 0.065, 0.315, 0.1275, 0.3775, 0.19, 0, 0.2525, 0.065, 0.315, 0.1275, 0.3775, 0.19, 0, 0.2525, 0.065, 0.315, 0.1275, 0.3775, 0.19, 0, 0.2525, 0.065, 0.315, 0.1275, 0.3775, 0.19, 0, 0.2525, 0.065, 0.315, 0.1275, 0.3775, 0.19, 0, 0.2525, 0.065, 0.315, 0.1275, 0.3775, 0.19],
  "SoftwareVersions": "syngo MR E11",
  "SpacingBetweenSlices": 2.7,
  "StationName": "AWP66112",
  "TaskName": "faces",
  "TotalReadoutTime": 0.03969,
  "TxRefAmp": 260.6,
  "WipMemBlock": "871914ba-8164-4028-8d5a-aad430050082||Sequence: R016 ve11e/master r/434b28f1; Aug  7 2019 18:53:46 by eja",
  "dcmmeta_affine": [
    [-2.6806480884552, -0.07019545137882233, 0.08595393598079681, 115.91571807861328],
    [-0.05177333950996399, 2.628471851348877, 0.5387118458747864, -97.7332763671875],
    [0.09768244624137878, -0.5332025289535522, 2.644315004348755, -30.209732055664062],
    [0.0, 0.0, 0.0, 1.0]
],
  "dcmmeta_reorient_transform": [
    [0.0, -1.0, 0.0, 81.0],
    [1.0, 0.0, 0.0, 0.0],
    [0.0, 0.0, 1.0, 0.0],
    [0.0, 0.0, 0.0, 1.0]
],
  "dcmmeta_shape": [82, 82, 56, 914],
  "dcmmeta_slice_dim": 2,
  "dcmmeta_version": 0.6,
  "global": {
    "const": {
      "AccessionNumber": "A003952",
      "AcquisitionMatrix": [82, 0, 0, 82],
      "AngioFlag": "N",
      "BitsAllocated": 16,
      "BitsStored": 16,
      "BodyPartExamined": "BRAIN",
      "Columns": 656,
      "EchoNumbers": 1,
      "EchoTime": 27.2,
      "EchoTrainLength": 82,
      "FlipAngle": 44.0,
      "HighBit": 15,
      "ImageOrientationPatient": [0.99915064129724, 0.01929733539522, 0.03640891157345, -0.0261637572114, 0.97970312917379, 0.19873911667223],
      "ImagePositionPatient": [-859.42980716404, -884.40331819307, -254.46312196265],
      "ImageType": [
        "ORIGINAL",
        "PRIMARY",
        "M",
        "MB",
        "ND",
        "NORM",
        "MOSAIC"
],
      "ImagedNucleus": "1H",
      "ImagingFrequency": 123.252144,
      "InPlanePhaseEncodingDirection": "COL",
      "MRAcquisitionType": "2D",
      "MagneticFieldStrength": 3.0,
      "Manufacturer": "SIEMENS",
      "ManufacturerModelName": "Prisma",
      "Modality": "MR",
      "NumberOfAverages": 1.0,
      "NumberOfPhaseEncodingSteps": 82,
      "PercentPhaseFieldOfView": 100.0,
      "PercentSampling": 100.0,
      "PerformedProcedureStepStartTime": "153655.058000",
      "PhotometricInterpretation": "MONOCHROME2",
      "PixelBandwidth": 3050.0,
      "PixelRepresentation": 0,
      "PixelSpacing": [2.6829268932343, 2.6829268932343],
      "ProtocolName": "func_run-02_task-faces_acq-ap-mb8",
      "RepetitionTime": 460.0,
      "Rows": 656,
      "SAR": 0.11197710702584,
      "SamplesPerPixel": 1,
      "ScanOptions": "FS",
      "ScanningSequence": "EP",
      "SequenceName": "epfid2d1_82",
      "SequenceVariant": [
        "SK",
        "SS"
],
      "SeriesDescription": "func_run-02_task-faces_acq-ap-mb8",
      "SeriesNumber": 18,
      "SeriesTime": "163038.660000",
      "SliceLocation": -45.396559010271,
      "SliceThickness": 2.7000000476837,
      "SmallestImagePixelValue": 0,
      "SoftwareVersions": "syngo MR E11",
      "SpacingBetweenSlices": 2.700000059711,
      "SpecificCharacterSet": "ISO_IR 100",
      "StudyID": "1",
      "StudyTime": "153655.003000",
      "TransmitCoilName": "Body",
      "VariableFlipAngleFlag": "N",
      "WindowCenterWidthExplanation": "Algo1"
    },
    "slices": {}
  },
  "time": {
    "samples": {
      "AcquisitionNumber": [1, 2, 3, 4, 5, 6, 7, 8, 9, 10, 11, 12, 13, 14, 15, 16, 17, 18, 19, 20, 21, 22, 23, 24, 25, 26, 27, 28, 29, 30, 31, 32, 33, 34, 35, 36, 37, 38, 39, 40, 41, 42, 43, 44, 45, 46, 47, 48, 49, 50, 51, 52, 53, 54, 55, 56, 57, 58, 59, 60, 61, 62, 63, 64, 65, 66, 67, 68, 69, 70, 71, 72, 73, 74, 75, 76, 77, 78, 79, 80, 81, 82, 83, 84, 85, 86, 87, 88, 89, 90, 91, 92, 93, 94, 95, 96, 97, 98, 99, 100, 101, 102, 103, 104, 105, 106, 107, 108, 109, 110, 111, 112, 113, 114, 115, 116, 117, 118, 119, 120, 121, 122, 123, 124, 125, 126, 127, 128, 129, 130, 131, 132, 133, 134, 135, 136, 137, 138, 139, 140, 141, 142, 143, 144, 145, 146, 147, 148, 149, 150, 151, 152, 153, 154, 155, 156, 157, 158, 159, 160, 161, 162, 163, 164, 165, 166, 167, 168, 169, 170, 171, 172, 173, 174, 175, 176, 177, 178, 179, 180, 181, 182, 183, 184, 185, 186, 187, 188, 189, 190, 191, 192, 193, 194, 195, 196, 197, 198, 199, 200, 201, 202, 203, 204, 205, 206, 207, 208, 209, 210, 211, 212, 213, 214, 215, 216, 217, 218, 219, 220, 221, 222, 223, 224, 225, 226, 227, 228, 229, 230, 231, 232, 233, 234, 235, 236, 237, 238, 239, 240, 241, 242, 243, 244, 245, 246, 247, 248, 249, 250, 251, 252, 253, 254, 255, 256, 257, 258, 259, 260, 261, 262, 263, 264, 265, 266, 267, 268, 269, 270, 271, 272, 273, 274, 275, 276, 277, 278, 279, 280, 281, 282, 283, 284, 285, 286, 287, 288, 289, 290, 291, 292, 293, 294, 295, 296, 297, 298, 299, 300, 301, 302, 303, 304, 305, 306, 307, 308, 309, 310, 311, 312, 313, 314, 315, 316, 317, 318, 319, 320, 321, 322, 323, 324, 325, 326, 327, 328, 329, 330, 331, 332, 333, 334, 335, 336, 337, 338, 339, 340, 341, 342, 343, 344, 345, 346, 347, 348, 349, 350, 351, 352, 353, 354, 355, 356, 357, 358, 359, 360, 361, 362, 363, 364, 365, 366, 367, 368, 369, 370, 371, 372, 373, 374, 375, 376, 377, 378, 379, 380, 381, 382, 383, 384, 385, 386, 387, 388, 389, 390, 391, 392, 393, 394, 395, 396, 397, 398, 399, 400, 401, 402, 403, 404, 405, 406, 407, 408, 409, 410, 411, 412, 413, 414, 415, 416, 417, 418, 419, 420, 421, 422, 423, 424, 425, 426, 427, 428, 429, 430, 431, 432, 433, 434, 435, 436, 437, 438, 439, 440, 441, 442, 443, 444, 445, 446, 447, 448, 449, 450, 451, 452, 453, 454, 455, 456, 457, 458, 459, 460, 461, 462, 463, 464, 465, 466, 467, 468, 469, 470, 471, 472, 473, 474, 475, 476, 477, 478, 479, 480, 481, 482, 483, 484, 485, 486, 487, 488, 489, 490, 491, 492, 493, 494, 495, 496, 497, 498, 499, 500, 501, 502, 503, 504, 505, 506, 507, 508, 509, 510, 511, 512, 513, 514, 515, 516, 517, 518, 519, 520, 521, 522, 523, 524, 525, 526, 527, 528, 529, 530, 531, 532, 533, 534, 535, 536, 537, 538, 539, 540, 541, 542, 543, 544, 545, 546, 547, 548, 549, 550, 551, 552, 553, 554, 555, 556, 557, 558, 559, 560, 561, 562, 563, 564, 565, 566, 567, 568, 569, 570, 571, 572, 573, 574, 575, 576, 577, 578, 579, 580, 581, 582, 583, 584, 585, 586, 587, 588, 589, 590, 591, 592, 593, 594, 595, 596, 597, 598, 599, 600, 601, 602, 603, 604, 605, 606, 607, 608, 609, 610, 611, 612, 613, 614, 615, 616, 617, 618, 619, 620, 621, 622, 623, 624, 625, 626, 627, 628, 629, 630, 631, 632, 633, 634, 635, 636, 637, 638, 639, 640, 641, 642, 643, 644, 645, 646, 647, 648, 649, 650, 651, 652, 653, 654, 655, 656, 657, 658, 659, 660, 661, 662, 663, 664, 665, 666, 667, 668, 669, 670, 671, 672, 673, 674, 675, 676, 677, 678, 679, 680, 681, 682, 683, 684, 685, 686, 687, 688, 689, 690, 691, 692, 693, 694, 695, 696, 697, 698, 699, 700, 701, 702, 703, 704, 705, 706, 707, 708, 709, 710, 711, 712, 713, 714, 715, 716, 717, 718, 719, 720, 721, 722, 723, 724, 725, 726, 727, 728, 729, 730, 731, 732, 733, 734, 735, 736, 737, 738, 739, 740, 741, 742, 743, 744, 745, 746, 747, 748, 749, 750, 751, 752, 753, 754, 755, 756, 757, 758, 759, 760, 761, 762, 763, 764, 765, 766, 767, 768, 769, 770, 771, 772, 773, 774, 775, 776, 777, 778, 779, 780, 781, 782, 783, 784, 785, 786, 787, 788, 789, 790, 791, 792, 793, 794, 795, 796, 797, 798, 799, 800, 801, 802, 803, 804, 805, 806, 807, 808, 809, 810, 811, 812, 813, 814, 815, 816, 817, 818, 819, 820, 821, 822, 823, 824, 825, 826, 827, 828, 829, 830, 831, 832, 833, 834, 835, 836, 837, 838, 839, 840, 841, 842, 843, 844, 845, 846, 847, 848, 849, 850, 851, 852, 853, 854, 855, 856, 857, 858, 859, 860, 861, 862, 863, 864, 865, 866, 867, 868, 869, 870, 871, 872, 873, 874, 875, 876, 877, 878, 879, 880, 881, 882, 883, 884, 885, 886, 887, 888, 889, 890, 891, 892, 893, 894, 895, 896, 897, 898, 899, 900, 901, 902, 903, 904, 905, 906, 907, 908, 909, 910, 911, 912, 913, 914],
      "AcquisitionTime": ["163024.822500", "163025.282500", "163025.742500", "163026.202500", "163026.662500", "163027.122500", "163027.582500", "163028.042500", "163028.502500", "163028.962500", "163029.422500", "163029.882500", "163030.342500", "163030.802500", "163031.262500", "163031.722500", "163032.182500", "163032.642500", "163033.102500", "163033.562500", "163034.022500", "163034.482500", "163034.942500", "163035.402500", "163035.862500", "163036.322500", "163036.782500", "163037.242500", "163037.702500", "163038.162500", "163038.622500", "163039.082500", "163039.542500", "163040.002500", "163040.462500", "163040.922500", "163041.382500", "163041.842500", "163042.302500", "163042.762500", "163043.222500", "163043.682500", "163044.142500", "163044.602500", "163045.062500", "163045.522500", "163045.982500", "163046.442500", "163046.902500", "163047.362500", "163047.822500", "163048.282500", "163048.742500", "163049.202500", "163049.662500", "163050.122500", "163050.582500", "163051.042500", "163051.502500", "163051.962500", "163052.422500", "163052.882500", "163053.342500", "163053.802500", "163054.262500", "163054.722500", "163055.182500", "163055.642500", "163056.102500", "163056.562500", "163057.022500", "163057.482500", "163057.942500", "163058.402500", "163058.862500", "163059.322500", "163059.782500", "163100.242500", "163100.702500", "163101.162500", "163101.622500", "163102.082500", "163102.542500", "163103.002500", "163103.462500", "163103.922500", "163104.382500", "163104.842500", "163105.302500", "163105.762500", "163106.222500", "163106.682500", "163107.142500", "163107.602500", "163108.062500", "163108.522500", "163108.982500", "163109.442500", "163109.902500", "163110.362500", "163110.822500", "163111.282500", "163111.742500", "163112.202500", "163112.662500", "163113.122500", "163113.582500", "163114.042500", "163114.502500", "163114.962500", "163115.422500", "163115.882500", "163116.342500", "163116.802500", "163117.262500", "163117.722500", "163118.182500", "163118.642500", "163119.102500", "163119.562500", "163120.022500", "163120.482500", "163120.942500", "163121.402500", "163121.862500", "163122.322500", "163122.782500", "163123.242500", "163123.702500", "163124.162500", "163124.622500", "163125.082500", "163125.542500", "163126.002500", "163126.462500", "163126.922500", "163127.382500", "163127.842500", "163128.302500", "163128.762500", "163129.222500", "163129.682500", "163130.142500", "163130.602500", "163131.062500", "163131.522500", "163131.982500", "163132.442500", "163132.902500", "163133.362500", "163133.822500", "163134.282500", "163134.742500", "163135.202500", "163135.662500", "163136.122500", "163136.582500", "163137.042500", "163137.502500", "163137.962500", "163138.422500", "163138.882500", "163139.342500", "163139.802500", "163140.262500", "163140.722500", "163141.182500", "163141.642500", "163142.102500", "163142.562500", "163143.022500", "163143.482500", "163143.942500", "163144.402500", "163144.862500", "163145.322500", "163145.782500", "163146.242500", "163146.702500", "163147.162500", "163147.622500", "163148.082500", "163148.542500", "163149.002500", "163149.462500", "163149.922500", "163150.382500", "163150.842500", "163151.302500", "163151.762500", "163152.222500", "163152.682500", "163153.142500", "163153.602500", "163154.062500", "163154.522500", "163154.982500", "163155.442500", "163155.902500", "163156.362500", "163156.822500", "163157.282500", "163157.742500", "163158.202500", "163158.662500", "163159.122500", "163159.582500", "163200.042500", "163200.502500", "163200.962500", "163201.422500", "163201.882500", "163202.342500", "163202.802500", "163203.262500", "163203.722500", "163204.182500", "163204.642500", "163205.102500", "163205.562500", "163206.022500", "163206.482500", "163206.942500", "163207.402500", "163207.862500", "163208.322500", "163208.782500", "163209.242500", "163209.702500", "163210.162500", "163210.622500", "163211.082500", "163211.542500", "163212.002500", "163212.462500", "163212.922500", "163213.382500", "163213.842500", "163214.302500", "163214.762500", "163215.222500", "163215.682500", "163216.142500", "163216.602500", "163217.062500", "163217.522500", "163217.982500", "163218.442500", "163218.902500", "163219.362500", "163219.822500", "163220.282500", "163220.742500", "163221.202500", "163221.662500", "163222.122500", "163222.582500", "163223.042500", "163223.502500", "163223.962500", "163224.422500", "163224.882500", "163225.342500", "163225.802500", "163226.262500", "163226.722500", "163227.182500", "163227.642500", "163228.102500", "163228.562500", "163229.022500", "163229.482500", "163229.942500", "163230.402500", "163230.862500", "163231.322500", "163231.782500", "163232.242500", "163232.702500", "163233.162500", "163233.622500", "163234.082500", "163234.542500", "163235.002500", "163235.462500", "163235.922500", "163236.382500", "163236.842500", "163237.302500", "163237.762500", "163238.222500", "163238.682500", "163239.142500", "163239.602500", "163240.062500", "163240.522500", "163240.982500", "163241.442500", "163241.902500", "163242.362500", "163242.822500", "163243.282500", "163243.742500", "163244.202500", "163244.662500", "163245.122500", "163245.582500", "163246.042500", "163246.502500", "163246.962500", "163247.422500", "163247.882500", "163248.342500", "163248.802500", "163249.262500", "163249.722500", "163250.182500", "163250.642500", "163251.102500", "163251.562500", "163252.022500", "163252.482500", "163252.942500", "163253.402500", "163253.862500", "163254.322500", "163254.782500", "163255.242500", "163255.702500", "163256.162500", "163256.622500", "163257.082500", "163257.542500", "163258.002500", "163258.462500", "163258.922500", "163259.382500", "163259.842500", "163300.302500", "163300.762500", "163301.222500", "163301.682500", "163302.142500", "163302.602500", "163303.062500", "163303.522500", "163303.982500", "163304.442500", "163304.902500", "163305.362500", "163305.822500", "163306.282500", "163306.742500", "163307.202500", "163307.662500", "163308.122500", "163308.582500", "163309.042500", "163309.502500", "163309.962500", "163310.422500", "163310.882500", "163311.342500", "163311.802500", "163312.262500", "163312.722500", "163313.182500", "163313.642500", "163314.102500", "163314.562500", "163315.022500", "163315.482500", "163315.942500", "163316.402500", "163316.862500", "163317.322500", "163317.782500", "163318.242500", "163318.702500", "163319.162500", "163319.622500", "163320.082500", "163320.542500", "163321.002500", "163321.462500", "163321.922500", "163322.382500", "163322.842500", "163323.302500", "163323.762500", "163324.222500", "163324.682500", "163325.142500", "163325.602500", "163326.062500", "163326.522500", "163326.982500", "163327.442500", "163327.902500", "163328.362500", "163328.822500", "163329.282500", "163329.742500", "163330.202500", "163330.662500", "163331.122500", "163331.582500", "163332.042500", "163332.502500", "163332.962500", "163333.422500", "163333.882500", "163334.342500", "163334.802500", "163335.262500", "163335.722500", "163336.182500", "163336.642500", "163337.102500", "163337.562500", "163338.022500", "163338.482500", "163338.942500", "163339.402500", "163339.862500", "163340.322500", "163340.782500", "163341.242500", "163341.702500", "163342.162500", "163342.622500", "163343.082500", "163343.542500", "163344.002500", "163344.462500", "163344.922500", "163345.382500", "163345.842500", "163346.302500", "163346.762500", "163347.222500", "163347.682500", "163348.142500", "163348.602500", "163349.062500", "163349.522500", "163349.982500", "163350.442500", "163350.902500", "163351.362500", "163351.822500", "163352.282500", "163352.742500", "163353.202500", "163353.662500", "163354.122500", "163354.582500", "163355.042500", "163355.502500", "163355.962500", "163356.422500", "163356.882500", "163357.342500", "163357.802500", "163358.262500", "163358.722500", "163359.182500", "163359.642500", "163400.102500", "163400.562500", "163401.022500", "163401.482500", "163401.942500", "163402.402500", "163402.862500", "163403.322500", "163403.782500", "163404.242500", "163404.702500", "163405.162500", "163405.622500", "163406.082500", "163406.542500", "163407.002500", "163407.462500", "163407.922500", "163408.382500", "163408.842500", "163409.302500", "163409.762500", "163410.222500", "163410.682500", "163411.142500", "163411.602500", "163412.062500", "163412.522500", "163412.982500", "163413.442500", "163413.902500", "163414.362500", "163414.822500", "163415.282500", "163415.742500", "163416.202500", "163416.662500", "163417.122500", "163417.582500", "163418.042500", "163418.502500", "163418.962500", "163419.422500", "163419.882500", "163420.342500", "163420.802500", "163421.262500", "163421.722500", "163422.182500", "163422.642500", "163423.102500", "163423.562500", "163424.022500", "163424.482500", "163424.942500", "163425.402500", "163425.862500", "163426.322500", "163426.782500", "163427.242500", "163427.702500", "163428.162500", "163428.622500", "163429.082500", "163429.542500", "163430.002500", "163430.462500", "163430.922500", "163431.382500", "163431.842500", "163432.302500", "163432.762500", "163433.222500", "163433.682500", "163434.142500", "163434.602500", "163435.062500", "163435.522500", "163435.982500", "163436.442500", "163436.902500", "163437.362500", "163437.822500", "163438.282500", "163438.742500", "163439.202500", "163439.662500", "163440.122500", "163440.582500", "163441.042500", "163441.502500", "163441.962500", "163442.422500", "163442.882500", "163443.342500", "163443.802500", "163444.262500", "163444.722500", "163445.182500", "163445.642500", "163446.102500", "163446.562500", "163447.022500", "163447.482500", "163447.942500", "163448.402500", "163448.862500", "163449.322500", "163449.782500", "163450.242500", "163450.702500", "163451.162500", "163451.622500", "163452.082500", "163452.542500", "163453.002500", "163453.462500", "163453.922500", "163454.382500", "163454.842500", "163455.302500", "163455.762500", "163456.222500", "163456.682500", "163457.142500", "163457.602500", "163458.062500", "163458.522500", "163458.982500", "163459.442500", "163459.902500", "163500.362500", "163500.822500", "163501.282500", "163501.742500", "163502.202500", "163502.662500", "163503.122500", "163503.582500", "163504.042500", "163504.502500", "163504.962500", "163505.422500", "163505.882500", "163506.342500", "163506.802500", "163507.262500", "163507.722500", "163508.182500", "163508.642500", "163509.102500", "163509.562500", "163510.022500", "163510.482500", "163510.942500", "163511.402500", "163511.862500", "163512.322500", "163512.782500", "163513.242500", "163513.702500", "163514.162500", "163514.622500", "163515.082500", "163515.542500", "163516.002500", "163516.462500", "163516.922500", "163517.382500", "163517.842500", "163518.302500", "163518.762500", "163519.222500", "163519.682500", "163520.142500", "163520.602500", "163521.062500", "163521.522500", "163521.982500", "163522.442500", "163522.902500", "163523.362500", "163523.822500", "163524.282500", "163524.742500", "163525.202500", "163525.662500", "163526.122500", "163526.582500", "163527.042500", "163527.502500", "163527.962500", "163528.422500", "163528.882500", "163529.342500", "163529.802500", "163530.262500", "163530.722500", "163531.182500", "163531.642500", "163532.102500", "163532.562500", "163533.022500", "163533.482500", "163533.942500", "163534.402500", "163534.862500", "163535.322500", "163535.782500", "163536.242500", "163536.702500", "163537.162500", "163537.622500", "163538.082500", "163538.542500", "163539.002500", "163539.462500", "163539.922500", "163540.382500", "163540.842500", "163541.302500", "163541.762500", "163542.222500", "163542.682500", "163543.142500", "163543.602500", "163544.062500", "163544.522500", "163544.982500", "163545.442500", "163545.902500", "163546.362500", "163546.822500", "163547.282500", "163547.742500", "163548.202500", "163548.662500", "163549.122500", "163549.582500", "163550.042500", "163550.502500", "163550.962500", "163551.422500", "163551.882500", "163552.342500", "163552.802500", "163553.262500", "163553.722500", "163554.182500", "163554.642500", "163555.102500", "163555.562500", "163556.022500", "163556.482500", "163556.942500", "163557.402500", "163557.862500", "163558.322500", "163558.782500", "163559.242500", "163559.702500", "163600.162500", "163600.622500", "163601.082500", "163601.542500", "163602.002500", "163602.462500", "163602.922500", "163603.382500", "163603.842500", "163604.302500", "163604.762500", "163605.222500", "163605.682500", "163606.142500", "163606.602500", "163607.062500", "163607.522500", "163607.982500", "163608.442500", "163608.902500", "163609.362500", "163609.822500", "163610.282500", "163610.742500", "163611.202500", "163611.662500", "163612.122500", "163612.582500", "163613.042500", "163613.502500", "163613.962500", "163614.422500", "163614.882500", "163615.342500", "163615.802500", "163616.262500", "163616.722500", "163617.182500", "163617.642500", "163618.102500", "163618.562500", "163619.022500", "163619.482500", "163619.942500", "163620.402500", "163620.862500", "163621.322500", "163621.782500", "163622.242500", "163622.702500", "163623.162500", "163623.622500", "163624.082500", "163624.542500", "163625.002500", "163625.462500", "163625.922500", "163626.382500", "163626.842500", "163627.302500", "163627.762500", "163628.222500", "163628.682500", "163629.142500", "163629.602500", "163630.062500", "163630.522500", "163630.982500", "163631.442500", "163631.902500", "163632.362500", "163632.822500", "163633.282500", "163633.742500", "163634.202500", "163634.662500", "163635.122500", "163635.582500", "163636.042500", "163636.502500", "163636.962500", "163637.422500", "163637.882500", "163638.342500", "163638.802500", "163639.262500", "163639.722500", "163640.182500", "163640.642500", "163641.102500", "163641.562500", "163642.022500", "163642.482500", "163642.942500", "163643.402500", "163643.862500", "163644.322500", "163644.782500", "163645.242500", "163645.702500", "163646.162500", "163646.622500", "163647.082500", "163647.542500", "163648.002500", "163648.462500", "163648.922500", "163649.382500", "163649.842500", "163650.302500", "163650.762500", "163651.222500", "163651.682500", "163652.142500", "163652.602500", "163653.062500", "163653.522500", "163653.982500", "163654.442500", "163654.902500", "163655.362500", "163655.822500", "163656.282500", "163656.742500", "163657.202500", "163657.662500", "163658.122500", "163658.582500", "163659.042500", "163659.502500", "163659.962500", "163700.422500", "163700.882500", "163701.342500", "163701.802500", "163702.262500", "163702.722500", "163703.182500", "163703.642500", "163704.102500", "163704.562500", "163705.022500", "163705.482500", "163705.942500", "163706.402500", "163706.862500", "163707.322500", "163707.782500", "163708.242500", "163708.702500", "163709.162500", "163709.622500", "163710.082500", "163710.542500", "163711.002500", "163711.462500", "163711.922500", "163712.382500", "163712.842500", "163713.302500", "163713.762500", "163714.222500", "163714.682500", "163715.142500", "163715.602500", "163716.062500", "163716.522500", "163716.982500", "163717.442500", "163717.902500", "163718.362500", "163718.822500", "163719.282500", "163719.742500", "163720.202500", "163720.662500", "163721.122500", "163721.582500", "163722.042500", "163722.502500", "163722.962500", "163723.422500", "163723.882500", "163724.342500", "163724.802500"],
