{
  "AcquisitionMatrixPE": 82,
  "AcquisitionNumber": 1,
  "AcquisitionTime": "16:51:9.667500",
  "BandwidthPerPixelPhaseEncode": 24.888,
  "BaseResolution": 82,
  "BodyPartExamined": "BRAIN",
  "ConsistencyInfo": "N4_VE11E_LATEST_20181129",
  "ConversionSoftware": "dcm2niix",
  "ConversionSoftwareVersion": "v1.0.20201102",
  "DerivedVendorReportedEchoSpacing": 0.00049,
  "DeviceSerialNumber": "66112",
  "DwellTime": 2e-06,
  "EchoTime": 0.0272,
  "EchoTrainLength": 82,
  "EffectiveEchoSpacing": 0.00049,
  "FlipAngle": 44,
  "ImageComments": "Unaliased MB8/PE3",
  "ImageOrientationPatientDICOM": [0.999151, 0.0192973, 0.0364089, -0.0261638, 0.979703, 0.198739],
  "ImageType": [
    "ORIGINAL",
    "PRIMARY",
    "M",
    "MB",
    "ND",
    "NORM",
    "MOSAIC"
],
  "ImagingFrequency": 123.252,
  "InPlanePhaseEncodingDirectionDICOM": "COL",
  "InstitutionAddress": "Maynard 3,Hanover,NH,US,03755",
  "InstitutionName": "Dartmouth College - PBS",
  "InstitutionalDepartmentName": "Department",
  "MRAcquisitionType": "2D",
  "MagneticFieldStrength": 3,
  "Manufacturer": "Siemens",
  "ManufacturersModelName": "Prisma",
  "Modality": "MR",
  "MultibandAccelerationFactor": 8,
  "PartialFourier": 1,
  "PatientPosition": "HFS",
  "PercentPhaseFOV": 100,
  "PercentSampling": 100,
  "PhaseEncodingDirection": "j-",
  "PhaseEncodingSteps": 82,
  "PhaseResolution": 1,
  "PixelBandwidth": 3050,
  "ProcedureStepDescription": "Wager_Wager^1076_spacetop",
  "ProtocolName": "func_run-01_task-alignvideo_acq-ap-mb8",
  "PulseSequenceDetails": "%CustomerSeq%\\cmrr_mbep2d_bold",
  "ReceiveCoilActiveElements": "HEA;HEP",
  "ReceiveCoilName": "Head_32",
  "ReconMatrixPE": 82,
  "RepetitionTime": 0.46,
  "SAR": 0.111918,
  "ScanOptions": "FS",
  "ScanningSequence": "EP",
  "SequenceName": "epfid2d1_82",
  "SequenceVariant": "SK\\SS",
  "SeriesDescription": "func_run-01_task-alignvideo_acq-ap-mb8",
  "SeriesNumber": 28,
  "ShimSetting": [4155, -7777, -7234, 470, -78, -118, 10, 7],
  "SliceThickness": 2.7,
  "SliceTiming": [0, 0.25, 0.0625, 0.3125, 0.125, 0.3775, 0.1875, 0, 0.25, 0.0625, 0.3125, 0.125, 0.3775, 0.1875, 0, 0.25, 0.0625, 0.3125, 0.125, 0.3775, 0.1875, 0, 0.25, 0.0625, 0.3125, 0.125, 0.3775, 0.1875, 0, 0.25, 0.0625, 0.3125, 0.125, 0.3775, 0.1875, 0, 0.25, 0.0625, 0.3125, 0.125, 0.3775, 0.1875, 0, 0.25, 0.0625, 0.3125, 0.125, 0.3775, 0.1875, 0, 0.25, 0.0625, 0.3125, 0.125, 0.3775, 0.1875],
  "SoftwareVersions": "syngo MR E11",
  "SpacingBetweenSlices": 2.7,
  "StationName": "AWP66112",
  "TaskName": "alignvideo",
  "TotalReadoutTime": 0.03969,
  "TxRefAmp": 260.6,
  "WipMemBlock": "08e8be2b-5266-4fec-9a7e-f76597a4165e||Sequence: R016 ve11e/master r/434b28f1; Aug  7 2019 18:53:46 by eja",
  "dcmmeta_affine": [
    [-2.6806480884552, -0.07019545137882233, 0.08595392853021622, 115.9299545288086],
    [-0.05177333950996399, 2.628471851348877, 0.5387118458747864, -93.10877227783203],
    [0.09768244624137878, -0.5332025289535522, 2.644314765930176, -27.362815856933594],
    [0.0, 0.0, 0.0, 1.0]
],
  "dcmmeta_reorient_transform": [
    [0.0, -1.0, 0.0, 81.0],
    [1.0, 0.0, 0.0, 0.0],
    [0.0, 0.0, 1.0, 0.0],
    [0.0, 0.0, 0.0, 1.0]
],
  "dcmmeta_shape": [82, 82, 56, 839],
  "dcmmeta_slice_dim": 2,
  "dcmmeta_version": 0.6,
  "global": {
    "const": {
      "AccessionNumber": "A003952",
      "AcquisitionMatrix": [82, 0, 0, 82],
      "AngioFlag": "N",
      "BitsAllocated": 16,
      "BitsStored": 16,
      "BodyPartExamined": "BRAIN",
      "Columns": 656,
      "EchoNumbers": 1,
      "EchoTime": 27.2,
      "EchoTrainLength": 82,
      "FlipAngle": 44.0,
      "HighBit": 15,
      "ImageOrientationPatient": [0.99915064129724, 0.01929733539522, 0.03640891157345, -0.0261637572114, 0.97970312917379, 0.19873911667223],
      "ImagePositionPatient": [-859.44404170689, -889.02782609712, -251.61620576392],
      "ImageType": [
        "ORIGINAL",
        "PRIMARY",
        "M",
        "MB",
        "ND",
        "NORM",
        "MOSAIC"
],
      "ImagedNucleus": "1H",
      "ImagingFrequency": 123.252139,
      "InPlanePhaseEncodingDirection": "COL",
      "MRAcquisitionType": "2D",
      "MagneticFieldStrength": 3.0,
      "Manufacturer": "SIEMENS",
      "ManufacturerModelName": "Prisma",
      "Modality": "MR",
      "NumberOfAverages": 1.0,
      "NumberOfPhaseEncodingSteps": 82,
      "PercentPhaseFieldOfView": 100.0,
      "PercentSampling": 100.0,
      "PerformedProcedureStepStartTime": "153655.058000",
      "PhotometricInterpretation": "MONOCHROME2",
      "PixelBandwidth": 3050.0,
      "PixelRepresentation": 0,
      "PixelSpacing": [2.6829268932343, 2.6829268932343],
      "ProtocolName": "func_run-01_task-alignvideo_acq-ap-mb8",
      "RepetitionTime": 460.0,
      "Rows": 656,
      "SAR": 0.1119178506087,
      "SamplesPerPixel": 1,
      "ScanOptions": "FS",
      "ScanningSequence": "EP",
      "SequenceName": "epfid2d1_82",
      "SequenceVariant": [
        "SK",
        "SS"
],
      "SeriesDescription": "func_run-01_task-alignvideo_acq-ap-mb8",
      "SeriesNumber": 28,
      "SeriesTime": "165138.643000",
      "SliceLocation": -41.685209467161,
      "SliceThickness": 2.7000000476837,
      "SmallestImagePixelValue": 0,
      "SoftwareVersions": "syngo MR E11",
      "SpacingBetweenSlices": 2.6999999235796,
      "SpecificCharacterSet": "ISO_IR 100",
      "StudyID": "1",
      "StudyTime": "153655.003000",
      "TransmitCoilName": "Body",
      "VariableFlipAngleFlag": "N",
      "WindowCenterWidthExplanation": "Algo1"
    },
    "slices": {}
  },
  "time": {
    "samples": {
      "AcquisitionNumber": [1, 2, 3, 4, 5, 6, 7, 8, 9, 10, 11, 12, 13, 14, 15, 16, 17, 18, 19, 20, 21, 22, 23, 24, 25, 26, 27, 28, 29, 30, 31, 32, 33, 34, 35, 36, 37, 38, 39, 40, 41, 42, 43, 44, 45, 46, 47, 48, 49, 50, 51, 52, 53, 54, 55, 56, 57, 58, 59, 60, 61, 62, 63, 64, 65, 66, 67, 68, 69, 70, 71, 72, 73, 74, 75, 76, 77, 78, 79, 80, 81, 82, 83, 84, 85, 86, 87, 88, 89, 90, 91, 92, 93, 94, 95, 96, 97, 98, 99, 100, 101, 102, 103, 104, 105, 106, 107, 108, 109, 110, 111, 112, 113, 114, 115, 116, 117, 118, 119, 120, 121, 122, 123, 124, 125, 126, 127, 128, 129, 130, 131, 132, 133, 134, 135, 136, 137, 138, 139, 140, 141, 142, 143, 144, 145, 146, 147, 148, 149, 150, 151, 152, 153, 154, 155, 156, 157, 158, 159, 160, 161, 162, 163, 164, 165, 166, 167, 168, 169, 170, 171, 172, 173, 174, 175, 176, 177, 178, 179, 180, 181, 182, 183, 184, 185, 186, 187, 188, 189, 190, 191, 192, 193, 194, 195, 196, 197, 198, 199, 200, 201, 202, 203, 204, 205, 206, 207, 208, 209, 210, 211, 212, 213, 214, 215, 216, 217, 218, 219, 220, 221, 222, 223, 224, 225, 226, 227, 228, 229, 230, 231, 232, 233, 234, 235, 236, 237, 238, 239, 240, 241, 242, 243, 244, 245, 246, 247, 248, 249, 250, 251, 252, 253, 254, 255, 256, 257, 258, 259, 260, 261, 262, 263, 264, 265, 266, 267, 268, 269, 270, 271, 272, 273, 274, 275, 276, 277, 278, 279, 280, 281, 282, 283, 284, 285, 286, 287, 288, 289, 290, 291, 292, 293, 294, 295, 296, 297, 298, 299, 300, 301, 302, 303, 304, 305, 306, 307, 308, 309, 310, 311, 312, 313, 314, 315, 316, 317, 318, 319, 320, 321, 322, 323, 324, 325, 326, 327, 328, 329, 330, 331, 332, 333, 334, 335, 336, 337, 338, 339, 340, 341, 342, 343, 344, 345, 346, 347, 348, 349, 350, 351, 352, 353, 354, 355, 356, 357, 358, 359, 360, 361, 362, 363, 364, 365, 366, 367, 368, 369, 370, 371, 372, 373, 374, 375, 376, 377, 378, 379, 380, 381, 382, 383, 384, 385, 386, 387, 388, 389, 390, 391, 392, 393, 394, 395, 396, 397, 398, 399, 400, 401, 402, 403, 404, 405, 406, 407, 408, 409, 410, 411, 412, 413, 414, 415, 416, 417, 418, 419, 420, 421, 422, 423, 424, 425, 426, 427, 428, 429, 430, 431, 432, 433, 434, 435, 436, 437, 438, 439, 440, 441, 442, 443, 444, 445, 446, 447, 448, 449, 450, 451, 452, 453, 454, 455, 456, 457, 458, 459, 460, 461, 462, 463, 464, 465, 466, 467, 468, 469, 470, 471, 472, 473, 474, 475, 476, 477, 478, 479, 480, 481, 482, 483, 484, 485, 486, 487, 488, 489, 490, 491, 492, 493, 494, 495, 496, 497, 498, 499, 500, 501, 502, 503, 504, 505, 506, 507, 508, 509, 510, 511, 512, 513, 514, 515, 516, 517, 518, 519, 520, 521, 522, 523, 524, 525, 526, 527, 528, 529, 530, 531, 532, 533, 534, 535, 536, 537, 538, 539, 540, 541, 542, 543, 544, 545, 546, 547, 548, 549, 550, 551, 552, 553, 554, 555, 556, 557, 558, 559, 560, 561, 562, 563, 564, 565, 566, 567, 568, 569, 570, 571, 572, 573, 574, 575, 576, 577, 578, 579, 580, 581, 582, 583, 584, 585, 586, 587, 588, 589, 590, 591, 592, 593, 594, 595, 596, 597, 598, 599, 600, 601, 602, 603, 604, 605, 606, 607, 608, 609, 610, 611, 612, 613, 614, 615, 616, 617, 618, 619, 620, 621, 622, 623, 624, 625, 626, 627, 628, 629, 630, 631, 632, 633, 634, 635, 636, 637, 638, 639, 640, 641, 642, 643, 644, 645, 646, 647, 648, 649, 650, 651, 652, 653, 654, 655, 656, 657, 658, 659, 660, 661, 662, 663, 664, 665, 666, 667, 668, 669, 670, 671, 672, 673, 674, 675, 676, 677, 678, 679, 680, 681, 682, 683, 684, 685, 686, 687, 688, 689, 690, 691, 692, 693, 694, 695, 696, 697, 698, 699, 700, 701, 702, 703, 704, 705, 706, 707, 708, 709, 710, 711, 712, 713, 714, 715, 716, 717, 718, 719, 720, 721, 722, 723, 724, 725, 726, 727, 728, 729, 730, 731, 732, 733, 734, 735, 736, 737, 738, 739, 740, 741, 742, 743, 744, 745, 746, 747, 748, 749, 750, 751, 752, 753, 754, 755, 756, 757, 758, 759, 760, 761, 762, 763, 764, 765, 766, 767, 768, 769, 770, 771, 772, 773, 774, 775, 776, 777, 778, 779, 780, 781, 782, 783, 784, 785, 786, 787, 788, 789, 790, 791, 792, 793, 794, 795, 796, 797, 798, 799, 800, 801, 802, 803, 804, 805, 806, 807, 808, 809, 810, 811, 812, 813, 814, 815, 816, 817, 818, 819, 820, 821, 822, 823, 824, 825, 826, 827, 828, 829, 830, 831, 832, 833, 834, 835, 836, 837, 838, 839],
      "AcquisitionTime": ["165109.667500", "165110.127500", "165110.587500", "165111.047500", "165111.507500", "165111.967500", "165112.427500", "165112.887500", "165113.347500", "165113.807500", "165114.267500", "165114.727500", "165115.187500", "165115.647500", "165116.107500", "165116.567500", "165117.027500", "165117.487500", "165117.947500", "165118.407500", "165118.867500", "165119.327500", "165119.787500", "165120.247500", "165120.707500", "165121.167500", "165121.627500", "165122.087500", "165122.547500", "165123.007500", "165123.467500", "165123.927500", "165124.387500", "165124.847500", "165125.307500", "165125.767500", "165126.227500", "165126.687500", "165127.147500", "165127.607500", "165128.067500", "165128.527500", "165128.987500", "165129.447500", "165129.907500", "165130.367500", "165130.827500", "165131.287500", "165131.747500", "165132.207500", "165132.667500", "165133.127500", "165133.587500", "165134.047500", "165134.507500", "165134.967500", "165135.427500", "165135.887500", "165136.347500", "165136.807500", "165137.267500", "165137.727500", "165138.187500", "165138.647500", "165139.107500", "165139.567500", "165140.027500", "165140.487500", "165140.947500", "165141.407500", "165141.867500", "165142.327500", "165142.787500", "165143.247500", "165143.707500", "165144.167500", "165144.627500", "165145.087500", "165145.547500", "165146.007500", "165146.467500", "165146.927500", "165147.387500", "165147.847500", "165148.307500", "165148.767500", "165149.227500", "165149.687500", "165150.147500", "165150.607500", "165151.067500", "165151.527500", "165151.987500", "165152.447500", "165152.907500", "165153.367500", "165153.827500", "165154.287500", "165154.747500", "165155.207500", "165155.667500", "165156.127500", "165156.587500", "165157.047500", "165157.507500", "165157.967500", "165158.427500", "165158.887500", "165159.347500", "165159.807500", "165200.267500", "165200.727500", "165201.187500", "165201.647500", "165202.107500", "165202.567500", "165203.027500", "165203.487500", "165203.947500", "165204.407500", "165204.867500", "165205.327500", "165205.787500", "165206.247500", "165206.707500", "165207.167500", "165207.627500", "165208.087500", "165208.547500", "165209.007500", "165209.467500", "165209.927500", "165210.387500", "165210.847500", "165211.307500", "165211.767500", "165212.227500", "165212.687500", "165213.147500", "165213.607500", "165214.067500", "165214.527500", "165214.987500", "165215.447500", "165215.907500", "165216.367500", "165216.827500", "165217.287500", "165217.747500", "165218.207500", "165218.667500", "165219.127500", "165219.587500", "165220.047500", "165220.507500", "165220.967500", "165221.427500", "165221.887500", "165222.347500", "165222.807500", "165223.267500", "165223.727500", "165224.187500", "165224.647500", "165225.107500", "165225.567500", "165226.027500", "165226.487500", "165226.947500", "165227.407500", "165227.867500", "165228.327500", "165228.787500", "165229.247500", "165229.707500", "165230.167500", "165230.627500", "165231.087500", "165231.547500", "165232.007500", "165232.467500", "165232.927500", "165233.387500", "165233.847500", "165234.307500", "165234.767500", "165235.227500", "165235.687500", "165236.147500", "165236.607500", "165237.067500", "165237.527500", "165237.987500", "165238.447500", "165238.907500", "165239.367500", "165239.827500", "165240.287500", "165240.747500", "165241.207500", "165241.667500", "165242.127500", "165242.587500", "165243.047500", "165243.507500", "165243.967500", "165244.427500", "165244.887500", "165245.347500", "165245.807500", "165246.267500", "165246.727500", "165247.187500", "165247.647500", "165248.107500", "165248.567500", "165249.027500", "165249.487500", "165249.947500", "165250.407500", "165250.867500", "165251.327500", "165251.787500", "165252.247500", "165252.707500", "165253.167500", "165253.627500", "165254.087500", "165254.547500", "165255.007500", "165255.467500", "165255.927500", "165256.387500", "165256.847500", "165257.307500", "165257.767500", "165258.227500", "165258.687500", "165259.147500", "165259.607500", "165300.067500", "165300.527500", "165300.987500", "165301.447500", "165301.907500", "165302.367500", "165302.827500", "165303.287500", "165303.747500", "165304.207500", "165304.667500", "165305.127500", "165305.587500", "165306.047500", "165306.507500", "165306.967500", "165307.427500", "165307.887500", "165308.347500", "165308.807500", "165309.267500", "165309.727500", "165310.187500", "165310.647500", "165311.107500", "165311.567500", "165312.027500", "165312.487500", "165312.947500", "165313.407500", "165313.867500", "165314.327500", "165314.787500", "165315.247500", "165315.707500", "165316.167500", "165316.627500", "165317.087500", "165317.547500", "165318.007500", "165318.467500", "165318.927500", "165319.387500", "165319.847500", "165320.307500", "165320.767500", "165321.227500", "165321.687500", "165322.147500", "165322.607500", "165323.067500", "165323.527500", "165323.987500", "165324.447500", "165324.907500", "165325.367500", "165325.827500", "165326.287500", "165326.747500", "165327.207500", "165327.667500", "165328.127500", "165328.587500", "165329.047500", "165329.507500", "165329.967500", "165330.427500", "165330.887500", "165331.347500", "165331.807500", "165332.267500", "165332.727500", "165333.187500", "165333.647500", "165334.107500", "165334.567500", "165335.027500", "165335.487500", "165335.947500", "165336.407500", "165336.867500", "165337.327500", "165337.787500", "165338.247500", "165338.707500", "165339.167500", "165339.627500", "165340.087500", "165340.547500", "165341.007500", "165341.467500", "165341.927500", "165342.387500", "165342.847500", "165343.307500", "165343.767500", "165344.227500", "165344.687500", "165345.147500", "165345.607500", "165346.067500", "165346.527500", "165346.987500", "165347.447500", "165347.907500", "165348.367500", "165348.827500", "165349.287500", "165349.747500", "165350.207500", "165350.667500", "165351.127500", "165351.587500", "165352.047500", "165352.507500", "165352.967500", "165353.427500", "165353.887500", "165354.347500", "165354.807500", "165355.267500", "165355.727500", "165356.187500", "165356.647500", "165357.107500", "165357.567500", "165358.027500", "165358.487500", "165358.947500", "165359.407500", "165359.867500", "165400.327500", "165400.787500", "165401.247500", "165401.707500", "165402.167500", "165402.627500", "165403.087500", "165403.547500", "165404.007500", "165404.467500", "165404.927500", "165405.387500", "165405.847500", "165406.307500", "165406.767500", "165407.227500", "165407.687500", "165408.147500", "165408.607500", "165409.067500", "165409.527500", "165409.987500", "165410.447500", "165410.907500", "165411.367500", "165411.827500", "165412.287500", "165412.747500", "165413.207500", "165413.667500", "165414.127500", "165414.587500", "165415.047500", "165415.507500", "165415.967500", "165416.427500", "165416.887500", "165417.347500", "165417.807500", "165418.267500", "165418.727500", "165419.187500", "165419.647500", "165420.107500", "165420.567500", "165421.027500", "165421.487500", "165421.947500", "165422.407500", "165422.867500", "165423.327500", "165423.787500", "165424.247500", "165424.707500", "165425.167500", "165425.627500", "165426.087500", "165426.547500", "165427.007500", "165427.467500", "165427.927500", "165428.387500", "165428.847500", "165429.307500", "165429.767500", "165430.227500", "165430.687500", "165431.147500", "165431.607500", "165432.067500", "165432.527500", "165432.987500", "165433.447500", "165433.907500", "165434.367500", "165434.827500", "165435.287500", "165435.747500", "165436.207500", "165436.667500", "165437.127500", "165437.587500", "165438.047500", "165438.507500", "165438.967500", "165439.427500", "165439.887500", "165440.347500", "165440.807500", "165441.267500", "165441.727500", "165442.187500", "165442.647500", "165443.107500", "165443.567500", "165444.027500", "165444.487500", "165444.947500", "165445.407500", "165445.867500", "165446.327500", "165446.787500", "165447.247500", "165447.707500", "165448.167500", "165448.627500", "165449.087500", "165449.547500", "165450.007500", "165450.467500", "165450.927500", "165451.387500", "165451.847500", "165452.307500", "165452.767500", "165453.227500", "165453.687500", "165454.147500", "165454.607500", "165455.067500", "165455.527500", "165455.987500", "165456.447500", "165456.907500", "165457.367500", "165457.827500", "165458.287500", "165458.747500", "165459.207500", "165459.667500", "165500.127500", "165500.587500", "165501.047500", "165501.507500", "165501.967500", "165502.427500", "165502.887500", "165503.347500", "165503.807500", "165504.267500", "165504.727500", "165505.187500", "165505.647500", "165506.107500", "165506.567500", "165507.027500", "165507.487500", "165507.947500", "165508.407500", "165508.867500", "165509.327500", "165509.787500", "165510.247500", "165510.707500", "165511.167500", "165511.627500", "165512.087500", "165512.547500", "165513.007500", "165513.467500", "165513.927500", "165514.387500", "165514.847500", "165515.307500", "165515.767500", "165516.227500", "165516.687500", "165517.147500", "165517.607500", "165518.067500", "165518.527500", "165518.987500", "165519.447500", "165519.907500", "165520.367500", "165520.827500", "165521.287500", "165521.747500", "165522.207500", "165522.667500", "165523.127500", "165523.587500", "165524.047500", "165524.507500", "165524.967500", "165525.427500", "165525.887500", "165526.347500", "165526.807500", "165527.267500", "165527.727500", "165528.187500", "165528.647500", "165529.107500", "165529.567500", "165530.027500", "165530.487500", "165530.947500", "165531.407500", "165531.867500", "165532.327500", "165532.787500", "165533.247500", "165533.707500", "165534.167500", "165534.627500", "165535.087500", "165535.547500", "165536.007500", "165536.467500", "165536.927500", "165537.387500", "165537.847500", "165538.307500", "165538.767500", "165539.227500", "165539.687500", "165540.147500", "165540.607500", "165541.067500", "165541.527500", "165541.987500", "165542.447500", "165542.907500", "165543.367500", "165543.827500", "165544.287500", "165544.747500", "165545.207500", "165545.667500", "165546.127500", "165546.587500", "165547.047500", "165547.507500", "165547.967500", "165548.427500", "165548.887500", "165549.347500", "165549.807500", "165550.267500", "165550.727500", "165551.187500", "165551.647500", "165552.107500", "165552.567500", "165553.027500", "165553.487500", "165553.947500", "165554.407500", "165554.867500", "165555.327500", "165555.787500", "165556.247500", "165556.707500", "165557.167500", "165557.627500", "165558.087500", "165558.547500", "165559.007500", "165559.467500", "165559.927500", "165600.387500", "165600.847500", "165601.307500", "165601.767500", "165602.227500", "165602.687500", "165603.147500", "165603.607500", "165604.067500", "165604.527500", "165604.987500", "165605.447500", "165605.907500", "165606.367500", "165606.827500", "165607.287500", "165607.747500", "165608.207500", "165608.667500", "165609.127500", "165609.587500", "165610.047500", "165610.507500", "165610.967500", "165611.427500", "165611.887500", "165612.347500", "165612.807500", "165613.267500", "165613.727500", "165614.187500", "165614.647500", "165615.107500", "165615.567500", "165616.027500", "165616.487500", "165616.947500", "165617.407500", "165617.867500", "165618.327500", "165618.787500", "165619.247500", "165619.707500", "165620.167500", "165620.627500", "165621.087500", "165621.547500", "165622.007500", "165622.467500", "165622.927500", "165623.387500", "165623.847500", "165624.307500", "165624.767500", "165625.227500", "165625.687500", "165626.147500", "165626.607500", "165627.067500", "165627.527500", "165627.987500", "165628.447500", "165628.907500", "165629.367500", "165629.827500", "165630.287500", "165630.747500", "165631.207500", "165631.667500", "165632.127500", "165632.587500", "165633.047500", "165633.507500", "165633.967500", "165634.427500", "165634.887500", "165635.347500", "165635.807500", "165636.267500", "165636.727500", "165637.187500", "165637.647500", "165638.107500", "165638.567500", "165639.027500", "165639.487500", "165639.947500", "165640.407500", "165640.867500", "165641.327500", "165641.787500", "165642.247500", "165642.707500", "165643.167500", "165643.627500", "165644.087500", "165644.547500", "165645.007500", "165645.467500", "165645.927500", "165646.387500", "165646.847500", "165647.307500", "165647.767500", "165648.227500", "165648.687500", "165649.147500", "165649.607500", "165650.067500", "165650.527500", "165650.987500", "165651.447500", "165651.907500", "165652.367500", "165652.827500", "165653.287500", "165653.747500", "165654.207500", "165654.667500", "165655.127500", "165655.587500", "165656.047500", "165656.507500", "165656.967500", "165657.427500", "165657.887500", "165658.347500", "165658.807500", "165659.267500", "165659.727500", "165700.187500", "165700.647500", "165701.107500", "165701.567500", "165702.027500", "165702.487500", "165702.947500", "165703.407500", "165703.867500", "165704.327500", "165704.787500", "165705.247500", "165705.707500", "165706.167500", "165706.627500", "165707.087500", "165707.547500", "165708.007500", "165708.467500", "165708.927500", "165709.387500", "165709.847500", "165710.307500", "165710.767500", "165711.227500", "165711.687500", "165712.147500", "165712.607500", "165713.067500", "165713.527500", "165713.987500", "165714.447500", "165714.907500", "165715.367500", "165715.827500", "165716.287500", "165716.747500", "165717.207500", "165717.667500", "165718.127500", "165718.587500", "165719.047500", "165719.507500", "165719.967500", "165720.427500", "165720.887500", "165721.347500", "165721.807500", "165722.267500", "165722.727500", "165723.187500", "165723.647500", "165724.107500", "165724.567500", "165725.027500", "165725.487500", "165725.947500", "165726.407500", "165726.867500", "165727.327500", "165727.787500", "165728.247500", "165728.707500", "165729.167500", "165729.627500", "165730.087500", "165730.547500", "165731.007500", "165731.467500", "165731.927500", "165732.387500", "165732.847500", "165733.307500", "165733.767500", "165734.227500", "165734.687500", "165735.147500"],
