{
  "AcquisitionMatrixPE": 82,
  "AcquisitionNumber": 1,
  "AcquisitionTime": "16:41:39.587500",
  "BandwidthPerPixelPhaseEncode": 24.888,
  "BaseResolution": 82,
  "BodyPartExamined": "BRAIN",
  "ConsistencyInfo": "N4_VE11E_LATEST_20181129",
  "ConversionSoftware": "dcm2niix",
  "ConversionSoftwareVersion": "v1.0.20201102",
  "DerivedVendorReportedEchoSpacing": 0.00049,
  "DeviceSerialNumber": "66112",
  "DwellTime": 2e-06,
  "EchoTime": 0.0272,
  "EchoTrainLength": 82,
  "EffectiveEchoSpacing": 0.00049,
  "FlipAngle": 44,
  "ImageComments": "Unaliased MB8/PE3",
  "ImageOrientationPatientDICOM": [0.999151, 0.0192973, 0.0364089, -0.0261638, 0.979703, 0.198739],
  "ImageType": [
    "ORIGINAL",
    "PRIMARY",
    "M",
    "MB",
    "ND",
    "NORM",
    "MOSAIC"
],
  "ImagingFrequency": 123.252,
  "InPlanePhaseEncodingDirectionDICOM": "COL",
  "InstitutionAddress": "Maynard 3,Hanover,NH,US,03755",
  "InstitutionName": "Dartmouth College - PBS",
  "InstitutionalDepartmentName": "Department",
  "MRAcquisitionType": "2D",
  "MagneticFieldStrength": 3,
  "Manufacturer": "Siemens",
  "ManufacturersModelName": "Prisma",
  "Modality": "MR",
  "MultibandAccelerationFactor": 8,
  "PartialFourier": 1,
  "PatientPosition": "HFS",
  "PercentPhaseFOV": 100,
  "PercentSampling": 100,
  "PhaseEncodingDirection": "j-",
  "PhaseEncodingSteps": 82,
  "PhaseResolution": 1,
  "PixelBandwidth": 3050,
  "ProcedureStepDescription": "Wager_Wager^1076_spacetop",
  "ProtocolName": "func_run-03_task-faces_acq-ap-mb8",
  "PulseSequenceDetails": "%CustomerSeq%\\cmrr_mbep2d_bold",
  "ReceiveCoilActiveElements": "HEA;HEP",
  "ReceiveCoilName": "Head_32",
  "ReconMatrixPE": 82,
  "RepetitionTime": 0.46,
  "SAR": 0.111977,
  "ScanOptions": "FS",
  "ScanningSequence": "EP",
  "SequenceName": "epfid2d1_82",
  "SequenceVariant": "SK\\SS",
  "SeriesDescription": "func_run-03_task-faces_acq-ap-mb8",
  "SeriesNumber": 20,
  "ShimSetting": [4155, -7781, -7234, 467, -76, -142, 9, 8],
  "SliceThickness": 2.7,
  "SliceTiming": [0, 0.2525, 0.0625, 0.315, 0.1275, 0.3775, 0.19, 0, 0.2525, 0.0625, 0.315, 0.1275, 0.3775, 0.19, 0, 0.2525, 0.0625, 0.315, 0.1275, 0.3775, 0.19, 0, 0.2525, 0.0625, 0.315, 0.1275, 0.3775, 0.19, 0, 0.2525, 0.0625, 0.315, 0.1275, 0.3775, 0.19, 0, 0.2525, 0.0625, 0.315, 0.1275, 0.3775, 0.19, 0, 0.2525, 0.0625, 0.315, 0.1275, 0.3775, 0.19, 0, 0.2525, 0.0625, 0.315, 0.1275, 0.3775, 0.19],
  "SoftwareVersions": "syngo MR E11",
  "SpacingBetweenSlices": 2.7,
  "StationName": "AWP66112",
  "TaskName": "faces",
  "TotalReadoutTime": 0.03969,
  "TxRefAmp": 260.6,
  "WipMemBlock": "5a2bc023-822d-4c7c-9875-c7c509c4c4fe||Sequence: R016 ve11e/master r/434b28f1; Aug  7 2019 18:53:46 by eja",
  "dcmmeta_affine": [
    [-2.6806480884552, -0.07019545137882233, 0.08595393598079681, 115.91571807861328],
    [-0.05177333950996399, 2.628471851348877, 0.5387118458747864, -97.7332763671875],
    [0.09768244624137878, -0.5332025289535522, 2.644315004348755, -30.209732055664062],
    [0.0, 0.0, 0.0, 1.0]
],
  "dcmmeta_reorient_transform": [
    [0.0, -1.0, 0.0, 81.0],
    [1.0, 0.0, 0.0, 0.0],
    [0.0, 0.0, 1.0, 0.0],
    [0.0, 0.0, 0.0, 1.0]
],
  "dcmmeta_shape": [82, 82, 56, 914],
  "dcmmeta_slice_dim": 2,
  "dcmmeta_version": 0.6,
  "global": {
    "const": {
      "AccessionNumber": "A003952",
      "AcquisitionMatrix": [82, 0, 0, 82],
      "AngioFlag": "N",
      "BitsAllocated": 16,
      "BitsStored": 16,
      "BodyPartExamined": "BRAIN",
      "Columns": 656,
      "EchoNumbers": 1,
      "EchoTime": 27.2,
      "EchoTrainLength": 82,
      "FlipAngle": 44.0,
      "HighBit": 15,
      "ImageOrientationPatient": [0.99915064129724, 0.01929733539522, 0.03640891157345, -0.0261637572114, 0.97970312917379, 0.19873911667223],
      "ImagePositionPatient": [-859.42980716404, -884.40331819307, -254.46312196265],
      "ImageType": [
        "ORIGINAL",
        "PRIMARY",
        "M",
        "MB",
        "ND",
        "NORM",
        "MOSAIC"
],
      "ImagedNucleus": "1H",
      "ImagingFrequency": 123.252146,
      "InPlanePhaseEncodingDirection": "COL",
      "MRAcquisitionType": "2D",
      "MagneticFieldStrength": 3.0,
      "Manufacturer": "SIEMENS",
      "ManufacturerModelName": "Prisma",
      "Modality": "MR",
      "NumberOfAverages": 1.0,
      "NumberOfPhaseEncodingSteps": 82,
      "PercentPhaseFieldOfView": 100.0,
      "PercentSampling": 100.0,
      "PerformedProcedureStepStartTime": "153655.058000",
      "PhotometricInterpretation": "MONOCHROME2",
      "PixelBandwidth": 3050.0,
      "PixelRepresentation": 0,
      "PixelSpacing": [2.6829268932343, 2.6829268932343],
      "ProtocolName": "func_run-03_task-faces_acq-ap-mb8",
      "RepetitionTime": 460.0,
      "Rows": 656,
      "SAR": 0.11197710702584,
      "SamplesPerPixel": 1,
      "ScanOptions": "FS",
      "ScanningSequence": "EP",
      "SequenceName": "epfid2d1_82",
      "SequenceVariant": [
        "SK",
        "SS"
],
      "SeriesDescription": "func_run-03_task-faces_acq-ap-mb8",
      "SeriesNumber": 20,
      "SeriesTime": "164158.475000",
      "SliceLocation": -45.396559010271,
      "SliceThickness": 2.7000000476837,
      "SmallestImagePixelValue": 0,
      "SoftwareVersions": "syngo MR E11",
      "SpacingBetweenSlices": 2.700000059711,
      "SpecificCharacterSet": "ISO_IR 100",
      "StudyID": "1",
      "StudyTime": "153655.003000",
      "TransmitCoilName": "Body",
      "VariableFlipAngleFlag": "N",
      "WindowCenterWidthExplanation": "Algo1"
    },
    "slices": {}
  },
  "time": {
    "samples": {
      "AcquisitionNumber": [1, 2, 3, 4, 5, 6, 7, 8, 9, 10, 11, 12, 13, 14, 15, 16, 17, 18, 19, 20, 21, 22, 23, 24, 25, 26, 27, 28, 29, 30, 31, 32, 33, 34, 35, 36, 37, 38, 39, 40, 41, 42, 43, 44, 45, 46, 47, 48, 49, 50, 51, 52, 53, 54, 55, 56, 57, 58, 59, 60, 61, 62, 63, 64, 65, 66, 67, 68, 69, 70, 71, 72, 73, 74, 75, 76, 77, 78, 79, 80, 81, 82, 83, 84, 85, 86, 87, 88, 89, 90, 91, 92, 93, 94, 95, 96, 97, 98, 99, 100, 101, 102, 103, 104, 105, 106, 107, 108, 109, 110, 111, 112, 113, 114, 115, 116, 117, 118, 119, 120, 121, 122, 123, 124, 125, 126, 127, 128, 129, 130, 131, 132, 133, 134, 135, 136, 137, 138, 139, 140, 141, 142, 143, 144, 145, 146, 147, 148, 149, 150, 151, 152, 153, 154, 155, 156, 157, 158, 159, 160, 161, 162, 163, 164, 165, 166, 167, 168, 169, 170, 171, 172, 173, 174, 175, 176, 177, 178, 179, 180, 181, 182, 183, 184, 185, 186, 187, 188, 189, 190, 191, 192, 193, 194, 195, 196, 197, 198, 199, 200, 201, 202, 203, 204, 205, 206, 207, 208, 209, 210, 211, 212, 213, 214, 215, 216, 217, 218, 219, 220, 221, 222, 223, 224, 225, 226, 227, 228, 229, 230, 231, 232, 233, 234, 235, 236, 237, 238, 239, 240, 241, 242, 243, 244, 245, 246, 247, 248, 249, 250, 251, 252, 253, 254, 255, 256, 257, 258, 259, 260, 261, 262, 263, 264, 265, 266, 267, 268, 269, 270, 271, 272, 273, 274, 275, 276, 277, 278, 279, 280, 281, 282, 283, 284, 285, 286, 287, 288, 289, 290, 291, 292, 293, 294, 295, 296, 297, 298, 299, 300, 301, 302, 303, 304, 305, 306, 307, 308, 309, 310, 311, 312, 313, 314, 315, 316, 317, 318, 319, 320, 321, 322, 323, 324, 325, 326, 327, 328, 329, 330, 331, 332, 333, 334, 335, 336, 337, 338, 339, 340, 341, 342, 343, 344, 345, 346, 347, 348, 349, 350, 351, 352, 353, 354, 355, 356, 357, 358, 359, 360, 361, 362, 363, 364, 365, 366, 367, 368, 369, 370, 371, 372, 373, 374, 375, 376, 377, 378, 379, 380, 381, 382, 383, 384, 385, 386, 387, 388, 389, 390, 391, 392, 393, 394, 395, 396, 397, 398, 399, 400, 401, 402, 403, 404, 405, 406, 407, 408, 409, 410, 411, 412, 413, 414, 415, 416, 417, 418, 419, 420, 421, 422, 423, 424, 425, 426, 427, 428, 429, 430, 431, 432, 433, 434, 435, 436, 437, 438, 439, 440, 441, 442, 443, 444, 445, 446, 447, 448, 449, 450, 451, 452, 453, 454, 455, 456, 457, 458, 459, 460, 461, 462, 463, 464, 465, 466, 467, 468, 469, 470, 471, 472, 473, 474, 475, 476, 477, 478, 479, 480, 481, 482, 483, 484, 485, 486, 487, 488, 489, 490, 491, 492, 493, 494, 495, 496, 497, 498, 499, 500, 501, 502, 503, 504, 505, 506, 507, 508, 509, 510, 511, 512, 513, 514, 515, 516, 517, 518, 519, 520, 521, 522, 523, 524, 525, 526, 527, 528, 529, 530, 531, 532, 533, 534, 535, 536, 537, 538, 539, 540, 541, 542, 543, 544, 545, 546, 547, 548, 549, 550, 551, 552, 553, 554, 555, 556, 557, 558, 559, 560, 561, 562, 563, 564, 565, 566, 567, 568, 569, 570, 571, 572, 573, 574, 575, 576, 577, 578, 579, 580, 581, 582, 583, 584, 585, 586, 587, 588, 589, 590, 591, 592, 593, 594, 595, 596, 597, 598, 599, 600, 601, 602, 603, 604, 605, 606, 607, 608, 609, 610, 611, 612, 613, 614, 615, 616, 617, 618, 619, 620, 621, 622, 623, 624, 625, 626, 627, 628, 629, 630, 631, 632, 633, 634, 635, 636, 637, 638, 639, 640, 641, 642, 643, 644, 645, 646, 647, 648, 649, 650, 651, 652, 653, 654, 655, 656, 657, 658, 659, 660, 661, 662, 663, 664, 665, 666, 667, 668, 669, 670, 671, 672, 673, 674, 675, 676, 677, 678, 679, 680, 681, 682, 683, 684, 685, 686, 687, 688, 689, 690, 691, 692, 693, 694, 695, 696, 697, 698, 699, 700, 701, 702, 703, 704, 705, 706, 707, 708, 709, 710, 711, 712, 713, 714, 715, 716, 717, 718, 719, 720, 721, 722, 723, 724, 725, 726, 727, 728, 729, 730, 731, 732, 733, 734, 735, 736, 737, 738, 739, 740, 741, 742, 743, 744, 745, 746, 747, 748, 749, 750, 751, 752, 753, 754, 755, 756, 757, 758, 759, 760, 761, 762, 763, 764, 765, 766, 767, 768, 769, 770, 771, 772, 773, 774, 775, 776, 777, 778, 779, 780, 781, 782, 783, 784, 785, 786, 787, 788, 789, 790, 791, 792, 793, 794, 795, 796, 797, 798, 799, 800, 801, 802, 803, 804, 805, 806, 807, 808, 809, 810, 811, 812, 813, 814, 815, 816, 817, 818, 819, 820, 821, 822, 823, 824, 825, 826, 827, 828, 829, 830, 831, 832, 833, 834, 835, 836, 837, 838, 839, 840, 841, 842, 843, 844, 845, 846, 847, 848, 849, 850, 851, 852, 853, 854, 855, 856, 857, 858, 859, 860, 861, 862, 863, 864, 865, 866, 867, 868, 869, 870, 871, 872, 873, 874, 875, 876, 877, 878, 879, 880, 881, 882, 883, 884, 885, 886, 887, 888, 889, 890, 891, 892, 893, 894, 895, 896, 897, 898, 899, 900, 901, 902, 903, 904, 905, 906, 907, 908, 909, 910, 911, 912, 913, 914],
      "AcquisitionTime": ["164139.587500", "164140.047500", "164140.507500", "164140.967500", "164141.427500", "164141.887500", "164142.347500", "164142.807500", "164143.267500", "164143.727500", "164144.187500", "164144.647500", "164145.107500", "164145.567500", "164146.027500", "164146.487500", "164146.947500", "164147.407500", "164147.867500", "164148.327500", "164148.787500", "164149.247500", "164149.707500", "164150.167500", "164150.627500", "164151.087500", "164151.547500", "164152.007500", "164152.467500", "164152.927500", "164153.387500", "164153.847500", "164154.307500", "164154.767500", "164155.227500", "164155.687500", "164156.147500", "164156.607500", "164157.067500", "164157.527500", "164157.987500", "164158.447500", "164158.907500", "164159.367500", "164159.827500", "164200.287500", "164200.747500", "164201.207500", "164201.667500", "164202.127500", "164202.587500", "164203.047500", "164203.507500", "164203.967500", "164204.427500", "164204.887500", "164205.347500", "164205.807500", "164206.267500", "164206.727500", "164207.187500", "164207.647500", "164208.107500", "164208.567500", "164209.027500", "164209.487500", "164209.947500", "164210.407500", "164210.867500", "164211.327500", "164211.787500", "164212.247500", "164212.707500", "164213.167500", "164213.627500", "164214.087500", "164214.547500", "164215.007500", "164215.467500", "164215.927500", "164216.387500", "164216.847500", "164217.307500", "164217.767500", "164218.227500", "164218.687500", "164219.147500", "164219.607500", "164220.067500", "164220.527500", "164220.987500", "164221.447500", "164221.907500", "164222.367500", "164222.827500", "164223.287500", "164223.747500", "164224.207500", "164224.667500", "164225.127500", "164225.587500", "164226.047500", "164226.507500", "164226.967500", "164227.427500", "164227.887500", "164228.347500", "164228.807500", "164229.267500", "164229.727500", "164230.187500", "164230.647500", "164231.107500", "164231.567500", "164232.027500", "164232.487500", "164232.947500", "164233.407500", "164233.867500", "164234.327500", "164234.787500", "164235.247500", "164235.707500", "164236.167500", "164236.627500", "164237.087500", "164237.547500", "164238.007500", "164238.467500", "164238.927500", "164239.387500", "164239.847500", "164240.307500", "164240.767500", "164241.227500", "164241.687500", "164242.147500", "164242.607500", "164243.067500", "164243.527500", "164243.987500", "164244.447500", "164244.907500", "164245.367500", "164245.827500", "164246.287500", "164246.747500", "164247.207500", "164247.667500", "164248.127500", "164248.587500", "164249.047500", "164249.507500", "164249.967500", "164250.427500", "164250.887500", "164251.347500", "164251.807500", "164252.267500", "164252.727500", "164253.187500", "164253.647500", "164254.107500", "164254.567500", "164255.027500", "164255.487500", "164255.947500", "164256.407500", "164256.867500", "164257.327500", "164257.787500", "164258.247500", "164258.707500", "164259.167500", "164259.627500", "164300.087500", "164300.547500", "164301.007500", "164301.467500", "164301.927500", "164302.387500", "164302.847500", "164303.307500", "164303.767500", "164304.227500", "164304.687500", "164305.147500", "164305.607500", "164306.067500", "164306.527500", "164306.987500", "164307.447500", "164307.907500", "164308.367500", "164308.827500", "164309.287500", "164309.747500", "164310.207500", "164310.667500", "164311.127500", "164311.587500", "164312.047500", "164312.507500", "164312.967500", "164313.427500", "164313.887500", "164314.347500", "164314.807500", "164315.267500", "164315.727500", "164316.187500", "164316.647500", "164317.107500", "164317.567500", "164318.027500", "164318.487500", "164318.947500", "164319.407500", "164319.867500", "164320.327500", "164320.787500", "164321.247500", "164321.707500", "164322.167500", "164322.627500", "164323.087500", "164323.547500", "164324.007500", "164324.467500", "164324.927500", "164325.387500", "164325.847500", "164326.307500", "164326.767500", "164327.227500", "164327.687500", "164328.147500", "164328.607500", "164329.067500", "164329.527500", "164329.987500", "164330.447500", "164330.907500", "164331.367500", "164331.827500", "164332.287500", "164332.747500", "164333.207500", "164333.667500", "164334.127500", "164334.587500", "164335.047500", "164335.507500", "164335.967500", "164336.427500", "164336.887500", "164337.347500", "164337.807500", "164338.267500", "164338.727500", "164339.187500", "164339.647500", "164340.107500", "164340.567500", "164341.027500", "164341.487500", "164341.947500", "164342.407500", "164342.867500", "164343.327500", "164343.787500", "164344.247500", "164344.707500", "164345.167500", "164345.627500", "164346.087500", "164346.547500", "164347.007500", "164347.467500", "164347.927500", "164348.387500", "164348.847500", "164349.307500", "164349.767500", "164350.227500", "164350.687500", "164351.147500", "164351.607500", "164352.067500", "164352.527500", "164352.987500", "164353.447500", "164353.907500", "164354.367500", "164354.827500", "164355.287500", "164355.747500", "164356.207500", "164356.667500", "164357.127500", "164357.587500", "164358.047500", "164358.507500", "164358.967500", "164359.427500", "164359.887500", "164400.347500", "164400.807500", "164401.267500", "164401.727500", "164402.187500", "164402.647500", "164403.107500", "164403.567500", "164404.027500", "164404.487500", "164404.947500", "164405.407500", "164405.867500", "164406.327500", "164406.787500", "164407.247500", "164407.707500", "164408.167500", "164408.627500", "164409.087500", "164409.547500", "164410.007500", "164410.467500", "164410.927500", "164411.387500", "164411.847500", "164412.307500", "164412.767500", "164413.227500", "164413.687500", "164414.147500", "164414.607500", "164415.067500", "164415.527500", "164415.987500", "164416.447500", "164416.907500", "164417.367500", "164417.827500", "164418.287500", "164418.747500", "164419.207500", "164419.667500", "164420.127500", "164420.587500", "164421.047500", "164421.507500", "164421.967500", "164422.427500", "164422.887500", "164423.347500", "164423.807500", "164424.267500", "164424.727500", "164425.187500", "164425.647500", "164426.107500", "164426.567500", "164427.027500", "164427.487500", "164427.947500", "164428.407500", "164428.867500", "164429.327500", "164429.787500", "164430.247500", "164430.707500", "164431.167500", "164431.627500", "164432.087500", "164432.547500", "164433.007500", "164433.467500", "164433.927500", "164434.387500", "164434.847500", "164435.307500", "164435.767500", "164436.227500", "164436.687500", "164437.147500", "164437.607500", "164438.067500", "164438.527500", "164438.987500", "164439.447500", "164439.907500", "164440.367500", "164440.827500", "164441.287500", "164441.747500", "164442.207500", "164442.667500", "164443.127500", "164443.587500", "164444.047500", "164444.507500", "164444.967500", "164445.427500", "164445.887500", "164446.347500", "164446.807500", "164447.267500", "164447.727500", "164448.187500", "164448.647500", "164449.107500", "164449.567500", "164450.027500", "164450.487500", "164450.947500", "164451.407500", "164451.867500", "164452.327500", "164452.787500", "164453.247500", "164453.707500", "164454.167500", "164454.627500", "164455.087500", "164455.547500", "164456.007500", "164456.467500", "164456.927500", "164457.387500", "164457.847500", "164458.307500", "164458.767500", "164459.227500", "164459.687500", "164500.147500", "164500.607500", "164501.067500", "164501.527500", "164501.987500", "164502.447500", "164502.907500", "164503.367500", "164503.827500", "164504.287500", "164504.747500", "164505.207500", "164505.667500", "164506.127500", "164506.587500", "164507.047500", "164507.507500", "164507.967500", "164508.427500", "164508.887500", "164509.347500", "164509.807500", "164510.267500", "164510.727500", "164511.187500", "164511.647500", "164512.107500", "164512.567500", "164513.027500", "164513.487500", "164513.947500", "164514.407500", "164514.867500", "164515.327500", "164515.787500", "164516.247500", "164516.707500", "164517.167500", "164517.627500", "164518.087500", "164518.547500", "164519.007500", "164519.467500", "164519.927500", "164520.387500", "164520.847500", "164521.307500", "164521.767500", "164522.227500", "164522.687500", "164523.147500", "164523.607500", "164524.067500", "164524.527500", "164524.987500", "164525.447500", "164525.907500", "164526.367500", "164526.827500", "164527.287500", "164527.747500", "164528.207500", "164528.667500", "164529.127500", "164529.587500", "164530.047500", "164530.507500", "164530.967500", "164531.427500", "164531.887500", "164532.347500", "164532.807500", "164533.267500", "164533.727500", "164534.187500", "164534.647500", "164535.107500", "164535.567500", "164536.027500", "164536.487500", "164536.947500", "164537.407500", "164537.867500", "164538.327500", "164538.787500", "164539.247500", "164539.707500", "164540.167500", "164540.627500", "164541.087500", "164541.547500", "164542.007500", "164542.467500", "164542.927500", "164543.387500", "164543.847500", "164544.307500", "164544.767500", "164545.227500", "164545.687500", "164546.147500", "164546.607500", "164547.067500", "164547.527500", "164547.987500", "164548.447500", "164548.907500", "164549.367500", "164549.827500", "164550.287500", "164550.747500", "164551.207500", "164551.667500", "164552.127500", "164552.587500", "164553.047500", "164553.507500", "164553.967500", "164554.427500", "164554.887500", "164555.347500", "164555.807500", "164556.267500", "164556.727500", "164557.187500", "164557.647500", "164558.107500", "164558.567500", "164559.027500", "164559.487500", "164559.947500", "164600.407500", "164600.867500", "164601.327500", "164601.787500", "164602.247500", "164602.707500", "164603.167500", "164603.627500", "164604.087500", "164604.547500", "164605.007500", "164605.467500", "164605.927500", "164606.387500", "164606.847500", "164607.307500", "164607.767500", "164608.227500", "164608.687500", "164609.147500", "164609.607500", "164610.067500", "164610.527500", "164610.987500", "164611.447500", "164611.907500", "164612.367500", "164612.827500", "164613.287500", "164613.747500", "164614.207500", "164614.667500", "164615.127500", "164615.587500", "164616.047500", "164616.507500", "164616.967500", "164617.427500", "164617.887500", "164618.347500", "164618.807500", "164619.267500", "164619.727500", "164620.187500", "164620.647500", "164621.107500", "164621.567500", "164622.027500", "164622.487500", "164622.947500", "164623.407500", "164623.867500", "164624.327500", "164624.787500", "164625.247500", "164625.707500", "164626.167500", "164626.627500", "164627.087500", "164627.547500", "164628.007500", "164628.467500", "164628.927500", "164629.387500", "164629.847500", "164630.307500", "164630.767500", "164631.227500", "164631.687500", "164632.147500", "164632.607500", "164633.067500", "164633.527500", "164633.987500", "164634.447500", "164634.907500", "164635.367500", "164635.827500", "164636.287500", "164636.747500", "164637.207500", "164637.667500", "164638.127500", "164638.587500", "164639.047500", "164639.507500", "164639.967500", "164640.427500", "164640.887500", "164641.347500", "164641.807500", "164642.267500", "164642.727500", "164643.187500", "164643.647500", "164644.107500", "164644.567500", "164645.027500", "164645.487500", "164645.947500", "164646.407500", "164646.867500", "164647.327500", "164647.787500", "164648.247500", "164648.707500", "164649.167500", "164649.627500", "164650.087500", "164650.547500", "164651.007500", "164651.467500", "164651.927500", "164652.387500", "164652.847500", "164653.307500", "164653.767500", "164654.227500", "164654.687500", "164655.147500", "164655.607500", "164656.067500", "164656.527500", "164656.987500", "164657.447500", "164657.907500", "164658.367500", "164658.827500", "164659.287500", "164659.747500", "164700.207500", "164700.667500", "164701.127500", "164701.587500", "164702.047500", "164702.507500", "164702.967500", "164703.427500", "164703.887500", "164704.347500", "164704.807500", "164705.267500", "164705.727500", "164706.187500", "164706.647500", "164707.107500", "164707.567500", "164708.027500", "164708.487500", "164708.947500", "164709.407500", "164709.867500", "164710.327500", "164710.787500", "164711.247500", "164711.707500", "164712.167500", "164712.627500", "164713.087500", "164713.547500", "164714.007500", "164714.467500", "164714.927500", "164715.387500", "164715.847500", "164716.307500", "164716.767500", "164717.227500", "164717.687500", "164718.147500", "164718.607500", "164719.067500", "164719.527500", "164719.987500", "164720.447500", "164720.907500", "164721.367500", "164721.827500", "164722.287500", "164722.747500", "164723.207500", "164723.667500", "164724.127500", "164724.587500", "164725.047500", "164725.507500", "164725.967500", "164726.427500", "164726.887500", "164727.347500", "164727.807500", "164728.267500", "164728.727500", "164729.187500", "164729.647500", "164730.107500", "164730.567500", "164731.027500", "164731.487500", "164731.947500", "164732.407500", "164732.867500", "164733.327500", "164733.787500", "164734.247500", "164734.707500", "164735.167500", "164735.627500", "164736.087500", "164736.547500", "164737.007500", "164737.467500", "164737.927500", "164738.387500", "164738.847500", "164739.307500", "164739.767500", "164740.227500", "164740.687500", "164741.147500", "164741.607500", "164742.067500", "164742.527500", "164742.987500", "164743.447500", "164743.907500", "164744.367500", "164744.827500", "164745.287500", "164745.747500", "164746.207500", "164746.667500", "164747.127500", "164747.587500", "164748.047500", "164748.507500", "164748.967500", "164749.427500", "164749.887500", "164750.347500", "164750.807500", "164751.267500", "164751.727500", "164752.187500", "164752.647500", "164753.107500", "164753.567500", "164754.027500", "164754.487500", "164754.947500", "164755.407500", "164755.867500", "164756.327500", "164756.787500", "164757.247500", "164757.707500", "164758.167500", "164758.627500", "164759.087500", "164759.547500", "164800.007500", "164800.467500", "164800.927500", "164801.387500", "164801.847500", "164802.307500", "164802.767500", "164803.227500", "164803.687500", "164804.147500", "164804.607500", "164805.067500", "164805.527500", "164805.987500", "164806.447500", "164806.907500", "164807.367500", "164807.827500", "164808.287500", "164808.747500", "164809.207500", "164809.667500", "164810.127500", "164810.587500", "164811.047500", "164811.507500", "164811.967500", "164812.427500", "164812.887500", "164813.347500", "164813.807500", "164814.267500", "164814.727500", "164815.187500", "164815.647500", "164816.107500", "164816.567500", "164817.027500", "164817.487500", "164817.947500", "164818.407500", "164818.867500", "164819.327500", "164819.787500", "164820.247500", "164820.707500", "164821.167500", "164821.627500", "164822.087500", "164822.547500", "164823.007500", "164823.467500", "164823.927500", "164824.387500", "164824.847500", "164825.307500", "164825.767500", "164826.227500", "164826.687500", "164827.147500", "164827.607500", "164828.067500", "164828.527500", "164828.987500", "164829.447500", "164829.907500", "164830.367500", "164830.827500", "164831.287500", "164831.747500", "164832.207500", "164832.667500", "164833.127500", "164833.587500", "164834.047500", "164834.507500", "164834.967500", "164835.427500", "164835.887500", "164836.347500", "164836.807500", "164837.267500", "164837.727500", "164838.187500", "164838.647500", "164839.107500", "164839.567500"],
