{
  "AcquisitionMatrixPE": 82,
  "AcquisitionNumber": 1,
  "AcquisitionTime": "17:21:48.182500",
  "BandwidthPerPixelPhaseEncode": 24.888,
  "BaseResolution": 82,
  "BodyPartExamined": "BRAIN",
  "ConsistencyInfo": "N4_VE11E_LATEST_20181129",
  "ConversionSoftware": "dcm2niix",
  "ConversionSoftwareVersion": "v1.0.20201102",
  "DerivedVendorReportedEchoSpacing": 0.00049,
  "DeviceSerialNumber": "66112",
  "DwellTime": 2e-06,
  "EchoTime": 0.0272,
  "EchoTrainLength": 82,
  "EffectiveEchoSpacing": 0.00049,
  "FlipAngle": 44,
  "ImageComments": "Unaliased MB8/PE3",
  "ImageOrientationPatientDICOM": [0.999151, 0.0192973, 0.0364089, -0.0261638, 0.979703, 0.198739],
  "ImageType": [
    "ORIGINAL",
    "PRIMARY",
    "M",
    "MB",
    "ND",
    "NORM",
    "MOSAIC"
],
  "ImagingFrequency": 123.252,
  "InPlanePhaseEncodingDirectionDICOM": "COL",
  "InstitutionAddress": "Maynard 3,Hanover,NH,US,03755",
  "InstitutionName": "Dartmouth College - PBS",
  "InstitutionalDepartmentName": "Department",
  "MRAcquisitionType": "2D",
  "MagneticFieldStrength": 3,
  "Manufacturer": "Siemens",
  "ManufacturersModelName": "Prisma",
  "Modality": "MR",
  "MultibandAccelerationFactor": 8,
  "PartialFourier": 1,
  "PatientPosition": "HFS",
  "PercentPhaseFOV": 100,
  "PercentSampling": 100,
  "PhaseEncodingDirection": "j-",
  "PhaseEncodingSteps": 82,
  "PhaseResolution": 1,
  "PixelBandwidth": 3050,
  "ProcedureStepDescription": "Wager_Wager^1076_spacetop",
  "ProtocolName": "func_run-04_task-alignvideo_acq-ap-mb8",
  "PulseSequenceDetails": "%CustomerSeq%\\cmrr_mbep2d_bold",
  "ReceiveCoilActiveElements": "HEA;HEP",
  "ReceiveCoilName": "Head_32",
  "ReconMatrixPE": 82,
  "RepetitionTime": 0.46,
  "SAR": 0.111977,
  "ScanOptions": "FS",
  "ScanningSequence": "EP",
  "SequenceName": "epfid2d1_82",
  "SequenceVariant": "SK\\SS",
  "SeriesDescription": "func_run-04_task-alignvideo_acq-ap-mb8",
  "SeriesNumber": 34,
  "ShimSetting": [4155, -7777, -7234, 470, -78, -118, 10, 7],
  "SliceThickness": 2.7,
  "SliceTiming": [0, 0.25, 0.0625, 0.3125, 0.125, 0.3775, 0.1875, 0, 0.25, 0.0625, 0.3125, 0.125, 0.3775, 0.1875, 0, 0.25, 0.0625, 0.3125, 0.125, 0.3775, 0.1875, 0, 0.25, 0.0625, 0.3125, 0.125, 0.3775, 0.1875, 0, 0.25, 0.0625, 0.3125, 0.125, 0.3775, 0.1875, 0, 0.25, 0.0625, 0.3125, 0.125, 0.3775, 0.1875, 0, 0.25, 0.0625, 0.3125, 0.125, 0.3775, 0.1875, 0, 0.25, 0.0625, 0.3125, 0.125, 0.3775, 0.1875],
  "SoftwareVersions": "syngo MR E11",
  "SpacingBetweenSlices": 2.7,
  "StationName": "AWP66112",
  "TaskName": "alignvideo",
  "TotalReadoutTime": 0.03969,
  "TxRefAmp": 260.6,
  "WipMemBlock": "65c688b2-e77f-4788-a3ca-a246e419619e||Sequence: R016 ve11e/master r/434b28f1; Aug  7 2019 18:53:46 by eja",
  "dcmmeta_affine": [
    [-2.6806480884552, -0.07019545137882233, 0.08595392853021622, 115.9299545288086],
    [-0.05177333950996399, 2.628471851348877, 0.5387118458747864, -93.10877227783203],
    [0.09768244624137878, -0.5332025289535522, 2.644314765930176, -27.362815856933594],
    [0.0, 0.0, 0.0, 1.0]
],
  "dcmmeta_reorient_transform": [
    [0.0, -1.0, 0.0, 81.0],
    [1.0, 0.0, 0.0, 0.0],
    [0.0, 0.0, 1.0, 0.0],
    [0.0, 0.0, 0.0, 1.0]
],
  "dcmmeta_shape": [82, 82, 56, 914],
  "dcmmeta_slice_dim": 2,
  "dcmmeta_version": 0.6,
  "global": {
    "const": {
      "AccessionNumber": "A003952",
      "AcquisitionMatrix": [82, 0, 0, 82],
      "AngioFlag": "N",
      "BitsAllocated": 16,
      "BitsStored": 16,
      "BodyPartExamined": "BRAIN",
      "Columns": 656,
      "EchoNumbers": 1,
      "EchoTime": 27.2,
      "EchoTrainLength": 82,
      "FlipAngle": 44.0,
      "HighBit": 15,
      "ImageOrientationPatient": [0.99915064129724, 0.01929733539522, 0.03640891157345, -0.0261637572114, 0.97970312917379, 0.19873911667223],
      "ImagePositionPatient": [-859.44404170689, -889.02782609712, -251.61620576392],
      "ImageType": [
        "ORIGINAL",
        "PRIMARY",
        "M",
        "MB",
        "ND",
        "NORM",
        "MOSAIC"
],
      "ImagedNucleus": "1H",
      "ImagingFrequency": 123.252145,
      "InPlanePhaseEncodingDirection": "COL",
      "MRAcquisitionType": "2D",
      "MagneticFieldStrength": 3.0,
      "Manufacturer": "SIEMENS",
      "ManufacturerModelName": "Prisma",
      "Modality": "MR",
      "NumberOfAverages": 1.0,
      "NumberOfPhaseEncodingSteps": 82,
      "PercentPhaseFieldOfView": 100.0,
      "PercentSampling": 100.0,
      "PerformedProcedureStepStartTime": "153655.058000",
      "PhotometricInterpretation": "MONOCHROME2",
      "PixelBandwidth": 3050.0,
      "PixelRepresentation": 0,
      "PixelSpacing": [2.6829268932343, 2.6829268932343],
      "ProtocolName": "func_run-04_task-alignvideo_acq-ap-mb8",
      "RepetitionTime": 460.0,
      "Rows": 656,
      "SAR": 0.11197710702584,
      "SamplesPerPixel": 1,
      "ScanOptions": "FS",
      "ScanningSequence": "EP",
      "SequenceName": "epfid2d1_82",
      "SequenceVariant": [
        "SK",
        "SS"
],
      "SeriesDescription": "func_run-04_task-alignvideo_acq-ap-mb8",
      "SeriesNumber": 34,
      "SeriesTime": "172158.656000",
      "SliceLocation": -41.685209467161,
      "SliceThickness": 2.7000000476837,
      "SmallestImagePixelValue": 0,
      "SoftwareVersions": "syngo MR E11",
      "SpacingBetweenSlices": 2.6999999235796,
      "SpecificCharacterSet": "ISO_IR 100",
      "StudyID": "1",
      "StudyTime": "153655.003000",
      "TransmitCoilName": "Body",
      "VariableFlipAngleFlag": "N",
      "WindowCenterWidthExplanation": "Algo1"
    },
    "slices": {}
  },
  "time": {
    "samples": {
      "AcquisitionNumber": [1, 2, 3, 4, 5, 6, 7, 8, 9, 10, 11, 12, 13, 14, 15, 16, 17, 18, 19, 20, 21, 22, 23, 24, 25, 26, 27, 28, 29, 30, 31, 32, 33, 34, 35, 36, 37, 38, 39, 40, 41, 42, 43, 44, 45, 46, 47, 48, 49, 50, 51, 52, 53, 54, 55, 56, 57, 58, 59, 60, 61, 62, 63, 64, 65, 66, 67, 68, 69, 70, 71, 72, 73, 74, 75, 76, 77, 78, 79, 80, 81, 82, 83, 84, 85, 86, 87, 88, 89, 90, 91, 92, 93, 94, 95, 96, 97, 98, 99, 100, 101, 102, 103, 104, 105, 106, 107, 108, 109, 110, 111, 112, 113, 114, 115, 116, 117, 118, 119, 120, 121, 122, 123, 124, 125, 126, 127, 128, 129, 130, 131, 132, 133, 134, 135, 136, 137, 138, 139, 140, 141, 142, 143, 144, 145, 146, 147, 148, 149, 150, 151, 152, 153, 154, 155, 156, 157, 158, 159, 160, 161, 162, 163, 164, 165, 166, 167, 168, 169, 170, 171, 172, 173, 174, 175, 176, 177, 178, 179, 180, 181, 182, 183, 184, 185, 186, 187, 188, 189, 190, 191, 192, 193, 194, 195, 196, 197, 198, 199, 200, 201, 202, 203, 204, 205, 206, 207, 208, 209, 210, 211, 212, 213, 214, 215, 216, 217, 218, 219, 220, 221, 222, 223, 224, 225, 226, 227, 228, 229, 230, 231, 232, 233, 234, 235, 236, 237, 238, 239, 240, 241, 242, 243, 244, 245, 246, 247, 248, 249, 250, 251, 252, 253, 254, 255, 256, 257, 258, 259, 260, 261, 262, 263, 264, 265, 266, 267, 268, 269, 270, 271, 272, 273, 274, 275, 276, 277, 278, 279, 280, 281, 282, 283, 284, 285, 286, 287, 288, 289, 290, 291, 292, 293, 294, 295, 296, 297, 298, 299, 300, 301, 302, 303, 304, 305, 306, 307, 308, 309, 310, 311, 312, 313, 314, 315, 316, 317, 318, 319, 320, 321, 322, 323, 324, 325, 326, 327, 328, 329, 330, 331, 332, 333, 334, 335, 336, 337, 338, 339, 340, 341, 342, 343, 344, 345, 346, 347, 348, 349, 350, 351, 352, 353, 354, 355, 356, 357, 358, 359, 360, 361, 362, 363, 364, 365, 366, 367, 368, 369, 370, 371, 372, 373, 374, 375, 376, 377, 378, 379, 380, 381, 382, 383, 384, 385, 386, 387, 388, 389, 390, 391, 392, 393, 394, 395, 396, 397, 398, 399, 400, 401, 402, 403, 404, 405, 406, 407, 408, 409, 410, 411, 412, 413, 414, 415, 416, 417, 418, 419, 420, 421, 422, 423, 424, 425, 426, 427, 428, 429, 430, 431, 432, 433, 434, 435, 436, 437, 438, 439, 440, 441, 442, 443, 444, 445, 446, 447, 448, 449, 450, 451, 452, 453, 454, 455, 456, 457, 458, 459, 460, 461, 462, 463, 464, 465, 466, 467, 468, 469, 470, 471, 472, 473, 474, 475, 476, 477, 478, 479, 480, 481, 482, 483, 484, 485, 486, 487, 488, 489, 490, 491, 492, 493, 494, 495, 496, 497, 498, 499, 500, 501, 502, 503, 504, 505, 506, 507, 508, 509, 510, 511, 512, 513, 514, 515, 516, 517, 518, 519, 520, 521, 522, 523, 524, 525, 526, 527, 528, 529, 530, 531, 532, 533, 534, 535, 536, 537, 538, 539, 540, 541, 542, 543, 544, 545, 546, 547, 548, 549, 550, 551, 552, 553, 554, 555, 556, 557, 558, 559, 560, 561, 562, 563, 564, 565, 566, 567, 568, 569, 570, 571, 572, 573, 574, 575, 576, 577, 578, 579, 580, 581, 582, 583, 584, 585, 586, 587, 588, 589, 590, 591, 592, 593, 594, 595, 596, 597, 598, 599, 600, 601, 602, 603, 604, 605, 606, 607, 608, 609, 610, 611, 612, 613, 614, 615, 616, 617, 618, 619, 620, 621, 622, 623, 624, 625, 626, 627, 628, 629, 630, 631, 632, 633, 634, 635, 636, 637, 638, 639, 640, 641, 642, 643, 644, 645, 646, 647, 648, 649, 650, 651, 652, 653, 654, 655, 656, 657, 658, 659, 660, 661, 662, 663, 664, 665, 666, 667, 668, 669, 670, 671, 672, 673, 674, 675, 676, 677, 678, 679, 680, 681, 682, 683, 684, 685, 686, 687, 688, 689, 690, 691, 692, 693, 694, 695, 696, 697, 698, 699, 700, 701, 702, 703, 704, 705, 706, 707, 708, 709, 710, 711, 712, 713, 714, 715, 716, 717, 718, 719, 720, 721, 722, 723, 724, 725, 726, 727, 728, 729, 730, 731, 732, 733, 734, 735, 736, 737, 738, 739, 740, 741, 742, 743, 744, 745, 746, 747, 748, 749, 750, 751, 752, 753, 754, 755, 756, 757, 758, 759, 760, 761, 762, 763, 764, 765, 766, 767, 768, 769, 770, 771, 772, 773, 774, 775, 776, 777, 778, 779, 780, 781, 782, 783, 784, 785, 786, 787, 788, 789, 790, 791, 792, 793, 794, 795, 796, 797, 798, 799, 800, 801, 802, 803, 804, 805, 806, 807, 808, 809, 810, 811, 812, 813, 814, 815, 816, 817, 818, 819, 820, 821, 822, 823, 824, 825, 826, 827, 828, 829, 830, 831, 832, 833, 834, 835, 836, 837, 838, 839, 840, 841, 842, 843, 844, 845, 846, 847, 848, 849, 850, 851, 852, 853, 854, 855, 856, 857, 858, 859, 860, 861, 862, 863, 864, 865, 866, 867, 868, 869, 870, 871, 872, 873, 874, 875, 876, 877, 878, 879, 880, 881, 882, 883, 884, 885, 886, 887, 888, 889, 890, 891, 892, 893, 894, 895, 896, 897, 898, 899, 900, 901, 902, 903, 904, 905, 906, 907, 908, 909, 910, 911, 912, 913, 914],
      "AcquisitionTime": ["172148.182500", "172148.642500", "172149.102500", "172149.562500", "172150.022500", "172150.482500", "172150.942500", "172151.402500", "172151.862500", "172152.322500", "172152.782500", "172153.242500", "172153.702500", "172154.162500", "172154.622500", "172155.082500", "172155.542500", "172156.002500", "172156.462500", "172156.922500", "172157.382500", "172157.842500", "172158.302500", "172158.762500", "172159.222500", "172159.682500", "172200.142500", "172200.602500", "172201.062500", "172201.522500", "172201.982500", "172202.442500", "172202.902500", "172203.362500", "172203.822500", "172204.282500", "172204.742500", "172205.202500", "172205.662500", "172206.122500", "172206.582500", "172207.042500", "172207.502500", "172207.962500", "172208.422500", "172208.882500", "172209.342500", "172209.802500", "172210.262500", "172210.722500", "172211.182500", "172211.642500", "172212.102500", "172212.562500", "172213.022500", "172213.482500", "172213.942500", "172214.402500", "172214.862500", "172215.322500", "172215.782500", "172216.242500", "172216.702500", "172217.162500", "172217.622500", "172218.082500", "172218.542500", "172219.002500", "172219.462500", "172219.922500", "172220.382500", "172220.842500", "172221.302500", "172221.762500", "172222.222500", "172222.682500", "172223.142500", "172223.602500", "172224.062500", "172224.522500", "172224.982500", "172225.442500", "172225.902500", "172226.362500", "172226.822500", "172227.282500", "172227.742500", "172228.202500", "172228.662500", "172229.122500", "172229.582500", "172230.042500", "172230.502500", "172230.962500", "172231.422500", "172231.882500", "172232.342500", "172232.802500", "172233.262500", "172233.722500", "172234.182500", "172234.642500", "172235.102500", "172235.562500", "172236.022500", "172236.482500", "172236.942500", "172237.402500", "172237.862500", "172238.322500", "172238.782500", "172239.242500", "172239.702500", "172240.162500", "172240.622500", "172241.082500", "172241.542500", "172242.002500", "172242.462500", "172242.922500", "172243.382500", "172243.842500", "172244.302500", "172244.762500", "172245.222500", "172245.682500", "172246.142500", "172246.602500", "172247.062500", "172247.522500", "172247.982500", "172248.442500", "172248.902500", "172249.362500", "172249.822500", "172250.282500", "172250.742500", "172251.202500", "172251.662500", "172252.122500", "172252.582500", "172253.042500", "172253.502500", "172253.962500", "172254.422500", "172254.882500", "172255.342500", "172255.802500", "172256.262500", "172256.722500", "172257.182500", "172257.642500", "172258.102500", "172258.562500", "172259.022500", "172259.482500", "172259.942500", "172300.402500", "172300.862500", "172301.322500", "172301.782500", "172302.242500", "172302.702500", "172303.162500", "172303.622500", "172304.082500", "172304.542500", "172305.002500", "172305.462500", "172305.922500", "172306.382500", "172306.842500", "172307.302500", "172307.762500", "172308.222500", "172308.682500", "172309.142500", "172309.602500", "172310.062500", "172310.522500", "172310.982500", "172311.442500", "172311.902500", "172312.362500", "172312.822500", "172313.282500", "172313.742500", "172314.202500", "172314.662500", "172315.122500", "172315.582500", "172316.042500", "172316.502500", "172316.962500", "172317.422500", "172317.882500", "172318.342500", "172318.802500", "172319.262500", "172319.722500", "172320.182500", "172320.642500", "172321.102500", "172321.562500", "172322.022500", "172322.482500", "172322.942500", "172323.402500", "172323.862500", "172324.322500", "172324.782500", "172325.242500", "172325.702500", "172326.162500", "172326.622500", "172327.082500", "172327.542500", "172328.002500", "172328.462500", "172328.922500", "172329.382500", "172329.842500", "172330.302500", "172330.762500", "172331.222500", "172331.682500", "172332.142500", "172332.602500", "172333.062500", "172333.522500", "172333.982500", "172334.442500", "172334.902500", "172335.362500", "172335.822500", "172336.282500", "172336.742500", "172337.202500", "172337.662500", "172338.122500", "172338.582500", "172339.042500", "172339.502500", "172339.962500", "172340.422500", "172340.882500", "172341.342500", "172341.802500", "172342.262500", "172342.722500", "172343.182500", "172343.642500", "172344.102500", "172344.562500", "172345.022500", "172345.482500", "172345.942500", "172346.402500", "172346.862500", "172347.322500", "172347.782500", "172348.242500", "172348.702500", "172349.162500", "172349.622500", "172350.082500", "172350.542500", "172351.002500", "172351.462500", "172351.922500", "172352.382500", "172352.842500", "172353.302500", "172353.762500", "172354.222500", "172354.682500", "172355.142500", "172355.602500", "172356.062500", "172356.522500", "172356.982500", "172357.442500", "172357.902500", "172358.362500", "172358.822500", "172359.282500", "172359.742500", "172400.202500", "172400.662500", "172401.122500", "172401.582500", "172402.042500", "172402.502500", "172402.962500", "172403.422500", "172403.882500", "172404.342500", "172404.802500", "172405.262500", "172405.722500", "172406.182500", "172406.642500", "172407.102500", "172407.562500", "172408.022500", "172408.482500", "172408.942500", "172409.402500", "172409.862500", "172410.322500", "172410.782500", "172411.242500", "172411.702500", "172412.162500", "172412.622500", "172413.082500", "172413.542500", "172414.002500", "172414.462500", "172414.922500", "172415.382500", "172415.842500", "172416.302500", "172416.762500", "172417.222500", "172417.682500", "172418.142500", "172418.602500", "172419.062500", "172419.522500", "172419.982500", "172420.442500", "172420.902500", "172421.362500", "172421.822500", "172422.282500", "172422.742500", "172423.202500", "172423.662500", "172424.122500", "172424.582500", "172425.042500", "172425.502500", "172425.962500", "172426.422500", "172426.882500", "172427.342500", "172427.802500", "172428.262500", "172428.722500", "172429.182500", "172429.642500", "172430.102500", "172430.562500", "172431.022500", "172431.482500", "172431.942500", "172432.402500", "172432.862500", "172433.322500", "172433.782500", "172434.242500", "172434.702500", "172435.162500", "172435.622500", "172436.082500", "172436.542500", "172437.002500", "172437.462500", "172437.922500", "172438.382500", "172438.842500", "172439.302500", "172439.762500", "172440.222500", "172440.682500", "172441.142500", "172441.602500", "172442.062500", "172442.522500", "172442.982500", "172443.442500", "172443.902500", "172444.362500", "172444.822500", "172445.282500", "172445.742500", "172446.202500", "172446.662500", "172447.122500", "172447.582500", "172448.042500", "172448.502500", "172448.962500", "172449.422500", "172449.882500", "172450.342500", "172450.802500", "172451.262500", "172451.722500", "172452.182500", "172452.642500", "172453.102500", "172453.562500", "172454.022500", "172454.482500", "172454.942500", "172455.402500", "172455.862500", "172456.322500", "172456.782500", "172457.242500", "172457.702500", "172458.162500", "172458.622500", "172459.082500", "172459.542500", "172500.002500", "172500.462500", "172500.922500", "172501.382500", "172501.842500", "172502.302500", "172502.762500", "172503.222500", "172503.682500", "172504.142500", "172504.602500", "172505.062500", "172505.522500", "172505.982500", "172506.442500", "172506.902500", "172507.362500", "172507.822500", "172508.282500", "172508.742500", "172509.202500", "172509.662500", "172510.122500", "172510.582500", "172511.042500", "172511.502500", "172511.962500", "172512.422500", "172512.882500", "172513.342500", "172513.802500", "172514.262500", "172514.722500", "172515.182500", "172515.642500", "172516.102500", "172516.562500", "172517.022500", "172517.482500", "172517.942500", "172518.402500", "172518.862500", "172519.322500", "172519.782500", "172520.242500", "172520.702500", "172521.162500", "172521.622500", "172522.082500", "172522.542500", "172523.002500", "172523.462500", "172523.922500", "172524.382500", "172524.842500", "172525.302500", "172525.762500", "172526.222500", "172526.682500", "172527.142500", "172527.602500", "172528.062500", "172528.522500", "172528.982500", "172529.442500", "172529.902500", "172530.362500", "172530.822500", "172531.282500", "172531.742500", "172532.202500", "172532.662500", "172533.122500", "172533.582500", "172534.042500", "172534.502500", "172534.962500", "172535.422500", "172535.882500", "172536.342500", "172536.802500", "172537.262500", "172537.722500", "172538.182500", "172538.642500", "172539.102500", "172539.562500", "172540.022500", "172540.482500", "172540.942500", "172541.402500", "172541.862500", "172542.322500", "172542.782500", "172543.242500", "172543.702500", "172544.162500", "172544.622500", "172545.082500", "172545.542500", "172546.002500", "172546.462500", "172546.922500", "172547.382500", "172547.842500", "172548.302500", "172548.762500", "172549.222500", "172549.682500", "172550.142500", "172550.602500", "172551.062500", "172551.522500", "172551.982500", "172552.442500", "172552.902500", "172553.362500", "172553.822500", "172554.282500", "172554.742500", "172555.202500", "172555.662500", "172556.122500", "172556.582500", "172557.042500", "172557.502500", "172557.962500", "172558.422500", "172558.882500", "172559.342500", "172559.802500", "172600.262500", "172600.722500", "172601.182500", "172601.642500", "172602.102500", "172602.562500", "172603.022500", "172603.482500", "172603.942500", "172604.402500", "172604.862500", "172605.322500", "172605.782500", "172606.242500", "172606.702500", "172607.162500", "172607.622500", "172608.082500", "172608.542500", "172609.002500", "172609.462500", "172609.922500", "172610.382500", "172610.842500", "172611.302500", "172611.762500", "172612.222500", "172612.682500", "172613.142500", "172613.602500", "172614.062500", "172614.522500", "172614.982500", "172615.442500", "172615.902500", "172616.362500", "172616.822500", "172617.282500", "172617.742500", "172618.202500", "172618.662500", "172619.122500", "172619.582500", "172620.042500", "172620.502500", "172620.962500", "172621.422500", "172621.882500", "172622.342500", "172622.802500", "172623.262500", "172623.722500", "172624.182500", "172624.642500", "172625.102500", "172625.562500", "172626.022500", "172626.482500", "172626.942500", "172627.402500", "172627.862500", "172628.322500", "172628.782500", "172629.242500", "172629.702500", "172630.162500", "172630.622500", "172631.082500", "172631.542500", "172632.002500", "172632.462500", "172632.922500", "172633.382500", "172633.842500", "172634.302500", "172634.762500", "172635.222500", "172635.682500", "172636.142500", "172636.602500", "172637.062500", "172637.522500", "172637.982500", "172638.442500", "172638.902500", "172639.362500", "172639.822500", "172640.282500", "172640.742500", "172641.202500", "172641.662500", "172642.122500", "172642.582500", "172643.042500", "172643.502500", "172643.962500", "172644.422500", "172644.882500", "172645.342500", "172645.802500", "172646.262500", "172646.722500", "172647.182500", "172647.642500", "172648.102500", "172648.562500", "172649.022500", "172649.482500", "172649.942500", "172650.402500", "172650.862500", "172651.322500", "172651.782500", "172652.242500", "172652.702500", "172653.162500", "172653.622500", "172654.082500", "172654.542500", "172655.002500", "172655.462500", "172655.922500", "172656.382500", "172656.842500", "172657.302500", "172657.762500", "172658.222500", "172658.682500", "172659.142500", "172659.602500", "172700.062500", "172700.522500", "172700.982500", "172701.442500", "172701.902500", "172702.362500", "172702.822500", "172703.282500", "172703.742500", "172704.202500", "172704.662500", "172705.122500", "172705.582500", "172706.042500", "172706.502500", "172706.962500", "172707.422500", "172707.882500", "172708.342500", "172708.802500", "172709.262500", "172709.722500", "172710.182500", "172710.642500", "172711.102500", "172711.562500", "172712.022500", "172712.482500", "172712.942500", "172713.402500", "172713.862500", "172714.322500", "172714.782500", "172715.242500", "172715.702500", "172716.162500", "172716.622500", "172717.082500", "172717.542500", "172718.002500", "172718.462500", "172718.922500", "172719.382500", "172719.842500", "172720.302500", "172720.762500", "172721.222500", "172721.682500", "172722.142500", "172722.602500", "172723.062500", "172723.522500", "172723.982500", "172724.442500", "172724.902500", "172725.362500", "172725.822500", "172726.282500", "172726.742500", "172727.202500", "172727.662500", "172728.122500", "172728.582500", "172729.042500", "172729.502500", "172729.962500", "172730.422500", "172730.882500", "172731.342500", "172731.802500", "172732.262500", "172732.722500", "172733.182500", "172733.642500", "172734.102500", "172734.562500", "172735.022500", "172735.482500", "172735.942500", "172736.402500", "172736.862500", "172737.322500", "172737.782500", "172738.242500", "172738.702500", "172739.162500", "172739.622500", "172740.082500", "172740.542500", "172741.002500", "172741.462500", "172741.922500", "172742.382500", "172742.842500", "172743.302500", "172743.762500", "172744.222500", "172744.682500", "172745.142500", "172745.602500", "172746.062500", "172746.522500", "172746.982500", "172747.442500", "172747.902500", "172748.362500", "172748.822500", "172749.282500", "172749.742500", "172750.202500", "172750.662500", "172751.122500", "172751.582500", "172752.042500", "172752.502500", "172752.962500", "172753.422500", "172753.882500", "172754.342500", "172754.802500", "172755.262500", "172755.722500", "172756.182500", "172756.642500", "172757.102500", "172757.562500", "172758.022500", "172758.482500", "172758.942500", "172759.402500", "172759.862500", "172800.322500", "172800.782500", "172801.242500", "172801.702500", "172802.162500", "172802.622500", "172803.082500", "172803.542500", "172804.002500", "172804.462500", "172804.922500", "172805.382500", "172805.842500", "172806.302500", "172806.762500", "172807.222500", "172807.682500", "172808.142500", "172808.602500", "172809.062500", "172809.522500", "172809.982500", "172810.442500", "172810.902500", "172811.362500", "172811.822500", "172812.282500", "172812.742500", "172813.202500", "172813.662500", "172814.122500", "172814.582500", "172815.042500", "172815.502500", "172815.962500", "172816.422500", "172816.882500", "172817.342500", "172817.802500", "172818.262500", "172818.722500", "172819.182500", "172819.642500", "172820.102500", "172820.562500", "172821.022500", "172821.482500", "172821.942500", "172822.402500", "172822.862500", "172823.322500", "172823.782500", "172824.242500", "172824.702500", "172825.162500", "172825.622500", "172826.082500", "172826.542500", "172827.002500", "172827.462500", "172827.922500", "172828.382500", "172828.842500", "172829.302500", "172829.762500", "172830.222500", "172830.682500", "172831.142500", "172831.602500", "172832.062500", "172832.522500", "172832.982500", "172833.442500", "172833.902500", "172834.362500", "172834.822500", "172835.282500", "172835.742500", "172836.202500", "172836.662500", "172837.122500", "172837.582500", "172838.042500", "172838.502500", "172838.962500", "172839.422500", "172839.882500", "172840.342500", "172840.802500", "172841.262500", "172841.722500", "172842.182500", "172842.642500", "172843.102500", "172843.562500", "172844.022500", "172844.482500", "172844.942500", "172845.402500", "172845.862500", "172846.322500", "172846.782500", "172847.242500", "172847.702500", "172848.162500"],
