{
  "AcquisitionMatrixPE": 140,
  "AcquisitionNumber": 1,
  "AcquisitionTime": "14:16:50.525000",
  "BandwidthPerPixelPhaseEncode": 10.352,
  "BaseResolution": 140,
  "BodyPartExamined": "BRAIN",
  "ConsistencyInfo": "N4_VE11C_LATEST_20160120",
  "ConversionSoftware": "dcm2niix",
  "ConversionSoftwareVersion": "v1.0.20201102",
  "DerivedVendorReportedEchoSpacing": 0.000689998,
  "DeviceSerialNumber": "66112",
  "DiffusionScheme": "Monopolar",
  "DwellTime": 2.1e-06,
  "EchoTime": 0.088,
  "EchoTrainLength": 105,
  "EffectiveEchoSpacing": 0.000689998,
  "FlipAngle": 90,
  "ImageComments": "Unaliased MB3/PE3",
  "ImageOrientationPatientDICOM": [0.999402, 0.0325789, 0.0115943, -0.0345506, 0.926794, 0.373979],
  "ImageType": [
    "ORIGINAL",
    "PRIMARY",
    "DIFFUSION",
    "NONE",
    "MB",
    "ND"
],
  "ImagingFrequency": 123.252,
  "InPlanePhaseEncodingDirectionDICOM": "COL",
  "InstitutionAddress": "Maynard 3,Hanover,NH,US,03755",
  "InstitutionName": "Dartmouth College - PBS",
  "InstitutionalDepartmentName": "Department",
  "MRAcquisitionType": "2D",
  "MagneticFieldStrength": 3,
  "Manufacturer": "Siemens",
  "ManufacturersModelName": "Prisma",
  "Modality": "MR",
  "MultibandAccelerationFactor": 3,
  "PartialFourier": 0.75,
  "PatientPosition": "HFS",
  "PercentPhaseFOV": 100,
  "PercentSampling": 100,
  "PhaseEncodingDirection": "j",
  "PhaseEncodingSteps": 105,
  "PhaseResolution": 1,
  "PixelBandwidth": 1700,
  "ProcedureStepDescription": "Wager_Wager^1076_spacetop",
  "ProtocolName": "dwi_acq-discorr-PA",
  "PulseSequenceDetails": "%CustomerSeq%\\cmrr_mbep2d_diff",
  "ReceiveCoilActiveElements": "HEA;HEP",
  "ReceiveCoilName": "Head_32",
  "ReconMatrixPE": 140,
  "RepetitionTime": 4.1,
  "SAR": 0.133901,
  "ScanOptions": "PFP\\FS",
  "ScanningSequence": "EP",
  "SequenceName": "ep_b0",
  "SequenceVariant": "SK\\SS",
  "SeriesDescription": "dwi_acq-discorr-PA",
  "SeriesNumber": 6,
  "ShimSetting": [4161, -7766, -7276, 464, -37, -371, -4, 62],
  "SliceThickness": 1.7,
  "SliceTiming": [0, 2.10938, 0.14062, 2.26562, 0.29688, 2.40625, 0.45312, 2.5625, 0.59375, 2.71875, 0.75, 2.85938, 0.90625, 3.01562, 1.04688, 3.17188, 1.20312, 3.3125, 1.35938, 3.46875, 1.5, 3.625, 1.65625, 3.76562, 1.8125, 3.92188, 1.95312, 0, 2.10938, 0.14062, 2.26562, 0.29688, 2.40625, 0.45312, 2.5625, 0.59375, 2.71875, 0.75, 2.85938, 0.90625, 3.01562, 1.04688, 3.17188, 1.20312, 3.3125, 1.35938, 3.46875, 1.5, 3.625, 1.65625, 3.76562, 1.8125, 3.92188, 1.95312, 0, 2.10938, 0.14062, 2.26562, 0.29688, 2.40625, 0.45312, 2.5625, 0.59375, 2.71875, 0.75, 2.85938, 0.90625, 3.01562, 1.04688, 3.17188, 1.20312, 3.3125, 1.35938, 3.46875, 1.5, 3.625, 1.65625, 3.76562, 1.8125, 3.92188, 1.95312],
  "SoftwareVersions": "syngo MR E11",
  "SpacingBetweenSlices": 1.7,
  "StationName": "AWP66112",
  "TotalReadoutTime": 0.0959097,
  "TxRefAmp": 236.07,
  "WipMemBlock": "4ae76550-3683-49a4-92d3-794f077205b0||Sequence: R016 ve11c/master r/e634e98; Dec 19 2017 11:11:25 by eja",
  "dcmmeta_affine": [
    [-1.7132604122161865, -0.059229541569948196, -0.0024451613426208496, 123.38119506835938],
    [-0.05584948882460594, 1.5887889862060547, 0.6360626220703125, -110.6231689453125],
    [0.01987592875957489, -0.641106128692627, 1.5765190124511719, -48.35363006591797],
    [0.0, 0.0, 0.0, 1.0]
],
  "dcmmeta_reorient_transform": [
    [0.0, -1.0, 0.0, 139.0],
    [1.0, 0.0, 0.0, 0.0],
    [0.0, 0.0, -1.0, 80.0],
    [0.0, 0.0, 0.0, 1.0]
],
  "dcmmeta_shape": [140, 140, 81],
  "dcmmeta_slice_dim": 2,
  "dcmmeta_version": 0.6,
  "global": {
    "const": {
      "AccessionNumber": "A003437",
      "AcquisitionMatrix": [140, 0, 0, 140],
      "AcquisitionNumber": 1,
      "AngioFlag": "N",
      "BitsAllocated": 16,
      "BitsStored": 16,
      "BodyPartExamined": "BRAIN",
      "Columns": 140,
      "EchoNumbers": 1,
      "EchoTime": 88.0,
      "EchoTrainLength": 105,
      "FlipAngle": 90.0,
      "HighBit": 15,
      "ImageOrientationPatient": [0.99940191600039, 0.0325788688311, 0.01159429171738, -0.0345505663066, 0.92679354481338, 0.37397858716797],
      "ImageType": [
        "ORIGINAL",
        "PRIMARY",
        "DIFFUSION",
        "NONE",
        "MB",
        "ND"
],
      "ImagedNucleus": "1H",
      "ImagingFrequency": 123.252139,
      "InPlanePhaseEncodingDirection": "COL",
      "MRAcquisitionType": "2D",
      "MagneticFieldStrength": 3.0,
      "Manufacturer": "SIEMENS",
      "ManufacturerModelName": "Prisma",
      "Modality": "MR",
      "NumberOfAverages": 1.0,
      "NumberOfPhaseEncodingSteps": 105,
      "PercentPhaseFieldOfView": 100.0,
      "PercentSampling": 100.0,
      "PerformedProcedureStepStartTime": "134540.224000",
      "PhotometricInterpretation": "MONOCHROME2",
      "PixelBandwidth": 1700.0,
      "PixelRepresentation": 0,
      "PixelSpacing": [1.7142857313156, 1.7142857313156],
      "ProtocolName": "dwi_acq-discorr-PA",
      "RepetitionTime": 4100.0,
      "Rows": 140,
      "SAR": 0.13390054075217,
      "SamplesPerPixel": 1,
      "ScanOptions": [
        "PFP",
        "FS"
],
      "ScanningSequence": "EP",
      "SequenceName": "ep_b0",
      "SequenceVariant": [
        "SK",
        "SS"
],
      "SeriesDescription": "dwi_acq-discorr-PA",
      "SeriesNumber": 6,
      "SeriesTime": "141656.575000",
      "SliceThickness": 1.7000000476837,
      "SmallestImagePixelValue": 0,
      "SoftwareVersions": "syngo MR E11",
      "SpacingBetweenSlices": 1.7,
      "SpecificCharacterSet": "ISO_IR 100",
      "StudyID": "1",
      "StudyTime": "134540.145000",
      "TransmitCoilName": "Body",
      "VariableFlipAngleFlag": "N",
      "WindowCenterWidthExplanation": "Algo1",
      "dBdt": 0.0},
    "slices": {
      "AcquisitionTime": ["141650.525000", "141652.640000", "141650.675000", "141652.792500", "141650.827500", "141652.942500", "141650.977500", "141653.095000", "141651.130000", "141653.245000", "141651.280000", "141653.395000", "141651.432500", "141653.547500", "141651.582500", "141653.697500", "141651.735000", "141653.850000", "141651.885000", "141654.000000", "141652.035000", "141654.152500", "141652.187500", "141654.302500", "141652.337500", "141654.455000", "141652.490000", "141650.525000", "141652.640000", "141650.675000", "141652.792500", "141650.827500", "141652.942500", "141650.977500", "141653.095000", "141651.130000", "141653.245000", "141651.280000", "141653.395000", "141651.432500", "141653.547500", "141651.582500", "141653.697500", "141651.735000", "141653.850000", "141651.885000", "141654.000000", "141652.035000", "141654.152500", "141652.187500", "141654.302500", "141652.337500", "141654.455000", "141652.490000", "141650.525000", "141652.640000", "141650.675000", "141652.792500", "141650.827500", "141652.942500", "141650.977500", "141653.095000", "141651.130000", "141653.245000", "141651.280000", "141653.395000", "141651.432500", "141653.547500", "141651.582500", "141653.697500", "141651.735000", "141653.850000", "141651.885000", "141654.000000", "141652.035000", "141654.152500", "141652.187500", "141654.302500", "141652.337500", "141654.455000", "141652.490000"],
      "ContentTime": ["141656.578000", "141656.679000", "141656.586000", "141656.685000", "141656.593000", "141656.691000", "141656.600000", "141656.697000", "141656.607000", "141656.704000", "141656.613000", "141656.710000", "141656.620000", "141656.717000", "141656.626000", "141656.723000", "141656.633000", "141656.739000", "141656.639000", "141656.746000", "141656.646000", "141656.752000", "141656.652000", "141656.759000", "141656.659000", "141656.765000", "141656.665000", "141656.582000", "141656.681000", "141656.588000", "141656.687000", "141656.596000", "141656.693000", "141656.602000", "141656.700000", "141656.609000", "141656.706000", "141656.616000", "141656.712000", "141656.622000", "141656.719000", "141656.628000", "141656.725000", "141656.635000", "141656.742000", "141656.641000", "141656.748000", "141656.648000", "141656.754000", "141656.654000", "141656.761000", "141656.661000", "141656.767000", "141656.667000", "141656.584000", "141656.683000", "141656.591000", "141656.689000", "141656.598000", "141656.695000", "141656.604000", "141656.702000", "141656.611000", "141656.708000", "141656.618000", "141656.714000", "141656.624000", "141656.721000", "141656.631000", "141656.737000", "141656.637000", "141656.744000", "141656.644000", "141656.750000", "141656.650000", "141656.756000", "141656.656000", "141656.763000", "141656.663000", "141656.769000", "141656.669000"],
      "CsaImage.ICE_Dims": [
        "X_1_1_1_1_1_1_1_1_1_1_1_42",
        "X_1_1_1_1_1_1_42_1_1_2_1_42",
        "X_1_1_1_1_1_1_2_1_1_3_1_42",
        "X_1_1_1_1_1_1_43_1_1_4_1_42",
        "X_1_1_1_1_1_1_3_1_1_5_1_42",
        "X_1_1_1_1_1_1_44_1_1_6_1_42",
        "X_1_1_1_1_1_1_4_1_1_7_1_42",
        "X_1_1_1_1_1_1_45_1_1_8_1_42",
        "X_1_1_1_1_1_1_5_1_1_9_1_42",
        "X_1_1_1_1_1_1_46_1_1_10_1_42",
        "X_1_1_1_1_1_1_6_1_1_11_1_42",
        "X_1_1_1_1_1_1_47_1_1_12_1_42",
        "X_1_1_1_1_1_1_7_1_1_13_1_42",
        "X_1_1_1_1_1_1_48_1_1_14_1_42",
        "X_1_1_1_1_1_1_8_1_1_15_1_42",
        "X_1_1_1_1_1_1_49_1_1_16_1_42",
        "X_1_1_1_1_1_1_9_1_1_17_1_42",
        "X_1_1_1_1_1_1_50_1_1_18_1_42",
        "X_1_1_1_1_1_1_10_1_1_19_1_42",
        "X_1_1_1_1_1_1_51_1_1_20_1_42",
        "X_1_1_1_1_1_1_11_1_1_21_1_42",
        "X_1_1_1_1_1_1_52_1_1_22_1_42",
        "X_1_1_1_1_1_1_12_1_1_23_1_42",
        "X_1_1_1_1_1_1_53_1_1_24_1_42",
        "X_1_1_1_1_1_1_13_1_1_25_1_42",
        "X_1_1_1_1_1_1_54_1_1_26_1_42",
        "X_1_1_1_1_1_1_14_1_1_27_1_42",
        "X_1_1_1_1_1_1_55_1_1_28_1_42",
        "X_1_1_1_1_1_1_15_1_1_29_1_42",
        "X_1_1_1_1_1_1_56_1_1_30_1_42",
        "X_1_1_1_1_1_1_16_1_1_31_1_42",
        "X_1_1_1_1_1_1_57_1_1_32_1_42",
        "X_1_1_1_1_1_1_17_1_1_33_1_42",
        "X_1_1_1_1_1_1_58_1_1_34_1_42",
        "X_1_1_1_1_1_1_18_1_1_35_1_42",
        "X_1_1_1_1_1_1_59_1_1_36_1_42",
        "X_1_1_1_1_1_1_19_1_1_37_1_42",
        "X_1_1_1_1_1_1_60_1_1_38_1_42",
        "X_1_1_1_1_1_1_20_1_1_39_1_42",
        "X_1_1_1_1_1_1_61_1_1_40_1_42",
        "X_1_1_1_1_1_1_21_1_1_41_1_42",
        "X_1_1_1_1_1_1_62_1_1_42_1_42",
        "X_1_1_1_1_1_1_22_1_1_43_1_42",
        "X_1_1_1_1_1_1_63_1_1_44_1_42",
        "X_1_1_1_1_1_1_23_1_1_45_1_42",
        "X_1_1_1_1_1_1_64_1_1_46_1_42",
        "X_1_1_1_1_1_1_24_1_1_47_1_42",
        "X_1_1_1_1_1_1_65_1_1_48_1_42",
        "X_1_1_1_1_1_1_25_1_1_49_1_42",
        "X_1_1_1_1_1_1_66_1_1_50_1_42",
        "X_1_1_1_1_1_1_26_1_1_51_1_42",
        "X_1_1_1_1_1_1_67_1_1_52_1_42",
        "X_1_1_1_1_1_1_27_1_1_53_1_42",
        "X_1_1_1_1_1_1_68_1_1_54_1_42",
        "X_1_1_1_1_1_1_28_1_1_55_1_42",
        "X_1_1_1_1_1_1_69_1_1_56_1_42",
        "X_1_1_1_1_1_1_29_1_1_57_1_42",
        "X_1_1_1_1_1_1_70_1_1_58_1_42",
        "X_1_1_1_1_1_1_30_1_1_59_1_42",
        "X_1_1_1_1_1_1_71_1_1_60_1_42",
        "X_1_1_1_1_1_1_31_1_1_61_1_42",
        "X_1_1_1_1_1_1_72_1_1_62_1_42",
        "X_1_1_1_1_1_1_32_1_1_63_1_42",
        "X_1_1_1_1_1_1_73_1_1_64_1_42",
        "X_1_1_1_1_1_1_33_1_1_65_1_42",
        "X_1_1_1_1_1_1_74_1_1_66_1_42",
        "X_1_1_1_1_1_1_34_1_1_67_1_42",
        "X_1_1_1_1_1_1_75_1_1_68_1_42",
        "X_1_1_1_1_1_1_35_1_1_69_1_42",
        "X_1_1_1_1_1_1_76_1_1_70_1_42",
        "X_1_1_1_1_1_1_36_1_1_71_1_42",
        "X_1_1_1_1_1_1_77_1_1_72_1_42",
        "X_1_1_1_1_1_1_37_1_1_73_1_42",
        "X_1_1_1_1_1_1_78_1_1_74_1_42",
        "X_1_1_1_1_1_1_38_1_1_75_1_42",
        "X_1_1_1_1_1_1_79_1_1_76_1_42",
        "X_1_1_1_1_1_1_39_1_1_77_1_42",
        "X_1_1_1_1_1_1_80_1_1_78_1_42",
        "X_1_1_1_1_1_1_40_1_1_79_1_42",
        "X_1_1_1_1_1_1_81_1_1_80_1_42",
        "X_1_1_1_1_1_1_41_1_1_81_1_42"
],
      "CsaImage.ProtocolSliceNumber": [0, 1, 2, 3, 4, 5, 6, 7, 8, 9, 10, 11, 12, 13, 14, 15, 16, 17, 18, 19, 20, 21, 22, 23, 24, 25, 26, 27, 28, 29, 30, 31, 32, 33, 34, 35, 36, 37, 38, 39, 40, 41, 42, 43, 44, 45, 46, 47, 48, 49, 50, 51, 52, 53, 54, 55, 56, 57, 58, 59, 60, 61, 62, 63, 64, 65, 66, 67, 68, 69, 70, 71, 72, 73, 74, 75, 76, 77, 78, 79, 80],
      "CsaImage.SlicePosition_PCS": [
        [-115.14828786, -110.21836163, -137.46748402],
        [-115.14584276, -110.85442568, -135.8909612],
        [-115.1433976, -111.49049021, -134.314446],
        [-115.1409525, -112.1265545, -132.73792317],
        [-115.1385074, -112.76261879, -131.16140034],
        [-115.13606223, -113.3986832, -129.58488515],
        [-115.13361713, -114.03474749, -128.00836232],
        [-115.13117203, -114.6708119, -126.43183949],
        [-115.12872687, -115.30687624, -124.8553243],
        [-115.12628177, -115.9429406, -123.27880147],
        [-115.12383667, -116.57900489, -121.70227864],
        [-115.12139156, -117.2150693, -120.12576344],
        [-115.1189464, -117.85113359, -118.54924062],
        [-115.1165013, -118.48719789, -116.97271779],
        [-115.1140562, -119.12326242, -115.39620259],
        [-115.11161104, -119.75932671, -113.81967976],
        [-115.10916594, -120.39539124, -112.24315694],
        [-115.10672084, -121.03145529, -110.66664174],
        [-115.10427567, -121.66751982, -109.09011891],
        [-115.10183057, -122.30358387, -107.5135999],
        [-115.09938547, -122.9396484, -105.93708089],
        [-115.09694037, -123.57571293, -104.36055806],
        [-115.09449521, -124.21177746, -102.78403905],
        [-115.09205011, -124.84784103, -101.20752003],
        [-115.089605, -125.48390556, -99.63099721],
        [-115.08715984, -126.11997009, -98.0544782],
        [-115.08471474, -126.75603462, -96.47795918],
        [-115.08226964, -127.39209915, -94.90143636],
        [-115.07982448, -128.02816368, -93.32491734],
        [-115.07737938, -128.66422726, -91.74839833],
        [-115.07493427, -129.30029179, -90.1718755],
        [-115.07248911, -129.93635632, -88.59535649],
        [-115.07004401, -130.57242085, -87.01883748],
        [-115.06759891, -131.20848442, -85.44231465],
        [-115.06515381, -131.84454895, -83.86579564],
        [-115.06270865, -132.48061348, -82.28927663],
        [-115.06026354, -133.11667801, -80.7127538],
        [-115.05781844, -133.75274254, -79.13623479],
        [-115.05537328, -134.38880707, -77.55971387],
        [-115.05292818, -135.0248716, -75.98319485],
        [-115.05048308, -135.66093613, -74.40667393],
        [-115.04803792, -136.29700066, -72.83015302],
        [-115.04559281, -136.93306328, -71.253634],
        [-115.04314771, -137.56912781, -69.67711308],
        [-115.04070255, -138.20519234, -68.10059216],
        [-115.03825745, -138.84125687, -66.52407315],
        [-115.03581235, -139.4773214, -64.94755223],
        [-115.03336725, -140.11338593, -63.37103131],
        [-115.03092209, -140.74945046, -61.7945123],
        [-115.02847698, -141.38551498, -60.21799138],
        [-115.02603188, -142.02157951, -58.64147141],
        [-115.02358672, -142.65764404, -57.06495145],
        [-115.02114162, -143.29370667, -55.48843053],
        [-115.01869652, -143.92977119, -53.91191056],
        [-115.01625136, -144.56583572, -52.33539012],
        [-115.01380625, -145.20190025, -50.75887015],
        [-115.01136115, -145.83796478, -49.18234971],
        [-115.00891605, -146.47402931, -47.60582938],
        [-115.00647089, -147.11009384, -46.02930915],
        [-115.00402579, -147.74615837, -44.45278886],
        [-115.00158069, -148.38222099, -42.87626865],
        [-114.99913552, -149.01828743, -41.29974845],
        [-114.99669042, -149.65435005, -39.723228],
        [-114.99424532, -150.29041649, -38.14670804],
        [-114.99180016, -150.92647911, -36.57018712],
        [-114.98935506, -151.56254555, -34.99366715],
        [-114.98690996, -152.19860817, -33.41714719],
        [-114.98446479, -152.83467461, -31.84062627],
        [-114.98201969, -153.47073723, -30.26410725],
        [-114.97957459, -154.10679985, -28.68758633],
        [-114.97712949, -154.74286629, -27.11106541],
        [-114.97468433, -155.37892891, -25.5345464],
        [-114.97223923, -156.01499535, -23.95802548],
        [-114.96979412, -156.65105797, -22.38150456],
        [-114.96734896, -157.28712441, -20.80498555],
        [-114.96490386, -157.92318703, -19.22846463],
        [-114.96245876, -158.55925346, -17.65194371],
        [-114.9600136, -159.19531609, -16.0754247],
        [-114.9575685, -159.83138252, -14.49890378],
        [-114.95512339, -160.46744515, -12.92238286],
        [-114.95267823, -161.10350777, -11.34586385]
],
      "CsaImage.TimeAfterStart": [16.4, 18.515, 16.55, 18.665, 16.7025, 18.8175, 16.8525, 18.9675, 17.005, 19.12, 17.155, 19.27, 17.305, 19.4225, 17.4575, 19.5725, 17.6075, 19.725, 17.76, 19.875, 17.91, 20.025, 18.0625, 20.1775, 18.2125, 20.3275, 18.365, 16.4, 18.515, 16.55, 18.665, 16.7025, 18.8175, 16.8525, 18.9675, 17.005, 19.12, 17.155, 19.27, 17.305, 19.4225, 17.4575, 19.5725, 17.6075, 19.725, 17.76, 19.875, 17.91, 20.025, 18.0625, 20.1775, 18.2125, 20.3275, 18.365, 16.4, 18.515, 16.55, 18.665, 16.7025, 18.8175, 16.8525, 18.9675, 17.005, 19.12, 17.155, 19.27, 17.305, 19.4225, 17.4575, 19.5725, 17.6075, 19.725, 17.76, 19.875, 17.91, 20.025, 18.0625, 20.1775, 18.2125, 20.3275, 18.365],
      "ImagePositionPatient": [
        [-115.14828786264, -110.21836162603, -137.46748402402],
        [-115.1458427609, -110.85442567861, -135.89096119688],
        [-115.14339759956, -111.49049020803, -134.31444599912],
        [-115.14095249782, -112.12655449903, -132.73792317197],
        [-115.13850739608, -112.76261879003, -131.16140034483],
        [-115.13606223474, -113.39868320024, -129.58488514707],
        [-115.133617133, -114.03474749124, -128.00836231992],
        [-115.13117203126, -114.67081190145, -126.43183949277],
        [-115.12872686992, -115.30687623716, -124.85532429502],
        [-115.12628176818, -115.94294060266, -123.27880146787],
        [-115.12383666644, -116.57900489366, -121.70227864072],
        [-115.12139156471, -117.21506930387, -120.12576344297],
        [-115.11894640336, -117.85113359487, -118.54924061582],
        [-115.11650130162, -118.48719788587, -116.97271778867],
        [-115.11405619989, -119.12326241529, -115.39620259092],
        [-115.11161103854, -119.75932670629, -113.81967976377],
        [-115.10916593681, -120.39539123571, -112.24315693662],
        [-115.10672083507, -121.03145528829, -110.66664173887],
        [-115.10427567373, -121.66751981771, -109.09011891172],
        [-115.10183057199, -122.30358387029, -107.51359989927],
        [-115.09938547025, -122.93964839971, -105.93708088682],
        [-115.09694036851, -123.57571292913, -104.36055805967],
        [-115.09449520717, -124.21177745855, -102.78403904722],
        [-115.09205010543, -124.84784103429, -101.20752003477],
        [-115.08960500369, -125.48390556371, -99.630997207619],
        [-115.08715984235, -126.11997009313, -98.054478195168],
        [-115.08471474061, -126.75603462255, -96.477959182716],
        [-115.08226963887, -127.39209915197, -94.901436355568],
        [-115.07982447753, -128.02816368139, -93.324917343117],
        [-115.07737937579, -128.66422725713, -91.748398330666],
        [-115.07493427406, -129.30029178655, -90.171875503517],
        [-115.07248911271, -129.93635631597, -88.595356491066],
        [-115.07004401098, -130.57242084539, -87.018837478615],
        [-115.06759890924, -131.20848442114, -85.442314651466],
        [-115.0651538075, -131.84454895055, -83.865795639015],
        [-115.06270864616, -132.48061347997, -82.289276626564],
        [-115.06026354442, -133.11667800939, -80.712753799416],
        [-115.05781844268, -133.75274253881, -79.136234786964],
        [-115.05537328134, -134.38880706823, -77.559713867165],
        [-115.0529281796, -135.02487159765, -75.983194854713],
        [-115.05048307786, -135.66093612707, -74.406673934914],
        [-115.04803791652, -136.29700065649, -72.830153015114],
        [-115.04559281478, -136.93306327856, -71.253634002663],
        [-115.04314771304, -137.56912780798, -69.677113082863],
        [-115.0407025517, -138.2051923374, -68.100592163063],
        [-115.03825744996, -138.84125686681, -66.524073150612],
        [-115.03581234822, -139.47732139623, -64.947552230812],
        [-115.03336724649, -140.11338592565, -63.371031311012],
        [-115.03092208514, -140.74945045507, -61.794512298561],
        [-115.02847698341, -141.38551498449, -60.217991378761],
        [-115.02603188167, -142.02157951391, -58.641471412636],
        [-115.02358672033, -142.65764404333, -57.06495144651],
        [-115.02114161859, -143.2937066654, -55.488430526711],
        [-115.01869651685, -143.92977119482, -53.911910560585],
        [-115.01625135551, -144.56583572424, -52.335390117622],
        [-115.01380625377, -145.20190025366, -50.758870151497],
        [-115.01136115203, -145.83796478307, -49.182349708534],
        [-115.00891605029, -146.47402931249, -47.605829384781],
        [-115.00647088895, -147.11009384191, -46.029309150435],
        [-115.00402578721, -147.74615837133, -44.452788856483],
        [-115.00158068547, -148.3822209934, -42.876268651939],
        [-114.99913552413, -149.01828743017, -41.299748447395],
        [-114.99669042239, -149.65435005224, -39.723228004433],
        [-114.99424532066, -150.29041648901, -38.146708038307],
        [-114.99180015931, -150.92647911108, -36.570187118507],
        [-114.98935505758, -151.56254554784, -34.993667152382],
        [-114.98690995584, -152.19860816991, -33.417147186256],
        [-114.98446479449, -152.83467460668, -31.840626266457],
        [-114.98201969276, -153.47073722875, -30.264107254005],
        [-114.97957459102, -154.10679985082, -28.687586334206],
        [-114.97712948928, -154.74286628759, -27.111065414406],
        [-114.97468432794, -155.37892890966, -25.534546401955],
        [-114.9722392262, -156.01499534643, -23.958025482155],
        [-114.96979412446, -156.6510579685, -22.381504562355],
        [-114.96734896312, -157.28712440527, -20.804985549904],
        [-114.96490386138, -157.92318702734, -19.228464630104],
        [-114.96245875964, -158.5592534641, -17.651943710304],
        [-114.9600135983, -159.19531608617, -16.075424697853],
        [-114.95756849656, -159.83138252294, -14.498903778053],
        [-114.95512339483, -160.46744514501, -12.922382858253],
        [-114.95267823348, -161.10350776708, -11.345863845802]
],
      "InstanceCreationTime": ["141656.578000", "141656.679000", "141656.586000", "141656.685000", "141656.593000", "141656.691000", "141656.600000", "141656.697000", "141656.607000", "141656.704000", "141656.613000", "141656.710000", "141656.620000", "141656.717000", "141656.626000", "141656.723000", "141656.633000", "141656.739000", "141656.639000", "141656.746000", "141656.646000", "141656.752000", "141656.652000", "141656.759000", "141656.659000", "141656.765000", "141656.665000", "141656.582000", "141656.681000", "141656.588000", "141656.687000", "141656.596000", "141656.693000", "141656.602000", "141656.700000", "141656.609000", "141656.706000", "141656.616000", "141656.712000", "141656.622000", "141656.719000", "141656.628000", "141656.725000", "141656.635000", "141656.742000", "141656.641000", "141656.748000", "141656.648000", "141656.754000", "141656.654000", "141656.761000", "141656.661000", "141656.767000", "141656.667000", "141656.584000", "141656.683000", "141656.591000", "141656.689000", "141656.598000", "141656.695000", "141656.604000", "141656.702000", "141656.611000", "141656.708000", "141656.618000", "141656.714000", "141656.624000", "141656.721000", "141656.631000", "141656.737000", "141656.637000", "141656.744000", "141656.644000", "141656.750000", "141656.650000", "141656.756000", "141656.656000", "141656.763000", "141656.663000", "141656.769000", "141656.669000"],
      "InstanceNumber": [1, 2, 3, 4, 5, 6, 7, 8, 9, 10, 11, 12, 13, 14, 15, 16, 17, 18, 19, 20, 21, 22, 23, 24, 25, 26, 27, 28, 29, 30, 31, 32, 33, 34, 35, 36, 37, 38, 39, 40, 41, 42, 43, 44, 45, 46, 47, 48, 49, 50, 51, 52, 53, 54, 55, 56, 57, 58, 59, 60, 61, 62, 63, 64, 65, 66, 67, 68, 69, 70, 71, 72, 73, 74, 75, 76, 77, 78, 79, 80, 81],
      "LargestImagePixelValue": [12464, 11195, 14245, 10150, 10440, 28629, 21077, 19376, 14637, 10167, 10052, 13731, 15645, 26048, 44220, 44755, 49675, 34510, 52616, 44487, 35385, 37345, 37912, 45940, 46293, 41502, 44519, 41219, 40529, 40956, 39496, 42239, 36842, 33844, 33695, 29431, 24461, 26859, 30480, 39447, 49851, 65236, 65535, 65535, 55181, 43185, 50307, 62934, 53446, 53774, 54715, 47612, 50326, 51876, 35029, 31245, 33099, 32467, 31884, 34144, 32387, 40179, 32499, 31122, 36641, 45914, 41959, 36294, 34616, 44971, 42136, 55909, 31039, 33715, 30432, 34031, 41948, 38499, 39997, 40335, 50849],
      "SliceLocation": [-86.409323617185, -84.709321357767, -83.009325995084, -81.309323646459, -79.609321297835, -77.909325979755, -76.209323631131, -74.509321237904, -72.809325947701, -71.1093235712, -69.409321222576, -67.709325904581, -66.009323555872, -64.309321207248, -62.60932584465, -60.90932349594, -59.209321058111, -57.509325873925, -55.809323436009, -54.109324714207, -52.409325813994, -50.709323376164, -49.009324475865, -47.309325932474, -45.609323494644, -43.909324594345, -42.209325694131, -40.509323256302, -38.809324356002, -37.109325812611, -35.409323374782, -33.709324474482, -32.009325574269, -30.309323493262, -28.609324593048, -26.909325692749, -25.209323254919, -23.509324354706, -21.809323685598, -20.109324785385, -18.409324116363, -16.709323447256, -15.009325260688, -13.309324591666, -11.609323922559, -9.9093250223452, -8.2093243533236, -6.509323684302, -4.8093247840028, -3.1093241149812, -1.4093243303636, 0.29067545433965, 1.9906754097163, 3.6906751943338, 5.3906754212391, 7.0906752058566, 8.7906754326762, 10.490675548945, 12.190675582387, 13.890675671019, 15.590674963092, 17.290675682541, 18.990675195716, 20.690675693979, 22.390675649441, 24.090676147703, 25.790675218676, 27.490676601428, 29.190674787997, 30.890674743373, 32.59067612604, 34.290674312694, 35.990675695361, 37.690675650737, 39.390675264682, 41.090675220058, 42.790676602725, 44.490674789379, 46.190676172046, 47.890676127422, 49.590674314076],
      "WindowCenter": [2222.0, 1886.0, 2279.0, 1804.0, 1834.0, 3909.0, 2756.0, 2755.0, 2492.0, 1824.0, 1883.0, 2601.0, 2881.0, 3792.0, 5429.0, 5620.0, 6653.0, 5949.0, 7253.0, 7129.0, 7141.0, 7593.0, 7679.0, 7975.0, 8096.0, 8162.0, 8483.0, 8441.0, 8204.0, 7785.0, 8042.0, 8300.0, 8113.0, 7773.0, 7700.0, 7552.0, 7287.0, 7496.0, 7540.0, 7803.0, 7836.0, 8067.0, 8026.0, 8208.0, 8110.0, 8059.0, 8287.0, 8560.0, 8598.0, 8791.0, 8939.0, 8740.0, 8611.0, 8471.0, 7740.0, 7998.0, 8206.0, 8424.0, 8434.0, 8539.0, 8579.0, 8498.0, 8424.0, 8308.0, 8441.0, 8328.0, 8393.0, 8410.0, 8580.0, 8850.0, 9052.0, 9226.0, 9108.0, 9077.0, 9114.0, 9172.0, 9324.0, 9175.0, 9244.0, 9133.0, 9949.0],
      "WindowWidth": [6595.0, 5417.0, 6397.0, 5351.0, 5386.0, 9808.0, 7449.0, 7430.0, 6742.0, 5258.0, 5522.0, 7072.0, 7716.0, 9520.0, 12930.0, 13321.0, 14565.0, 13540.0, 15737.0, 15557.0, 15343.0, 15955.0, 16090.0, 16689.0, 17108.0, 17590.0, 18346.0, 18227.0, 17895.0, 17201.0, 17514.0, 17938.0, 17290.0, 16573.0, 16460.0, 16120.0, 15621.0, 15947.0, 16143.0, 16900.0, 17505.0, 18702.0, 19070.0, 19066.0, 18204.0, 17915.0, 18169.0, 18773.0, 18729.0, 19219.0, 19644.0, 19398.0, 19258.0, 18942.0, 16695.0, 17376.0, 17864.0, 18212.0, 18073.0, 18361.0, 18481.0, 18252.0, 18089.0, 17776.0, 18142.0, 17971.0, 18096.0, 18042.0, 18361.0, 18899.0, 19496.0, 19721.0, 19514.0, 19426.0, 19487.0, 19620.0, 20119.0, 19715.0, 19913.0, 19641.0, 21833.0]
    }
  }
}