{
  "AcquisitionMatrixPE": 82,
  "AcquisitionNumber": 1,
  "AcquisitionTime": "16:22:6.405000",
  "BandwidthPerPixelPhaseEncode": 24.888,
  "BaseResolution": 82,
  "BodyPartExamined": "BRAIN",
  "ConsistencyInfo": "N4_VE11C_LATEST_20160120",
  "ConversionSoftware": "dcm2niix",
  "ConversionSoftwareVersion": "v1.0.20201102",
  "DerivedVendorReportedEchoSpacing": 0.00049,
  "DeviceSerialNumber": "66112",
  "DwellTime": 2e-06,
  "EchoTime": 0.0272,
  "EchoTrainLength": 82,
  "EffectiveEchoSpacing": 0.00049,
  "FlipAngle": 44,
  "ImageComments": "Unaliased MB8/PE3",
  "ImageOrientationPatientDICOM": [0.999013, 0.0409828, -0.0171054, -0.0411724, 0.999093, -0.0108851],
  "ImageType": [
    "ORIGINAL",
    "PRIMARY",
    "M",
    "MB",
    "ND",
    "NORM",
    "MOSAIC"
],
  "ImagingFrequency": 123.252,
  "InPlanePhaseEncodingDirectionDICOM": "COL",
  "InstitutionAddress": "Maynard 3,Hanover,NH,US,03755",
  "InstitutionName": "Dartmouth College - PBS",
  "InstitutionalDepartmentName": "Department",
  "MRAcquisitionType": "2D",
  "MagneticFieldStrength": 3,
  "Manufacturer": "Siemens",
  "ManufacturersModelName": "Prisma",
  "Modality": "MR",
  "MultibandAccelerationFactor": 8,
  "PartialFourier": 1,
  "PatientPosition": "HFS",
  "PercentPhaseFOV": 100,
  "PercentSampling": 100,
  "PhaseEncodingDirection": "j-",
  "PhaseEncodingSteps": 82,
  "PhaseResolution": 1,
  "PixelBandwidth": 3050,
  "ProcedureStepDescription": "Wager_Wager^1076_spacetop",
  "ProtocolName": "func_run-01_task-narratives_acq-ap-mb8",
  "PulseSequenceDetails": "%CustomerSeq%\\cmrr_mbep2d_bold",
  "ReceiveCoilActiveElements": "HEA;HEP",
  "ReceiveCoilName": "Head_32",
  "ReconMatrixPE": 82,
  "RepetitionTime": 0.46,
  "SAR": 0.092158,
  "ScanOptions": "FS",
  "ScanningSequence": "EP",
  "SequenceName": "epfid2d1_82",
  "SequenceVariant": "SK\\SS",
  "SeriesDescription": "func_run-01_task-narratives_acq-ap-mb8",
  "SeriesNumber": 44,
  "ShimSetting": [4131, -7762, -7204, 532, -58, 41, -86, 69],
  "SliceThickness": 2.7,
  "SliceTiming": [0, 0.2525, 0.065, 0.315, 0.1275, 0.3775, 0.19, 0, 0.2525, 0.065, 0.315, 0.1275, 0.3775, 0.19, 0, 0.2525, 0.065, 0.315, 0.1275, 0.3775, 0.19, 0, 0.2525, 0.065, 0.315, 0.1275, 0.3775, 0.19, 0, 0.2525, 0.065, 0.315, 0.1275, 0.3775, 0.19, 0, 0.2525, 0.065, 0.315, 0.1275, 0.3775, 0.19, 0, 0.2525, 0.065, 0.315, 0.1275, 0.3775, 0.19, 0, 0.2525, 0.065, 0.315, 0.1275, 0.3775, 0.19],
  "SoftwareVersions": "syngo MR E11",
  "SpacingBetweenSlices": 2.7,
  "StationName": "AWP66112",
  "TaskName": "narratives",
  "TotalReadoutTime": 0.03969,
  "TxRefAmp": 275.651,
  "WipMemBlock": "9ae4ee2f-0a6e-4529-b1d1-2cc4e0a87674||Sequence: R016 ve11c/master r/e634e98; Dec 19 2017 11:00:25 by eja",
  "dcmmeta_affine": [
    [-2.6802799701690674, -0.11046255379915237, -0.04493817687034607, 120.35987091064453],
    [-0.10995378345251083, 2.680492877960205, -0.03126227855682373, -80.54936218261719],
    [-0.04589250683784485, 0.029203901067376137, 2.6994450092315674, -29.579164505004883],
    [0.0, 0.0, 0.0, 1.0]
],
  "dcmmeta_reorient_transform": [
    [0.0, -1.0, 0.0, 81.0],
    [1.0, 0.0, 0.0, 0.0],
    [0.0, 0.0, 1.0, 0.0],
    [0.0, 0.0, 0.0, 1.0]
],
  "dcmmeta_shape": [82, 82, 56, 967],
  "dcmmeta_slice_dim": 2,
  "dcmmeta_version": 0.6,
  "global": {
    "const": {
      "AccessionNumber": "A003457",
      "AcquisitionMatrix": [82, 0, 0, 82],
      "AngioFlag": "N",
      "BitsAllocated": 16,
      "BitsStored": 16,
      "BodyPartExamined": "BRAIN",
      "Columns": 656,
      "EchoNumbers": 1,
      "EchoTime": 27.2,
      "EchoTrainLength": 82,
      "FlipAngle": 44.0,
      "HighBit": 15,
      "ImageOrientationPatient": [0.99901342233426, 0.04098277284056, -0.0171053888088, -0.0411724052025, 0.99909276239101, -0.0108850901579],
      "ImagePositionPatient": [-848.95000759779, -937.42873762219, -5.660978553785],
      "ImageType": [
        "ORIGINAL",
        "PRIMARY",
        "M",
        "MB",
        "ND",
        "NORM",
        "MOSAIC"
],
      "ImagedNucleus": "1H",
      "ImagingFrequency": 123.252103,
      "InPlanePhaseEncodingDirection": "COL",
      "MRAcquisitionType": "2D",
      "MagneticFieldStrength": 3.0,
      "Manufacturer": "SIEMENS",
      "ManufacturerModelName": "Prisma",
      "Modality": "MR",
      "NumberOfAverages": 1.0,
      "NumberOfPhaseEncodingSteps": 82,
      "PercentPhaseFieldOfView": 100.0,
      "PercentSampling": 100.0,
      "PerformedProcedureStepStartTime": "144128.898000",
      "PhotometricInterpretation": "MONOCHROME2",
      "PixelBandwidth": 3050.0,
      "PixelRepresentation": 0,
      "PixelSpacing": [2.6829268932343, 2.6829268932343],
      "ProtocolName": "func_run-01_task-narratives_acq-ap-mb8",
      "RepetitionTime": 460.0,
      "Rows": 656,
      "SAR": 0.09215802393745,
      "SamplesPerPixel": 1,
      "ScanOptions": "FS",
      "ScanningSequence": "EP",
      "SequenceName": "epfid2d1_82",
      "SequenceVariant": [
        "SK",
        "SS"
],
      "SeriesDescription": "func_run-01_task-narratives_acq-ap-mb8",
      "SeriesNumber": 44,
      "SeriesTime": "162218.790000",
      "SliceLocation": -30.643674906594,
      "SliceThickness": 2.7000000476837,
      "SmallestImagePixelValue": 0,
      "SoftwareVersions": "syngo MR E11",
      "SpacingBetweenSlices": 2.6999999758978,
      "SpecificCharacterSet": "ISO_IR 100",
      "StudyID": "3",
      "StudyTime": "144128.789000",
      "TransmitCoilName": "Body",
      "VariableFlipAngleFlag": "N",
      "WindowCenterWidthExplanation": "Algo1",
      "dBdt": 0.0},
    "slices": {}
  },
  "time": {
    "samples": {
      "AcquisitionNumber": [1, 2, 3, 4, 5, 6, 7, 8, 9, 10, 11, 12, 13, 14, 15, 16, 17, 18, 19, 20, 21, 22, 23, 24, 25, 26, 27, 28, 29, 30, 31, 32, 33, 34, 35, 36, 37, 38, 39, 40, 41, 42, 43, 44, 45, 46, 47, 48, 49, 50, 51, 52, 53, 54, 55, 56, 57, 58, 59, 60, 61, 62, 63, 64, 65, 66, 67, 68, 69, 70, 71, 72, 73, 74, 75, 76, 77, 78, 79, 80, 81, 82, 83, 84, 85, 86, 87, 88, 89, 90, 91, 92, 93, 94, 95, 96, 97, 98, 99, 100, 101, 102, 103, 104, 105, 106, 107, 108, 109, 110, 111, 112, 113, 114, 115, 116, 117, 118, 119, 120, 121, 122, 123, 124, 125, 126, 127, 128, 129, 130, 131, 132, 133, 134, 135, 136, 137, 138, 139, 140, 141, 142, 143, 144, 145, 146, 147, 148, 149, 150, 151, 152, 153, 154, 155, 156, 157, 158, 159, 160, 161, 162, 163, 164, 165, 166, 167, 168, 169, 170, 171, 172, 173, 174, 175, 176, 177, 178, 179, 180, 181, 182, 183, 184, 185, 186, 187, 188, 189, 190, 191, 192, 193, 194, 195, 196, 197, 198, 199, 200, 201, 202, 203, 204, 205, 206, 207, 208, 209, 210, 211, 212, 213, 214, 215, 216, 217, 218, 219, 220, 221, 222, 223, 224, 225, 226, 227, 228, 229, 230, 231, 232, 233, 234, 235, 236, 237, 238, 239, 240, 241, 242, 243, 244, 245, 246, 247, 248, 249, 250, 251, 252, 253, 254, 255, 256, 257, 258, 259, 260, 261, 262, 263, 264, 265, 266, 267, 268, 269, 270, 271, 272, 273, 274, 275, 276, 277, 278, 279, 280, 281, 282, 283, 284, 285, 286, 287, 288, 289, 290, 291, 292, 293, 294, 295, 296, 297, 298, 299, 300, 301, 302, 303, 304, 305, 306, 307, 308, 309, 310, 311, 312, 313, 314, 315, 316, 317, 318, 319, 320, 321, 322, 323, 324, 325, 326, 327, 328, 329, 330, 331, 332, 333, 334, 335, 336, 337, 338, 339, 340, 341, 342, 343, 344, 345, 346, 347, 348, 349, 350, 351, 352, 353, 354, 355, 356, 357, 358, 359, 360, 361, 362, 363, 364, 365, 366, 367, 368, 369, 370, 371, 372, 373, 374, 375, 376, 377, 378, 379, 380, 381, 382, 383, 384, 385, 386, 387, 388, 389, 390, 391, 392, 393, 394, 395, 396, 397, 398, 399, 400, 401, 402, 403, 404, 405, 406, 407, 408, 409, 410, 411, 412, 413, 414, 415, 416, 417, 418, 419, 420, 421, 422, 423, 424, 425, 426, 427, 428, 429, 430, 431, 432, 433, 434, 435, 436, 437, 438, 439, 440, 441, 442, 443, 444, 445, 446, 447, 448, 449, 450, 451, 452, 453, 454, 455, 456, 457, 458, 459, 460, 461, 462, 463, 464, 465, 466, 467, 468, 469, 470, 471, 472, 473, 474, 475, 476, 477, 478, 479, 480, 481, 482, 483, 484, 485, 486, 487, 488, 489, 490, 491, 492, 493, 494, 495, 496, 497, 498, 499, 500, 501, 502, 503, 504, 505, 506, 507, 508, 509, 510, 511, 512, 513, 514, 515, 516, 517, 518, 519, 520, 521, 522, 523, 524, 525, 526, 527, 528, 529, 530, 531, 532, 533, 534, 535, 536, 537, 538, 539, 540, 541, 542, 543, 544, 545, 546, 547, 548, 549, 550, 551, 552, 553, 554, 555, 556, 557, 558, 559, 560, 561, 562, 563, 564, 565, 566, 567, 568, 569, 570, 571, 572, 573, 574, 575, 576, 577, 578, 579, 580, 581, 582, 583, 584, 585, 586, 587, 588, 589, 590, 591, 592, 593, 594, 595, 596, 597, 598, 599, 600, 601, 602, 603, 604, 605, 606, 607, 608, 609, 610, 611, 612, 613, 614, 615, 616, 617, 618, 619, 620, 621, 622, 623, 624, 625, 626, 627, 628, 629, 630, 631, 632, 633, 634, 635, 636, 637, 638, 639, 640, 641, 642, 643, 644, 645, 646, 647, 648, 649, 650, 651, 652, 653, 654, 655, 656, 657, 658, 659, 660, 661, 662, 663, 664, 665, 666, 667, 668, 669, 670, 671, 672, 673, 674, 675, 676, 677, 678, 679, 680, 681, 682, 683, 684, 685, 686, 687, 688, 689, 690, 691, 692, 693, 694, 695, 696, 697, 698, 699, 700, 701, 702, 703, 704, 705, 706, 707, 708, 709, 710, 711, 712, 713, 714, 715, 716, 717, 718, 719, 720, 721, 722, 723, 724, 725, 726, 727, 728, 729, 730, 731, 732, 733, 734, 735, 736, 737, 738, 739, 740, 741, 742, 743, 744, 745, 746, 747, 748, 749, 750, 751, 752, 753, 754, 755, 756, 757, 758, 759, 760, 761, 762, 763, 764, 765, 766, 767, 768, 769, 770, 771, 772, 773, 774, 775, 776, 777, 778, 779, 780, 781, 782, 783, 784, 785, 786, 787, 788, 789, 790, 791, 792, 793, 794, 795, 796, 797, 798, 799, 800, 801, 802, 803, 804, 805, 806, 807, 808, 809, 810, 811, 812, 813, 814, 815, 816, 817, 818, 819, 820, 821, 822, 823, 824, 825, 826, 827, 828, 829, 830, 831, 832, 833, 834, 835, 836, 837, 838, 839, 840, 841, 842, 843, 844, 845, 846, 847, 848, 849, 850, 851, 852, 853, 854, 855, 856, 857, 858, 859, 860, 861, 862, 863, 864, 865, 866, 867, 868, 869, 870, 871, 872, 873, 874, 875, 876, 877, 878, 879, 880, 881, 882, 883, 884, 885, 886, 887, 888, 889, 890, 891, 892, 893, 894, 895, 896, 897, 898, 899, 900, 901, 902, 903, 904, 905, 906, 907, 908, 909, 910, 911, 912, 913, 914, 915, 916, 917, 918, 919, 920, 921, 922, 923, 924, 925, 926, 927, 928, 929, 930, 931, 932, 933, 934, 935, 936, 937, 938, 939, 940, 941, 942, 943, 944, 945, 946, 947, 948, 949, 950, 951, 952, 953, 954, 955, 956, 957, 958, 959, 960, 961, 962, 963, 964, 965, 966, 967],
      "AcquisitionTime": ["162206.405000", "162206.865000", "162207.325000", "162207.785000", "162208.245000", "162208.705000", "162209.165000", "162209.625000", "162210.085000", "162210.545000", "162211.005000", "162211.465000", "162211.925000", "162212.385000", "162212.845000", "162213.305000", "162213.765000", "162214.225000", "162214.685000", "162215.145000", "162215.605000", "162216.065000", "162216.525000", "162216.985000", "162217.445000", "162217.905000", "162218.365000", "162218.825000", "162219.285000", "162219.745000", "162220.205000", "162220.665000", "162221.125000", "162221.585000", "162222.045000", "162222.505000", "162222.965000", "162223.425000", "162223.885000", "162224.345000", "162224.805000", "162225.265000", "162225.725000", "162226.185000", "162226.645000", "162227.105000", "162227.565000", "162228.025000", "162228.485000", "162228.945000", "162229.405000", "162229.865000", "162230.325000", "162230.785000", "162231.245000", "162231.705000", "162232.165000", "162232.625000", "162233.085000", "162233.545000", "162234.005000", "162234.465000", "162234.925000", "162235.385000", "162235.845000", "162236.305000", "162236.765000", "162237.225000", "162237.685000", "162238.145000", "162238.605000", "162239.065000", "162239.525000", "162239.985000", "162240.445000", "162240.905000", "162241.365000", "162241.825000", "162242.285000", "162242.745000", "162243.205000", "162243.665000", "162244.125000", "162244.585000", "162245.045000", "162245.505000", "162245.965000", "162246.425000", "162246.885000", "162247.345000", "162247.805000", "162248.265000", "162248.725000", "162249.185000", "162249.645000", "162250.105000", "162250.565000", "162251.025000", "162251.485000", "162251.945000", "162252.405000", "162252.865000", "162253.325000", "162253.785000", "162254.245000", "162254.705000", "162255.165000", "162255.625000", "162256.085000", "162256.545000", "162257.005000", "162257.465000", "162257.925000", "162258.385000", "162258.845000", "162259.305000", "162259.765000", "162300.225000", "162300.685000", "162301.145000", "162301.605000", "162302.065000", "162302.525000", "162302.985000", "162303.445000", "162303.905000", "162304.365000", "162304.825000", "162305.285000", "162305.745000", "162306.205000", "162306.665000", "162307.125000", "162307.585000", "162308.045000", "162308.505000", "162308.965000", "162309.425000", "162309.885000", "162310.345000", "162310.805000", "162311.265000", "162311.725000", "162312.185000", "162312.645000", "162313.105000", "162313.565000", "162314.025000", "162314.485000", "162314.945000", "162315.405000", "162315.865000", "162316.325000", "162316.785000", "162317.245000", "162317.705000", "162318.165000", "162318.625000", "162319.085000", "162319.545000", "162320.005000", "162320.465000", "162320.925000", "162321.385000", "162321.845000", "162322.305000", "162322.765000", "162323.225000", "162323.685000", "162324.145000", "162324.605000", "162325.065000", "162325.525000", "162325.985000", "162326.445000", "162326.905000", "162327.365000", "162327.825000", "162328.285000", "162328.745000", "162329.205000", "162329.665000", "162330.125000", "162330.585000", "162331.045000", "162331.505000", "162331.965000", "162332.425000", "162332.885000", "162333.345000", "162333.805000", "162334.265000", "162334.725000", "162335.185000", "162335.645000", "162336.105000", "162336.565000", "162337.025000", "162337.485000", "162337.945000", "162338.405000", "162338.865000", "162339.325000", "162339.785000", "162340.245000", "162340.705000", "162341.165000", "162341.625000", "162342.085000", "162342.545000", "162343.005000", "162343.465000", "162343.925000", "162344.385000", "162344.845000", "162345.305000", "162345.765000", "162346.225000", "162346.685000", "162347.145000", "162347.605000", "162348.065000", "162348.525000", "162348.985000", "162349.445000", "162349.905000", "162350.365000", "162350.825000", "162351.285000", "162351.745000", "162352.205000", "162352.665000", "162353.125000", "162353.585000", "162354.045000", "162354.505000", "162354.965000", "162355.425000", "162355.885000", "162356.345000", "162356.805000", "162357.265000", "162357.725000", "162358.185000", "162358.645000", "162359.105000", "162359.565000", "162400.025000", "162400.485000", "162400.945000", "162401.405000", "162401.865000", "162402.325000", "162402.785000", "162403.245000", "162403.705000", "162404.165000", "162404.625000", "162405.085000", "162405.545000", "162406.005000", "162406.465000", "162406.925000", "162407.385000", "162407.845000", "162408.305000", "162408.765000", "162409.225000", "162409.685000", "162410.145000", "162410.605000", "162411.065000", "162411.525000", "162411.985000", "162412.445000", "162412.905000", "162413.365000", "162413.825000", "162414.285000", "162414.745000", "162415.205000", "162415.665000", "162416.125000", "162416.585000", "162417.045000", "162417.505000", "162417.965000", "162418.425000", "162418.885000", "162419.345000", "162419.805000", "162420.265000", "162420.725000", "162421.185000", "162421.645000", "162422.105000", "162422.565000", "162423.025000", "162423.485000", "162423.945000", "162424.405000", "162424.865000", "162425.325000", "162425.785000", "162426.245000", "162426.705000", "162427.165000", "162427.625000", "162428.085000", "162428.545000", "162429.005000", "162429.465000", "162429.925000", "162430.385000", "162430.845000", "162431.305000", "162431.765000", "162432.225000", "162432.685000", "162433.145000", "162433.605000", "162434.065000", "162434.525000", "162434.985000", "162435.445000", "162435.905000", "162436.365000", "162436.825000", "162437.285000", "162437.745000", "162438.205000", "162438.665000", "162439.125000", "162439.585000", "162440.045000", "162440.505000", "162440.965000", "162441.425000", "162441.885000", "162442.345000", "162442.805000", "162443.265000", "162443.725000", "162444.185000", "162444.645000", "162445.105000", "162445.565000", "162446.025000", "162446.485000", "162446.945000", "162447.405000", "162447.865000", "162448.325000", "162448.785000", "162449.245000", "162449.705000", "162450.165000", "162450.625000", "162451.085000", "162451.545000", "162452.005000", "162452.465000", "162452.925000", "162453.385000", "162453.845000", "162454.305000", "162454.765000", "162455.225000", "162455.685000", "162456.145000", "162456.605000", "162457.065000", "162457.525000", "162457.985000", "162458.445000", "162458.905000", "162459.365000", "162459.825000", "162500.285000", "162500.745000", "162501.205000", "162501.665000", "162502.125000", "162502.585000", "162503.045000", "162503.505000", "162503.965000", "162504.425000", "162504.885000", "162505.345000", "162505.805000", "162506.265000", "162506.725000", "162507.185000", "162507.645000", "162508.105000", "162508.565000", "162509.025000", "162509.485000", "162509.945000", "162510.405000", "162510.865000", "162511.325000", "162511.785000", "162512.245000", "162512.705000", "162513.165000", "162513.625000", "162514.085000", "162514.545000", "162515.005000", "162515.465000", "162515.925000", "162516.385000", "162516.845000", "162517.305000", "162517.765000", "162518.225000", "162518.685000", "162519.145000", "162519.605000", "162520.065000", "162520.525000", "162520.985000", "162521.445000", "162521.905000", "162522.365000", "162522.825000", "162523.285000", "162523.745000", "162524.205000", "162524.665000", "162525.125000", "162525.585000", "162526.045000", "162526.505000", "162526.965000", "162527.425000", "162527.885000", "162528.345000", "162528.805000", "162529.265000", "162529.725000", "162530.185000", "162530.645000", "162531.105000", "162531.565000", "162532.025000", "162532.485000", "162532.945000", "162533.405000", "162533.865000", "162534.325000", "162534.785000", "162535.245000", "162535.705000", "162536.165000", "162536.625000", "162537.085000", "162537.545000", "162538.005000", "162538.465000", "162538.925000", "162539.385000", "162539.845000", "162540.305000", "162540.765000", "162541.225000", "162541.685000", "162542.145000", "162542.605000", "162543.065000", "162543.525000", "162543.985000", "162544.445000", "162544.905000", "162545.365000", "162545.825000", "162546.285000", "162546.745000", "162547.205000", "162547.665000", "162548.125000", "162548.585000", "162549.045000", "162549.505000", "162549.965000", "162550.425000", "162550.885000", "162551.345000", "162551.805000", "162552.265000", "162552.725000", "162553.185000", "162553.645000", "162554.105000", "162554.565000", "162555.025000", "162555.485000", "162555.945000", "162556.405000", "162556.865000", "162557.325000", "162557.785000", "162558.245000", "162558.705000", "162559.165000", "162559.625000", "162600.085000", "162600.545000", "162601.005000", "162601.465000", "162601.925000", "162602.385000", "162602.845000", "162603.305000", "162603.765000", "162604.225000", "162604.685000", "162605.145000", "162605.605000", "162606.065000", "162606.525000", "162606.985000", "162607.445000", "162607.905000", "162608.365000", "162608.825000", "162609.285000", "162609.745000", "162610.205000", "162610.665000", "162611.125000", "162611.585000", "162612.045000", "162612.505000", "162612.965000", "162613.425000", "162613.885000", "162614.345000", "162614.805000", "162615.265000", "162615.725000", "162616.185000", "162616.645000", "162617.105000", "162617.565000", "162618.025000", "162618.485000", "162618.945000", "162619.405000", "162619.865000", "162620.325000", "162620.785000", "162621.245000", "162621.705000", "162622.165000", "162622.625000", "162623.085000", "162623.545000", "162624.005000", "162624.465000", "162624.925000", "162625.385000", "162625.845000", "162626.305000", "162626.765000", "162627.225000", "162627.685000", "162628.145000", "162628.605000", "162629.065000", "162629.525000", "162629.985000", "162630.445000", "162630.905000", "162631.365000", "162631.825000", "162632.285000", "162632.745000", "162633.205000", "162633.665000", "162634.125000", "162634.585000", "162635.045000", "162635.505000", "162635.965000", "162636.425000", "162636.885000", "162637.345000", "162637.805000", "162638.265000", "162638.725000", "162639.185000", "162639.645000", "162640.105000", "162640.565000", "162641.025000", "162641.485000", "162641.945000", "162642.405000", "162642.865000", "162643.325000", "162643.785000", "162644.245000", "162644.705000", "162645.165000", "162645.625000", "162646.085000", "162646.545000", "162647.005000", "162647.465000", "162647.925000", "162648.385000", "162648.845000", "162649.305000", "162649.765000", "162650.225000", "162650.685000", "162651.145000", "162651.605000", "162652.065000", "162652.525000", "162652.985000", "162653.445000", "162653.905000", "162654.365000", "162654.825000", "162655.285000", "162655.745000", "162656.205000", "162656.665000", "162657.125000", "162657.585000", "162658.045000", "162658.505000", "162658.965000", "162659.425000", "162659.885000", "162700.345000", "162700.805000", "162701.265000", "162701.725000", "162702.185000", "162702.645000", "162703.105000", "162703.565000", "162704.025000", "162704.485000", "162704.945000", "162705.405000", "162705.865000", "162706.325000", "162706.785000", "162707.245000", "162707.705000", "162708.165000", "162708.625000", "162709.085000", "162709.545000", "162710.005000", "162710.465000", "162710.925000", "162711.385000", "162711.845000", "162712.305000", "162712.765000", "162713.225000", "162713.685000", "162714.145000", "162714.605000", "162715.065000", "162715.525000", "162715.985000", "162716.445000", "162716.905000", "162717.365000", "162717.825000", "162718.285000", "162718.745000", "162719.205000", "162719.665000", "162720.125000", "162720.585000", "162721.045000", "162721.505000", "162721.965000", "162722.425000", "162722.885000", "162723.345000", "162723.805000", "162724.265000", "162724.725000", "162725.185000", "162725.645000", "162726.105000", "162726.565000", "162727.025000", "162727.485000", "162727.945000", "162728.405000", "162728.865000", "162729.325000", "162729.785000", "162730.245000", "162730.705000", "162731.165000", "162731.625000", "162732.085000", "162732.545000", "162733.005000", "162733.465000", "162733.925000", "162734.385000", "162734.845000", "162735.305000", "162735.765000", "162736.225000", "162736.685000", "162737.145000", "162737.605000", "162738.065000", "162738.525000", "162738.985000", "162739.445000", "162739.905000", "162740.365000", "162740.825000", "162741.285000", "162741.745000", "162742.205000", "162742.665000", "162743.125000", "162743.585000", "162744.045000", "162744.505000", "162744.965000", "162745.425000", "162745.885000", "162746.345000", "162746.805000", "162747.265000", "162747.725000", "162748.185000", "162748.645000", "162749.105000", "162749.565000", "162750.025000", "162750.485000", "162750.945000", "162751.405000", "162751.865000", "162752.325000", "162752.785000", "162753.245000", "162753.705000", "162754.165000", "162754.625000", "162755.085000", "162755.545000", "162756.005000", "162756.465000", "162756.925000", "162757.385000", "162757.845000", "162758.305000", "162758.765000", "162759.225000", "162759.685000", "162800.145000", "162800.605000", "162801.065000", "162801.525000", "162801.985000", "162802.445000", "162802.905000", "162803.365000", "162803.825000", "162804.285000", "162804.745000", "162805.205000", "162805.665000", "162806.125000", "162806.585000", "162807.045000", "162807.505000", "162807.965000", "162808.425000", "162808.885000", "162809.345000", "162809.805000", "162810.265000", "162810.725000", "162811.185000", "162811.645000", "162812.105000", "162812.565000", "162813.025000", "162813.485000", "162813.945000", "162814.405000", "162814.865000", "162815.325000", "162815.785000", "162816.245000", "162816.705000", "162817.165000", "162817.625000", "162818.085000", "162818.545000", "162819.005000", "162819.465000", "162819.925000", "162820.385000", "162820.845000", "162821.305000", "162821.765000", "162822.225000", "162822.685000", "162823.145000", "162823.605000", "162824.065000", "162824.525000", "162824.985000", "162825.445000", "162825.905000", "162826.365000", "162826.825000", "162827.285000", "162827.745000", "162828.205000", "162828.665000", "162829.125000", "162829.585000", "162830.045000", "162830.505000", "162830.965000", "162831.425000", "162831.885000", "162832.345000", "162832.805000", "162833.265000", "162833.725000", "162834.185000", "162834.645000", "162835.105000", "162835.565000", "162836.025000", "162836.485000", "162836.945000", "162837.405000", "162837.865000", "162838.325000", "162838.785000", "162839.245000", "162839.705000", "162840.165000", "162840.625000", "162841.085000", "162841.545000", "162842.005000", "162842.465000", "162842.925000", "162843.385000", "162843.845000", "162844.305000", "162844.765000", "162845.225000", "162845.685000", "162846.145000", "162846.605000", "162847.065000", "162847.525000", "162847.985000", "162848.445000", "162848.905000", "162849.365000", "162849.825000", "162850.285000", "162850.745000", "162851.205000", "162851.665000", "162852.125000", "162852.585000", "162853.045000", "162853.505000", "162853.965000", "162854.425000", "162854.885000", "162855.345000", "162855.805000", "162856.265000", "162856.725000", "162857.185000", "162857.645000", "162858.105000", "162858.565000", "162859.025000", "162859.485000", "162859.945000", "162900.405000", "162900.865000", "162901.325000", "162901.785000", "162902.245000", "162902.705000", "162903.165000", "162903.625000", "162904.085000", "162904.545000", "162905.005000", "162905.465000", "162905.925000", "162906.385000", "162906.845000", "162907.305000", "162907.765000", "162908.225000", "162908.685000", "162909.145000", "162909.605000", "162910.065000", "162910.525000", "162910.985000", "162911.445000", "162911.905000", "162912.365000", "162912.825000", "162913.285000", "162913.745000", "162914.205000", "162914.665000", "162915.125000", "162915.585000", "162916.045000", "162916.505000", "162916.965000", "162917.425000", "162917.885000", "162918.345000", "162918.805000", "162919.265000", "162919.725000", "162920.185000", "162920.645000", "162921.105000", "162921.565000", "162922.025000", "162922.485000", "162922.945000", "162923.405000", "162923.865000", "162924.325000", "162924.785000", "162925.245000", "162925.705000", "162926.165000", "162926.625000", "162927.085000", "162927.545000", "162928.005000", "162928.465000", "162928.925000", "162929.385000", "162929.845000", "162930.305000", "162930.765000"],
