{
  "AcquisitionMatrixPE": 82,
  "AcquisitionNumber": 1,
  "AcquisitionTime": "14:38:35.975000",
  "BandwidthPerPixelPhaseEncode": 24.888,
  "BaseResolution": 82,
  "BodyPartExamined": "BRAIN",
  "ConsistencyInfo": "N4_VE11C_LATEST_20160120",
  "ConversionSoftware": "dcm2niix",
  "ConversionSoftwareVersion": "v1.0.20201102",
  "DerivedVendorReportedEchoSpacing": 0.00049,
  "DeviceSerialNumber": "66112",
  "DwellTime": 2e-06,
  "EchoTime": 0.0272,
  "EchoTrainLength": 82,
  "EffectiveEchoSpacing": 0.00049,
  "FlipAngle": 44,
  "ImageComments": "Unaliased MB8/PE3",
  "ImageOrientationPatientDICOM": [0.998754, 0.0308959, -0.0391981, -0.0299913, 0.999275, 0.0234601],
  "ImageType": [
    "ORIGINAL",
    "PRIMARY",
    "M",
    "MB",
    "ND",
    "NORM",
    "MOSAIC"
],
  "ImagingFrequency": 123.252,
  "InPlanePhaseEncodingDirectionDICOM": "COL",
  "InstitutionAddress": "Maynard 3,Hanover,NH,US,03755",
  "InstitutionName": "Dartmouth College - PBS",
  "InstitutionalDepartmentName": "Department",
  "MRAcquisitionType": "2D",
  "MagneticFieldStrength": 3,
  "Manufacturer": "Siemens",
  "ManufacturersModelName": "Prisma",
  "Modality": "MR",
  "MultibandAccelerationFactor": 8,
  "PartialFourier": 1,
  "PatientPosition": "HFS",
  "PercentPhaseFOV": 100,
  "PercentSampling": 100,
  "PhaseEncodingDirection": "j-",
  "PhaseEncodingSteps": 82,
  "PhaseResolution": 1,
  "PixelBandwidth": 3050,
  "ProcedureStepDescription": "Wager_Wager^1076_spacetop",
  "ProtocolName": "func_run-03_task-faces_acq-ap-mb8",
  "PulseSequenceDetails": "%CustomerSeq%\\cmrr_mbep2d_bold",
  "ReceiveCoilActiveElements": "HEA;HEP",
  "ReceiveCoilName": "Head_32",
  "ReconMatrixPE": 82,
  "RepetitionTime": 0.46,
  "SAR": 0.0995773,
  "ScanOptions": "FS",
  "ScanningSequence": "EP",
  "SequenceName": "epfid2d1_82",
  "SequenceVariant": "SK\\SS",
  "SeriesDescription": "func_run-03_task-faces_acq-ap-mb8",
  "SeriesNumber": 12,
  "ShimSetting": [4137, -7768, -7241, 451, -58, -3, -17, 83],
  "SliceThickness": 2.7,
  "SliceTiming": [0, 0.25, 0.0625, 0.3125, 0.125, 0.3775, 0.1875, 0, 0.25, 0.0625, 0.3125, 0.125, 0.3775, 0.1875, 0, 0.25, 0.0625, 0.3125, 0.125, 0.3775, 0.1875, 0, 0.25, 0.0625, 0.3125, 0.125, 0.3775, 0.1875, 0, 0.25, 0.0625, 0.3125, 0.125, 0.3775, 0.1875, 0, 0.25, 0.0625, 0.3125, 0.125, 0.3775, 0.1875, 0, 0.25, 0.0625, 0.3125, 0.125, 0.3775, 0.1875, 0, 0.25, 0.0625, 0.3125, 0.125, 0.3775, 0.1875],
  "SoftwareVersions": "syngo MR E11",
  "SpacingBetweenSlices": 2.7,
  "StationName": "AWP66112",
  "TaskName": "faces",
  "TotalReadoutTime": 0.03969,
  "TxRefAmp": 281.466,
  "WipMemBlock": "1b90578b-89a8-445c-9ab2-d9470201de05||Sequence: R016 ve11c/master r/e634e98; Dec 19 2017 11:00:25 by eja",
  "dcmmeta_affine": [
    [-2.6795830726623535, -0.08046438544988632, -0.10771503299474716, 116.4556884765625],
    [-0.08289140462875366, 2.680981159210205, 0.06008922681212425, -84.69401550292969],
    [-0.10516553372144699, -0.06294175237417221, 2.697181224822998, -25.715633392333984],
    [0.0, 0.0, 0.0, 1.0]
],
  "dcmmeta_reorient_transform": [
    [0.0, -1.0, 0.0, 81.0],
    [1.0, 0.0, 0.0, 0.0],
    [0.0, 0.0, 1.0, 0.0],
    [0.0, 0.0, 0.0, 1.0]
],
  "dcmmeta_shape": [82, 82, 56, 914],
  "dcmmeta_slice_dim": 2,
  "dcmmeta_version": 0.6,
  "global": {
    "const": {
      "AccessionNumber": "A003448",
      "AcquisitionMatrix": [82, 0, 0, 82],
      "AngioFlag": "N",
      "BitsAllocated": 16,
      "BitsStored": 16,
      "BodyPartExamined": "BRAIN",
      "Columns": 656,
      "EchoNumbers": 1,
      "EchoTime": 27.2,
      "EchoTrainLength": 82,
      "FlipAngle": 44.0,
      "HighBit": 15,
      "ImageOrientationPatient": [0.99875370144746, 0.03089588765314, -0.0391980608081, -0.0299912696839, 0.99927481062625, 0.02346010636405],
      "ImagePositionPatient": [-855.88516181356, -925.69692074631, -18.695689480701],
      "ImageType": [
        "ORIGINAL",
        "PRIMARY",
        "M",
        "MB",
        "ND",
        "NORM",
        "MOSAIC"
],
      "ImagedNucleus": "1H",
      "ImagingFrequency": 123.25208,
      "InPlanePhaseEncodingDirection": "COL",
      "MRAcquisitionType": "2D",
      "MagneticFieldStrength": 3.0,
      "Manufacturer": "SIEMENS",
      "ManufacturerModelName": "Prisma",
      "Modality": "MR",
      "NumberOfAverages": 1.0,
      "NumberOfPhaseEncodingSteps": 82,
      "PercentPhaseFieldOfView": 100.0,
      "PercentSampling": 100.0,
      "PerformedProcedureStepStartTime": "133515.044000",
      "PhotometricInterpretation": "MONOCHROME2",
      "PixelBandwidth": 3050.0,
      "PixelRepresentation": 0,
      "PixelSpacing": [2.6829268932343, 2.6829268932343],
      "ProtocolName": "func_run-03_task-faces_acq-ap-mb8",
      "RepetitionTime": 460.0,
      "Rows": 656,
      "SAR": 0.09957727071988,
      "SamplesPerPixel": 1,
      "ScanOptions": "FS",
      "ScanningSequence": "EP",
      "SequenceName": "epfid2d1_82",
      "SequenceVariant": [
        "SK",
        "SS"
],
      "SeriesDescription": "func_run-03_task-faces_acq-ap-mb8",
      "SeriesNumber": 12,
      "SeriesTime": "143850.869000",
      "SliceLocation": -32.21961071577,
      "SliceThickness": 2.7000000476837,
      "SmallestImagePixelValue": 0,
      "SoftwareVersions": "syngo MR E11",
      "SpacingBetweenSlices": 2.7000000237845,
      "SpecificCharacterSet": "ISO_IR 100",
      "StudyID": "3",
      "StudyTime": "133514.946000",
      "TransmitCoilName": "Body",
      "VariableFlipAngleFlag": "N",
      "WindowCenterWidthExplanation": "Algo1",
      "dBdt": 0.0},
    "slices": {}
  },
  "time": {
    "samples": {
      "AcquisitionNumber": [1, 2, 3, 4, 5, 6, 7, 8, 9, 10, 11, 12, 13, 14, 15, 16, 17, 18, 19, 20, 21, 22, 23, 24, 25, 26, 27, 28, 29, 30, 31, 32, 33, 34, 35, 36, 37, 38, 39, 40, 41, 42, 43, 44, 45, 46, 47, 48, 49, 50, 51, 52, 53, 54, 55, 56, 57, 58, 59, 60, 61, 62, 63, 64, 65, 66, 67, 68, 69, 70, 71, 72, 73, 74, 75, 76, 77, 78, 79, 80, 81, 82, 83, 84, 85, 86, 87, 88, 89, 90, 91, 92, 93, 94, 95, 96, 97, 98, 99, 100, 101, 102, 103, 104, 105, 106, 107, 108, 109, 110, 111, 112, 113, 114, 115, 116, 117, 118, 119, 120, 121, 122, 123, 124, 125, 126, 127, 128, 129, 130, 131, 132, 133, 134, 135, 136, 137, 138, 139, 140, 141, 142, 143, 144, 145, 146, 147, 148, 149, 150, 151, 152, 153, 154, 155, 156, 157, 158, 159, 160, 161, 162, 163, 164, 165, 166, 167, 168, 169, 170, 171, 172, 173, 174, 175, 176, 177, 178, 179, 180, 181, 182, 183, 184, 185, 186, 187, 188, 189, 190, 191, 192, 193, 194, 195, 196, 197, 198, 199, 200, 201, 202, 203, 204, 205, 206, 207, 208, 209, 210, 211, 212, 213, 214, 215, 216, 217, 218, 219, 220, 221, 222, 223, 224, 225, 226, 227, 228, 229, 230, 231, 232, 233, 234, 235, 236, 237, 238, 239, 240, 241, 242, 243, 244, 245, 246, 247, 248, 249, 250, 251, 252, 253, 254, 255, 256, 257, 258, 259, 260, 261, 262, 263, 264, 265, 266, 267, 268, 269, 270, 271, 272, 273, 274, 275, 276, 277, 278, 279, 280, 281, 282, 283, 284, 285, 286, 287, 288, 289, 290, 291, 292, 293, 294, 295, 296, 297, 298, 299, 300, 301, 302, 303, 304, 305, 306, 307, 308, 309, 310, 311, 312, 313, 314, 315, 316, 317, 318, 319, 320, 321, 322, 323, 324, 325, 326, 327, 328, 329, 330, 331, 332, 333, 334, 335, 336, 337, 338, 339, 340, 341, 342, 343, 344, 345, 346, 347, 348, 349, 350, 351, 352, 353, 354, 355, 356, 357, 358, 359, 360, 361, 362, 363, 364, 365, 366, 367, 368, 369, 370, 371, 372, 373, 374, 375, 376, 377, 378, 379, 380, 381, 382, 383, 384, 385, 386, 387, 388, 389, 390, 391, 392, 393, 394, 395, 396, 397, 398, 399, 400, 401, 402, 403, 404, 405, 406, 407, 408, 409, 410, 411, 412, 413, 414, 415, 416, 417, 418, 419, 420, 421, 422, 423, 424, 425, 426, 427, 428, 429, 430, 431, 432, 433, 434, 435, 436, 437, 438, 439, 440, 441, 442, 443, 444, 445, 446, 447, 448, 449, 450, 451, 452, 453, 454, 455, 456, 457, 458, 459, 460, 461, 462, 463, 464, 465, 466, 467, 468, 469, 470, 471, 472, 473, 474, 475, 476, 477, 478, 479, 480, 481, 482, 483, 484, 485, 486, 487, 488, 489, 490, 491, 492, 493, 494, 495, 496, 497, 498, 499, 500, 501, 502, 503, 504, 505, 506, 507, 508, 509, 510, 511, 512, 513, 514, 515, 516, 517, 518, 519, 520, 521, 522, 523, 524, 525, 526, 527, 528, 529, 530, 531, 532, 533, 534, 535, 536, 537, 538, 539, 540, 541, 542, 543, 544, 545, 546, 547, 548, 549, 550, 551, 552, 553, 554, 555, 556, 557, 558, 559, 560, 561, 562, 563, 564, 565, 566, 567, 568, 569, 570, 571, 572, 573, 574, 575, 576, 577, 578, 579, 580, 581, 582, 583, 584, 585, 586, 587, 588, 589, 590, 591, 592, 593, 594, 595, 596, 597, 598, 599, 600, 601, 602, 603, 604, 605, 606, 607, 608, 609, 610, 611, 612, 613, 614, 615, 616, 617, 618, 619, 620, 621, 622, 623, 624, 625, 626, 627, 628, 629, 630, 631, 632, 633, 634, 635, 636, 637, 638, 639, 640, 641, 642, 643, 644, 645, 646, 647, 648, 649, 650, 651, 652, 653, 654, 655, 656, 657, 658, 659, 660, 661, 662, 663, 664, 665, 666, 667, 668, 669, 670, 671, 672, 673, 674, 675, 676, 677, 678, 679, 680, 681, 682, 683, 684, 685, 686, 687, 688, 689, 690, 691, 692, 693, 694, 695, 696, 697, 698, 699, 700, 701, 702, 703, 704, 705, 706, 707, 708, 709, 710, 711, 712, 713, 714, 715, 716, 717, 718, 719, 720, 721, 722, 723, 724, 725, 726, 727, 728, 729, 730, 731, 732, 733, 734, 735, 736, 737, 738, 739, 740, 741, 742, 743, 744, 745, 746, 747, 748, 749, 750, 751, 752, 753, 754, 755, 756, 757, 758, 759, 760, 761, 762, 763, 764, 765, 766, 767, 768, 769, 770, 771, 772, 773, 774, 775, 776, 777, 778, 779, 780, 781, 782, 783, 784, 785, 786, 787, 788, 789, 790, 791, 792, 793, 794, 795, 796, 797, 798, 799, 800, 801, 802, 803, 804, 805, 806, 807, 808, 809, 810, 811, 812, 813, 814, 815, 816, 817, 818, 819, 820, 821, 822, 823, 824, 825, 826, 827, 828, 829, 830, 831, 832, 833, 834, 835, 836, 837, 838, 839, 840, 841, 842, 843, 844, 845, 846, 847, 848, 849, 850, 851, 852, 853, 854, 855, 856, 857, 858, 859, 860, 861, 862, 863, 864, 865, 866, 867, 868, 869, 870, 871, 872, 873, 874, 875, 876, 877, 878, 879, 880, 881, 882, 883, 884, 885, 886, 887, 888, 889, 890, 891, 892, 893, 894, 895, 896, 897, 898, 899, 900, 901, 902, 903, 904, 905, 906, 907, 908, 909, 910, 911, 912, 913, 914],
      "AcquisitionTime": ["143835.975000", "143836.435000", "143836.895000", "143837.355000", "143837.815000", "143838.275000", "143838.735000", "143839.195000", "143839.655000", "143840.115000", "143840.575000", "143841.035000", "143841.495000", "143841.955000", "143842.415000", "143842.875000", "143843.335000", "143843.795000", "143844.255000", "143844.715000", "143845.175000", "143845.635000", "143846.095000", "143846.555000", "143847.015000", "143847.475000", "143847.935000", "143848.395000", "143848.855000", "143849.315000", "143849.775000", "143850.235000", "143850.695000", "143851.155000", "143851.615000", "143852.075000", "143852.535000", "143852.995000", "143853.455000", "143853.915000", "143854.375000", "143854.835000", "143855.295000", "143855.755000", "143856.215000", "143856.675000", "143857.135000", "143857.595000", "143858.055000", "143858.515000", "143858.975000", "143859.435000", "143859.895000", "143900.355000", "143900.815000", "143901.275000", "143901.735000", "143902.195000", "143902.655000", "143903.115000", "143903.575000", "143904.035000", "143904.495000", "143904.955000", "143905.415000", "143905.875000", "143906.335000", "143906.795000", "143907.255000", "143907.715000", "143908.175000", "143908.635000", "143909.095000", "143909.555000", "143910.015000", "143910.475000", "143910.935000", "143911.395000", "143911.855000", "143912.315000", "143912.775000", "143913.235000", "143913.695000", "143914.155000", "143914.615000", "143915.075000", "143915.535000", "143915.995000", "143916.455000", "143916.915000", "143917.375000", "143917.835000", "143918.295000", "143918.755000", "143919.215000", "143919.675000", "143920.135000", "143920.595000", "143921.055000", "143921.515000", "143921.975000", "143922.435000", "143922.895000", "143923.355000", "143923.815000", "143924.275000", "143924.735000", "143925.195000", "143925.655000", "143926.115000", "143926.575000", "143927.035000", "143927.495000", "143927.955000", "143928.415000", "143928.875000", "143929.335000", "143929.795000", "143930.255000", "143930.715000", "143931.175000", "143931.635000", "143932.095000", "143932.555000", "143933.015000", "143933.475000", "143933.935000", "143934.395000", "143934.855000", "143935.315000", "143935.775000", "143936.235000", "143936.695000", "143937.155000", "143937.615000", "143938.075000", "143938.535000", "143938.995000", "143939.455000", "143939.915000", "143940.375000", "143940.835000", "143941.295000", "143941.755000", "143942.215000", "143942.675000", "143943.135000", "143943.595000", "143944.055000", "143944.515000", "143944.975000", "143945.435000", "143945.895000", "143946.355000", "143946.815000", "143947.275000", "143947.735000", "143948.195000", "143948.655000", "143949.115000", "143949.575000", "143950.035000", "143950.495000", "143950.955000", "143951.415000", "143951.875000", "143952.335000", "143952.795000", "143953.255000", "143953.715000", "143954.175000", "143954.635000", "143955.095000", "143955.555000", "143956.015000", "143956.475000", "143956.935000", "143957.395000", "143957.855000", "143958.315000", "143958.775000", "143959.235000", "143959.695000", "144000.155000", "144000.615000", "144001.075000", "144001.535000", "144001.995000", "144002.455000", "144002.915000", "144003.375000", "144003.835000", "144004.295000", "144004.755000", "144005.215000", "144005.675000", "144006.135000", "144006.595000", "144007.055000", "144007.515000", "144007.975000", "144008.435000", "144008.895000", "144009.355000", "144009.815000", "144010.275000", "144010.735000", "144011.195000", "144011.655000", "144012.115000", "144012.575000", "144013.035000", "144013.495000", "144013.955000", "144014.415000", "144014.875000", "144015.335000", "144015.795000", "144016.255000", "144016.715000", "144017.175000", "144017.635000", "144018.095000", "144018.555000", "144019.015000", "144019.475000", "144019.935000", "144020.395000", "144020.855000", "144021.315000", "144021.775000", "144022.235000", "144022.695000", "144023.155000", "144023.615000", "144024.075000", "144024.535000", "144024.995000", "144025.455000", "144025.915000", "144026.375000", "144026.835000", "144027.295000", "144027.755000", "144028.215000", "144028.675000", "144029.135000", "144029.595000", "144030.055000", "144030.515000", "144030.975000", "144031.435000", "144031.895000", "144032.355000", "144032.815000", "144033.275000", "144033.735000", "144034.195000", "144034.655000", "144035.115000", "144035.575000", "144036.035000", "144036.495000", "144036.955000", "144037.415000", "144037.875000", "144038.335000", "144038.795000", "144039.255000", "144039.715000", "144040.175000", "144040.635000", "144041.095000", "144041.555000", "144042.015000", "144042.475000", "144042.935000", "144043.395000", "144043.855000", "144044.315000", "144044.775000", "144045.235000", "144045.695000", "144046.155000", "144046.615000", "144047.075000", "144047.535000", "144047.995000", "144048.455000", "144048.915000", "144049.375000", "144049.835000", "144050.295000", "144050.755000", "144051.215000", "144051.675000", "144052.135000", "144052.595000", "144053.055000", "144053.515000", "144053.975000", "144054.435000", "144054.895000", "144055.355000", "144055.815000", "144056.275000", "144056.735000", "144057.195000", "144057.655000", "144058.115000", "144058.575000", "144059.035000", "144059.495000", "144059.955000", "144100.415000", "144100.875000", "144101.335000", "144101.795000", "144102.255000", "144102.715000", "144103.175000", "144103.635000", "144104.095000", "144104.555000", "144105.015000", "144105.475000", "144105.935000", "144106.395000", "144106.855000", "144107.315000", "144107.775000", "144108.235000", "144108.695000", "144109.155000", "144109.615000", "144110.075000", "144110.535000", "144110.995000", "144111.455000", "144111.915000", "144112.375000", "144112.835000", "144113.295000", "144113.755000", "144114.215000", "144114.675000", "144115.135000", "144115.595000", "144116.055000", "144116.515000", "144116.975000", "144117.435000", "144117.895000", "144118.355000", "144118.815000", "144119.275000", "144119.735000", "144120.195000", "144120.655000", "144121.115000", "144121.575000", "144122.035000", "144122.495000", "144122.955000", "144123.415000", "144123.875000", "144124.335000", "144124.795000", "144125.255000", "144125.715000", "144126.175000", "144126.635000", "144127.095000", "144127.555000", "144128.015000", "144128.475000", "144128.935000", "144129.395000", "144129.855000", "144130.315000", "144130.775000", "144131.235000", "144131.695000", "144132.155000", "144132.615000", "144133.075000", "144133.535000", "144133.995000", "144134.455000", "144134.915000", "144135.375000", "144135.835000", "144136.295000", "144136.755000", "144137.215000", "144137.675000", "144138.135000", "144138.595000", "144139.055000", "144139.515000", "144139.975000", "144140.435000", "144140.895000", "144141.355000", "144141.815000", "144142.275000", "144142.735000", "144143.195000", "144143.655000", "144144.115000", "144144.575000", "144145.035000", "144145.495000", "144145.955000", "144146.415000", "144146.875000", "144147.335000", "144147.795000", "144148.255000", "144148.715000", "144149.175000", "144149.635000", "144150.095000", "144150.555000", "144151.015000", "144151.475000", "144151.935000", "144152.395000", "144152.855000", "144153.315000", "144153.775000", "144154.235000", "144154.695000", "144155.155000", "144155.615000", "144156.075000", "144156.535000", "144156.995000", "144157.455000", "144157.915000", "144158.375000", "144158.835000", "144159.295000", "144159.755000", "144200.215000", "144200.675000", "144201.135000", "144201.595000", "144202.055000", "144202.515000", "144202.975000", "144203.435000", "144203.895000", "144204.355000", "144204.815000", "144205.275000", "144205.735000", "144206.195000", "144206.655000", "144207.115000", "144207.575000", "144208.035000", "144208.495000", "144208.955000", "144209.415000", "144209.875000", "144210.335000", "144210.795000", "144211.255000", "144211.715000", "144212.175000", "144212.635000", "144213.095000", "144213.555000", "144214.015000", "144214.475000", "144214.935000", "144215.395000", "144215.855000", "144216.315000", "144216.775000", "144217.235000", "144217.695000", "144218.155000", "144218.615000", "144219.075000", "144219.535000", "144219.995000", "144220.455000", "144220.915000", "144221.375000", "144221.835000", "144222.295000", "144222.755000", "144223.215000", "144223.675000", "144224.135000", "144224.595000", "144225.055000", "144225.515000", "144225.975000", "144226.435000", "144226.895000", "144227.355000", "144227.815000", "144228.275000", "144228.735000", "144229.195000", "144229.655000", "144230.115000", "144230.575000", "144231.035000", "144231.495000", "144231.955000", "144232.415000", "144232.875000", "144233.335000", "144233.795000", "144234.255000", "144234.715000", "144235.175000", "144235.635000", "144236.095000", "144236.555000", "144237.015000", "144237.475000", "144237.935000", "144238.395000", "144238.855000", "144239.315000", "144239.775000", "144240.235000", "144240.695000", "144241.155000", "144241.615000", "144242.075000", "144242.535000", "144242.995000", "144243.455000", "144243.915000", "144244.375000", "144244.835000", "144245.295000", "144245.755000", "144246.215000", "144246.675000", "144247.135000", "144247.595000", "144248.055000", "144248.515000", "144248.975000", "144249.435000", "144249.895000", "144250.355000", "144250.815000", "144251.275000", "144251.735000", "144252.195000", "144252.655000", "144253.115000", "144253.575000", "144254.035000", "144254.495000", "144254.955000", "144255.415000", "144255.875000", "144256.335000", "144256.795000", "144257.255000", "144257.715000", "144258.175000", "144258.635000", "144259.095000", "144259.555000", "144300.015000", "144300.475000", "144300.935000", "144301.395000", "144301.855000", "144302.315000", "144302.775000", "144303.235000", "144303.695000", "144304.155000", "144304.615000", "144305.075000", "144305.535000", "144305.995000", "144306.455000", "144306.915000", "144307.375000", "144307.835000", "144308.295000", "144308.755000", "144309.215000", "144309.675000", "144310.135000", "144310.595000", "144311.055000", "144311.515000", "144311.975000", "144312.435000", "144312.895000", "144313.355000", "144313.815000", "144314.275000", "144314.735000", "144315.195000", "144315.655000", "144316.115000", "144316.575000", "144317.035000", "144317.495000", "144317.955000", "144318.415000", "144318.875000", "144319.335000", "144319.795000", "144320.255000", "144320.715000", "144321.175000", "144321.635000", "144322.095000", "144322.555000", "144323.015000", "144323.475000", "144323.935000", "144324.395000", "144324.855000", "144325.315000", "144325.775000", "144326.235000", "144326.695000", "144327.155000", "144327.615000", "144328.075000", "144328.535000", "144328.995000", "144329.455000", "144329.915000", "144330.375000", "144330.835000", "144331.295000", "144331.755000", "144332.215000", "144332.675000", "144333.135000", "144333.595000", "144334.055000", "144334.515000", "144334.975000", "144335.435000", "144335.895000", "144336.355000", "144336.815000", "144337.275000", "144337.735000", "144338.195000", "144338.655000", "144339.115000", "144339.575000", "144340.035000", "144340.495000", "144340.955000", "144341.415000", "144341.875000", "144342.335000", "144342.795000", "144343.255000", "144343.715000", "144344.175000", "144344.635000", "144345.095000", "144345.555000", "144346.015000", "144346.475000", "144346.935000", "144347.395000", "144347.855000", "144348.315000", "144348.775000", "144349.235000", "144349.695000", "144350.155000", "144350.615000", "144351.075000", "144351.535000", "144351.995000", "144352.455000", "144352.915000", "144353.375000", "144353.835000", "144354.295000", "144354.755000", "144355.215000", "144355.675000", "144356.135000", "144356.595000", "144357.055000", "144357.515000", "144357.975000", "144358.435000", "144358.895000", "144359.355000", "144359.815000", "144400.275000", "144400.735000", "144401.195000", "144401.655000", "144402.115000", "144402.575000", "144403.035000", "144403.495000", "144403.955000", "144404.415000", "144404.875000", "144405.335000", "144405.795000", "144406.255000", "144406.715000", "144407.175000", "144407.635000", "144408.095000", "144408.555000", "144409.015000", "144409.475000", "144409.935000", "144410.395000", "144410.855000", "144411.315000", "144411.775000", "144412.235000", "144412.695000", "144413.155000", "144413.615000", "144414.075000", "144414.535000", "144414.995000", "144415.455000", "144415.915000", "144416.375000", "144416.835000", "144417.295000", "144417.755000", "144418.215000", "144418.675000", "144419.135000", "144419.595000", "144420.055000", "144420.515000", "144420.975000", "144421.435000", "144421.895000", "144422.355000", "144422.815000", "144423.275000", "144423.735000", "144424.195000", "144424.655000", "144425.115000", "144425.575000", "144426.035000", "144426.495000", "144426.955000", "144427.415000", "144427.875000", "144428.335000", "144428.795000", "144429.255000", "144429.715000", "144430.175000", "144430.635000", "144431.095000", "144431.555000", "144432.015000", "144432.475000", "144432.935000", "144433.395000", "144433.855000", "144434.315000", "144434.775000", "144435.235000", "144435.695000", "144436.155000", "144436.615000", "144437.075000", "144437.535000", "144437.995000", "144438.455000", "144438.915000", "144439.375000", "144439.835000", "144440.295000", "144440.755000", "144441.215000", "144441.675000", "144442.135000", "144442.595000", "144443.055000", "144443.515000", "144443.975000", "144444.435000", "144444.895000", "144445.355000", "144445.815000", "144446.275000", "144446.735000", "144447.195000", "144447.655000", "144448.115000", "144448.575000", "144449.035000", "144449.495000", "144449.955000", "144450.415000", "144450.875000", "144451.335000", "144451.795000", "144452.255000", "144452.715000", "144453.175000", "144453.635000", "144454.095000", "144454.555000", "144455.015000", "144455.475000", "144455.935000", "144456.395000", "144456.855000", "144457.315000", "144457.775000", "144458.235000", "144458.695000", "144459.155000", "144459.615000", "144500.075000", "144500.535000", "144500.995000", "144501.455000", "144501.915000", "144502.375000", "144502.835000", "144503.295000", "144503.755000", "144504.215000", "144504.675000", "144505.135000", "144505.595000", "144506.055000", "144506.515000", "144506.975000", "144507.435000", "144507.895000", "144508.355000", "144508.815000", "144509.275000", "144509.735000", "144510.195000", "144510.655000", "144511.115000", "144511.575000", "144512.035000", "144512.495000", "144512.955000", "144513.415000", "144513.875000", "144514.335000", "144514.795000", "144515.255000", "144515.715000", "144516.175000", "144516.635000", "144517.095000", "144517.555000", "144518.015000", "144518.475000", "144518.935000", "144519.395000", "144519.855000", "144520.315000", "144520.775000", "144521.235000", "144521.695000", "144522.155000", "144522.615000", "144523.075000", "144523.535000", "144523.995000", "144524.455000", "144524.915000", "144525.375000", "144525.835000", "144526.295000", "144526.755000", "144527.215000", "144527.675000", "144528.135000", "144528.595000", "144529.055000", "144529.515000", "144529.975000", "144530.435000", "144530.895000", "144531.355000", "144531.815000", "144532.275000", "144532.735000", "144533.195000", "144533.655000", "144534.115000", "144534.575000", "144535.035000", "144535.495000", "144535.955000"],
