{
  "AcquisitionMatrixPE": 82,
  "AcquisitionNumber": 1,
  "AcquisitionTime": "14:22:43.865000",
  "BandwidthPerPixelPhaseEncode": 24.888,
  "BaseResolution": 82,
  "BodyPartExamined": "BRAIN",
  "ConsistencyInfo": "N4_VE11C_LATEST_20160120",
  "ConversionSoftware": "dcm2niix",
  "ConversionSoftwareVersion": "v1.0.20201102",
  "DerivedVendorReportedEchoSpacing": 0.00049,
  "DeviceSerialNumber": "66112",
  "DwellTime": 2e-06,
  "EchoTime": 0.0272,
  "EchoTrainLength": 82,
  "EffectiveEchoSpacing": 0.00049,
  "FlipAngle": 44,
  "ImageComments": "Unaliased MB8/PE3",
  "ImageOrientationPatientDICOM": [0.998754, 0.0308959, -0.0391981, -0.0299913, 0.999275, 0.0234601],
  "ImageType": [
    "ORIGINAL",
    "PRIMARY",
    "M",
    "MB",
    "ND",
    "NORM",
    "MOSAIC"
],
  "ImagingFrequency": 123.252,
  "InPlanePhaseEncodingDirectionDICOM": "COL",
  "InstitutionAddress": "Maynard 3,Hanover,NH,US,03755",
  "InstitutionName": "Dartmouth College - PBS",
  "InstitutionalDepartmentName": "Department",
  "MRAcquisitionType": "2D",
  "MagneticFieldStrength": 3,
  "Manufacturer": "Siemens",
  "ManufacturersModelName": "Prisma",
  "Modality": "MR",
  "MultibandAccelerationFactor": 8,
  "PartialFourier": 1,
  "PatientPosition": "HFS",
  "PercentPhaseFOV": 100,
  "PercentSampling": 100,
  "PhaseEncodingDirection": "j-",
  "PhaseEncodingSteps": 82,
  "PhaseResolution": 1,
  "PixelBandwidth": 3050,
  "ProcedureStepDescription": "Wager_Wager^1076_spacetop",
  "ProtocolName": "func_run-01_task-faces_acq-ap-mb8",
  "PulseSequenceDetails": "%CustomerSeq%\\cmrr_mbep2d_bold",
  "ReceiveCoilActiveElements": "HEA;HEP",
  "ReceiveCoilName": "Head_32",
  "ReconMatrixPE": 82,
  "RepetitionTime": 0.46,
  "SAR": 0.0995773,
  "ScanOptions": "FS",
  "ScanningSequence": "EP",
  "SequenceName": "epfid2d1_82",
  "SequenceVariant": "SK\\SS",
  "SeriesDescription": "func_run-01_task-faces_acq-ap-mb8",
  "SeriesNumber": 8,
  "ShimSetting": [4137, -7768, -7241, 451, -58, -3, -17, 83],
  "SliceThickness": 2.7,
  "SliceTiming": [0, 0.25, 0.0625, 0.315, 0.125, 0.3775, 0.1875, 0, 0.25, 0.0625, 0.315, 0.125, 0.3775, 0.1875, 0, 0.25, 0.0625, 0.315, 0.125, 0.3775, 0.1875, 0, 0.25, 0.0625, 0.315, 0.125, 0.3775, 0.1875, 0, 0.25, 0.0625, 0.315, 0.125, 0.3775, 0.1875, 0, 0.25, 0.0625, 0.315, 0.125, 0.3775, 0.1875, 0, 0.25, 0.0625, 0.315, 0.125, 0.3775, 0.1875, 0, 0.25, 0.0625, 0.315, 0.125, 0.3775, 0.1875],
  "SoftwareVersions": "syngo MR E11",
  "SpacingBetweenSlices": 2.7,
  "StationName": "AWP66112",
  "TaskName": "faces",
  "TotalReadoutTime": 0.03969,
  "TxRefAmp": 281.466,
  "WipMemBlock": "ad834841-26e5-4226-895f-0e7497ffe459||Sequence: R016 ve11c/master r/e634e98; Dec 19 2017 11:00:25 by eja",
  "dcmmeta_affine": [
    [-2.6795830726623535, -0.08046438544988632, -0.10771503299474716, 116.4556884765625],
    [-0.08289140462875366, 2.680981159210205, 0.06008922681212425, -84.69401550292969],
    [-0.10516553372144699, -0.06294175237417221, 2.697181224822998, -25.715633392333984],
    [0.0, 0.0, 0.0, 1.0]
],
  "dcmmeta_reorient_transform": [
    [0.0, -1.0, 0.0, 81.0],
    [1.0, 0.0, 0.0, 0.0],
    [0.0, 0.0, 1.0, 0.0],
    [0.0, 0.0, 0.0, 1.0]
],
  "dcmmeta_shape": [82, 82, 56, 914],
  "dcmmeta_slice_dim": 2,
  "dcmmeta_version": 0.6,
  "global": {
    "const": {
      "AccessionNumber": "A003448",
      "AcquisitionMatrix": [82, 0, 0, 82],
      "AngioFlag": "N",
      "BitsAllocated": 16,
      "BitsStored": 16,
      "BodyPartExamined": "BRAIN",
      "Columns": 656,
      "EchoNumbers": 1,
      "EchoTime": 27.2,
      "EchoTrainLength": 82,
      "FlipAngle": 44.0,
      "HighBit": 15,
      "ImageOrientationPatient": [0.99875370144746, 0.03089588765314, -0.0391980608081, -0.0299912696839, 0.99927481062625, 0.02346010636405],
      "ImagePositionPatient": [-855.88516181356, -925.69692074631, -18.695689480701],
      "ImageType": [
        "ORIGINAL",
        "PRIMARY",
        "M",
        "MB",
        "ND",
        "NORM",
        "MOSAIC"
],
      "ImagedNucleus": "1H",
      "ImagingFrequency": 123.252064,
      "InPlanePhaseEncodingDirection": "COL",
      "MRAcquisitionType": "2D",
      "MagneticFieldStrength": 3.0,
      "Manufacturer": "SIEMENS",
      "ManufacturerModelName": "Prisma",
      "Modality": "MR",
      "NumberOfAverages": 1.0,
      "NumberOfPhaseEncodingSteps": 82,
      "PercentPhaseFieldOfView": 100.0,
      "PercentSampling": 100.0,
      "PerformedProcedureStepStartTime": "133515.044000",
      "PhotometricInterpretation": "MONOCHROME2",
      "PixelBandwidth": 3050.0,
      "PixelRepresentation": 0,
      "PixelSpacing": [2.6829268932343, 2.6829268932343],
      "ProtocolName": "func_run-01_task-faces_acq-ap-mb8",
      "RepetitionTime": 460.0,
      "Rows": 656,
      "SAR": 0.09957727071988,
      "SamplesPerPixel": 1,
      "ScanOptions": "FS",
      "ScanningSequence": "EP",
      "SequenceName": "epfid2d1_82",
      "SequenceVariant": [
        "SK",
        "SS"
],
      "SeriesDescription": "func_run-01_task-faces_acq-ap-mb8",
      "SeriesNumber": 8,
      "SeriesTime": "142310.901000",
      "SliceLocation": -32.21961071577,
      "SliceThickness": 2.7000000476837,
      "SmallestImagePixelValue": 0,
      "SoftwareVersions": "syngo MR E11",
      "SpacingBetweenSlices": 2.7000000237845,
      "SpecificCharacterSet": "ISO_IR 100",
      "StudyID": "3",
      "StudyTime": "133514.946000",
      "TransmitCoilName": "Body",
      "VariableFlipAngleFlag": "N",
      "WindowCenterWidthExplanation": "Algo1",
      "dBdt": 0.0},
    "slices": {}
  },
  "time": {
    "samples": {
      "AcquisitionNumber": [1, 2, 3, 4, 5, 6, 7, 8, 9, 10, 11, 12, 13, 14, 15, 16, 17, 18, 19, 20, 21, 22, 23, 24, 25, 26, 27, 28, 29, 30, 31, 32, 33, 34, 35, 36, 37, 38, 39, 40, 41, 42, 43, 44, 45, 46, 47, 48, 49, 50, 51, 52, 53, 54, 55, 56, 57, 58, 59, 60, 61, 62, 63, 64, 65, 66, 67, 68, 69, 70, 71, 72, 73, 74, 75, 76, 77, 78, 79, 80, 81, 82, 83, 84, 85, 86, 87, 88, 89, 90, 91, 92, 93, 94, 95, 96, 97, 98, 99, 100, 101, 102, 103, 104, 105, 106, 107, 108, 109, 110, 111, 112, 113, 114, 115, 116, 117, 118, 119, 120, 121, 122, 123, 124, 125, 126, 127, 128, 129, 130, 131, 132, 133, 134, 135, 136, 137, 138, 139, 140, 141, 142, 143, 144, 145, 146, 147, 148, 149, 150, 151, 152, 153, 154, 155, 156, 157, 158, 159, 160, 161, 162, 163, 164, 165, 166, 167, 168, 169, 170, 171, 172, 173, 174, 175, 176, 177, 178, 179, 180, 181, 182, 183, 184, 185, 186, 187, 188, 189, 190, 191, 192, 193, 194, 195, 196, 197, 198, 199, 200, 201, 202, 203, 204, 205, 206, 207, 208, 209, 210, 211, 212, 213, 214, 215, 216, 217, 218, 219, 220, 221, 222, 223, 224, 225, 226, 227, 228, 229, 230, 231, 232, 233, 234, 235, 236, 237, 238, 239, 240, 241, 242, 243, 244, 245, 246, 247, 248, 249, 250, 251, 252, 253, 254, 255, 256, 257, 258, 259, 260, 261, 262, 263, 264, 265, 266, 267, 268, 269, 270, 271, 272, 273, 274, 275, 276, 277, 278, 279, 280, 281, 282, 283, 284, 285, 286, 287, 288, 289, 290, 291, 292, 293, 294, 295, 296, 297, 298, 299, 300, 301, 302, 303, 304, 305, 306, 307, 308, 309, 310, 311, 312, 313, 314, 315, 316, 317, 318, 319, 320, 321, 322, 323, 324, 325, 326, 327, 328, 329, 330, 331, 332, 333, 334, 335, 336, 337, 338, 339, 340, 341, 342, 343, 344, 345, 346, 347, 348, 349, 350, 351, 352, 353, 354, 355, 356, 357, 358, 359, 360, 361, 362, 363, 364, 365, 366, 367, 368, 369, 370, 371, 372, 373, 374, 375, 376, 377, 378, 379, 380, 381, 382, 383, 384, 385, 386, 387, 388, 389, 390, 391, 392, 393, 394, 395, 396, 397, 398, 399, 400, 401, 402, 403, 404, 405, 406, 407, 408, 409, 410, 411, 412, 413, 414, 415, 416, 417, 418, 419, 420, 421, 422, 423, 424, 425, 426, 427, 428, 429, 430, 431, 432, 433, 434, 435, 436, 437, 438, 439, 440, 441, 442, 443, 444, 445, 446, 447, 448, 449, 450, 451, 452, 453, 454, 455, 456, 457, 458, 459, 460, 461, 462, 463, 464, 465, 466, 467, 468, 469, 470, 471, 472, 473, 474, 475, 476, 477, 478, 479, 480, 481, 482, 483, 484, 485, 486, 487, 488, 489, 490, 491, 492, 493, 494, 495, 496, 497, 498, 499, 500, 501, 502, 503, 504, 505, 506, 507, 508, 509, 510, 511, 512, 513, 514, 515, 516, 517, 518, 519, 520, 521, 522, 523, 524, 525, 526, 527, 528, 529, 530, 531, 532, 533, 534, 535, 536, 537, 538, 539, 540, 541, 542, 543, 544, 545, 546, 547, 548, 549, 550, 551, 552, 553, 554, 555, 556, 557, 558, 559, 560, 561, 562, 563, 564, 565, 566, 567, 568, 569, 570, 571, 572, 573, 574, 575, 576, 577, 578, 579, 580, 581, 582, 583, 584, 585, 586, 587, 588, 589, 590, 591, 592, 593, 594, 595, 596, 597, 598, 599, 600, 601, 602, 603, 604, 605, 606, 607, 608, 609, 610, 611, 612, 613, 614, 615, 616, 617, 618, 619, 620, 621, 622, 623, 624, 625, 626, 627, 628, 629, 630, 631, 632, 633, 634, 635, 636, 637, 638, 639, 640, 641, 642, 643, 644, 645, 646, 647, 648, 649, 650, 651, 652, 653, 654, 655, 656, 657, 658, 659, 660, 661, 662, 663, 664, 665, 666, 667, 668, 669, 670, 671, 672, 673, 674, 675, 676, 677, 678, 679, 680, 681, 682, 683, 684, 685, 686, 687, 688, 689, 690, 691, 692, 693, 694, 695, 696, 697, 698, 699, 700, 701, 702, 703, 704, 705, 706, 707, 708, 709, 710, 711, 712, 713, 714, 715, 716, 717, 718, 719, 720, 721, 722, 723, 724, 725, 726, 727, 728, 729, 730, 731, 732, 733, 734, 735, 736, 737, 738, 739, 740, 741, 742, 743, 744, 745, 746, 747, 748, 749, 750, 751, 752, 753, 754, 755, 756, 757, 758, 759, 760, 761, 762, 763, 764, 765, 766, 767, 768, 769, 770, 771, 772, 773, 774, 775, 776, 777, 778, 779, 780, 781, 782, 783, 784, 785, 786, 787, 788, 789, 790, 791, 792, 793, 794, 795, 796, 797, 798, 799, 800, 801, 802, 803, 804, 805, 806, 807, 808, 809, 810, 811, 812, 813, 814, 815, 816, 817, 818, 819, 820, 821, 822, 823, 824, 825, 826, 827, 828, 829, 830, 831, 832, 833, 834, 835, 836, 837, 838, 839, 840, 841, 842, 843, 844, 845, 846, 847, 848, 849, 850, 851, 852, 853, 854, 855, 856, 857, 858, 859, 860, 861, 862, 863, 864, 865, 866, 867, 868, 869, 870, 871, 872, 873, 874, 875, 876, 877, 878, 879, 880, 881, 882, 883, 884, 885, 886, 887, 888, 889, 890, 891, 892, 893, 894, 895, 896, 897, 898, 899, 900, 901, 902, 903, 904, 905, 906, 907, 908, 909, 910, 911, 912, 913, 914],
      "AcquisitionTime": ["142243.865000", "142244.325000", "142244.785000", "142245.245000", "142245.705000", "142246.165000", "142246.625000", "142247.085000", "142247.545000", "142248.005000", "142248.465000", "142248.925000", "142249.385000", "142249.845000", "142250.305000", "142250.765000", "142251.225000", "142251.685000", "142252.145000", "142252.605000", "142253.065000", "142253.525000", "142253.985000", "142254.445000", "142254.905000", "142255.365000", "142255.825000", "142256.285000", "142256.745000", "142257.205000", "142257.665000", "142258.125000", "142258.585000", "142259.045000", "142259.505000", "142259.965000", "142300.425000", "142300.885000", "142301.345000", "142301.805000", "142302.265000", "142302.725000", "142303.185000", "142303.645000", "142304.105000", "142304.565000", "142305.025000", "142305.485000", "142305.945000", "142306.405000", "142306.865000", "142307.325000", "142307.785000", "142308.245000", "142308.705000", "142309.165000", "142309.625000", "142310.085000", "142310.545000", "142311.005000", "142311.465000", "142311.925000", "142312.385000", "142312.845000", "142313.305000", "142313.765000", "142314.225000", "142314.685000", "142315.145000", "142315.605000", "142316.065000", "142316.525000", "142316.985000", "142317.445000", "142317.905000", "142318.365000", "142318.825000", "142319.285000", "142319.745000", "142320.205000", "142320.665000", "142321.125000", "142321.585000", "142322.045000", "142322.505000", "142322.965000", "142323.425000", "142323.885000", "142324.345000", "142324.805000", "142325.265000", "142325.725000", "142326.185000", "142326.645000", "142327.105000", "142327.565000", "142328.025000", "142328.485000", "142328.945000", "142329.405000", "142329.865000", "142330.325000", "142330.785000", "142331.245000", "142331.705000", "142332.165000", "142332.625000", "142333.085000", "142333.545000", "142334.005000", "142334.465000", "142334.925000", "142335.385000", "142335.845000", "142336.305000", "142336.765000", "142337.225000", "142337.685000", "142338.145000", "142338.605000", "142339.065000", "142339.525000", "142339.985000", "142340.445000", "142340.905000", "142341.365000", "142341.825000", "142342.285000", "142342.745000", "142343.205000", "142343.665000", "142344.125000", "142344.585000", "142345.045000", "142345.505000", "142345.965000", "142346.425000", "142346.885000", "142347.345000", "142347.805000", "142348.265000", "142348.725000", "142349.185000", "142349.645000", "142350.105000", "142350.565000", "142351.025000", "142351.485000", "142351.945000", "142352.405000", "142352.865000", "142353.325000", "142353.785000", "142354.245000", "142354.705000", "142355.165000", "142355.625000", "142356.085000", "142356.545000", "142357.005000", "142357.465000", "142357.925000", "142358.385000", "142358.845000", "142359.305000", "142359.765000", "142400.225000", "142400.685000", "142401.145000", "142401.605000", "142402.065000", "142402.525000", "142402.985000", "142403.445000", "142403.905000", "142404.365000", "142404.825000", "142405.285000", "142405.745000", "142406.205000", "142406.665000", "142407.125000", "142407.585000", "142408.045000", "142408.505000", "142408.965000", "142409.425000", "142409.885000", "142410.345000", "142410.805000", "142411.265000", "142411.725000", "142412.185000", "142412.645000", "142413.105000", "142413.565000", "142414.025000", "142414.485000", "142414.945000", "142415.405000", "142415.865000", "142416.325000", "142416.785000", "142417.245000", "142417.705000", "142418.165000", "142418.625000", "142419.085000", "142419.545000", "142420.005000", "142420.465000", "142420.925000", "142421.385000", "142421.845000", "142422.305000", "142422.765000", "142423.225000", "142423.685000", "142424.145000", "142424.605000", "142425.065000", "142425.525000", "142425.985000", "142426.445000", "142426.905000", "142427.365000", "142427.825000", "142428.285000", "142428.745000", "142429.205000", "142429.665000", "142430.125000", "142430.585000", "142431.045000", "142431.505000", "142431.965000", "142432.425000", "142432.885000", "142433.345000", "142433.805000", "142434.265000", "142434.725000", "142435.185000", "142435.645000", "142436.105000", "142436.565000", "142437.025000", "142437.485000", "142437.945000", "142438.405000", "142438.865000", "142439.325000", "142439.785000", "142440.245000", "142440.705000", "142441.165000", "142441.625000", "142442.085000", "142442.545000", "142443.005000", "142443.465000", "142443.925000", "142444.385000", "142444.845000", "142445.305000", "142445.765000", "142446.225000", "142446.685000", "142447.145000", "142447.605000", "142448.065000", "142448.525000", "142448.985000", "142449.445000", "142449.905000", "142450.365000", "142450.825000", "142451.285000", "142451.745000", "142452.205000", "142452.665000", "142453.125000", "142453.585000", "142454.045000", "142454.505000", "142454.965000", "142455.425000", "142455.885000", "142456.345000", "142456.805000", "142457.265000", "142457.725000", "142458.185000", "142458.645000", "142459.105000", "142459.565000", "142500.025000", "142500.485000", "142500.945000", "142501.405000", "142501.865000", "142502.325000", "142502.785000", "142503.245000", "142503.705000", "142504.165000", "142504.625000", "142505.085000", "142505.545000", "142506.005000", "142506.465000", "142506.925000", "142507.385000", "142507.845000", "142508.305000", "142508.765000", "142509.225000", "142509.685000", "142510.145000", "142510.605000", "142511.065000", "142511.525000", "142511.985000", "142512.445000", "142512.905000", "142513.365000", "142513.825000", "142514.285000", "142514.745000", "142515.205000", "142515.665000", "142516.125000", "142516.585000", "142517.045000", "142517.505000", "142517.965000", "142518.425000", "142518.885000", "142519.345000", "142519.805000", "142520.265000", "142520.725000", "142521.185000", "142521.645000", "142522.105000", "142522.565000", "142523.025000", "142523.485000", "142523.945000", "142524.405000", "142524.865000", "142525.325000", "142525.785000", "142526.245000", "142526.705000", "142527.165000", "142527.625000", "142528.085000", "142528.545000", "142529.005000", "142529.465000", "142529.925000", "142530.385000", "142530.845000", "142531.305000", "142531.765000", "142532.225000", "142532.685000", "142533.145000", "142533.605000", "142534.065000", "142534.525000", "142534.985000", "142535.445000", "142535.905000", "142536.365000", "142536.825000", "142537.285000", "142537.745000", "142538.205000", "142538.665000", "142539.125000", "142539.585000", "142540.045000", "142540.505000", "142540.965000", "142541.425000", "142541.885000", "142542.345000", "142542.805000", "142543.265000", "142543.725000", "142544.185000", "142544.645000", "142545.105000", "142545.565000", "142546.025000", "142546.485000", "142546.945000", "142547.405000", "142547.865000", "142548.325000", "142548.785000", "142549.245000", "142549.705000", "142550.165000", "142550.625000", "142551.085000", "142551.545000", "142552.005000", "142552.465000", "142552.925000", "142553.385000", "142553.845000", "142554.305000", "142554.765000", "142555.225000", "142555.685000", "142556.145000", "142556.605000", "142557.065000", "142557.525000", "142557.985000", "142558.445000", "142558.905000", "142559.365000", "142559.825000", "142600.285000", "142600.745000", "142601.205000", "142601.665000", "142602.125000", "142602.585000", "142603.045000", "142603.505000", "142603.965000", "142604.425000", "142604.885000", "142605.345000", "142605.805000", "142606.265000", "142606.725000", "142607.185000", "142607.645000", "142608.105000", "142608.565000", "142609.025000", "142609.485000", "142609.945000", "142610.405000", "142610.865000", "142611.325000", "142611.785000", "142612.245000", "142612.705000", "142613.165000", "142613.625000", "142614.085000", "142614.545000", "142615.005000", "142615.465000", "142615.925000", "142616.385000", "142616.845000", "142617.305000", "142617.765000", "142618.225000", "142618.685000", "142619.145000", "142619.605000", "142620.065000", "142620.525000", "142620.985000", "142621.445000", "142621.905000", "142622.365000", "142622.825000", "142623.285000", "142623.745000", "142624.205000", "142624.665000", "142625.125000", "142625.585000", "142626.045000", "142626.505000", "142626.965000", "142627.425000", "142627.885000", "142628.345000", "142628.805000", "142629.265000", "142629.725000", "142630.185000", "142630.645000", "142631.105000", "142631.565000", "142632.025000", "142632.485000", "142632.945000", "142633.405000", "142633.865000", "142634.325000", "142634.785000", "142635.245000", "142635.705000", "142636.165000", "142636.625000", "142637.085000", "142637.545000", "142638.005000", "142638.465000", "142638.925000", "142639.385000", "142639.845000", "142640.305000", "142640.765000", "142641.225000", "142641.685000", "142642.145000", "142642.605000", "142643.065000", "142643.525000", "142643.985000", "142644.445000", "142644.905000", "142645.365000", "142645.825000", "142646.285000", "142646.745000", "142647.205000", "142647.665000", "142648.125000", "142648.585000", "142649.045000", "142649.505000", "142649.965000", "142650.425000", "142650.885000", "142651.345000", "142651.805000", "142652.265000", "142652.725000", "142653.185000", "142653.645000", "142654.105000", "142654.565000", "142655.025000", "142655.485000", "142655.945000", "142656.405000", "142656.865000", "142657.325000", "142657.785000", "142658.245000", "142658.705000", "142659.165000", "142659.625000", "142700.085000", "142700.545000", "142701.005000", "142701.465000", "142701.925000", "142702.385000", "142702.845000", "142703.305000", "142703.765000", "142704.225000", "142704.685000", "142705.145000", "142705.605000", "142706.065000", "142706.525000", "142706.985000", "142707.445000", "142707.905000", "142708.365000", "142708.825000", "142709.285000", "142709.745000", "142710.205000", "142710.665000", "142711.125000", "142711.585000", "142712.045000", "142712.505000", "142712.965000", "142713.425000", "142713.885000", "142714.345000", "142714.805000", "142715.265000", "142715.725000", "142716.185000", "142716.645000", "142717.105000", "142717.565000", "142718.025000", "142718.485000", "142718.945000", "142719.405000", "142719.865000", "142720.325000", "142720.785000", "142721.245000", "142721.705000", "142722.165000", "142722.625000", "142723.085000", "142723.545000", "142724.005000", "142724.465000", "142724.925000", "142725.385000", "142725.845000", "142726.305000", "142726.765000", "142727.225000", "142727.685000", "142728.145000", "142728.605000", "142729.065000", "142729.525000", "142729.985000", "142730.445000", "142730.905000", "142731.365000", "142731.825000", "142732.285000", "142732.745000", "142733.205000", "142733.665000", "142734.125000", "142734.585000", "142735.045000", "142735.505000", "142735.965000", "142736.425000", "142736.885000", "142737.345000", "142737.805000", "142738.265000", "142738.725000", "142739.185000", "142739.645000", "142740.105000", "142740.565000", "142741.025000", "142741.485000", "142741.945000", "142742.405000", "142742.865000", "142743.325000", "142743.785000", "142744.245000", "142744.705000", "142745.165000", "142745.625000", "142746.085000", "142746.545000", "142747.005000", "142747.465000", "142747.925000", "142748.385000", "142748.845000", "142749.305000", "142749.765000", "142750.225000", "142750.685000", "142751.145000", "142751.605000", "142752.065000", "142752.525000", "142752.985000", "142753.445000", "142753.905000", "142754.365000", "142754.825000", "142755.285000", "142755.745000", "142756.205000", "142756.665000", "142757.125000", "142757.585000", "142758.045000", "142758.505000", "142758.965000", "142759.425000", "142759.885000", "142800.345000", "142800.805000", "142801.265000", "142801.725000", "142802.185000", "142802.645000", "142803.105000", "142803.565000", "142804.025000", "142804.485000", "142804.945000", "142805.405000", "142805.865000", "142806.325000", "142806.785000", "142807.245000", "142807.705000", "142808.165000", "142808.625000", "142809.085000", "142809.545000", "142810.005000", "142810.465000", "142810.925000", "142811.385000", "142811.845000", "142812.305000", "142812.765000", "142813.225000", "142813.685000", "142814.145000", "142814.605000", "142815.065000", "142815.525000", "142815.985000", "142816.445000", "142816.905000", "142817.365000", "142817.825000", "142818.285000", "142818.745000", "142819.205000", "142819.665000", "142820.125000", "142820.585000", "142821.045000", "142821.505000", "142821.965000", "142822.425000", "142822.885000", "142823.345000", "142823.805000", "142824.265000", "142824.725000", "142825.185000", "142825.645000", "142826.105000", "142826.565000", "142827.025000", "142827.485000", "142827.945000", "142828.405000", "142828.865000", "142829.325000", "142829.785000", "142830.245000", "142830.705000", "142831.165000", "142831.625000", "142832.085000", "142832.545000", "142833.005000", "142833.465000", "142833.925000", "142834.385000", "142834.845000", "142835.305000", "142835.765000", "142836.225000", "142836.685000", "142837.145000", "142837.605000", "142838.065000", "142838.525000", "142838.985000", "142839.445000", "142839.905000", "142840.365000", "142840.825000", "142841.285000", "142841.745000", "142842.205000", "142842.665000", "142843.125000", "142843.585000", "142844.045000", "142844.505000", "142844.965000", "142845.425000", "142845.885000", "142846.345000", "142846.805000", "142847.265000", "142847.725000", "142848.185000", "142848.645000", "142849.105000", "142849.565000", "142850.025000", "142850.485000", "142850.945000", "142851.405000", "142851.865000", "142852.325000", "142852.785000", "142853.245000", "142853.705000", "142854.165000", "142854.625000", "142855.085000", "142855.545000", "142856.005000", "142856.465000", "142856.925000", "142857.385000", "142857.845000", "142858.305000", "142858.765000", "142859.225000", "142859.685000", "142900.145000", "142900.605000", "142901.065000", "142901.525000", "142901.985000", "142902.445000", "142902.905000", "142903.365000", "142903.825000", "142904.285000", "142904.745000", "142905.205000", "142905.665000", "142906.125000", "142906.585000", "142907.045000", "142907.505000", "142907.965000", "142908.425000", "142908.885000", "142909.345000", "142909.805000", "142910.265000", "142910.725000", "142911.185000", "142911.645000", "142912.105000", "142912.565000", "142913.025000", "142913.485000", "142913.945000", "142914.405000", "142914.865000", "142915.325000", "142915.785000", "142916.245000", "142916.705000", "142917.165000", "142917.625000", "142918.085000", "142918.545000", "142919.005000", "142919.465000", "142919.925000", "142920.385000", "142920.845000", "142921.305000", "142921.765000", "142922.225000", "142922.685000", "142923.145000", "142923.605000", "142924.065000", "142924.525000", "142924.985000", "142925.445000", "142925.905000", "142926.365000", "142926.825000", "142927.285000", "142927.745000", "142928.205000", "142928.665000", "142929.125000", "142929.585000", "142930.045000", "142930.505000", "142930.965000", "142931.425000", "142931.885000", "142932.345000", "142932.805000", "142933.265000", "142933.725000", "142934.185000", "142934.645000", "142935.105000", "142935.565000", "142936.025000", "142936.485000", "142936.945000", "142937.405000", "142937.865000", "142938.325000", "142938.785000", "142939.245000", "142939.705000", "142940.165000", "142940.625000", "142941.085000", "142941.545000", "142942.005000", "142942.465000", "142942.925000", "142943.385000", "142943.845000"],
