{
  "AcquisitionMatrixPE": 82,
  "AcquisitionNumber": 1,
  "AcquisitionTime": "16:29:49.772500",
  "BandwidthPerPixelPhaseEncode": 24.888,
  "BaseResolution": 82,
  "BodyPartExamined": "BRAIN",
  "ConsistencyInfo": "N4_VE11C_LATEST_20160120",
  "ConversionSoftware": "dcm2niix",
  "ConversionSoftwareVersion": "v1.0.20201102",
  "DerivedVendorReportedEchoSpacing": 0.00049,
  "DeviceSerialNumber": "66112",
  "DwellTime": 2e-06,
  "EchoTime": 0.0272,
  "EchoTrainLength": 82,
  "EffectiveEchoSpacing": 0.00049,
  "FlipAngle": 44,
  "ImageComments": "Unaliased MB8/PE3",
  "ImageOrientationPatientDICOM": [0.999013, 0.0409828, -0.0171054, -0.0411724, 0.999093, -0.0108851],
  "ImageType": [
    "ORIGINAL",
    "PRIMARY",
    "M",
    "MB",
    "ND",
    "NORM",
    "MOSAIC"
],
  "ImagingFrequency": 123.252,
  "InPlanePhaseEncodingDirectionDICOM": "COL",
  "InstitutionAddress": "Maynard 3,Hanover,NH,US,03755",
  "InstitutionName": "Dartmouth College - PBS",
  "InstitutionalDepartmentName": "Department",
  "MRAcquisitionType": "2D",
  "MagneticFieldStrength": 3,
  "Manufacturer": "Siemens",
  "ManufacturersModelName": "Prisma",
  "Modality": "MR",
  "MultibandAccelerationFactor": 8,
  "PartialFourier": 1,
  "PatientPosition": "HFS",
  "PercentPhaseFOV": 100,
  "PercentSampling": 100,
  "PhaseEncodingDirection": "j-",
  "PhaseEncodingSteps": 82,
  "PhaseResolution": 1,
  "PixelBandwidth": 3050,
  "ProcedureStepDescription": "Wager_Wager^1076_spacetop",
  "ProtocolName": "func_run-02_task-narratives_acq-ap-mb8",
  "PulseSequenceDetails": "%CustomerSeq%\\cmrr_mbep2d_bold",
  "ReceiveCoilActiveElements": "HEA;HEP",
  "ReceiveCoilName": "Head_32",
  "ReconMatrixPE": 82,
  "RepetitionTime": 0.46,
  "SAR": 0.0922198,
  "ScanOptions": "FS",
  "ScanningSequence": "EP",
  "SequenceName": "epfid2d1_82",
  "SequenceVariant": "SK\\SS",
  "SeriesDescription": "func_run-02_task-narratives_acq-ap-mb8",
  "SeriesNumber": 46,
  "ShimSetting": [4131, -7762, -7204, 532, -58, 41, -86, 69],
  "SliceThickness": 2.7,
  "SliceTiming": [0, 0.2525, 0.0625, 0.315, 0.125, 0.3775, 0.1875, 0, 0.2525, 0.0625, 0.315, 0.125, 0.3775, 0.1875, 0, 0.2525, 0.0625, 0.315, 0.125, 0.3775, 0.1875, 0, 0.2525, 0.0625, 0.315, 0.125, 0.3775, 0.1875, 0, 0.2525, 0.0625, 0.315, 0.125, 0.3775, 0.1875, 0, 0.2525, 0.0625, 0.315, 0.125, 0.3775, 0.1875, 0, 0.2525, 0.0625, 0.315, 0.125, 0.3775, 0.1875, 0, 0.2525, 0.0625, 0.315, 0.125, 0.3775, 0.1875],
  "SoftwareVersions": "syngo MR E11",
  "SpacingBetweenSlices": 2.7,
  "StationName": "AWP66112",
  "TaskName": "narratives",
  "TotalReadoutTime": 0.03969,
  "TxRefAmp": 275.651,
  "WipMemBlock": "b5829b46-1f0e-443a-b6ec-83b1cb4e110b||Sequence: R016 ve11c/master r/e634e98; Dec 19 2017 11:00:25 by eja",
  "dcmmeta_affine": [
    [-2.6802799701690674, -0.11046255379915237, -0.04493817687034607, 120.35987091064453],
    [-0.10995378345251083, 2.680492877960205, -0.03126227855682373, -80.54936218261719],
    [-0.04589250683784485, 0.029203901067376137, 2.6994450092315674, -29.579164505004883],
    [0.0, 0.0, 0.0, 1.0]
],
  "dcmmeta_reorient_transform": [
    [0.0, -1.0, 0.0, 81.0],
    [1.0, 0.0, 0.0, 0.0],
    [0.0, 0.0, 1.0, 0.0],
    [0.0, 0.0, 0.0, 1.0]
],
  "dcmmeta_shape": [82, 82, 56, 1098],
  "dcmmeta_slice_dim": 2,
  "dcmmeta_version": 0.6,
  "global": {
    "const": {
      "AccessionNumber": "A003457",
      "AcquisitionMatrix": [82, 0, 0, 82],
      "AngioFlag": "N",
      "BitsAllocated": 16,
      "BitsStored": 16,
      "BodyPartExamined": "BRAIN",
      "Columns": 656,
      "EchoNumbers": 1,
      "EchoTime": 27.2,
      "EchoTrainLength": 82,
      "FlipAngle": 44.0,
      "HighBit": 15,
      "ImageOrientationPatient": [0.99901342233426, 0.04098277284056, -0.0171053888088, -0.0411724052025, 0.99909276239101, -0.0108850901579],
      "ImagePositionPatient": [-848.95000759779, -937.42873762219, -5.660978553785],
      "ImageType": [
        "ORIGINAL",
        "PRIMARY",
        "M",
        "MB",
        "ND",
        "NORM",
        "MOSAIC"
],
      "ImagedNucleus": "1H",
      "ImagingFrequency": 123.252105,
      "InPlanePhaseEncodingDirection": "COL",
      "MRAcquisitionType": "2D",
      "MagneticFieldStrength": 3.0,
      "Manufacturer": "SIEMENS",
      "ManufacturerModelName": "Prisma",
      "Modality": "MR",
      "NumberOfAverages": 1.0,
      "NumberOfPhaseEncodingSteps": 82,
      "PercentPhaseFieldOfView": 100.0,
      "PercentSampling": 100.0,
      "PerformedProcedureStepStartTime": "144128.898000",
      "PhotometricInterpretation": "MONOCHROME2",
      "PixelBandwidth": 3050.0,
      "PixelRepresentation": 0,
      "PixelSpacing": [2.6829268932343, 2.6829268932343],
      "ProtocolName": "func_run-02_task-narratives_acq-ap-mb8",
      "RepetitionTime": 460.0,
      "Rows": 656,
      "SAR": 0.09221983123081,
      "SamplesPerPixel": 1,
      "ScanOptions": "FS",
      "ScanningSequence": "EP",
      "SequenceName": "epfid2d1_82",
      "SequenceVariant": [
        "SK",
        "SS"
],
      "SeriesDescription": "func_run-02_task-narratives_acq-ap-mb8",
      "SeriesNumber": 46,
      "SeriesTime": "163018.863000",
      "SliceLocation": -30.643674906594,
      "SliceThickness": 2.7000000476837,
      "SmallestImagePixelValue": 0,
      "SoftwareVersions": "syngo MR E11",
      "SpacingBetweenSlices": 2.6999999758978,
      "SpecificCharacterSet": "ISO_IR 100",
      "StudyID": "3",
      "StudyTime": "144128.789000",
      "TransmitCoilName": "Body",
      "VariableFlipAngleFlag": "N",
      "WindowCenterWidthExplanation": "Algo1",
      "dBdt": 0.0},
    "slices": {}
  },
  "time": {
    "samples": {
      "AcquisitionNumber": [1, 2, 3, 4, 5, 6, 7, 8, 9, 10, 11, 12, 13, 14, 15, 16, 17, 18, 19, 20, 21, 22, 23, 24, 25, 26, 27, 28, 29, 30, 31, 32, 33, 34, 35, 36, 37, 38, 39, 40, 41, 42, 43, 44, 45, 46, 47, 48, 49, 50, 51, 52, 53, 54, 55, 56, 57, 58, 59, 60, 61, 62, 63, 64, 65, 66, 67, 68, 69, 70, 71, 72, 73, 74, 75, 76, 77, 78, 79, 80, 81, 82, 83, 84, 85, 86, 87, 88, 89, 90, 91, 92, 93, 94, 95, 96, 97, 98, 99, 100, 101, 102, 103, 104, 105, 106, 107, 108, 109, 110, 111, 112, 113, 114, 115, 116, 117, 118, 119, 120, 121, 122, 123, 124, 125, 126, 127, 128, 129, 130, 131, 132, 133, 134, 135, 136, 137, 138, 139, 140, 141, 142, 143, 144, 145, 146, 147, 148, 149, 150, 151, 152, 153, 154, 155, 156, 157, 158, 159, 160, 161, 162, 163, 164, 165, 166, 167, 168, 169, 170, 171, 172, 173, 174, 175, 176, 177, 178, 179, 180, 181, 182, 183, 184, 185, 186, 187, 188, 189, 190, 191, 192, 193, 194, 195, 196, 197, 198, 199, 200, 201, 202, 203, 204, 205, 206, 207, 208, 209, 210, 211, 212, 213, 214, 215, 216, 217, 218, 219, 220, 221, 222, 223, 224, 225, 226, 227, 228, 229, 230, 231, 232, 233, 234, 235, 236, 237, 238, 239, 240, 241, 242, 243, 244, 245, 246, 247, 248, 249, 250, 251, 252, 253, 254, 255, 256, 257, 258, 259, 260, 261, 262, 263, 264, 265, 266, 267, 268, 269, 270, 271, 272, 273, 274, 275, 276, 277, 278, 279, 280, 281, 282, 283, 284, 285, 286, 287, 288, 289, 290, 291, 292, 293, 294, 295, 296, 297, 298, 299, 300, 301, 302, 303, 304, 305, 306, 307, 308, 309, 310, 311, 312, 313, 314, 315, 316, 317, 318, 319, 320, 321, 322, 323, 324, 325, 326, 327, 328, 329, 330, 331, 332, 333, 334, 335, 336, 337, 338, 339, 340, 341, 342, 343, 344, 345, 346, 347, 348, 349, 350, 351, 352, 353, 354, 355, 356, 357, 358, 359, 360, 361, 362, 363, 364, 365, 366, 367, 368, 369, 370, 371, 372, 373, 374, 375, 376, 377, 378, 379, 380, 381, 382, 383, 384, 385, 386, 387, 388, 389, 390, 391, 392, 393, 394, 395, 396, 397, 398, 399, 400, 401, 402, 403, 404, 405, 406, 407, 408, 409, 410, 411, 412, 413, 414, 415, 416, 417, 418, 419, 420, 421, 422, 423, 424, 425, 426, 427, 428, 429, 430, 431, 432, 433, 434, 435, 436, 437, 438, 439, 440, 441, 442, 443, 444, 445, 446, 447, 448, 449, 450, 451, 452, 453, 454, 455, 456, 457, 458, 459, 460, 461, 462, 463, 464, 465, 466, 467, 468, 469, 470, 471, 472, 473, 474, 475, 476, 477, 478, 479, 480, 481, 482, 483, 484, 485, 486, 487, 488, 489, 490, 491, 492, 493, 494, 495, 496, 497, 498, 499, 500, 501, 502, 503, 504, 505, 506, 507, 508, 509, 510, 511, 512, 513, 514, 515, 516, 517, 518, 519, 520, 521, 522, 523, 524, 525, 526, 527, 528, 529, 530, 531, 532, 533, 534, 535, 536, 537, 538, 539, 540, 541, 542, 543, 544, 545, 546, 547, 548, 549, 550, 551, 552, 553, 554, 555, 556, 557, 558, 559, 560, 561, 562, 563, 564, 565, 566, 567, 568, 569, 570, 571, 572, 573, 574, 575, 576, 577, 578, 579, 580, 581, 582, 583, 584, 585, 586, 587, 588, 589, 590, 591, 592, 593, 594, 595, 596, 597, 598, 599, 600, 601, 602, 603, 604, 605, 606, 607, 608, 609, 610, 611, 612, 613, 614, 615, 616, 617, 618, 619, 620, 621, 622, 623, 624, 625, 626, 627, 628, 629, 630, 631, 632, 633, 634, 635, 636, 637, 638, 639, 640, 641, 642, 643, 644, 645, 646, 647, 648, 649, 650, 651, 652, 653, 654, 655, 656, 657, 658, 659, 660, 661, 662, 663, 664, 665, 666, 667, 668, 669, 670, 671, 672, 673, 674, 675, 676, 677, 678, 679, 680, 681, 682, 683, 684, 685, 686, 687, 688, 689, 690, 691, 692, 693, 694, 695, 696, 697, 698, 699, 700, 701, 702, 703, 704, 705, 706, 707, 708, 709, 710, 711, 712, 713, 714, 715, 716, 717, 718, 719, 720, 721, 722, 723, 724, 725, 726, 727, 728, 729, 730, 731, 732, 733, 734, 735, 736, 737, 738, 739, 740, 741, 742, 743, 744, 745, 746, 747, 748, 749, 750, 751, 752, 753, 754, 755, 756, 757, 758, 759, 760, 761, 762, 763, 764, 765, 766, 767, 768, 769, 770, 771, 772, 773, 774, 775, 776, 777, 778, 779, 780, 781, 782, 783, 784, 785, 786, 787, 788, 789, 790, 791, 792, 793, 794, 795, 796, 797, 798, 799, 800, 801, 802, 803, 804, 805, 806, 807, 808, 809, 810, 811, 812, 813, 814, 815, 816, 817, 818, 819, 820, 821, 822, 823, 824, 825, 826, 827, 828, 829, 830, 831, 832, 833, 834, 835, 836, 837, 838, 839, 840, 841, 842, 843, 844, 845, 846, 847, 848, 849, 850, 851, 852, 853, 854, 855, 856, 857, 858, 859, 860, 861, 862, 863, 864, 865, 866, 867, 868, 869, 870, 871, 872, 873, 874, 875, 876, 877, 878, 879, 880, 881, 882, 883, 884, 885, 886, 887, 888, 889, 890, 891, 892, 893, 894, 895, 896, 897, 898, 899, 900, 901, 902, 903, 904, 905, 906, 907, 908, 909, 910, 911, 912, 913, 914, 915, 916, 917, 918, 919, 920, 921, 922, 923, 924, 925, 926, 927, 928, 929, 930, 931, 932, 933, 934, 935, 936, 937, 938, 939, 940, 941, 942, 943, 944, 945, 946, 947, 948, 949, 950, 951, 952, 953, 954, 955, 956, 957, 958, 959, 960, 961, 962, 963, 964, 965, 966, 967, 968, 969, 970, 971, 972, 973, 974, 975, 976, 977, 978, 979, 980, 981, 982, 983, 984, 985, 986, 987, 988, 989, 990, 991, 992, 993, 994, 995, 996, 997, 998, 999, 1000, 1001, 1002, 1003, 1004, 1005, 1006, 1007, 1008, 1009, 1010, 1011, 1012, 1013, 1014, 1015, 1016, 1017, 1018, 1019, 1020, 1021, 1022, 1023, 1024, 1025, 1026, 1027, 1028, 1029, 1030, 1031, 1032, 1033, 1034, 1035, 1036, 1037, 1038, 1039, 1040, 1041, 1042, 1043, 1044, 1045, 1046, 1047, 1048, 1049, 1050, 1051, 1052, 1053, 1054, 1055, 1056, 1057, 1058, 1059, 1060, 1061, 1062, 1063, 1064, 1065, 1066, 1067, 1068, 1069, 1070, 1071, 1072, 1073, 1074, 1075, 1076, 1077, 1078, 1079, 1080, 1081, 1082, 1083, 1084, 1085, 1086, 1087, 1088, 1089, 1090, 1091, 1092, 1093, 1094, 1095, 1096, 1097, 1098],
      "AcquisitionTime": ["162949.772500", "162950.232500", "162950.692500", "162951.152500", "162951.612500", "162952.072500", "162952.532500", "162952.992500", "162953.452500", "162953.912500", "162954.372500", "162954.832500", "162955.292500", "162955.752500", "162956.212500", "162956.672500", "162957.132500", "162957.592500", "162958.052500", "162958.512500", "162958.972500", "162959.432500", "162959.892500", "163000.352500", "163000.812500", "163001.272500", "163001.732500", "163002.192500", "163002.652500", "163003.112500", "163003.572500", "163004.032500", "163004.492500", "163004.952500", "163005.412500", "163005.872500", "163006.332500", "163006.792500", "163007.252500", "163007.712500", "163008.172500", "163008.632500", "163009.092500", "163009.552500", "163010.012500", "163010.472500", "163010.932500", "163011.392500", "163011.852500", "163012.312500", "163012.772500", "163013.232500", "163013.692500", "163014.152500", "163014.612500", "163015.072500", "163015.532500", "163015.992500", "163016.452500", "163016.912500", "163017.372500", "163017.832500", "163018.292500", "163018.752500", "163019.212500", "163019.672500", "163020.132500", "163020.592500", "163021.052500", "163021.512500", "163021.972500", "163022.432500", "163022.892500", "163023.352500", "163023.812500", "163024.272500", "163024.732500", "163025.192500", "163025.652500", "163026.112500", "163026.572500", "163027.032500", "163027.492500", "163027.952500", "163028.412500", "163028.872500", "163029.332500", "163029.792500", "163030.252500", "163030.712500", "163031.172500", "163031.632500", "163032.092500", "163032.552500", "163033.012500", "163033.472500", "163033.932500", "163034.392500", "163034.852500", "163035.312500", "163035.772500", "163036.232500", "163036.692500", "163037.152500", "163037.612500", "163038.072500", "163038.532500", "163038.992500", "163039.452500", "163039.912500", "163040.372500", "163040.832500", "163041.292500", "163041.752500", "163042.212500", "163042.672500", "163043.132500", "163043.592500", "163044.052500", "163044.512500", "163044.972500", "163045.432500", "163045.892500", "163046.352500", "163046.812500", "163047.272500", "163047.732500", "163048.192500", "163048.652500", "163049.112500", "163049.572500", "163050.032500", "163050.492500", "163050.952500", "163051.412500", "163051.872500", "163052.332500", "163052.792500", "163053.252500", "163053.712500", "163054.172500", "163054.632500", "163055.092500", "163055.552500", "163056.012500", "163056.472500", "163056.932500", "163057.392500", "163057.852500", "163058.312500", "163058.772500", "163059.232500", "163059.692500", "163100.152500", "163100.612500", "163101.072500", "163101.532500", "163101.992500", "163102.452500", "163102.912500", "163103.372500", "163103.832500", "163104.292500", "163104.752500", "163105.212500", "163105.672500", "163106.132500", "163106.592500", "163107.052500", "163107.512500", "163107.972500", "163108.432500", "163108.892500", "163109.352500", "163109.812500", "163110.272500", "163110.732500", "163111.192500", "163111.652500", "163112.112500", "163112.572500", "163113.032500", "163113.492500", "163113.952500", "163114.412500", "163114.872500", "163115.332500", "163115.792500", "163116.252500", "163116.712500", "163117.172500", "163117.632500", "163118.092500", "163118.552500", "163119.012500", "163119.472500", "163119.932500", "163120.392500", "163120.852500", "163121.312500", "163121.772500", "163122.232500", "163122.692500", "163123.152500", "163123.612500", "163124.072500", "163124.532500", "163124.992500", "163125.452500", "163125.912500", "163126.372500", "163126.832500", "163127.292500", "163127.752500", "163128.212500", "163128.672500", "163129.132500", "163129.592500", "163130.052500", "163130.512500", "163130.972500", "163131.432500", "163131.892500", "163132.352500", "163132.812500", "163133.272500", "163133.732500", "163134.192500", "163134.652500", "163135.112500", "163135.572500", "163136.032500", "163136.492500", "163136.952500", "163137.412500", "163137.872500", "163138.332500", "163138.792500", "163139.252500", "163139.712500", "163140.172500", "163140.632500", "163141.092500", "163141.552500", "163142.012500", "163142.472500", "163142.932500", "163143.392500", "163143.852500", "163144.312500", "163144.772500", "163145.232500", "163145.692500", "163146.152500", "163146.612500", "163147.072500", "163147.532500", "163147.992500", "163148.452500", "163148.912500", "163149.372500", "163149.832500", "163150.292500", "163150.752500", "163151.212500", "163151.672500", "163152.132500", "163152.592500", "163153.052500", "163153.512500", "163153.972500", "163154.432500", "163154.892500", "163155.352500", "163155.812500", "163156.272500", "163156.732500", "163157.192500", "163157.652500", "163158.112500", "163158.572500", "163159.032500", "163159.492500", "163159.952500", "163200.412500", "163200.872500", "163201.332500", "163201.792500", "163202.252500", "163202.712500", "163203.172500", "163203.632500", "163204.092500", "163204.552500", "163205.012500", "163205.472500", "163205.932500", "163206.392500", "163206.852500", "163207.312500", "163207.772500", "163208.232500", "163208.692500", "163209.152500", "163209.612500", "163210.072500", "163210.532500", "163210.992500", "163211.452500", "163211.912500", "163212.372500", "163212.832500", "163213.292500", "163213.752500", "163214.212500", "163214.672500", "163215.132500", "163215.592500", "163216.052500", "163216.512500", "163216.972500", "163217.432500", "163217.892500", "163218.352500", "163218.812500", "163219.272500", "163219.732500", "163220.192500", "163220.652500", "163221.112500", "163221.572500", "163222.032500", "163222.492500", "163222.952500", "163223.412500", "163223.872500", "163224.332500", "163224.792500", "163225.252500", "163225.712500", "163226.172500", "163226.632500", "163227.092500", "163227.552500", "163228.012500", "163228.472500", "163228.932500", "163229.392500", "163229.852500", "163230.312500", "163230.772500", "163231.232500", "163231.692500", "163232.152500", "163232.612500", "163233.072500", "163233.532500", "163233.992500", "163234.452500", "163234.912500", "163235.372500", "163235.832500", "163236.292500", "163236.752500", "163237.212500", "163237.672500", "163238.132500", "163238.592500", "163239.052500", "163239.512500", "163239.972500", "163240.432500", "163240.892500", "163241.352500", "163241.812500", "163242.272500", "163242.732500", "163243.192500", "163243.652500", "163244.112500", "163244.572500", "163245.032500", "163245.492500", "163245.952500", "163246.412500", "163246.872500", "163247.332500", "163247.792500", "163248.252500", "163248.712500", "163249.172500", "163249.632500", "163250.092500", "163250.552500", "163251.012500", "163251.472500", "163251.932500", "163252.392500", "163252.852500", "163253.312500", "163253.772500", "163254.232500", "163254.692500", "163255.152500", "163255.612500", "163256.072500", "163256.532500", "163256.992500", "163257.452500", "163257.912500", "163258.372500", "163258.832500", "163259.292500", "163259.752500", "163300.212500", "163300.672500", "163301.132500", "163301.592500", "163302.052500", "163302.512500", "163302.972500", "163303.432500", "163303.892500", "163304.352500", "163304.812500", "163305.272500", "163305.732500", "163306.192500", "163306.652500", "163307.112500", "163307.572500", "163308.032500", "163308.492500", "163308.952500", "163309.412500", "163309.872500", "163310.332500", "163310.792500", "163311.252500", "163311.712500", "163312.172500", "163312.632500", "163313.092500", "163313.552500", "163314.012500", "163314.472500", "163314.932500", "163315.392500", "163315.852500", "163316.312500", "163316.772500", "163317.232500", "163317.692500", "163318.152500", "163318.612500", "163319.072500", "163319.532500", "163319.992500", "163320.452500", "163320.912500", "163321.372500", "163321.832500", "163322.292500", "163322.752500", "163323.212500", "163323.672500", "163324.132500", "163324.592500", "163325.052500", "163325.512500", "163325.972500", "163326.432500", "163326.892500", "163327.352500", "163327.812500", "163328.272500", "163328.732500", "163329.192500", "163329.652500", "163330.112500", "163330.572500", "163331.032500", "163331.492500", "163331.952500", "163332.412500", "163332.872500", "163333.332500", "163333.792500", "163334.252500", "163334.712500", "163335.172500", "163335.632500", "163336.092500", "163336.552500", "163337.012500", "163337.472500", "163337.932500", "163338.392500", "163338.852500", "163339.312500", "163339.772500", "163340.232500", "163340.692500", "163341.152500", "163341.612500", "163342.072500", "163342.532500", "163342.992500", "163343.452500", "163343.912500", "163344.372500", "163344.832500", "163345.292500", "163345.752500", "163346.212500", "163346.672500", "163347.132500", "163347.592500", "163348.052500", "163348.512500", "163348.972500", "163349.432500", "163349.892500", "163350.352500", "163350.812500", "163351.272500", "163351.732500", "163352.192500", "163352.652500", "163353.112500", "163353.572500", "163354.032500", "163354.492500", "163354.952500", "163355.412500", "163355.872500", "163356.332500", "163356.792500", "163357.252500", "163357.712500", "163358.172500", "163358.632500", "163359.092500", "163359.552500", "163400.012500", "163400.472500", "163400.932500", "163401.392500", "163401.852500", "163402.312500", "163402.772500", "163403.232500", "163403.692500", "163404.152500", "163404.612500", "163405.072500", "163405.532500", "163405.992500", "163406.452500", "163406.912500", "163407.372500", "163407.832500", "163408.292500", "163408.752500", "163409.212500", "163409.672500", "163410.132500", "163410.592500", "163411.052500", "163411.512500", "163411.972500", "163412.432500", "163412.892500", "163413.352500", "163413.812500", "163414.272500", "163414.732500", "163415.192500", "163415.652500", "163416.112500", "163416.572500", "163417.032500", "163417.492500", "163417.952500", "163418.412500", "163418.872500", "163419.332500", "163419.792500", "163420.252500", "163420.712500", "163421.172500", "163421.632500", "163422.092500", "163422.552500", "163423.012500", "163423.472500", "163423.932500", "163424.392500", "163424.852500", "163425.312500", "163425.772500", "163426.232500", "163426.692500", "163427.152500", "163427.612500", "163428.072500", "163428.532500", "163428.992500", "163429.452500", "163429.912500", "163430.372500", "163430.832500", "163431.292500", "163431.752500", "163432.212500", "163432.672500", "163433.132500", "163433.592500", "163434.052500", "163434.512500", "163434.972500", "163435.432500", "163435.892500", "163436.352500", "163436.812500", "163437.272500", "163437.732500", "163438.192500", "163438.652500", "163439.112500", "163439.572500", "163440.032500", "163440.492500", "163440.952500", "163441.412500", "163441.872500", "163442.332500", "163442.792500", "163443.252500", "163443.712500", "163444.172500", "163444.632500", "163445.092500", "163445.552500", "163446.012500", "163446.472500", "163446.932500", "163447.392500", "163447.852500", "163448.312500", "163448.772500", "163449.232500", "163449.692500", "163450.152500", "163450.612500", "163451.072500", "163451.532500", "163451.992500", "163452.452500", "163452.912500", "163453.372500", "163453.832500", "163454.292500", "163454.752500", "163455.212500", "163455.672500", "163456.132500", "163456.592500", "163457.052500", "163457.512500", "163457.972500", "163458.432500", "163458.892500", "163459.352500", "163459.812500", "163500.272500", "163500.732500", "163501.192500", "163501.652500", "163502.112500", "163502.572500", "163503.032500", "163503.492500", "163503.952500", "163504.412500", "163504.872500", "163505.332500", "163505.792500", "163506.252500", "163506.712500", "163507.172500", "163507.632500", "163508.092500", "163508.552500", "163509.012500", "163509.472500", "163509.932500", "163510.392500", "163510.852500", "163511.312500", "163511.772500", "163512.232500", "163512.692500", "163513.152500", "163513.612500", "163514.072500", "163514.532500", "163514.992500", "163515.452500", "163515.912500", "163516.372500", "163516.832500", "163517.292500", "163517.752500", "163518.212500", "163518.672500", "163519.132500", "163519.592500", "163520.052500", "163520.512500", "163520.972500", "163521.432500", "163521.892500", "163522.352500", "163522.812500", "163523.272500", "163523.732500", "163524.192500", "163524.652500", "163525.112500", "163525.572500", "163526.032500", "163526.492500", "163526.952500", "163527.412500", "163527.872500", "163528.332500", "163528.792500", "163529.252500", "163529.712500", "163530.172500", "163530.632500", "163531.092500", "163531.552500", "163532.012500", "163532.472500", "163532.932500", "163533.392500", "163533.852500", "163534.312500", "163534.772500", "163535.232500", "163535.692500", "163536.152500", "163536.612500", "163537.072500", "163537.532500", "163537.992500", "163538.452500", "163538.912500", "163539.372500", "163539.832500", "163540.292500", "163540.752500", "163541.212500", "163541.672500", "163542.132500", "163542.592500", "163543.052500", "163543.512500", "163543.972500", "163544.432500", "163544.892500", "163545.352500", "163545.812500", "163546.272500", "163546.732500", "163547.192500", "163547.652500", "163548.112500", "163548.572500", "163549.032500", "163549.492500", "163549.952500", "163550.412500", "163550.872500", "163551.332500", "163551.792500", "163552.252500", "163552.712500", "163553.172500", "163553.632500", "163554.092500", "163554.552500", "163555.012500", "163555.472500", "163555.932500", "163556.392500", "163556.852500", "163557.312500", "163557.772500", "163558.232500", "163558.692500", "163559.152500", "163559.612500", "163600.072500", "163600.532500", "163600.992500", "163601.452500", "163601.912500", "163602.372500", "163602.832500", "163603.292500", "163603.752500", "163604.212500", "163604.672500", "163605.132500", "163605.592500", "163606.052500", "163606.512500", "163606.972500", "163607.432500", "163607.892500", "163608.352500", "163608.812500", "163609.272500", "163609.732500", "163610.192500", "163610.652500", "163611.112500", "163611.572500", "163612.032500", "163612.492500", "163612.952500", "163613.412500", "163613.872500", "163614.332500", "163614.792500", "163615.252500", "163615.712500", "163616.172500", "163616.632500", "163617.092500", "163617.552500", "163618.012500", "163618.472500", "163618.932500", "163619.392500", "163619.852500", "163620.312500", "163620.772500", "163621.232500", "163621.692500", "163622.152500", "163622.612500", "163623.072500", "163623.532500", "163623.992500", "163624.452500", "163624.912500", "163625.372500", "163625.832500", "163626.292500", "163626.752500", "163627.212500", "163627.672500", "163628.132500", "163628.592500", "163629.052500", "163629.512500", "163629.972500", "163630.432500", "163630.892500", "163631.352500", "163631.812500", "163632.272500", "163632.732500", "163633.192500", "163633.652500", "163634.112500", "163634.572500", "163635.032500", "163635.492500", "163635.952500", "163636.412500", "163636.872500", "163637.332500", "163637.792500", "163638.252500", "163638.712500", "163639.172500", "163639.632500", "163640.092500", "163640.552500", "163641.012500", "163641.472500", "163641.932500", "163642.392500", "163642.852500", "163643.312500", "163643.772500", "163644.232500", "163644.692500", "163645.152500", "163645.612500", "163646.072500", "163646.532500", "163646.992500", "163647.452500", "163647.912500", "163648.372500", "163648.832500", "163649.292500", "163649.752500", "163650.212500", "163650.672500", "163651.132500", "163651.592500", "163652.052500", "163652.512500", "163652.972500", "163653.432500", "163653.892500", "163654.352500", "163654.812500", "163655.272500", "163655.732500", "163656.192500", "163656.652500", "163657.112500", "163657.572500", "163658.032500", "163658.492500", "163658.952500", "163659.412500", "163659.872500", "163700.332500", "163700.792500", "163701.252500", "163701.712500", "163702.172500", "163702.632500", "163703.092500", "163703.552500", "163704.012500", "163704.472500", "163704.932500", "163705.392500", "163705.852500", "163706.312500", "163706.772500", "163707.232500", "163707.692500", "163708.152500", "163708.612500", "163709.072500", "163709.532500", "163709.992500", "163710.452500", "163710.912500", "163711.372500", "163711.832500", "163712.292500", "163712.752500", "163713.212500", "163713.672500", "163714.132500", "163714.592500", "163715.052500", "163715.512500", "163715.972500", "163716.432500", "163716.892500", "163717.352500", "163717.812500", "163718.272500", "163718.732500", "163719.192500", "163719.652500", "163720.112500", "163720.572500", "163721.032500", "163721.492500", "163721.952500", "163722.412500", "163722.872500", "163723.332500", "163723.792500", "163724.252500", "163724.712500", "163725.172500", "163725.632500", "163726.092500", "163726.552500", "163727.012500", "163727.472500", "163727.932500", "163728.392500", "163728.852500", "163729.312500", "163729.772500", "163730.232500", "163730.692500", "163731.152500", "163731.612500", "163732.072500", "163732.532500", "163732.992500", "163733.452500", "163733.912500", "163734.372500", "163734.832500", "163735.292500", "163735.752500", "163736.212500", "163736.672500", "163737.132500", "163737.592500", "163738.052500", "163738.512500", "163738.972500", "163739.432500", "163739.892500", "163740.352500", "163740.812500", "163741.272500", "163741.732500", "163742.192500", "163742.652500", "163743.112500", "163743.572500", "163744.032500", "163744.492500", "163744.952500", "163745.412500", "163745.872500", "163746.332500", "163746.792500", "163747.252500", "163747.712500", "163748.172500", "163748.632500", "163749.092500", "163749.552500", "163750.012500", "163750.472500", "163750.932500", "163751.392500", "163751.852500", "163752.312500", "163752.772500", "163753.232500", "163753.692500", "163754.152500", "163754.612500", "163755.072500", "163755.532500", "163755.992500", "163756.452500", "163756.912500", "163757.372500", "163757.832500", "163758.292500", "163758.752500", "163759.212500", "163759.672500", "163800.132500", "163800.592500", "163801.052500", "163801.512500", "163801.972500", "163802.432500", "163802.892500", "163803.352500", "163803.812500", "163804.272500", "163804.732500", "163805.192500", "163805.652500", "163806.112500", "163806.572500", "163807.032500", "163807.492500", "163807.952500", "163808.412500", "163808.872500", "163809.332500", "163809.792500", "163810.252500", "163810.712500", "163811.172500", "163811.632500", "163812.092500", "163812.552500", "163813.012500", "163813.472500", "163813.932500", "163814.392500"],
