{
  "AcquisitionMatrixPE": 82,
  "AcquisitionNumber": 1,
  "AcquisitionTime": "14:48:12.292500",
  "BandwidthPerPixelPhaseEncode": 24.888,
  "BaseResolution": 82,
  "BodyPartExamined": "BRAIN",
  "ConsistencyInfo": "N4_VE11C_LATEST_20160120",
  "ConversionSoftware": "dcm2niix",
  "ConversionSoftwareVersion": "v1.0.20201102",
  "DerivedVendorReportedEchoSpacing": 0.00049,
  "DeviceSerialNumber": "66112",
  "DwellTime": 2e-06,
  "EchoTime": 0.0272,
  "EchoTrainLength": 82,
  "EffectiveEchoSpacing": 0.00049,
  "FlipAngle": 44,
  "ImageComments": "Unaliased MB8/PE3",
  "ImageOrientationPatientDICOM": [0.998995, 0.0239996, -0.0378527, -0.0242405, 0.999689, -0.00591759],
  "ImageType": [
    "ORIGINAL",
    "PRIMARY",
    "M",
    "MB",
    "ND",
    "NORM",
    "MOSAIC"
],
  "ImagingFrequency": 123.252,
  "InPlanePhaseEncodingDirectionDICOM": "COL",
  "InstitutionAddress": "Maynard 3,Hanover,NH,US,03755",
  "InstitutionName": "Dartmouth College - PBS",
  "InstitutionalDepartmentName": "Department",
  "MRAcquisitionType": "2D",
  "MagneticFieldStrength": 3,
  "Manufacturer": "Siemens",
  "ManufacturersModelName": "Prisma",
  "Modality": "MR",
  "MultibandAccelerationFactor": 8,
  "PartialFourier": 1,
  "PatientPosition": "HFS",
  "PercentPhaseFOV": 100,
  "PercentSampling": 100,
  "PhaseEncodingDirection": "j-",
  "PhaseEncodingSteps": 82,
  "PhaseResolution": 1,
  "PixelBandwidth": 3050,
  "ProcedureStepDescription": "Wager_Wager^1076_spacetop",
  "ProtocolName": "func_run-01_task-alignvideo_acq-ap-mb8",
  "PulseSequenceDetails": "%CustomerSeq%\\cmrr_mbep2d_bold",
  "ReceiveCoilActiveElements": "HEA;HEP",
  "ReceiveCoilName": "Head_32",
  "ReconMatrixPE": 82,
  "RepetitionTime": 0.46,
  "SAR": 0.0995246,
  "ScanOptions": "FS",
  "ScanningSequence": "EP",
  "SequenceName": "epfid2d1_82",
  "SequenceVariant": "SK\\SS",
  "SeriesDescription": "func_run-01_task-alignvideo_acq-ap-mb8",
  "SeriesNumber": 20,
  "ShimSetting": [4138, -7765, -7239, 454, -54, 7, -10, 86],
  "SliceThickness": 2.7,
  "SliceTiming": [0, 0.25, 0.0625, 0.315, 0.125, 0.3775, 0.1875, 0, 0.25, 0.0625, 0.315, 0.125, 0.3775, 0.1875, 0, 0.25, 0.0625, 0.315, 0.125, 0.3775, 0.1875, 0, 0.25, 0.0625, 0.315, 0.125, 0.3775, 0.1875, 0, 0.25, 0.0625, 0.315, 0.125, 0.3775, 0.1875, 0, 0.25, 0.0625, 0.315, 0.125, 0.3775, 0.1875, 0, 0.25, 0.0625, 0.315, 0.125, 0.3775, 0.1875, 0, 0.25, 0.0625, 0.315, 0.125, 0.3775, 0.1875],
  "SoftwareVersions": "syngo MR E11",
  "SpacingBetweenSlices": 2.7,
  "StationName": "AWP66112",
  "TaskName": "alignvideo",
  "TotalReadoutTime": 0.03969,
  "TxRefAmp": 281.466,
  "WipMemBlock": "36a26f0c-7127-453f-9ce4-dc096cf20c3d||Sequence: R016 ve11c/master r/e634e98; Dec 19 2017 11:00:25 by eja",
  "dcmmeta_affine": [
    [-2.6802308559417725, -0.0650353878736496, -0.10178691148757935, 115.9570541381836],
    [-0.06438911706209183, 2.682091474533081, -0.018438853323459625, -86.76465606689453],
    [-0.10155592113733292, 0.015876449644565582, 2.6980175971984863, -26.831417083740234],
    [0.0, 0.0, 0.0, 1.0]
],
  "dcmmeta_reorient_transform": [
    [0.0, -1.0, 0.0, 81.0],
    [1.0, 0.0, 0.0, 0.0],
    [0.0, 0.0, 1.0, 0.0],
    [0.0, 0.0, 0.0, 1.0]
],
  "dcmmeta_shape": [82, 82, 56, 839],
  "dcmmeta_slice_dim": 2,
  "dcmmeta_version": 0.6,
  "global": {
    "const": {
      "AccessionNumber": "A003448",
      "AcquisitionMatrix": [82, 0, 0, 82],
      "AngioFlag": "N",
      "BitsAllocated": 16,
      "BitsStored": 16,
      "BodyPartExamined": "BRAIN",
      "Columns": 656,
      "EchoNumbers": 1,
      "EchoTime": 27.2,
      "EchoTrainLength": 82,
      "FlipAngle": 44.0,
      "HighBit": 15,
      "ImageOrientationPatient": [0.99899509325659, 0.02399957897484, -0.0378526598575, -0.0242404622957, 0.99968864261118, -0.0059175858167],
      "ImagePositionPatient": [-861.2502710145, -918.72470958938, 8.1576658207968],
      "ImageType": [
        "ORIGINAL",
        "PRIMARY",
        "M",
        "MB",
        "ND",
        "NORM",
        "MOSAIC"
],
      "ImagedNucleus": "1H",
      "ImagingFrequency": 123.252084,
      "InPlanePhaseEncodingDirection": "COL",
      "MRAcquisitionType": "2D",
      "MagneticFieldStrength": 3.0,
      "Manufacturer": "SIEMENS",
      "ManufacturerModelName": "Prisma",
      "Modality": "MR",
      "NumberOfAverages": 1.0,
      "NumberOfPhaseEncodingSteps": 82,
      "PercentPhaseFieldOfView": 100.0,
      "PercentSampling": 100.0,
      "PerformedProcedureStepStartTime": "133515.044000",
      "PhotometricInterpretation": "MONOCHROME2",
      "PixelBandwidth": 3050.0,
      "PixelRepresentation": 0,
      "PixelSpacing": [2.6829268932343, 2.6829268932343],
      "ProtocolName": "func_run-01_task-alignvideo_acq-ap-mb8",
      "RepetitionTime": 460.0,
      "Rows": 656,
      "SAR": 0.09952457898303,
      "SamplesPerPixel": 1,
      "ScanOptions": "FS",
      "ScanningSequence": "EP",
      "SequenceName": "epfid2d1_82",
      "SequenceVariant": [
        "SK",
        "SS"
],
      "SeriesDescription": "func_run-01_task-alignvideo_acq-ap-mb8",
      "SeriesNumber": 20,
      "SeriesTime": "144830.901000",
      "SliceLocation": -30.590631721774,
      "SliceThickness": 2.7000000476837,
      "SmallestImagePixelValue": 0,
      "SoftwareVersions": "syngo MR E11",
      "SpacingBetweenSlices": 2.7000000237604,
      "SpecificCharacterSet": "ISO_IR 100",
      "StudyID": "3",
      "StudyTime": "133514.946000",
      "TransmitCoilName": "Body",
      "VariableFlipAngleFlag": "N",
      "WindowCenterWidthExplanation": "Algo1",
      "dBdt": 0.0},
    "slices": {}
  },
  "time": {
    "samples": {
      "AcquisitionNumber": [1, 2, 3, 4, 5, 6, 7, 8, 9, 10, 11, 12, 13, 14, 15, 16, 17, 18, 19, 20, 21, 22, 23, 24, 25, 26, 27, 28, 29, 30, 31, 32, 33, 34, 35, 36, 37, 38, 39, 40, 41, 42, 43, 44, 45, 46, 47, 48, 49, 50, 51, 52, 53, 54, 55, 56, 57, 58, 59, 60, 61, 62, 63, 64, 65, 66, 67, 68, 69, 70, 71, 72, 73, 74, 75, 76, 77, 78, 79, 80, 81, 82, 83, 84, 85, 86, 87, 88, 89, 90, 91, 92, 93, 94, 95, 96, 97, 98, 99, 100, 101, 102, 103, 104, 105, 106, 107, 108, 109, 110, 111, 112, 113, 114, 115, 116, 117, 118, 119, 120, 121, 122, 123, 124, 125, 126, 127, 128, 129, 130, 131, 132, 133, 134, 135, 136, 137, 138, 139, 140, 141, 142, 143, 144, 145, 146, 147, 148, 149, 150, 151, 152, 153, 154, 155, 156, 157, 158, 159, 160, 161, 162, 163, 164, 165, 166, 167, 168, 169, 170, 171, 172, 173, 174, 175, 176, 177, 178, 179, 180, 181, 182, 183, 184, 185, 186, 187, 188, 189, 190, 191, 192, 193, 194, 195, 196, 197, 198, 199, 200, 201, 202, 203, 204, 205, 206, 207, 208, 209, 210, 211, 212, 213, 214, 215, 216, 217, 218, 219, 220, 221, 222, 223, 224, 225, 226, 227, 228, 229, 230, 231, 232, 233, 234, 235, 236, 237, 238, 239, 240, 241, 242, 243, 244, 245, 246, 247, 248, 249, 250, 251, 252, 253, 254, 255, 256, 257, 258, 259, 260, 261, 262, 263, 264, 265, 266, 267, 268, 269, 270, 271, 272, 273, 274, 275, 276, 277, 278, 279, 280, 281, 282, 283, 284, 285, 286, 287, 288, 289, 290, 291, 292, 293, 294, 295, 296, 297, 298, 299, 300, 301, 302, 303, 304, 305, 306, 307, 308, 309, 310, 311, 312, 313, 314, 315, 316, 317, 318, 319, 320, 321, 322, 323, 324, 325, 326, 327, 328, 329, 330, 331, 332, 333, 334, 335, 336, 337, 338, 339, 340, 341, 342, 343, 344, 345, 346, 347, 348, 349, 350, 351, 352, 353, 354, 355, 356, 357, 358, 359, 360, 361, 362, 363, 364, 365, 366, 367, 368, 369, 370, 371, 372, 373, 374, 375, 376, 377, 378, 379, 380, 381, 382, 383, 384, 385, 386, 387, 388, 389, 390, 391, 392, 393, 394, 395, 396, 397, 398, 399, 400, 401, 402, 403, 404, 405, 406, 407, 408, 409, 410, 411, 412, 413, 414, 415, 416, 417, 418, 419, 420, 421, 422, 423, 424, 425, 426, 427, 428, 429, 430, 431, 432, 433, 434, 435, 436, 437, 438, 439, 440, 441, 442, 443, 444, 445, 446, 447, 448, 449, 450, 451, 452, 453, 454, 455, 456, 457, 458, 459, 460, 461, 462, 463, 464, 465, 466, 467, 468, 469, 470, 471, 472, 473, 474, 475, 476, 477, 478, 479, 480, 481, 482, 483, 484, 485, 486, 487, 488, 489, 490, 491, 492, 493, 494, 495, 496, 497, 498, 499, 500, 501, 502, 503, 504, 505, 506, 507, 508, 509, 510, 511, 512, 513, 514, 515, 516, 517, 518, 519, 520, 521, 522, 523, 524, 525, 526, 527, 528, 529, 530, 531, 532, 533, 534, 535, 536, 537, 538, 539, 540, 541, 542, 543, 544, 545, 546, 547, 548, 549, 550, 551, 552, 553, 554, 555, 556, 557, 558, 559, 560, 561, 562, 563, 564, 565, 566, 567, 568, 569, 570, 571, 572, 573, 574, 575, 576, 577, 578, 579, 580, 581, 582, 583, 584, 585, 586, 587, 588, 589, 590, 591, 592, 593, 594, 595, 596, 597, 598, 599, 600, 601, 602, 603, 604, 605, 606, 607, 608, 609, 610, 611, 612, 613, 614, 615, 616, 617, 618, 619, 620, 621, 622, 623, 624, 625, 626, 627, 628, 629, 630, 631, 632, 633, 634, 635, 636, 637, 638, 639, 640, 641, 642, 643, 644, 645, 646, 647, 648, 649, 650, 651, 652, 653, 654, 655, 656, 657, 658, 659, 660, 661, 662, 663, 664, 665, 666, 667, 668, 669, 670, 671, 672, 673, 674, 675, 676, 677, 678, 679, 680, 681, 682, 683, 684, 685, 686, 687, 688, 689, 690, 691, 692, 693, 694, 695, 696, 697, 698, 699, 700, 701, 702, 703, 704, 705, 706, 707, 708, 709, 710, 711, 712, 713, 714, 715, 716, 717, 718, 719, 720, 721, 722, 723, 724, 725, 726, 727, 728, 729, 730, 731, 732, 733, 734, 735, 736, 737, 738, 739, 740, 741, 742, 743, 744, 745, 746, 747, 748, 749, 750, 751, 752, 753, 754, 755, 756, 757, 758, 759, 760, 761, 762, 763, 764, 765, 766, 767, 768, 769, 770, 771, 772, 773, 774, 775, 776, 777, 778, 779, 780, 781, 782, 783, 784, 785, 786, 787, 788, 789, 790, 791, 792, 793, 794, 795, 796, 797, 798, 799, 800, 801, 802, 803, 804, 805, 806, 807, 808, 809, 810, 811, 812, 813, 814, 815, 816, 817, 818, 819, 820, 821, 822, 823, 824, 825, 826, 827, 828, 829, 830, 831, 832, 833, 834, 835, 836, 837, 838, 839],
      "AcquisitionTime": ["144812.292500", "144812.752500", "144813.212500", "144813.672500", "144814.132500", "144814.592500", "144815.052500", "144815.512500", "144815.972500", "144816.432500", "144816.892500", "144817.352500", "144817.812500", "144818.272500", "144818.732500", "144819.192500", "144819.652500", "144820.112500", "144820.572500", "144821.032500", "144821.492500", "144821.952500", "144822.412500", "144822.872500", "144823.332500", "144823.792500", "144824.252500", "144824.712500", "144825.172500", "144825.632500", "144826.092500", "144826.552500", "144827.012500", "144827.472500", "144827.932500", "144828.392500", "144828.852500", "144829.312500", "144829.772500", "144830.232500", "144830.692500", "144831.152500", "144831.612500", "144832.072500", "144832.532500", "144832.992500", "144833.452500", "144833.912500", "144834.372500", "144834.832500", "144835.292500", "144835.752500", "144836.212500", "144836.672500", "144837.132500", "144837.592500", "144838.052500", "144838.512500", "144838.972500", "144839.432500", "144839.892500", "144840.352500", "144840.812500", "144841.272500", "144841.732500", "144842.192500", "144842.652500", "144843.112500", "144843.572500", "144844.032500", "144844.492500", "144844.952500", "144845.412500", "144845.872500", "144846.332500", "144846.792500", "144847.252500", "144847.712500", "144848.172500", "144848.632500", "144849.092500", "144849.552500", "144850.012500", "144850.472500", "144850.932500", "144851.392500", "144851.852500", "144852.312500", "144852.772500", "144853.232500", "144853.692500", "144854.152500", "144854.612500", "144855.072500", "144855.532500", "144855.992500", "144856.452500", "144856.912500", "144857.372500", "144857.832500", "144858.292500", "144858.752500", "144859.212500", "144859.672500", "144900.132500", "144900.592500", "144901.052500", "144901.512500", "144901.972500", "144902.432500", "144902.892500", "144903.352500", "144903.812500", "144904.272500", "144904.732500", "144905.192500", "144905.652500", "144906.112500", "144906.572500", "144907.032500", "144907.492500", "144907.952500", "144908.412500", "144908.872500", "144909.332500", "144909.792500", "144910.252500", "144910.712500", "144911.172500", "144911.632500", "144912.092500", "144912.552500", "144913.012500", "144913.472500", "144913.932500", "144914.392500", "144914.852500", "144915.312500", "144915.772500", "144916.232500", "144916.692500", "144917.152500", "144917.612500", "144918.072500", "144918.532500", "144918.992500", "144919.452500", "144919.912500", "144920.372500", "144920.832500", "144921.292500", "144921.752500", "144922.212500", "144922.672500", "144923.132500", "144923.592500", "144924.052500", "144924.512500", "144924.972500", "144925.432500", "144925.892500", "144926.352500", "144926.812500", "144927.272500", "144927.732500", "144928.192500", "144928.652500", "144929.112500", "144929.572500", "144930.032500", "144930.492500", "144930.952500", "144931.412500", "144931.872500", "144932.332500", "144932.792500", "144933.252500", "144933.712500", "144934.172500", "144934.632500", "144935.092500", "144935.552500", "144936.012500", "144936.472500", "144936.932500", "144937.392500", "144937.852500", "144938.312500", "144938.772500", "144939.232500", "144939.692500", "144940.152500", "144940.612500", "144941.072500", "144941.532500", "144941.992500", "144942.452500", "144942.912500", "144943.372500", "144943.832500", "144944.292500", "144944.752500", "144945.212500", "144945.672500", "144946.132500", "144946.592500", "144947.052500", "144947.512500", "144947.972500", "144948.432500", "144948.892500", "144949.352500", "144949.812500", "144950.272500", "144950.732500", "144951.192500", "144951.652500", "144952.112500", "144952.572500", "144953.032500", "144953.492500", "144953.952500", "144954.412500", "144954.872500", "144955.332500", "144955.792500", "144956.252500", "144956.712500", "144957.172500", "144957.632500", "144958.092500", "144958.552500", "144959.012500", "144959.472500", "144959.932500", "145000.392500", "145000.852500", "145001.312500", "145001.772500", "145002.232500", "145002.692500", "145003.152500", "145003.612500", "145004.072500", "145004.532500", "145004.992500", "145005.452500", "145005.912500", "145006.372500", "145006.832500", "145007.292500", "145007.752500", "145008.212500", "145008.672500", "145009.132500", "145009.592500", "145010.052500", "145010.512500", "145010.972500", "145011.432500", "145011.892500", "145012.352500", "145012.812500", "145013.272500", "145013.732500", "145014.192500", "145014.652500", "145015.112500", "145015.572500", "145016.032500", "145016.492500", "145016.952500", "145017.412500", "145017.872500", "145018.332500", "145018.792500", "145019.252500", "145019.712500", "145020.172500", "145020.632500", "145021.092500", "145021.552500", "145022.012500", "145022.472500", "145022.932500", "145023.392500", "145023.852500", "145024.312500", "145024.772500", "145025.232500", "145025.692500", "145026.152500", "145026.612500", "145027.072500", "145027.532500", "145027.992500", "145028.452500", "145028.912500", "145029.372500", "145029.832500", "145030.292500", "145030.752500", "145031.212500", "145031.672500", "145032.132500", "145032.592500", "145033.052500", "145033.512500", "145033.972500", "145034.432500", "145034.892500", "145035.352500", "145035.812500", "145036.272500", "145036.732500", "145037.192500", "145037.652500", "145038.112500", "145038.572500", "145039.032500", "145039.492500", "145039.952500", "145040.412500", "145040.872500", "145041.332500", "145041.792500", "145042.252500", "145042.712500", "145043.172500", "145043.632500", "145044.092500", "145044.552500", "145045.012500", "145045.472500", "145045.932500", "145046.392500", "145046.852500", "145047.312500", "145047.772500", "145048.232500", "145048.692500", "145049.152500", "145049.612500", "145050.072500", "145050.532500", "145050.992500", "145051.452500", "145051.912500", "145052.372500", "145052.832500", "145053.292500", "145053.752500", "145054.212500", "145054.672500", "145055.132500", "145055.592500", "145056.052500", "145056.512500", "145056.972500", "145057.432500", "145057.892500", "145058.352500", "145058.812500", "145059.272500", "145059.732500", "145100.192500", "145100.652500", "145101.112500", "145101.572500", "145102.032500", "145102.492500", "145102.952500", "145103.412500", "145103.872500", "145104.332500", "145104.792500", "145105.252500", "145105.712500", "145106.172500", "145106.632500", "145107.092500", "145107.552500", "145108.012500", "145108.472500", "145108.932500", "145109.392500", "145109.852500", "145110.312500", "145110.772500", "145111.232500", "145111.692500", "145112.152500", "145112.612500", "145113.072500", "145113.532500", "145113.992500", "145114.452500", "145114.912500", "145115.372500", "145115.832500", "145116.292500", "145116.752500", "145117.212500", "145117.672500", "145118.132500", "145118.592500", "145119.052500", "145119.512500", "145119.972500", "145120.432500", "145120.892500", "145121.352500", "145121.812500", "145122.272500", "145122.732500", "145123.192500", "145123.652500", "145124.112500", "145124.572500", "145125.032500", "145125.492500", "145125.952500", "145126.412500", "145126.872500", "145127.332500", "145127.792500", "145128.252500", "145128.712500", "145129.172500", "145129.632500", "145130.092500", "145130.552500", "145131.012500", "145131.472500", "145131.932500", "145132.392500", "145132.852500", "145133.312500", "145133.772500", "145134.232500", "145134.692500", "145135.152500", "145135.612500", "145136.072500", "145136.532500", "145136.992500", "145137.452500", "145137.912500", "145138.372500", "145138.832500", "145139.292500", "145139.752500", "145140.212500", "145140.672500", "145141.132500", "145141.592500", "145142.052500", "145142.512500", "145142.972500", "145143.432500", "145143.892500", "145144.352500", "145144.812500", "145145.272500", "145145.732500", "145146.192500", "145146.652500", "145147.112500", "145147.572500", "145148.032500", "145148.492500", "145148.952500", "145149.412500", "145149.872500", "145150.332500", "145150.792500", "145151.252500", "145151.712500", "145152.172500", "145152.632500", "145153.092500", "145153.552500", "145154.012500", "145154.472500", "145154.932500", "145155.392500", "145155.852500", "145156.312500", "145156.772500", "145157.232500", "145157.692500", "145158.152500", "145158.612500", "145159.072500", "145159.532500", "145159.992500", "145200.452500", "145200.912500", "145201.372500", "145201.832500", "145202.292500", "145202.752500", "145203.212500", "145203.672500", "145204.132500", "145204.592500", "145205.052500", "145205.512500", "145205.972500", "145206.432500", "145206.892500", "145207.352500", "145207.812500", "145208.272500", "145208.732500", "145209.192500", "145209.652500", "145210.112500", "145210.572500", "145211.032500", "145211.492500", "145211.952500", "145212.412500", "145212.872500", "145213.332500", "145213.792500", "145214.252500", "145214.712500", "145215.172500", "145215.632500", "145216.092500", "145216.552500", "145217.012500", "145217.472500", "145217.932500", "145218.392500", "145218.852500", "145219.312500", "145219.772500", "145220.232500", "145220.692500", "145221.152500", "145221.612500", "145222.072500", "145222.532500", "145222.992500", "145223.452500", "145223.912500", "145224.372500", "145224.832500", "145225.292500", "145225.752500", "145226.212500", "145226.672500", "145227.132500", "145227.592500", "145228.052500", "145228.512500", "145228.972500", "145229.432500", "145229.892500", "145230.352500", "145230.812500", "145231.272500", "145231.732500", "145232.192500", "145232.652500", "145233.112500", "145233.572500", "145234.032500", "145234.492500", "145234.952500", "145235.412500", "145235.872500", "145236.332500", "145236.792500", "145237.252500", "145237.712500", "145238.172500", "145238.632500", "145239.092500", "145239.552500", "145240.012500", "145240.472500", "145240.932500", "145241.392500", "145241.852500", "145242.312500", "145242.772500", "145243.232500", "145243.692500", "145244.152500", "145244.612500", "145245.072500", "145245.532500", "145245.992500", "145246.452500", "145246.912500", "145247.372500", "145247.832500", "145248.292500", "145248.752500", "145249.212500", "145249.672500", "145250.132500", "145250.592500", "145251.052500", "145251.512500", "145251.972500", "145252.432500", "145252.892500", "145253.352500", "145253.812500", "145254.272500", "145254.732500", "145255.192500", "145255.652500", "145256.112500", "145256.572500", "145257.032500", "145257.492500", "145257.952500", "145258.412500", "145258.872500", "145259.332500", "145259.792500", "145300.252500", "145300.712500", "145301.172500", "145301.632500", "145302.092500", "145302.552500", "145303.012500", "145303.472500", "145303.932500", "145304.392500", "145304.852500", "145305.312500", "145305.772500", "145306.232500", "145306.692500", "145307.152500", "145307.612500", "145308.072500", "145308.532500", "145308.992500", "145309.452500", "145309.912500", "145310.372500", "145310.832500", "145311.292500", "145311.752500", "145312.212500", "145312.672500", "145313.132500", "145313.592500", "145314.052500", "145314.512500", "145314.972500", "145315.432500", "145315.892500", "145316.352500", "145316.812500", "145317.272500", "145317.732500", "145318.192500", "145318.652500", "145319.112500", "145319.572500", "145320.032500", "145320.492500", "145320.952500", "145321.412500", "145321.872500", "145322.332500", "145322.792500", "145323.252500", "145323.712500", "145324.172500", "145324.632500", "145325.092500", "145325.552500", "145326.012500", "145326.472500", "145326.932500", "145327.392500", "145327.852500", "145328.312500", "145328.772500", "145329.232500", "145329.692500", "145330.152500", "145330.612500", "145331.072500", "145331.532500", "145331.992500", "145332.452500", "145332.912500", "145333.372500", "145333.832500", "145334.292500", "145334.752500", "145335.212500", "145335.672500", "145336.132500", "145336.592500", "145337.052500", "145337.512500", "145337.972500", "145338.432500", "145338.892500", "145339.352500", "145339.812500", "145340.272500", "145340.732500", "145341.192500", "145341.652500", "145342.112500", "145342.572500", "145343.032500", "145343.492500", "145343.952500", "145344.412500", "145344.872500", "145345.332500", "145345.792500", "145346.252500", "145346.712500", "145347.172500", "145347.632500", "145348.092500", "145348.552500", "145349.012500", "145349.472500", "145349.932500", "145350.392500", "145350.852500", "145351.312500", "145351.772500", "145352.232500", "145352.692500", "145353.152500", "145353.612500", "145354.072500", "145354.532500", "145354.992500", "145355.452500", "145355.912500", "145356.372500", "145356.832500", "145357.292500", "145357.752500", "145358.212500", "145358.672500", "145359.132500", "145359.592500", "145400.052500", "145400.512500", "145400.972500", "145401.432500", "145401.892500", "145402.352500", "145402.812500", "145403.272500", "145403.732500", "145404.192500", "145404.652500", "145405.112500", "145405.572500", "145406.032500", "145406.492500", "145406.952500", "145407.412500", "145407.872500", "145408.332500", "145408.792500", "145409.252500", "145409.712500", "145410.172500", "145410.632500", "145411.092500", "145411.552500", "145412.012500", "145412.472500", "145412.932500", "145413.392500", "145413.852500", "145414.312500", "145414.772500", "145415.232500", "145415.692500", "145416.152500", "145416.612500", "145417.072500", "145417.532500", "145417.992500", "145418.452500", "145418.912500", "145419.372500", "145419.832500", "145420.292500", "145420.752500", "145421.212500", "145421.672500", "145422.132500", "145422.592500", "145423.052500", "145423.512500", "145423.972500", "145424.432500", "145424.892500", "145425.352500", "145425.812500", "145426.272500", "145426.732500", "145427.192500", "145427.652500", "145428.112500", "145428.572500", "145429.032500", "145429.492500", "145429.952500", "145430.412500", "145430.872500", "145431.332500", "145431.792500", "145432.252500", "145432.712500", "145433.172500", "145433.632500", "145434.092500", "145434.552500", "145435.012500", "145435.472500", "145435.932500", "145436.392500", "145436.852500", "145437.312500", "145437.772500"],
