{
  "AcquisitionMatrixPE": 82,
  "AcquisitionNumber": 1,
  "AcquisitionTime": "15:35:7.225000",
  "BandwidthPerPixelPhaseEncode": 24.888,
  "BaseResolution": 82,
  "BodyPartExamined": "BRAIN",
  "ConsistencyInfo": "N4_VE11C_LATEST_20160120",
  "ConversionSoftware": "dcm2niix",
  "ConversionSoftwareVersion": "v1.0.20201102",
  "DerivedVendorReportedEchoSpacing": 0.00049,
  "DeviceSerialNumber": "66112",
  "DwellTime": 2e-06,
  "EchoTime": 0.0272,
  "EchoTrainLength": 82,
  "EffectiveEchoSpacing": 0.00049,
  "FlipAngle": 44,
  "ImageComments": "Unaliased MB8/PE3",
  "ImageOrientationPatientDICOM": [0.998777, -0.0216829, 0.0444317, 0.0203981, 0.999366, 0.0291688],
  "ImageType": [
    "ORIGINAL",
    "PRIMARY",
    "FMRI",
    "NONE",
    "MB",
    "ND",
    "NORM",
    "MOSAIC"
],
  "ImagingFrequency": 123.252,
  "InPlanePhaseEncodingDirectionDICOM": "COL",
  "InstitutionAddress": "Maynard 3,Hanover,NH,US,03755",
  "InstitutionName": "Dartmouth College - PBS",
  "InstitutionalDepartmentName": "Department",
  "MRAcquisitionType": "2D",
  "MagneticFieldStrength": 3,
  "Manufacturer": "Siemens",
  "ManufacturersModelName": "Prisma",
  "Modality": "MR",
  "MultibandAccelerationFactor": 8,
  "PartialFourier": 1,
  "PatientPosition": "HFS",
  "PercentPhaseFOV": 100,
  "PercentSampling": 100,
  "PhaseEncodingDirection": "j-",
  "PhaseEncodingSteps": 82,
  "PhaseResolution": 1,
  "PixelBandwidth": 3050,
  "ProcedureStepDescription": "Wager_Wager^1076_spacetop",
  "ProtocolName": "func_run-01_task-social_acq-ap-mb8",
  "PulseSequenceDetails": "%CustomerSeq%\\cmrr_mbep2d_bold",
  "ReceiveCoilActiveElements": "HEA;HEP",
  "ReceiveCoilName": "Head_32",
  "ReconMatrixPE": 82,
  "RepetitionTime": 0.46,
  "SAR": 0.0786328,
  "ScanOptions": "FS",
  "ScanningSequence": "EP",
  "SequenceName": "epfid2d1_82",
  "SequenceVariant": "SK\\SS",
  "SeriesDescription": "func_run-01_task-social_acq-ap-mb8",
  "SeriesNumber": 11,
  "ShimSetting": [4176, -7767, -7262, 597, -31, -289, 98, 58],
  "SliceThickness": 2.7,
  "SliceTiming": [0, 0.25, 0.0625, 0.3125, 0.125, 0.3775, 0.1875, 0, 0.25, 0.0625, 0.3125, 0.125, 0.3775, 0.1875, 0, 0.25, 0.0625, 0.3125, 0.125, 0.3775, 0.1875, 0, 0.25, 0.0625, 0.3125, 0.125, 0.3775, 0.1875, 0, 0.25, 0.0625, 0.3125, 0.125, 0.3775, 0.1875, 0, 0.25, 0.0625, 0.3125, 0.125, 0.3775, 0.1875, 0, 0.25, 0.0625, 0.3125, 0.125, 0.3775, 0.1875, 0, 0.25, 0.0625, 0.3125, 0.125, 0.3775, 0.1875],
  "SoftwareVersions": "syngo MR E11",
  "SpacingBetweenSlices": 2.7,
  "StationName": "AWP66112",
  "TaskName": "social",
  "TotalReadoutTime": 0.03969,
  "TxRefAmp": 232.597,
  "WipMemBlock": "7f12c45a-f39c-4673-9a41-49efef9548b5||Sequence: R016 ve11c/master r/e634e98; Dec 19 2017 11:00:25 by eja",
  "dcmmeta_affine": [
    [-2.6796460151672363, 0.054726701229810715, 0.1215972825884819, 103.49249267578125],
    [0.058173768222332, 2.6812267303466797, 0.07621243596076965, -95.73274993896484],
    [0.11920705437660217, -0.07825782150030136, 2.696183443069458, -68.0063247680664],
    [0.0, 0.0, 0.0, 1.0]
],
  "dcmmeta_reorient_transform": [
    [0.0, -1.0, 0.0, 81.0],
    [1.0, 0.0, 0.0, 0.0],
    [0.0, 0.0, 1.0, 0.0],
    [0.0, 0.0, 0.0, 1.0]
],
  "dcmmeta_shape": [82, 82, 56, 872],
  "dcmmeta_slice_dim": 2,
  "dcmmeta_version": 0.6,
  "global": {
    "const": {
      "AccessionNumber": "A003572",
      "AcquisitionMatrix": [82, 0, 0, 82],
      "AngioFlag": "N",
      "BitsAllocated": 16,
      "BitsStored": 12,
      "BodyPartExamined": "BRAIN",
      "Columns": 656,
      "EchoNumbers": 1,
      "EchoTime": 27.2,
      "EchoTrainLength": 82,
      "FlipAngle": 44.0,
      "HighBit": 11,
      "ImageOrientationPatient": [0.99877708822287, -0.0216829495737, 0.04443171996257, 0.02039813424798, 0.99936634717945, 0.02916882315758],
      "ImagePositionPatient": [-892.69029915823, -874.26286056284, -131.01762499775],
      "ImageType": [
        "ORIGINAL",
        "PRIMARY",
        "FMRI",
        "NONE",
        "MB",
        "ND",
        "NORM",
        "MOSAIC"
],
      "ImagedNucleus": "1H",
      "ImagingFrequency": 123.25216,
      "InPlanePhaseEncodingDirection": "COL",
      "MRAcquisitionType": "2D",
      "MagneticFieldStrength": 3.0,
      "Manufacturer": "SIEMENS",
      "ManufacturerModelName": "Prisma",
      "Modality": "MR",
      "NumberOfAverages": 1.0,
      "NumberOfPhaseEncodingSteps": 82,
      "PercentPhaseFieldOfView": 100.0,
      "PercentSampling": 100.0,
      "PerformedProcedureStepStartTime": "143317.754000",
      "PhotometricInterpretation": "MONOCHROME2",
      "PixelBandwidth": 3050.0,
      "PixelRepresentation": 0,
      "PixelSpacing": [2.6829268932343, 2.6829268932343],
      "ProtocolName": "func_run-01_task-social_acq-ap-mb8",
      "RepetitionTime": 460.0,
      "Rows": 656,
      "SAR": 0.07863278752996,
      "SamplesPerPixel": 1,
      "ScanOptions": "FS",
      "ScanningSequence": "EP",
      "SequenceName": "epfid2d1_82",
      "SequenceVariant": [
        "SK",
        "SS"
],
      "SeriesDescription": "func_run-01_task-social_acq-ap-mb8",
      "SeriesNumber": 11,
      "SeriesTime": "153511.024000",
      "SliceLocation": -65.951535694998,
      "SliceThickness": 2.7000000476837,
      "SmallestImagePixelValue": 0,
      "SoftwareVersions": "syngo MR E11",
      "SpacingBetweenSlices": 2.6999999439385,
      "SpecificCharacterSet": "ISO_IR 100",
      "StudyID": "1",
      "StudyTime": "143317.656000",
      "TransmitCoilName": "Body",
      "VariableFlipAngleFlag": "N",
      "WindowCenterWidthExplanation": "Algo1",
      "dBdt": 0.0},
    "slices": {}
  },
  "time": {
    "samples": {
      "AcquisitionNumber": [1, 2, 3, 4, 5, 6, 7, 8, 9, 10, 11, 12, 13, 14, 15, 16, 17, 18, 19, 20, 21, 22, 23, 24, 25, 26, 27, 28, 29, 30, 31, 32, 33, 34, 35, 36, 37, 38, 39, 40, 41, 42, 43, 44, 45, 46, 47, 48, 49, 50, 51, 52, 53, 54, 55, 56, 57, 58, 59, 60, 61, 62, 63, 64, 65, 66, 67, 68, 69, 70, 71, 72, 73, 74, 75, 76, 77, 78, 79, 80, 81, 82, 83, 84, 85, 86, 87, 88, 89, 90, 91, 92, 93, 94, 95, 96, 97, 98, 99, 100, 101, 102, 103, 104, 105, 106, 107, 108, 109, 110, 111, 112, 113, 114, 115, 116, 117, 118, 119, 120, 121, 122, 123, 124, 125, 126, 127, 128, 129, 130, 131, 132, 133, 134, 135, 136, 137, 138, 139, 140, 141, 142, 143, 144, 145, 146, 147, 148, 149, 150, 151, 152, 153, 154, 155, 156, 157, 158, 159, 160, 161, 162, 163, 164, 165, 166, 167, 168, 169, 170, 171, 172, 173, 174, 175, 176, 177, 178, 179, 180, 181, 182, 183, 184, 185, 186, 187, 188, 189, 190, 191, 192, 193, 194, 195, 196, 197, 198, 199, 200, 201, 202, 203, 204, 205, 206, 207, 208, 209, 210, 211, 212, 213, 214, 215, 216, 217, 218, 219, 220, 221, 222, 223, 224, 225, 226, 227, 228, 229, 230, 231, 232, 233, 234, 235, 236, 237, 238, 239, 240, 241, 242, 243, 244, 245, 246, 247, 248, 249, 250, 251, 252, 253, 254, 255, 256, 257, 258, 259, 260, 261, 262, 263, 264, 265, 266, 267, 268, 269, 270, 271, 272, 273, 274, 275, 276, 277, 278, 279, 280, 281, 282, 283, 284, 285, 286, 287, 288, 289, 290, 291, 292, 293, 294, 295, 296, 297, 298, 299, 300, 301, 302, 303, 304, 305, 306, 307, 308, 309, 310, 311, 312, 313, 314, 315, 316, 317, 318, 319, 320, 321, 322, 323, 324, 325, 326, 327, 328, 329, 330, 331, 332, 333, 334, 335, 336, 337, 338, 339, 340, 341, 342, 343, 344, 345, 346, 347, 348, 349, 350, 351, 352, 353, 354, 355, 356, 357, 358, 359, 360, 361, 362, 363, 364, 365, 366, 367, 368, 369, 370, 371, 372, 373, 374, 375, 376, 377, 378, 379, 380, 381, 382, 383, 384, 385, 386, 387, 388, 389, 390, 391, 392, 393, 394, 395, 396, 397, 398, 399, 400, 401, 402, 403, 404, 405, 406, 407, 408, 409, 410, 411, 412, 413, 414, 415, 416, 417, 418, 419, 420, 421, 422, 423, 424, 425, 426, 427, 428, 429, 430, 431, 432, 433, 434, 435, 436, 437, 438, 439, 440, 441, 442, 443, 444, 445, 446, 447, 448, 449, 450, 451, 452, 453, 454, 455, 456, 457, 458, 459, 460, 461, 462, 463, 464, 465, 466, 467, 468, 469, 470, 471, 472, 473, 474, 475, 476, 477, 478, 479, 480, 481, 482, 483, 484, 485, 486, 487, 488, 489, 490, 491, 492, 493, 494, 495, 496, 497, 498, 499, 500, 501, 502, 503, 504, 505, 506, 507, 508, 509, 510, 511, 512, 513, 514, 515, 516, 517, 518, 519, 520, 521, 522, 523, 524, 525, 526, 527, 528, 529, 530, 531, 532, 533, 534, 535, 536, 537, 538, 539, 540, 541, 542, 543, 544, 545, 546, 547, 548, 549, 550, 551, 552, 553, 554, 555, 556, 557, 558, 559, 560, 561, 562, 563, 564, 565, 566, 567, 568, 569, 570, 571, 572, 573, 574, 575, 576, 577, 578, 579, 580, 581, 582, 583, 584, 585, 586, 587, 588, 589, 590, 591, 592, 593, 594, 595, 596, 597, 598, 599, 600, 601, 602, 603, 604, 605, 606, 607, 608, 609, 610, 611, 612, 613, 614, 615, 616, 617, 618, 619, 620, 621, 622, 623, 624, 625, 626, 627, 628, 629, 630, 631, 632, 633, 634, 635, 636, 637, 638, 639, 640, 641, 642, 643, 644, 645, 646, 647, 648, 649, 650, 651, 652, 653, 654, 655, 656, 657, 658, 659, 660, 661, 662, 663, 664, 665, 666, 667, 668, 669, 670, 671, 672, 673, 674, 675, 676, 677, 678, 679, 680, 681, 682, 683, 684, 685, 686, 687, 688, 689, 690, 691, 692, 693, 694, 695, 696, 697, 698, 699, 700, 701, 702, 703, 704, 705, 706, 707, 708, 709, 710, 711, 712, 713, 714, 715, 716, 717, 718, 719, 720, 721, 722, 723, 724, 725, 726, 727, 728, 729, 730, 731, 732, 733, 734, 735, 736, 737, 738, 739, 740, 741, 742, 743, 744, 745, 746, 747, 748, 749, 750, 751, 752, 753, 754, 755, 756, 757, 758, 759, 760, 761, 762, 763, 764, 765, 766, 767, 768, 769, 770, 771, 772, 773, 774, 775, 776, 777, 778, 779, 780, 781, 782, 783, 784, 785, 786, 787, 788, 789, 790, 791, 792, 793, 794, 795, 796, 797, 798, 799, 800, 801, 802, 803, 804, 805, 806, 807, 808, 809, 810, 811, 812, 813, 814, 815, 816, 817, 818, 819, 820, 821, 822, 823, 824, 825, 826, 827, 828, 829, 830, 831, 832, 833, 834, 835, 836, 837, 838, 839, 840, 841, 842, 843, 844, 845, 846, 847, 848, 849, 850, 851, 852, 853, 854, 855, 856, 857, 858, 859, 860, 861, 862, 863, 864, 865, 866, 867, 868, 869, 870, 871, 872],
      "AcquisitionTime": ["153507.225000", "153507.685000", "153508.145000", "153508.605000", "153509.065000", "153509.525000", "153509.985000", "153510.445000", "153510.905000", "153511.365000", "153511.825000", "153512.285000", "153512.745000", "153513.205000", "153513.665000", "153514.125000", "153514.585000", "153515.045000", "153515.505000", "153515.965000", "153516.425000", "153516.885000", "153517.345000", "153517.805000", "153518.265000", "153518.725000", "153519.185000", "153519.645000", "153520.105000", "153520.565000", "153521.025000", "153521.485000", "153521.945000", "153522.405000", "153522.865000", "153523.325000", "153523.785000", "153524.245000", "153524.705000", "153525.165000", "153525.625000", "153526.085000", "153526.545000", "153527.005000", "153527.465000", "153527.925000", "153528.385000", "153528.845000", "153529.305000", "153529.765000", "153530.225000", "153530.685000", "153531.145000", "153531.605000", "153532.065000", "153532.525000", "153532.985000", "153533.445000", "153533.905000", "153534.365000", "153534.825000", "153535.285000", "153535.745000", "153536.205000", "153536.665000", "153537.125000", "153537.585000", "153538.045000", "153538.505000", "153538.965000", "153539.425000", "153539.885000", "153540.345000", "153540.805000", "153541.265000", "153541.725000", "153542.185000", "153542.645000", "153543.105000", "153543.565000", "153544.025000", "153544.485000", "153544.945000", "153545.405000", "153545.865000", "153546.325000", "153546.785000", "153547.245000", "153547.705000", "153548.165000", "153548.625000", "153549.085000", "153549.545000", "153550.005000", "153550.465000", "153550.925000", "153551.385000", "153551.845000", "153552.305000", "153552.765000", "153553.225000", "153553.685000", "153554.145000", "153554.605000", "153555.065000", "153555.525000", "153555.985000", "153556.445000", "153556.905000", "153557.365000", "153557.825000", "153558.285000", "153558.745000", "153559.205000", "153559.665000", "153600.125000", "153600.585000", "153601.045000", "153601.505000", "153601.965000", "153602.425000", "153602.885000", "153603.345000", "153603.805000", "153604.265000", "153604.725000", "153605.185000", "153605.645000", "153606.105000", "153606.565000", "153607.025000", "153607.485000", "153607.945000", "153608.405000", "153608.865000", "153609.325000", "153609.785000", "153610.245000", "153610.705000", "153611.165000", "153611.625000", "153612.085000", "153612.545000", "153613.005000", "153613.465000", "153613.925000", "153614.385000", "153614.845000", "153615.305000", "153615.765000", "153616.225000", "153616.685000", "153617.145000", "153617.605000", "153618.065000", "153618.525000", "153618.985000", "153619.445000", "153619.905000", "153620.365000", "153620.825000", "153621.285000", "153621.745000", "153622.205000", "153622.665000", "153623.125000", "153623.585000", "153624.045000", "153624.505000", "153624.965000", "153625.425000", "153625.885000", "153626.345000", "153626.805000", "153627.265000", "153627.725000", "153628.185000", "153628.645000", "153629.105000", "153629.565000", "153630.025000", "153630.485000", "153630.945000", "153631.405000", "153631.865000", "153632.325000", "153632.785000", "153633.245000", "153633.705000", "153634.165000", "153634.625000", "153635.085000", "153635.545000", "153636.005000", "153636.465000", "153636.925000", "153637.385000", "153637.845000", "153638.305000", "153638.765000", "153639.225000", "153639.685000", "153640.145000", "153640.605000", "153641.065000", "153641.525000", "153641.985000", "153642.445000", "153642.905000", "153643.365000", "153643.825000", "153644.285000", "153644.745000", "153645.205000", "153645.665000", "153646.125000", "153646.585000", "153647.045000", "153647.505000", "153647.965000", "153648.425000", "153648.885000", "153649.345000", "153649.805000", "153650.265000", "153650.725000", "153651.185000", "153651.645000", "153652.105000", "153652.565000", "153653.025000", "153653.485000", "153653.945000", "153654.405000", "153654.865000", "153655.325000", "153655.785000", "153656.245000", "153656.705000", "153657.165000", "153657.625000", "153658.085000", "153658.545000", "153659.005000", "153659.465000", "153659.925000", "153700.385000", "153700.845000", "153701.305000", "153701.765000", "153702.225000", "153702.685000", "153703.145000", "153703.605000", "153704.065000", "153704.525000", "153704.985000", "153705.445000", "153705.905000", "153706.365000", "153706.825000", "153707.285000", "153707.745000", "153708.205000", "153708.665000", "153709.125000", "153709.585000", "153710.045000", "153710.505000", "153710.965000", "153711.425000", "153711.885000", "153712.345000", "153712.805000", "153713.265000", "153713.725000", "153714.185000", "153714.645000", "153715.105000", "153715.565000", "153716.025000", "153716.485000", "153716.945000", "153717.405000", "153717.865000", "153718.325000", "153718.785000", "153719.245000", "153719.705000", "153720.165000", "153720.625000", "153721.085000", "153721.545000", "153722.005000", "153722.465000", "153722.925000", "153723.385000", "153723.845000", "153724.305000", "153724.765000", "153725.225000", "153725.685000", "153726.145000", "153726.605000", "153727.065000", "153727.525000", "153727.985000", "153728.445000", "153728.905000", "153729.365000", "153729.825000", "153730.285000", "153730.745000", "153731.205000", "153731.665000", "153732.125000", "153732.585000", "153733.045000", "153733.505000", "153733.965000", "153734.425000", "153734.885000", "153735.345000", "153735.805000", "153736.265000", "153736.725000", "153737.185000", "153737.645000", "153738.105000", "153738.565000", "153739.025000", "153739.485000", "153739.945000", "153740.405000", "153740.865000", "153741.325000", "153741.785000", "153742.245000", "153742.705000", "153743.165000", "153743.625000", "153744.085000", "153744.545000", "153745.005000", "153745.465000", "153745.925000", "153746.385000", "153746.845000", "153747.305000", "153747.765000", "153748.225000", "153748.685000", "153749.145000", "153749.605000", "153750.065000", "153750.525000", "153750.985000", "153751.445000", "153751.905000", "153752.365000", "153752.825000", "153753.285000", "153753.745000", "153754.205000", "153754.665000", "153755.125000", "153755.585000", "153756.045000", "153756.505000", "153756.965000", "153757.425000", "153757.885000", "153758.345000", "153758.805000", "153759.265000", "153759.725000", "153800.185000", "153800.645000", "153801.105000", "153801.565000", "153802.025000", "153802.485000", "153802.945000", "153803.405000", "153803.865000", "153804.325000", "153804.785000", "153805.245000", "153805.705000", "153806.165000", "153806.625000", "153807.085000", "153807.545000", "153808.005000", "153808.465000", "153808.925000", "153809.385000", "153809.845000", "153810.305000", "153810.765000", "153811.225000", "153811.685000", "153812.145000", "153812.605000", "153813.065000", "153813.525000", "153813.985000", "153814.445000", "153814.905000", "153815.365000", "153815.825000", "153816.285000", "153816.745000", "153817.205000", "153817.665000", "153818.125000", "153818.585000", "153819.045000", "153819.505000", "153819.965000", "153820.425000", "153820.885000", "153821.345000", "153821.805000", "153822.265000", "153822.725000", "153823.185000", "153823.645000", "153824.105000", "153824.565000", "153825.025000", "153825.485000", "153825.945000", "153826.405000", "153826.865000", "153827.325000", "153827.785000", "153828.245000", "153828.705000", "153829.165000", "153829.625000", "153830.085000", "153830.545000", "153831.005000", "153831.465000", "153831.925000", "153832.385000", "153832.845000", "153833.305000", "153833.765000", "153834.225000", "153834.685000", "153835.145000", "153835.605000", "153836.065000", "153836.525000", "153836.985000", "153837.445000", "153837.905000", "153838.365000", "153838.825000", "153839.285000", "153839.745000", "153840.205000", "153840.665000", "153841.125000", "153841.585000", "153842.045000", "153842.505000", "153842.965000", "153843.425000", "153843.885000", "153844.345000", "153844.805000", "153845.265000", "153845.725000", "153846.185000", "153846.645000", "153847.105000", "153847.565000", "153848.025000", "153848.485000", "153848.945000", "153849.405000", "153849.865000", "153850.325000", "153850.785000", "153851.245000", "153851.705000", "153852.165000", "153852.625000", "153853.085000", "153853.545000", "153854.005000", "153854.465000", "153854.925000", "153855.385000", "153855.845000", "153856.305000", "153856.765000", "153857.225000", "153857.685000", "153858.145000", "153858.605000", "153859.065000", "153859.525000", "153859.985000", "153900.445000", "153900.905000", "153901.365000", "153901.825000", "153902.285000", "153902.745000", "153903.205000", "153903.665000", "153904.125000", "153904.585000", "153905.045000", "153905.505000", "153905.965000", "153906.425000", "153906.885000", "153907.345000", "153907.805000", "153908.265000", "153908.725000", "153909.185000", "153909.645000", "153910.105000", "153910.565000", "153911.025000", "153911.485000", "153911.945000", "153912.405000", "153912.865000", "153913.325000", "153913.785000", "153914.245000", "153914.705000", "153915.165000", "153915.625000", "153916.085000", "153916.545000", "153917.005000", "153917.465000", "153917.925000", "153918.385000", "153918.845000", "153919.305000", "153919.765000", "153920.225000", "153920.685000", "153921.145000", "153921.605000", "153922.065000", "153922.525000", "153922.985000", "153923.445000", "153923.905000", "153924.365000", "153924.825000", "153925.285000", "153925.745000", "153926.205000", "153926.665000", "153927.125000", "153927.585000", "153928.045000", "153928.505000", "153928.965000", "153929.425000", "153929.885000", "153930.345000", "153930.805000", "153931.265000", "153931.725000", "153932.185000", "153932.645000", "153933.105000", "153933.565000", "153934.025000", "153934.485000", "153934.945000", "153935.405000", "153935.865000", "153936.325000", "153936.785000", "153937.245000", "153937.705000", "153938.165000", "153938.625000", "153939.085000", "153939.545000", "153940.005000", "153940.465000", "153940.925000", "153941.385000", "153941.845000", "153942.305000", "153942.765000", "153943.225000", "153943.685000", "153944.145000", "153944.605000", "153945.065000", "153945.525000", "153945.985000", "153946.445000", "153946.905000", "153947.365000", "153947.825000", "153948.285000", "153948.745000", "153949.205000", "153949.665000", "153950.125000", "153950.585000", "153951.045000", "153951.505000", "153951.965000", "153952.425000", "153952.885000", "153953.345000", "153953.805000", "153954.265000", "153954.725000", "153955.185000", "153955.645000", "153956.105000", "153956.565000", "153957.025000", "153957.485000", "153957.945000", "153958.405000", "153958.865000", "153959.325000", "153959.785000", "154000.245000", "154000.705000", "154001.165000", "154001.625000", "154002.085000", "154002.545000", "154003.005000", "154003.465000", "154003.925000", "154004.385000", "154004.845000", "154005.305000", "154005.765000", "154006.225000", "154006.685000", "154007.145000", "154007.605000", "154008.065000", "154008.525000", "154008.985000", "154009.445000", "154009.905000", "154010.365000", "154010.825000", "154011.285000", "154011.745000", "154012.205000", "154012.665000", "154013.125000", "154013.585000", "154014.045000", "154014.505000", "154014.965000", "154015.425000", "154015.885000", "154016.345000", "154016.805000", "154017.265000", "154017.725000", "154018.185000", "154018.645000", "154019.105000", "154019.565000", "154020.025000", "154020.485000", "154020.945000", "154021.405000", "154021.865000", "154022.325000", "154022.785000", "154023.245000", "154023.705000", "154024.165000", "154024.625000", "154025.085000", "154025.545000", "154026.005000", "154026.465000", "154026.925000", "154027.385000", "154027.845000", "154028.305000", "154028.765000", "154029.225000", "154029.685000", "154030.145000", "154030.605000", "154031.065000", "154031.525000", "154031.985000", "154032.445000", "154032.905000", "154033.365000", "154033.825000", "154034.285000", "154034.745000", "154035.205000", "154035.665000", "154036.125000", "154036.585000", "154037.045000", "154037.505000", "154037.965000", "154038.425000", "154038.885000", "154039.345000", "154039.805000", "154040.265000", "154040.725000", "154041.185000", "154041.645000", "154042.105000", "154042.565000", "154043.025000", "154043.485000", "154043.945000", "154044.405000", "154044.865000", "154045.325000", "154045.785000", "154046.245000", "154046.705000", "154047.165000", "154047.625000", "154048.085000", "154048.545000", "154049.005000", "154049.465000", "154049.925000", "154050.385000", "154050.845000", "154051.305000", "154051.765000", "154052.225000", "154052.685000", "154053.145000", "154053.605000", "154054.065000", "154054.525000", "154054.985000", "154055.445000", "154055.905000", "154056.365000", "154056.825000", "154057.285000", "154057.745000", "154058.205000", "154058.665000", "154059.125000", "154059.585000", "154100.045000", "154100.505000", "154100.965000", "154101.425000", "154101.885000", "154102.345000", "154102.805000", "154103.265000", "154103.725000", "154104.185000", "154104.645000", "154105.105000", "154105.565000", "154106.025000", "154106.485000", "154106.945000", "154107.405000", "154107.865000", "154108.325000", "154108.785000", "154109.245000", "154109.705000", "154110.165000", "154110.625000", "154111.085000", "154111.545000", "154112.005000", "154112.465000", "154112.925000", "154113.385000", "154113.845000", "154114.305000", "154114.765000", "154115.225000", "154115.685000", "154116.145000", "154116.605000", "154117.065000", "154117.525000", "154117.985000", "154118.445000", "154118.905000", "154119.365000", "154119.825000", "154120.285000", "154120.745000", "154121.205000", "154121.665000", "154122.125000", "154122.585000", "154123.045000", "154123.505000", "154123.965000", "154124.425000", "154124.885000", "154125.345000", "154125.805000", "154126.265000", "154126.725000", "154127.185000", "154127.645000", "154128.105000", "154128.565000", "154129.025000", "154129.485000", "154129.945000", "154130.405000", "154130.865000", "154131.325000", "154131.785000", "154132.245000", "154132.705000", "154133.165000", "154133.625000", "154134.085000", "154134.545000", "154135.005000", "154135.465000", "154135.925000", "154136.385000", "154136.845000", "154137.305000", "154137.765000", "154138.225000", "154138.685000", "154139.145000", "154139.605000", "154140.065000", "154140.525000", "154140.985000", "154141.445000", "154141.905000", "154142.365000", "154142.825000", "154143.285000", "154143.745000", "154144.205000", "154144.665000", "154145.125000", "154145.585000", "154146.045000", "154146.505000", "154146.965000", "154147.425000", "154147.885000"],
