{
  "AcquisitionMatrixPE": 82,
  "AcquisitionNumber": 1,
  "AcquisitionTime": "16:06:51.310000",
  "BandwidthPerPixelPhaseEncode": 24.888,
  "BaseResolution": 82,
  "BodyPartExamined": "BRAIN",
  "ConsistencyInfo": "N4_VE11C_LATEST_20160120",
  "ConversionSoftware": "dcm2niix",
  "ConversionSoftwareVersion": "v1.0.20201102",
  "DerivedVendorReportedEchoSpacing": 0.00049,
  "DeviceSerialNumber": "66112",
  "DwellTime": 2e-06,
  "EchoTime": 0.0272,
  "EchoTrainLength": 82,
  "EffectiveEchoSpacing": 0.00049,
  "FlipAngle": 44,
  "ImageComments": "Unaliased MB8/PE3",
  "ImageOrientationPatientDICOM": [0.998777, -0.0216829, 0.0444317, 0.0203981, 0.999366, 0.0291688],
  "ImageType": [
    "ORIGINAL",
    "PRIMARY",
    "FMRI",
    "NONE",
    "MB",
    "ND",
    "NORM",
    "MOSAIC"
],
  "ImagingFrequency": 123.252,
  "InPlanePhaseEncodingDirectionDICOM": "COL",
  "InstitutionAddress": "Maynard 3,Hanover,NH,US,03755",
  "InstitutionName": "Dartmouth College - PBS",
  "InstitutionalDepartmentName": "Department",
  "MRAcquisitionType": "2D",
  "MagneticFieldStrength": 3,
  "Manufacturer": "Siemens",
  "ManufacturersModelName": "Prisma",
  "Modality": "MR",
  "MultibandAccelerationFactor": 8,
  "PartialFourier": 1,
  "PatientPosition": "HFS",
  "PercentPhaseFOV": 100,
  "PercentSampling": 100,
  "PhaseEncodingDirection": "j-",
  "PhaseEncodingSteps": 82,
  "PhaseResolution": 1,
  "PixelBandwidth": 3050,
  "ProcedureStepDescription": "Wager_Wager^1076_spacetop",
  "ProtocolName": "func_run-03_task-social_acq-ap-mb8",
  "PulseSequenceDetails": "%CustomerSeq%\\cmrr_mbep2d_bold",
  "ReceiveCoilActiveElements": "HEA;HEP",
  "ReceiveCoilName": "Head_32",
  "ReconMatrixPE": 82,
  "RepetitionTime": 0.46,
  "SAR": 0.0786328,
  "ScanOptions": "FS",
  "ScanningSequence": "EP",
  "SequenceName": "epfid2d1_82",
  "SequenceVariant": "SK\\SS",
  "SeriesDescription": "func_run-03_task-social_acq-ap-mb8",
  "SeriesNumber": 32,
  "ShimSetting": [4176, -7767, -7262, 597, -31, -289, 98, 58],
  "SliceThickness": 2.7,
  "SliceTiming": [0, 0.2525, 0.065, 0.315, 0.1275, 0.3775, 0.19, 0, 0.2525, 0.065, 0.315, 0.1275, 0.3775, 0.19, 0, 0.2525, 0.065, 0.315, 0.1275, 0.3775, 0.19, 0, 0.2525, 0.065, 0.315, 0.1275, 0.3775, 0.19, 0, 0.2525, 0.065, 0.315, 0.1275, 0.3775, 0.19, 0, 0.2525, 0.065, 0.315, 0.1275, 0.3775, 0.19, 0, 0.2525, 0.065, 0.315, 0.1275, 0.3775, 0.19, 0, 0.2525, 0.065, 0.315, 0.1275, 0.3775, 0.19],
  "SoftwareVersions": "syngo MR E11",
  "SpacingBetweenSlices": 2.7,
  "StationName": "AWP66112",
  "TaskName": "social",
  "TotalReadoutTime": 0.03969,
  "TxRefAmp": 232.597,
  "WipMemBlock": "fbae1ff7-922f-44e9-b9a5-296c9a2cf45a||Sequence: R016 ve11c/master r/e634e98; Dec 19 2017 11:00:25 by eja",
  "dcmmeta_affine": [
    [-2.6796460151672363, 0.054726701229810715, 0.1215972825884819, 103.49249267578125],
    [0.058173768222332, 2.6812267303466797, 0.07621243596076965, -95.73274993896484],
    [0.11920705437660217, -0.07825782150030136, 2.696183443069458, -68.0063247680664],
    [0.0, 0.0, 0.0, 1.0]
],
  "dcmmeta_reorient_transform": [
    [0.0, -1.0, 0.0, 81.0],
    [1.0, 0.0, 0.0, 0.0],
    [0.0, 0.0, 1.0, 0.0],
    [0.0, 0.0, 0.0, 1.0]
],
  "dcmmeta_shape": [82, 82, 56, 872],
  "dcmmeta_slice_dim": 2,
  "dcmmeta_version": 0.6,
  "global": {
    "const": {
      "AccessionNumber": "A003572",
      "AcquisitionMatrix": [82, 0, 0, 82],
      "AngioFlag": "N",
      "BitsAllocated": 16,
      "BitsStored": 12,
      "BodyPartExamined": "BRAIN",
      "Columns": 656,
      "EchoNumbers": 1,
      "EchoTime": 27.2,
      "EchoTrainLength": 82,
      "FlipAngle": 44.0,
      "HighBit": 11,
      "ImageOrientationPatient": [0.99877708822287, -0.0216829495737, 0.04443171996257, 0.02039813424798, 0.99936634717945, 0.02916882315758],
      "ImagePositionPatient": [-892.69029915823, -874.26286056284, -131.01762499775],
      "ImageType": [
        "ORIGINAL",
        "PRIMARY",
        "FMRI",
        "NONE",
        "MB",
        "ND",
        "NORM",
        "MOSAIC"
],
      "ImagedNucleus": "1H",
      "ImagingFrequency": 123.252175,
      "InPlanePhaseEncodingDirection": "COL",
      "MRAcquisitionType": "2D",
      "MagneticFieldStrength": 3.0,
      "Manufacturer": "SIEMENS",
      "ManufacturerModelName": "Prisma",
      "Modality": "MR",
      "NumberOfAverages": 1.0,
      "NumberOfPhaseEncodingSteps": 82,
      "PercentPhaseFieldOfView": 100.0,
      "PercentSampling": 100.0,
      "PerformedProcedureStepStartTime": "143317.754000",
      "PhotometricInterpretation": "MONOCHROME2",
      "PixelBandwidth": 3050.0,
      "PixelRepresentation": 0,
      "PixelSpacing": [2.6829268932343, 2.6829268932343],
      "ProtocolName": "func_run-03_task-social_acq-ap-mb8",
      "RepetitionTime": 460.0,
      "Rows": 656,
      "SAR": 0.07863278752996,
      "SamplesPerPixel": 1,
      "ScanOptions": "FS",
      "ScanningSequence": "EP",
      "SequenceName": "epfid2d1_82",
      "SequenceVariant": [
        "SK",
        "SS"
],
      "SeriesDescription": "func_run-03_task-social_acq-ap-mb8",
      "SeriesNumber": 32,
      "SeriesTime": "160655.055000",
      "SliceLocation": -65.951535694998,
      "SliceThickness": 2.7000000476837,
      "SmallestImagePixelValue": 0,
      "SoftwareVersions": "syngo MR E11",
      "SpacingBetweenSlices": 2.6999999439385,
      "SpecificCharacterSet": "ISO_IR 100",
      "StudyID": "1",
      "StudyTime": "143317.656000",
      "TransmitCoilName": "Body",
      "VariableFlipAngleFlag": "N",
      "WindowCenterWidthExplanation": "Algo1",
      "dBdt": 0.0},
    "slices": {}
  },
  "time": {
    "samples": {
      "AcquisitionNumber": [1, 2, 3, 4, 5, 6, 7, 8, 9, 10, 11, 12, 13, 14, 15, 16, 17, 18, 19, 20, 21, 22, 23, 24, 25, 26, 27, 28, 29, 30, 31, 32, 33, 34, 35, 36, 37, 38, 39, 40, 41, 42, 43, 44, 45, 46, 47, 48, 49, 50, 51, 52, 53, 54, 55, 56, 57, 58, 59, 60, 61, 62, 63, 64, 65, 66, 67, 68, 69, 70, 71, 72, 73, 74, 75, 76, 77, 78, 79, 80, 81, 82, 83, 84, 85, 86, 87, 88, 89, 90, 91, 92, 93, 94, 95, 96, 97, 98, 99, 100, 101, 102, 103, 104, 105, 106, 107, 108, 109, 110, 111, 112, 113, 114, 115, 116, 117, 118, 119, 120, 121, 122, 123, 124, 125, 126, 127, 128, 129, 130, 131, 132, 133, 134, 135, 136, 137, 138, 139, 140, 141, 142, 143, 144, 145, 146, 147, 148, 149, 150, 151, 152, 153, 154, 155, 156, 157, 158, 159, 160, 161, 162, 163, 164, 165, 166, 167, 168, 169, 170, 171, 172, 173, 174, 175, 176, 177, 178, 179, 180, 181, 182, 183, 184, 185, 186, 187, 188, 189, 190, 191, 192, 193, 194, 195, 196, 197, 198, 199, 200, 201, 202, 203, 204, 205, 206, 207, 208, 209, 210, 211, 212, 213, 214, 215, 216, 217, 218, 219, 220, 221, 222, 223, 224, 225, 226, 227, 228, 229, 230, 231, 232, 233, 234, 235, 236, 237, 238, 239, 240, 241, 242, 243, 244, 245, 246, 247, 248, 249, 250, 251, 252, 253, 254, 255, 256, 257, 258, 259, 260, 261, 262, 263, 264, 265, 266, 267, 268, 269, 270, 271, 272, 273, 274, 275, 276, 277, 278, 279, 280, 281, 282, 283, 284, 285, 286, 287, 288, 289, 290, 291, 292, 293, 294, 295, 296, 297, 298, 299, 300, 301, 302, 303, 304, 305, 306, 307, 308, 309, 310, 311, 312, 313, 314, 315, 316, 317, 318, 319, 320, 321, 322, 323, 324, 325, 326, 327, 328, 329, 330, 331, 332, 333, 334, 335, 336, 337, 338, 339, 340, 341, 342, 343, 344, 345, 346, 347, 348, 349, 350, 351, 352, 353, 354, 355, 356, 357, 358, 359, 360, 361, 362, 363, 364, 365, 366, 367, 368, 369, 370, 371, 372, 373, 374, 375, 376, 377, 378, 379, 380, 381, 382, 383, 384, 385, 386, 387, 388, 389, 390, 391, 392, 393, 394, 395, 396, 397, 398, 399, 400, 401, 402, 403, 404, 405, 406, 407, 408, 409, 410, 411, 412, 413, 414, 415, 416, 417, 418, 419, 420, 421, 422, 423, 424, 425, 426, 427, 428, 429, 430, 431, 432, 433, 434, 435, 436, 437, 438, 439, 440, 441, 442, 443, 444, 445, 446, 447, 448, 449, 450, 451, 452, 453, 454, 455, 456, 457, 458, 459, 460, 461, 462, 463, 464, 465, 466, 467, 468, 469, 470, 471, 472, 473, 474, 475, 476, 477, 478, 479, 480, 481, 482, 483, 484, 485, 486, 487, 488, 489, 490, 491, 492, 493, 494, 495, 496, 497, 498, 499, 500, 501, 502, 503, 504, 505, 506, 507, 508, 509, 510, 511, 512, 513, 514, 515, 516, 517, 518, 519, 520, 521, 522, 523, 524, 525, 526, 527, 528, 529, 530, 531, 532, 533, 534, 535, 536, 537, 538, 539, 540, 541, 542, 543, 544, 545, 546, 547, 548, 549, 550, 551, 552, 553, 554, 555, 556, 557, 558, 559, 560, 561, 562, 563, 564, 565, 566, 567, 568, 569, 570, 571, 572, 573, 574, 575, 576, 577, 578, 579, 580, 581, 582, 583, 584, 585, 586, 587, 588, 589, 590, 591, 592, 593, 594, 595, 596, 597, 598, 599, 600, 601, 602, 603, 604, 605, 606, 607, 608, 609, 610, 611, 612, 613, 614, 615, 616, 617, 618, 619, 620, 621, 622, 623, 624, 625, 626, 627, 628, 629, 630, 631, 632, 633, 634, 635, 636, 637, 638, 639, 640, 641, 642, 643, 644, 645, 646, 647, 648, 649, 650, 651, 652, 653, 654, 655, 656, 657, 658, 659, 660, 661, 662, 663, 664, 665, 666, 667, 668, 669, 670, 671, 672, 673, 674, 675, 676, 677, 678, 679, 680, 681, 682, 683, 684, 685, 686, 687, 688, 689, 690, 691, 692, 693, 694, 695, 696, 697, 698, 699, 700, 701, 702, 703, 704, 705, 706, 707, 708, 709, 710, 711, 712, 713, 714, 715, 716, 717, 718, 719, 720, 721, 722, 723, 724, 725, 726, 727, 728, 729, 730, 731, 732, 733, 734, 735, 736, 737, 738, 739, 740, 741, 742, 743, 744, 745, 746, 747, 748, 749, 750, 751, 752, 753, 754, 755, 756, 757, 758, 759, 760, 761, 762, 763, 764, 765, 766, 767, 768, 769, 770, 771, 772, 773, 774, 775, 776, 777, 778, 779, 780, 781, 782, 783, 784, 785, 786, 787, 788, 789, 790, 791, 792, 793, 794, 795, 796, 797, 798, 799, 800, 801, 802, 803, 804, 805, 806, 807, 808, 809, 810, 811, 812, 813, 814, 815, 816, 817, 818, 819, 820, 821, 822, 823, 824, 825, 826, 827, 828, 829, 830, 831, 832, 833, 834, 835, 836, 837, 838, 839, 840, 841, 842, 843, 844, 845, 846, 847, 848, 849, 850, 851, 852, 853, 854, 855, 856, 857, 858, 859, 860, 861, 862, 863, 864, 865, 866, 867, 868, 869, 870, 871, 872],
      "AcquisitionTime": ["160651.310000", "160651.770000", "160652.230000", "160652.690000", "160653.150000", "160653.610000", "160654.070000", "160654.530000", "160654.990000", "160655.450000", "160655.910000", "160656.370000", "160656.830000", "160657.290000", "160657.750000", "160658.210000", "160658.670000", "160659.130000", "160659.590000", "160700.050000", "160700.510000", "160700.970000", "160701.430000", "160701.890000", "160702.350000", "160702.810000", "160703.270000", "160703.730000", "160704.190000", "160704.650000", "160705.110000", "160705.570000", "160706.030000", "160706.490000", "160706.950000", "160707.410000", "160707.870000", "160708.330000", "160708.790000", "160709.250000", "160709.710000", "160710.170000", "160710.630000", "160711.090000", "160711.550000", "160712.010000", "160712.470000", "160712.930000", "160713.390000", "160713.850000", "160714.310000", "160714.770000", "160715.230000", "160715.690000", "160716.150000", "160716.610000", "160717.070000", "160717.530000", "160717.990000", "160718.450000", "160718.910000", "160719.370000", "160719.830000", "160720.290000", "160720.750000", "160721.210000", "160721.670000", "160722.130000", "160722.590000", "160723.050000", "160723.510000", "160723.970000", "160724.430000", "160724.890000", "160725.350000", "160725.810000", "160726.270000", "160726.730000", "160727.190000", "160727.650000", "160728.110000", "160728.570000", "160729.030000", "160729.490000", "160729.950000", "160730.410000", "160730.870000", "160731.330000", "160731.790000", "160732.250000", "160732.710000", "160733.170000", "160733.630000", "160734.090000", "160734.550000", "160735.010000", "160735.470000", "160735.930000", "160736.390000", "160736.850000", "160737.310000", "160737.770000", "160738.230000", "160738.690000", "160739.150000", "160739.610000", "160740.070000", "160740.530000", "160740.990000", "160741.450000", "160741.910000", "160742.370000", "160742.830000", "160743.290000", "160743.750000", "160744.210000", "160744.670000", "160745.130000", "160745.590000", "160746.050000", "160746.510000", "160746.970000", "160747.430000", "160747.890000", "160748.350000", "160748.810000", "160749.270000", "160749.730000", "160750.190000", "160750.650000", "160751.110000", "160751.570000", "160752.030000", "160752.490000", "160752.950000", "160753.410000", "160753.870000", "160754.330000", "160754.790000", "160755.250000", "160755.710000", "160756.170000", "160756.630000", "160757.090000", "160757.550000", "160758.010000", "160758.470000", "160758.930000", "160759.390000", "160759.850000", "160800.310000", "160800.770000", "160801.230000", "160801.690000", "160802.150000", "160802.610000", "160803.070000", "160803.530000", "160803.990000", "160804.450000", "160804.910000", "160805.370000", "160805.830000", "160806.290000", "160806.750000", "160807.210000", "160807.670000", "160808.130000", "160808.590000", "160809.050000", "160809.510000", "160809.970000", "160810.430000", "160810.890000", "160811.350000", "160811.810000", "160812.270000", "160812.730000", "160813.190000", "160813.650000", "160814.110000", "160814.570000", "160815.030000", "160815.490000", "160815.950000", "160816.410000", "160816.870000", "160817.330000", "160817.790000", "160818.250000", "160818.710000", "160819.170000", "160819.630000", "160820.090000", "160820.550000", "160821.010000", "160821.470000", "160821.930000", "160822.390000", "160822.850000", "160823.310000", "160823.770000", "160824.230000", "160824.690000", "160825.150000", "160825.610000", "160826.070000", "160826.530000", "160826.990000", "160827.450000", "160827.910000", "160828.370000", "160828.830000", "160829.290000", "160829.750000", "160830.210000", "160830.670000", "160831.130000", "160831.590000", "160832.050000", "160832.510000", "160832.970000", "160833.430000", "160833.890000", "160834.350000", "160834.810000", "160835.270000", "160835.730000", "160836.190000", "160836.650000", "160837.110000", "160837.570000", "160838.030000", "160838.490000", "160838.950000", "160839.410000", "160839.870000", "160840.330000", "160840.790000", "160841.250000", "160841.710000", "160842.170000", "160842.630000", "160843.090000", "160843.550000", "160844.010000", "160844.470000", "160844.930000", "160845.390000", "160845.850000", "160846.310000", "160846.770000", "160847.230000", "160847.690000", "160848.150000", "160848.610000", "160849.070000", "160849.530000", "160849.990000", "160850.450000", "160850.910000", "160851.370000", "160851.830000", "160852.290000", "160852.750000", "160853.210000", "160853.670000", "160854.130000", "160854.590000", "160855.050000", "160855.510000", "160855.970000", "160856.430000", "160856.890000", "160857.350000", "160857.810000", "160858.270000", "160858.730000", "160859.190000", "160859.650000", "160900.110000", "160900.570000", "160901.030000", "160901.490000", "160901.950000", "160902.410000", "160902.870000", "160903.330000", "160903.790000", "160904.250000", "160904.710000", "160905.170000", "160905.630000", "160906.090000", "160906.550000", "160907.010000", "160907.470000", "160907.930000", "160908.390000", "160908.850000", "160909.310000", "160909.770000", "160910.230000", "160910.690000", "160911.150000", "160911.610000", "160912.070000", "160912.530000", "160912.990000", "160913.450000", "160913.910000", "160914.370000", "160914.830000", "160915.290000", "160915.750000", "160916.210000", "160916.670000", "160917.130000", "160917.590000", "160918.050000", "160918.510000", "160918.970000", "160919.430000", "160919.890000", "160920.350000", "160920.810000", "160921.270000", "160921.730000", "160922.190000", "160922.650000", "160923.110000", "160923.570000", "160924.030000", "160924.490000", "160924.950000", "160925.410000", "160925.870000", "160926.330000", "160926.790000", "160927.250000", "160927.710000", "160928.170000", "160928.630000", "160929.090000", "160929.550000", "160930.010000", "160930.470000", "160930.930000", "160931.390000", "160931.850000", "160932.310000", "160932.770000", "160933.230000", "160933.690000", "160934.150000", "160934.610000", "160935.070000", "160935.530000", "160935.990000", "160936.450000", "160936.910000", "160937.370000", "160937.830000", "160938.290000", "160938.750000", "160939.210000", "160939.670000", "160940.130000", "160940.590000", "160941.050000", "160941.510000", "160941.970000", "160942.430000", "160942.890000", "160943.350000", "160943.810000", "160944.270000", "160944.730000", "160945.190000", "160945.650000", "160946.110000", "160946.570000", "160947.030000", "160947.490000", "160947.950000", "160948.410000", "160948.870000", "160949.330000", "160949.790000", "160950.250000", "160950.710000", "160951.170000", "160951.630000", "160952.090000", "160952.550000", "160953.010000", "160953.470000", "160953.930000", "160954.390000", "160954.850000", "160955.310000", "160955.770000", "160956.230000", "160956.690000", "160957.150000", "160957.610000", "160958.070000", "160958.530000", "160958.990000", "160959.450000", "160959.910000", "161000.370000", "161000.830000", "161001.290000", "161001.750000", "161002.210000", "161002.670000", "161003.130000", "161003.590000", "161004.050000", "161004.510000", "161004.970000", "161005.430000", "161005.890000", "161006.350000", "161006.810000", "161007.270000", "161007.730000", "161008.190000", "161008.650000", "161009.110000", "161009.570000", "161010.030000", "161010.490000", "161010.950000", "161011.410000", "161011.870000", "161012.330000", "161012.790000", "161013.250000", "161013.710000", "161014.170000", "161014.630000", "161015.090000", "161015.550000", "161016.010000", "161016.470000", "161016.930000", "161017.390000", "161017.850000", "161018.310000", "161018.770000", "161019.230000", "161019.690000", "161020.150000", "161020.610000", "161021.070000", "161021.530000", "161021.990000", "161022.450000", "161022.910000", "161023.370000", "161023.830000", "161024.290000", "161024.750000", "161025.210000", "161025.670000", "161026.130000", "161026.590000", "161027.050000", "161027.510000", "161027.970000", "161028.430000", "161028.890000", "161029.350000", "161029.810000", "161030.270000", "161030.730000", "161031.190000", "161031.650000", "161032.110000", "161032.570000", "161033.030000", "161033.490000", "161033.950000", "161034.410000", "161034.870000", "161035.330000", "161035.790000", "161036.250000", "161036.710000", "161037.170000", "161037.630000", "161038.090000", "161038.550000", "161039.010000", "161039.470000", "161039.930000", "161040.390000", "161040.850000", "161041.310000", "161041.770000", "161042.230000", "161042.690000", "161043.150000", "161043.610000", "161044.070000", "161044.530000", "161044.990000", "161045.450000", "161045.910000", "161046.370000", "161046.830000", "161047.290000", "161047.750000", "161048.210000", "161048.670000", "161049.130000", "161049.590000", "161050.050000", "161050.510000", "161050.970000", "161051.430000", "161051.890000", "161052.350000", "161052.810000", "161053.270000", "161053.730000", "161054.190000", "161054.650000", "161055.110000", "161055.570000", "161056.030000", "161056.490000", "161056.950000", "161057.410000", "161057.870000", "161058.330000", "161058.790000", "161059.250000", "161059.710000", "161100.170000", "161100.630000", "161101.090000", "161101.550000", "161102.010000", "161102.470000", "161102.930000", "161103.390000", "161103.850000", "161104.310000", "161104.770000", "161105.230000", "161105.690000", "161106.150000", "161106.610000", "161107.070000", "161107.530000", "161107.990000", "161108.450000", "161108.910000", "161109.370000", "161109.830000", "161110.290000", "161110.750000", "161111.210000", "161111.670000", "161112.130000", "161112.590000", "161113.050000", "161113.510000", "161113.970000", "161114.430000", "161114.890000", "161115.350000", "161115.810000", "161116.270000", "161116.730000", "161117.190000", "161117.650000", "161118.110000", "161118.570000", "161119.030000", "161119.490000", "161119.950000", "161120.410000", "161120.870000", "161121.330000", "161121.790000", "161122.250000", "161122.710000", "161123.170000", "161123.630000", "161124.090000", "161124.550000", "161125.010000", "161125.470000", "161125.930000", "161126.390000", "161126.850000", "161127.310000", "161127.770000", "161128.230000", "161128.690000", "161129.150000", "161129.610000", "161130.070000", "161130.530000", "161130.990000", "161131.450000", "161131.910000", "161132.370000", "161132.830000", "161133.290000", "161133.750000", "161134.210000", "161134.670000", "161135.130000", "161135.590000", "161136.050000", "161136.510000", "161136.970000", "161137.430000", "161137.890000", "161138.350000", "161138.810000", "161139.270000", "161139.730000", "161140.190000", "161140.650000", "161141.110000", "161141.570000", "161142.030000", "161142.490000", "161142.950000", "161143.410000", "161143.870000", "161144.330000", "161144.790000", "161145.250000", "161145.710000", "161146.170000", "161146.630000", "161147.090000", "161147.550000", "161148.010000", "161148.470000", "161148.930000", "161149.390000", "161149.850000", "161150.310000", "161150.770000", "161151.230000", "161151.690000", "161152.150000", "161152.610000", "161153.070000", "161153.530000", "161153.990000", "161154.450000", "161154.910000", "161155.370000", "161155.830000", "161156.290000", "161156.750000", "161157.210000", "161157.670000", "161158.130000", "161158.590000", "161159.050000", "161159.510000", "161159.970000", "161200.430000", "161200.890000", "161201.350000", "161201.810000", "161202.270000", "161202.730000", "161203.190000", "161203.650000", "161204.110000", "161204.570000", "161205.030000", "161205.490000", "161205.950000", "161206.410000", "161206.870000", "161207.330000", "161207.790000", "161208.250000", "161208.710000", "161209.170000", "161209.630000", "161210.090000", "161210.550000", "161211.010000", "161211.470000", "161211.930000", "161212.390000", "161212.850000", "161213.310000", "161213.770000", "161214.230000", "161214.690000", "161215.150000", "161215.610000", "161216.070000", "161216.530000", "161216.990000", "161217.450000", "161217.910000", "161218.370000", "161218.830000", "161219.290000", "161219.750000", "161220.210000", "161220.670000", "161221.130000", "161221.590000", "161222.050000", "161222.510000", "161222.970000", "161223.430000", "161223.890000", "161224.350000", "161224.810000", "161225.270000", "161225.730000", "161226.190000", "161226.650000", "161227.110000", "161227.570000", "161228.030000", "161228.490000", "161228.950000", "161229.410000", "161229.870000", "161230.330000", "161230.790000", "161231.250000", "161231.710000", "161232.170000", "161232.630000", "161233.090000", "161233.550000", "161234.010000", "161234.470000", "161234.930000", "161235.390000", "161235.850000", "161236.310000", "161236.770000", "161237.230000", "161237.690000", "161238.150000", "161238.610000", "161239.070000", "161239.530000", "161239.990000", "161240.450000", "161240.910000", "161241.370000", "161241.830000", "161242.290000", "161242.750000", "161243.210000", "161243.670000", "161244.130000", "161244.590000", "161245.050000", "161245.510000", "161245.970000", "161246.430000", "161246.890000", "161247.350000", "161247.810000", "161248.270000", "161248.730000", "161249.190000", "161249.650000", "161250.110000", "161250.570000", "161251.030000", "161251.490000", "161251.950000", "161252.410000", "161252.870000", "161253.330000", "161253.790000", "161254.250000", "161254.710000", "161255.170000", "161255.630000", "161256.090000", "161256.550000", "161257.010000", "161257.470000", "161257.930000", "161258.390000", "161258.850000", "161259.310000", "161259.770000", "161300.230000", "161300.690000", "161301.150000", "161301.610000", "161302.070000", "161302.530000", "161302.990000", "161303.450000", "161303.910000", "161304.370000", "161304.830000", "161305.290000", "161305.750000", "161306.210000", "161306.670000", "161307.130000", "161307.590000", "161308.050000", "161308.510000", "161308.970000", "161309.430000", "161309.890000", "161310.350000", "161310.810000", "161311.270000", "161311.730000", "161312.190000", "161312.650000", "161313.110000", "161313.570000", "161314.030000", "161314.490000", "161314.950000", "161315.410000", "161315.870000", "161316.330000", "161316.790000", "161317.250000", "161317.710000", "161318.170000", "161318.630000", "161319.090000", "161319.550000", "161320.010000", "161320.470000", "161320.930000", "161321.390000", "161321.850000", "161322.310000", "161322.770000", "161323.230000", "161323.690000", "161324.150000", "161324.610000", "161325.070000", "161325.530000", "161325.990000", "161326.450000", "161326.910000", "161327.370000", "161327.830000", "161328.290000", "161328.750000", "161329.210000", "161329.670000", "161330.130000", "161330.590000", "161331.050000", "161331.510000", "161331.970000"],
