{
  "AcquisitionMatrixPE": 82,
  "AcquisitionNumber": 1,
  "AcquisitionTime": "12:39:17.617500",
  "BandwidthPerPixelPhaseEncode": 24.888,
  "BaseResolution": 82,
  "BodyPartExamined": "BRAIN",
  "ConsistencyInfo": "N4_VE11C_LATEST_20160120",
  "ConversionSoftware": "dcm2niix",
  "ConversionSoftwareVersion": "v1.0.20201102",
  "DerivedVendorReportedEchoSpacing": 0.00049,
  "DeviceSerialNumber": "66112",
  "DwellTime": 2e-06,
  "EchoTime": 0.0272,
  "EchoTrainLength": 82,
  "EffectiveEchoSpacing": 0.00049,
  "FlipAngle": 44,
  "ImageComments": "Unaliased MB8/PE3",
  "ImageOrientationPatientDICOM": [0.997677, -0.0405818, 0.0547082, 0.0391988, 0.99889, 0.0261191],
  "ImageType": [
    "ORIGINAL",
    "PRIMARY",
    "M",
    "MB",
    "ND",
    "NORM",
    "MOSAIC"
],
  "ImagingFrequency": 123.252,
  "InPlanePhaseEncodingDirectionDICOM": "COL",
  "InstitutionAddress": "Maynard 3,Hanover,NH,US,03755",
  "InstitutionName": "Dartmouth College - PBS",
  "InstitutionalDepartmentName": "Department",
  "MRAcquisitionType": "2D",
  "MagneticFieldStrength": 3,
  "Manufacturer": "Siemens",
  "ManufacturersModelName": "Prisma",
  "Modality": "MR",
  "MultibandAccelerationFactor": 8,
  "PartialFourier": 1,
  "PatientPosition": "HFS",
  "PercentPhaseFOV": 100,
  "PercentSampling": 100,
  "PhaseEncodingDirection": "j-",
  "PhaseEncodingSteps": 82,
  "PhaseResolution": 1,
  "PixelBandwidth": 3050,
  "ProcedureStepDescription": "Wager_Wager^1076_spacetop",
  "ProtocolName": "func_run-01_task-faces_acq-ap-mb8",
  "PulseSequenceDetails": "%CustomerSeq%\\cmrr_mbep2d_bold",
  "ReceiveCoilActiveElements": "HEA;HEP",
  "ReceiveCoilName": "Head_32",
  "ReconMatrixPE": 82,
  "RepetitionTime": 0.46,
  "SAR": 0.0887424,
  "ScanOptions": "FS",
  "ScanningSequence": "EP",
  "SequenceName": "epfid2d1_82",
  "SequenceVariant": "SK\\SS",
  "SeriesDescription": "func_run-01_task-faces_acq-ap-mb8",
  "SeriesNumber": 18,
  "ShimSetting": [4171, -7696, -7230, 576, -1, 12, 5, 54],
  "SliceThickness": 2.7,
  "SliceTiming": [0, 0.25, 0.0625, 0.315, 0.125, 0.3775, 0.1875, 0, 0.25, 0.0625, 0.315, 0.125, 0.3775, 0.1875, 0, 0.25, 0.0625, 0.315, 0.125, 0.3775, 0.1875, 0, 0.25, 0.0625, 0.315, 0.125, 0.3775, 0.1875, 0, 0.25, 0.0625, 0.315, 0.125, 0.3775, 0.1875, 0, 0.25, 0.0625, 0.315, 0.125, 0.3775, 0.1875, 0, 0.25, 0.0625, 0.315, 0.125, 0.3775, 0.1875, 0, 0.25, 0.0625, 0.315, 0.125, 0.3775, 0.1875],
  "SoftwareVersions": "syngo MR E11",
  "SpacingBetweenSlices": 2.7,
  "StationName": "AWP66112",
  "TaskName": "faces",
  "TotalReadoutTime": 0.03969,
  "TxRefAmp": 240.18,
  "WipMemBlock": "3701df28-e4c9-4a23-845b-a6ec3617beaf||Sequence: R016 ve11c/master r/e634e98; Dec 19 2017 11:00:25 by eja",
  "dcmmeta_affine": [
    [-2.6766953468322754, 0.10516759008169174, 0.15041010081768036, 108.71733856201172],
    [0.10887788236141205, 2.6799488067626953, 0.06456752121448517, -96.07764434814453],
    [0.1467781364917755, -0.07007552683353424, 2.6950337886810303, -46.823123931884766],
    [0.0, 0.0, 0.0, 1.0]
],
  "dcmmeta_reorient_transform": [
    [0.0, -1.0, 0.0, 81.0],
    [1.0, 0.0, 0.0, 0.0],
    [0.0, 0.0, 1.0, 0.0],
    [0.0, 0.0, 0.0, 1.0]
],
  "dcmmeta_shape": [82, 82, 56, 914],
  "dcmmeta_slice_dim": 2,
  "dcmmeta_version": 0.6,
  "global": {
    "const": {
      "AccessionNumber": "A003471",
      "AcquisitionMatrix": [82, 0, 0, 82],
      "AngioFlag": "N",
      "BitsAllocated": 16,
      "BitsStored": 16,
      "BodyPartExamined": "BRAIN",
      "Columns": 656,
      "EchoNumbers": 1,
      "EchoTime": 27.2,
      "EchoTrainLength": 82,
      "FlipAngle": 44.0,
      "HighBit": 15,
      "ImageOrientationPatient": [0.99767736889174, -0.0405817561839, 0.05470821388323, 0.03919882801113, 0.99889000724505, 0.02611906025387],
      "ImagePositionPatient": [-915.63060255019, -858.89558203476, -114.73624497139],
      "ImageType": [
        "ORIGINAL",
        "PRIMARY",
        "M",
        "MB",
        "ND",
        "NORM",
        "MOSAIC"
],
      "ImagedNucleus": "1H",
      "ImagingFrequency": 123.25212,
      "InPlanePhaseEncodingDirection": "COL",
      "MRAcquisitionType": "2D",
      "MagneticFieldStrength": 3.0,
      "Manufacturer": "SIEMENS",
      "ManufacturerModelName": "Prisma",
      "Modality": "MR",
      "NumberOfAverages": 1.0,
      "NumberOfPhaseEncodingSteps": 82,
      "PercentPhaseFieldOfView": 100.0,
      "PercentSampling": 100.0,
      "PerformedProcedureStepStartTime": "111554.603000",
      "PhotometricInterpretation": "MONOCHROME2",
      "PixelBandwidth": 3050.0,
      "PixelRepresentation": 0,
      "PixelSpacing": [2.6829268932343, 2.6829268932343],
      "ProtocolName": "func_run-01_task-faces_acq-ap-mb8",
      "RepetitionTime": 460.0,
      "Rows": 656,
      "SAR": 0.08874243483599,
      "SamplesPerPixel": 1,
      "ScanOptions": "FS",
      "ScanningSequence": "EP",
      "SequenceName": "epfid2d1_82",
      "SequenceVariant": [
        "SK",
        "SS"
],
      "SeriesDescription": "func_run-01_task-faces_acq-ap-mb8",
      "SeriesNumber": 18,
      "SeriesTime": "123939.142000",
      "SliceLocation": -42.978229165934,
      "SliceThickness": 2.7000000476837,
      "SmallestImagePixelValue": 0,
      "SoftwareVersions": "syngo MR E11",
      "SpacingBetweenSlices": 2.6999999679455,
      "SpecificCharacterSet": "ISO_IR 100",
      "StudyID": "2",
      "StudyTime": "111554.564000",
      "TransmitCoilName": "Body",
      "VariableFlipAngleFlag": "N",
      "WindowCenterWidthExplanation": "Algo1",
      "dBdt": 0.0},
    "slices": {}
  },
  "time": {
    "samples": {
      "AcquisitionNumber": [1, 2, 3, 4, 5, 6, 7, 8, 9, 10, 11, 12, 13, 14, 15, 16, 17, 18, 19, 20, 21, 22, 23, 24, 25, 26, 27, 28, 29, 30, 31, 32, 33, 34, 35, 36, 37, 38, 39, 40, 41, 42, 43, 44, 45, 46, 47, 48, 49, 50, 51, 52, 53, 54, 55, 56, 57, 58, 59, 60, 61, 62, 63, 64, 65, 66, 67, 68, 69, 70, 71, 72, 73, 74, 75, 76, 77, 78, 79, 80, 81, 82, 83, 84, 85, 86, 87, 88, 89, 90, 91, 92, 93, 94, 95, 96, 97, 98, 99, 100, 101, 102, 103, 104, 105, 106, 107, 108, 109, 110, 111, 112, 113, 114, 115, 116, 117, 118, 119, 120, 121, 122, 123, 124, 125, 126, 127, 128, 129, 130, 131, 132, 133, 134, 135, 136, 137, 138, 139, 140, 141, 142, 143, 144, 145, 146, 147, 148, 149, 150, 151, 152, 153, 154, 155, 156, 157, 158, 159, 160, 161, 162, 163, 164, 165, 166, 167, 168, 169, 170, 171, 172, 173, 174, 175, 176, 177, 178, 179, 180, 181, 182, 183, 184, 185, 186, 187, 188, 189, 190, 191, 192, 193, 194, 195, 196, 197, 198, 199, 200, 201, 202, 203, 204, 205, 206, 207, 208, 209, 210, 211, 212, 213, 214, 215, 216, 217, 218, 219, 220, 221, 222, 223, 224, 225, 226, 227, 228, 229, 230, 231, 232, 233, 234, 235, 236, 237, 238, 239, 240, 241, 242, 243, 244, 245, 246, 247, 248, 249, 250, 251, 252, 253, 254, 255, 256, 257, 258, 259, 260, 261, 262, 263, 264, 265, 266, 267, 268, 269, 270, 271, 272, 273, 274, 275, 276, 277, 278, 279, 280, 281, 282, 283, 284, 285, 286, 287, 288, 289, 290, 291, 292, 293, 294, 295, 296, 297, 298, 299, 300, 301, 302, 303, 304, 305, 306, 307, 308, 309, 310, 311, 312, 313, 314, 315, 316, 317, 318, 319, 320, 321, 322, 323, 324, 325, 326, 327, 328, 329, 330, 331, 332, 333, 334, 335, 336, 337, 338, 339, 340, 341, 342, 343, 344, 345, 346, 347, 348, 349, 350, 351, 352, 353, 354, 355, 356, 357, 358, 359, 360, 361, 362, 363, 364, 365, 366, 367, 368, 369, 370, 371, 372, 373, 374, 375, 376, 377, 378, 379, 380, 381, 382, 383, 384, 385, 386, 387, 388, 389, 390, 391, 392, 393, 394, 395, 396, 397, 398, 399, 400, 401, 402, 403, 404, 405, 406, 407, 408, 409, 410, 411, 412, 413, 414, 415, 416, 417, 418, 419, 420, 421, 422, 423, 424, 425, 426, 427, 428, 429, 430, 431, 432, 433, 434, 435, 436, 437, 438, 439, 440, 441, 442, 443, 444, 445, 446, 447, 448, 449, 450, 451, 452, 453, 454, 455, 456, 457, 458, 459, 460, 461, 462, 463, 464, 465, 466, 467, 468, 469, 470, 471, 472, 473, 474, 475, 476, 477, 478, 479, 480, 481, 482, 483, 484, 485, 486, 487, 488, 489, 490, 491, 492, 493, 494, 495, 496, 497, 498, 499, 500, 501, 502, 503, 504, 505, 506, 507, 508, 509, 510, 511, 512, 513, 514, 515, 516, 517, 518, 519, 520, 521, 522, 523, 524, 525, 526, 527, 528, 529, 530, 531, 532, 533, 534, 535, 536, 537, 538, 539, 540, 541, 542, 543, 544, 545, 546, 547, 548, 549, 550, 551, 552, 553, 554, 555, 556, 557, 558, 559, 560, 561, 562, 563, 564, 565, 566, 567, 568, 569, 570, 571, 572, 573, 574, 575, 576, 577, 578, 579, 580, 581, 582, 583, 584, 585, 586, 587, 588, 589, 590, 591, 592, 593, 594, 595, 596, 597, 598, 599, 600, 601, 602, 603, 604, 605, 606, 607, 608, 609, 610, 611, 612, 613, 614, 615, 616, 617, 618, 619, 620, 621, 622, 623, 624, 625, 626, 627, 628, 629, 630, 631, 632, 633, 634, 635, 636, 637, 638, 639, 640, 641, 642, 643, 644, 645, 646, 647, 648, 649, 650, 651, 652, 653, 654, 655, 656, 657, 658, 659, 660, 661, 662, 663, 664, 665, 666, 667, 668, 669, 670, 671, 672, 673, 674, 675, 676, 677, 678, 679, 680, 681, 682, 683, 684, 685, 686, 687, 688, 689, 690, 691, 692, 693, 694, 695, 696, 697, 698, 699, 700, 701, 702, 703, 704, 705, 706, 707, 708, 709, 710, 711, 712, 713, 714, 715, 716, 717, 718, 719, 720, 721, 722, 723, 724, 725, 726, 727, 728, 729, 730, 731, 732, 733, 734, 735, 736, 737, 738, 739, 740, 741, 742, 743, 744, 745, 746, 747, 748, 749, 750, 751, 752, 753, 754, 755, 756, 757, 758, 759, 760, 761, 762, 763, 764, 765, 766, 767, 768, 769, 770, 771, 772, 773, 774, 775, 776, 777, 778, 779, 780, 781, 782, 783, 784, 785, 786, 787, 788, 789, 790, 791, 792, 793, 794, 795, 796, 797, 798, 799, 800, 801, 802, 803, 804, 805, 806, 807, 808, 809, 810, 811, 812, 813, 814, 815, 816, 817, 818, 819, 820, 821, 822, 823, 824, 825, 826, 827, 828, 829, 830, 831, 832, 833, 834, 835, 836, 837, 838, 839, 840, 841, 842, 843, 844, 845, 846, 847, 848, 849, 850, 851, 852, 853, 854, 855, 856, 857, 858, 859, 860, 861, 862, 863, 864, 865, 866, 867, 868, 869, 870, 871, 872, 873, 874, 875, 876, 877, 878, 879, 880, 881, 882, 883, 884, 885, 886, 887, 888, 889, 890, 891, 892, 893, 894, 895, 896, 897, 898, 899, 900, 901, 902, 903, 904, 905, 906, 907, 908, 909, 910, 911, 912, 913, 914],
      "AcquisitionTime": ["123917.617500", "123918.077500", "123918.537500", "123918.997500", "123919.457500", "123919.917500", "123920.377500", "123920.837500", "123921.297500", "123921.757500", "123922.217500", "123922.677500", "123923.137500", "123923.597500", "123924.057500", "123924.517500", "123924.977500", "123925.437500", "123925.897500", "123926.357500", "123926.817500", "123927.277500", "123927.737500", "123928.197500", "123928.657500", "123929.117500", "123929.577500", "123930.037500", "123930.497500", "123930.957500", "123931.417500", "123931.877500", "123932.337500", "123932.797500", "123933.257500", "123933.717500", "123934.177500", "123934.637500", "123935.097500", "123935.557500", "123936.017500", "123936.477500", "123936.937500", "123937.397500", "123937.857500", "123938.317500", "123938.777500", "123939.237500", "123939.697500", "123940.157500", "123940.617500", "123941.077500", "123941.537500", "123941.997500", "123942.457500", "123942.917500", "123943.377500", "123943.837500", "123944.297500", "123944.757500", "123945.217500", "123945.677500", "123946.137500", "123946.597500", "123947.057500", "123947.517500", "123947.977500", "123948.437500", "123948.897500", "123949.357500", "123949.817500", "123950.277500", "123950.737500", "123951.197500", "123951.657500", "123952.117500", "123952.577500", "123953.037500", "123953.497500", "123953.957500", "123954.417500", "123954.877500", "123955.337500", "123955.797500", "123956.257500", "123956.717500", "123957.177500", "123957.637500", "123958.097500", "123958.557500", "123959.017500", "123959.477500", "123959.937500", "124000.397500", "124000.857500", "124001.317500", "124001.777500", "124002.237500", "124002.697500", "124003.157500", "124003.617500", "124004.077500", "124004.537500", "124004.997500", "124005.457500", "124005.917500", "124006.377500", "124006.837500", "124007.297500", "124007.757500", "124008.217500", "124008.677500", "124009.137500", "124009.597500", "124010.057500", "124010.517500", "124010.977500", "124011.437500", "124011.897500", "124012.357500", "124012.817500", "124013.277500", "124013.737500", "124014.197500", "124014.657500", "124015.117500", "124015.577500", "124016.037500", "124016.497500", "124016.957500", "124017.417500", "124017.877500", "124018.337500", "124018.797500", "124019.257500", "124019.717500", "124020.177500", "124020.637500", "124021.097500", "124021.557500", "124022.017500", "124022.477500", "124022.937500", "124023.397500", "124023.857500", "124024.317500", "124024.777500", "124025.237500", "124025.697500", "124026.157500", "124026.617500", "124027.077500", "124027.537500", "124027.997500", "124028.457500", "124028.917500", "124029.377500", "124029.837500", "124030.297500", "124030.757500", "124031.217500", "124031.677500", "124032.137500", "124032.597500", "124033.057500", "124033.517500", "124033.977500", "124034.437500", "124034.897500", "124035.357500", "124035.817500", "124036.277500", "124036.737500", "124037.197500", "124037.657500", "124038.117500", "124038.577500", "124039.037500", "124039.497500", "124039.957500", "124040.417500", "124040.877500", "124041.337500", "124041.797500", "124042.257500", "124042.717500", "124043.177500", "124043.637500", "124044.097500", "124044.557500", "124045.017500", "124045.477500", "124045.937500", "124046.397500", "124046.857500", "124047.317500", "124047.777500", "124048.237500", "124048.697500", "124049.157500", "124049.617500", "124050.077500", "124050.537500", "124050.997500", "124051.457500", "124051.917500", "124052.377500", "124052.837500", "124053.297500", "124053.757500", "124054.217500", "124054.677500", "124055.137500", "124055.597500", "124056.057500", "124056.517500", "124056.977500", "124057.437500", "124057.897500", "124058.357500", "124058.817500", "124059.277500", "124059.737500", "124100.197500", "124100.657500", "124101.117500", "124101.577500", "124102.037500", "124102.497500", "124102.957500", "124103.417500", "124103.877500", "124104.337500", "124104.797500", "124105.257500", "124105.717500", "124106.177500", "124106.637500", "124107.097500", "124107.557500", "124108.017500", "124108.477500", "124108.937500", "124109.397500", "124109.857500", "124110.317500", "124110.777500", "124111.237500", "124111.697500", "124112.157500", "124112.617500", "124113.077500", "124113.537500", "124113.997500", "124114.457500", "124114.917500", "124115.377500", "124115.837500", "124116.297500", "124116.757500", "124117.217500", "124117.677500", "124118.137500", "124118.597500", "124119.057500", "124119.517500", "124119.977500", "124120.437500", "124120.897500", "124121.357500", "124121.817500", "124122.277500", "124122.737500", "124123.197500", "124123.657500", "124124.117500", "124124.577500", "124125.037500", "124125.497500", "124125.957500", "124126.417500", "124126.877500", "124127.337500", "124127.797500", "124128.257500", "124128.717500", "124129.177500", "124129.637500", "124130.097500", "124130.557500", "124131.017500", "124131.477500", "124131.937500", "124132.397500", "124132.857500", "124133.317500", "124133.777500", "124134.237500", "124134.697500", "124135.157500", "124135.617500", "124136.077500", "124136.537500", "124136.997500", "124137.457500", "124137.917500", "124138.377500", "124138.837500", "124139.297500", "124139.757500", "124140.217500", "124140.677500", "124141.137500", "124141.597500", "124142.057500", "124142.517500", "124142.977500", "124143.437500", "124143.897500", "124144.357500", "124144.817500", "124145.277500", "124145.737500", "124146.197500", "124146.657500", "124147.117500", "124147.577500", "124148.037500", "124148.497500", "124148.957500", "124149.417500", "124149.877500", "124150.337500", "124150.797500", "124151.257500", "124151.717500", "124152.177500", "124152.637500", "124153.097500", "124153.557500", "124154.017500", "124154.477500", "124154.937500", "124155.397500", "124155.857500", "124156.317500", "124156.777500", "124157.237500", "124157.697500", "124158.157500", "124158.617500", "124159.077500", "124159.537500", "124159.997500", "124200.457500", "124200.917500", "124201.377500", "124201.837500", "124202.297500", "124202.757500", "124203.217500", "124203.677500", "124204.137500", "124204.597500", "124205.057500", "124205.517500", "124205.977500", "124206.437500", "124206.897500", "124207.357500", "124207.817500", "124208.277500", "124208.737500", "124209.197500", "124209.657500", "124210.117500", "124210.577500", "124211.037500", "124211.497500", "124211.957500", "124212.417500", "124212.877500", "124213.337500", "124213.797500", "124214.257500", "124214.717500", "124215.177500", "124215.637500", "124216.097500", "124216.557500", "124217.017500", "124217.477500", "124217.937500", "124218.397500", "124218.857500", "124219.317500", "124219.777500", "124220.237500", "124220.697500", "124221.157500", "124221.617500", "124222.077500", "124222.537500", "124222.997500", "124223.457500", "124223.917500", "124224.377500", "124224.837500", "124225.297500", "124225.757500", "124226.217500", "124226.677500", "124227.137500", "124227.597500", "124228.057500", "124228.517500", "124228.977500", "124229.437500", "124229.897500", "124230.357500", "124230.817500", "124231.277500", "124231.737500", "124232.197500", "124232.657500", "124233.117500", "124233.577500", "124234.037500", "124234.497500", "124234.957500", "124235.417500", "124235.877500", "124236.337500", "124236.797500", "124237.257500", "124237.717500", "124238.177500", "124238.637500", "124239.097500", "124239.557500", "124240.017500", "124240.477500", "124240.937500", "124241.397500", "124241.857500", "124242.317500", "124242.777500", "124243.237500", "124243.697500", "124244.157500", "124244.617500", "124245.077500", "124245.537500", "124245.997500", "124246.457500", "124246.917500", "124247.377500", "124247.837500", "124248.297500", "124248.757500", "124249.217500", "124249.677500", "124250.137500", "124250.597500", "124251.057500", "124251.517500", "124251.977500", "124252.437500", "124252.897500", "124253.357500", "124253.817500", "124254.277500", "124254.737500", "124255.197500", "124255.657500", "124256.117500", "124256.577500", "124257.037500", "124257.497500", "124257.957500", "124258.417500", "124258.877500", "124259.337500", "124259.797500", "124300.257500", "124300.717500", "124301.177500", "124301.637500", "124302.097500", "124302.557500", "124303.017500", "124303.477500", "124303.937500", "124304.397500", "124304.857500", "124305.317500", "124305.777500", "124306.237500", "124306.697500", "124307.157500", "124307.617500", "124308.077500", "124308.537500", "124308.997500", "124309.457500", "124309.917500", "124310.377500", "124310.837500", "124311.297500", "124311.757500", "124312.217500", "124312.677500", "124313.137500", "124313.597500", "124314.057500", "124314.517500", "124314.977500", "124315.437500", "124315.897500", "124316.357500", "124316.817500", "124317.277500", "124317.737500", "124318.197500", "124318.657500", "124319.117500", "124319.577500", "124320.037500", "124320.497500", "124320.957500", "124321.417500", "124321.877500", "124322.337500", "124322.797500", "124323.257500", "124323.717500", "124324.177500", "124324.637500", "124325.097500", "124325.557500", "124326.017500", "124326.477500", "124326.937500", "124327.397500", "124327.857500", "124328.317500", "124328.777500", "124329.237500", "124329.697500", "124330.157500", "124330.617500", "124331.077500", "124331.537500", "124331.997500", "124332.457500", "124332.917500", "124333.377500", "124333.837500", "124334.297500", "124334.757500", "124335.217500", "124335.677500", "124336.137500", "124336.597500", "124337.057500", "124337.517500", "124337.977500", "124338.437500", "124338.897500", "124339.357500", "124339.817500", "124340.277500", "124340.737500", "124341.197500", "124341.657500", "124342.117500", "124342.577500", "124343.037500", "124343.497500", "124343.957500", "124344.417500", "124344.877500", "124345.337500", "124345.797500", "124346.257500", "124346.717500", "124347.177500", "124347.637500", "124348.097500", "124348.557500", "124349.017500", "124349.477500", "124349.937500", "124350.397500", "124350.857500", "124351.317500", "124351.777500", "124352.237500", "124352.697500", "124353.157500", "124353.617500", "124354.077500", "124354.537500", "124354.997500", "124355.457500", "124355.917500", "124356.377500", "124356.837500", "124357.297500", "124357.757500", "124358.217500", "124358.677500", "124359.137500", "124359.597500", "124400.057500", "124400.517500", "124400.977500", "124401.437500", "124401.897500", "124402.357500", "124402.817500", "124403.277500", "124403.737500", "124404.197500", "124404.657500", "124405.117500", "124405.577500", "124406.037500", "124406.497500", "124406.957500", "124407.417500", "124407.877500", "124408.337500", "124408.797500", "124409.257500", "124409.717500", "124410.177500", "124410.637500", "124411.097500", "124411.557500", "124412.017500", "124412.477500", "124412.937500", "124413.397500", "124413.857500", "124414.317500", "124414.777500", "124415.237500", "124415.697500", "124416.157500", "124416.617500", "124417.077500", "124417.537500", "124417.997500", "124418.457500", "124418.917500", "124419.377500", "124419.837500", "124420.297500", "124420.757500", "124421.217500", "124421.677500", "124422.137500", "124422.597500", "124423.057500", "124423.517500", "124423.977500", "124424.437500", "124424.897500", "124425.357500", "124425.817500", "124426.277500", "124426.737500", "124427.197500", "124427.657500", "124428.117500", "124428.577500", "124429.037500", "124429.497500", "124429.957500", "124430.417500", "124430.877500", "124431.337500", "124431.797500", "124432.257500", "124432.717500", "124433.177500", "124433.637500", "124434.097500", "124434.557500", "124435.017500", "124435.477500", "124435.937500", "124436.397500", "124436.857500", "124437.317500", "124437.777500", "124438.237500", "124438.697500", "124439.157500", "124439.617500", "124440.077500", "124440.537500", "124440.997500", "124441.457500", "124441.917500", "124442.377500", "124442.837500", "124443.297500", "124443.757500", "124444.217500", "124444.677500", "124445.137500", "124445.597500", "124446.057500", "124446.517500", "124446.977500", "124447.437500", "124447.897500", "124448.357500", "124448.817500", "124449.277500", "124449.737500", "124450.197500", "124450.657500", "124451.117500", "124451.577500", "124452.037500", "124452.497500", "124452.957500", "124453.417500", "124453.877500", "124454.337500", "124454.797500", "124455.257500", "124455.717500", "124456.177500", "124456.637500", "124457.097500", "124457.557500", "124458.017500", "124458.477500", "124458.937500", "124459.397500", "124459.857500", "124500.317500", "124500.777500", "124501.237500", "124501.697500", "124502.157500", "124502.617500", "124503.077500", "124503.537500", "124503.997500", "124504.457500", "124504.917500", "124505.377500", "124505.837500", "124506.297500", "124506.757500", "124507.217500", "124507.677500", "124508.137500", "124508.597500", "124509.057500", "124509.517500", "124509.977500", "124510.437500", "124510.897500", "124511.357500", "124511.817500", "124512.277500", "124512.737500", "124513.197500", "124513.657500", "124514.117500", "124514.577500", "124515.037500", "124515.497500", "124515.957500", "124516.417500", "124516.877500", "124517.337500", "124517.797500", "124518.257500", "124518.717500", "124519.177500", "124519.637500", "124520.097500", "124520.557500", "124521.017500", "124521.477500", "124521.937500", "124522.397500", "124522.857500", "124523.317500", "124523.777500", "124524.237500", "124524.697500", "124525.157500", "124525.617500", "124526.077500", "124526.537500", "124526.997500", "124527.457500", "124527.917500", "124528.377500", "124528.837500", "124529.297500", "124529.757500", "124530.217500", "124530.677500", "124531.137500", "124531.597500", "124532.057500", "124532.517500", "124532.977500", "124533.437500", "124533.897500", "124534.357500", "124534.817500", "124535.277500", "124535.737500", "124536.197500", "124536.657500", "124537.117500", "124537.577500", "124538.037500", "124538.497500", "124538.957500", "124539.417500", "124539.877500", "124540.337500", "124540.797500", "124541.257500", "124541.717500", "124542.177500", "124542.637500", "124543.097500", "124543.557500", "124544.017500", "124544.477500", "124544.937500", "124545.397500", "124545.857500", "124546.317500", "124546.777500", "124547.237500", "124547.697500", "124548.157500", "124548.617500", "124549.077500", "124549.537500", "124549.997500", "124550.457500", "124550.917500", "124551.377500", "124551.837500", "124552.297500", "124552.757500", "124553.217500", "124553.677500", "124554.137500", "124554.597500", "124555.057500", "124555.517500", "124555.977500", "124556.437500", "124556.897500", "124557.357500", "124557.817500", "124558.277500", "124558.737500", "124559.197500", "124559.657500", "124600.117500", "124600.577500", "124601.037500", "124601.497500", "124601.957500", "124602.417500", "124602.877500", "124603.337500", "124603.797500", "124604.257500", "124604.717500", "124605.177500", "124605.637500", "124606.097500", "124606.557500", "124607.017500", "124607.477500", "124607.937500", "124608.397500", "124608.857500", "124609.317500", "124609.777500", "124610.237500", "124610.697500", "124611.157500", "124611.617500", "124612.077500", "124612.537500", "124612.997500", "124613.457500", "124613.917500", "124614.377500", "124614.837500", "124615.297500", "124615.757500", "124616.217500", "124616.677500", "124617.137500", "124617.597500"],
