{
  "AcquisitionMatrixPE": 82,
  "AcquisitionNumber": 1,
  "AcquisitionTime": "12:02:0.260000",
  "BandwidthPerPixelPhaseEncode": 24.888,
  "BaseResolution": 82,
  "BodyPartExamined": "BRAIN",
  "ConsistencyInfo": "N4_VE11C_LATEST_20160120",
  "ConversionSoftware": "dcm2niix",
  "ConversionSoftwareVersion": "v1.0.20201102",
  "DerivedVendorReportedEchoSpacing": 0.00049,
  "DeviceSerialNumber": "66112",
  "DwellTime": 2e-06,
  "EchoTime": 0.0272,
  "EchoTrainLength": 82,
  "EffectiveEchoSpacing": 0.00049,
  "FlipAngle": 44,
  "ImageComments": "Unaliased MB8/PE3",
  "ImageOrientationPatientDICOM": [0.997677, -0.0405818, 0.0547082, 0.0391988, 0.99889, 0.0261191],
  "ImageType": [
    "ORIGINAL",
    "PRIMARY",
    "M",
    "MB",
    "ND",
    "NORM",
    "MOSAIC"
],
  "ImagingFrequency": 123.252,
  "InPlanePhaseEncodingDirectionDICOM": "COL",
  "InstitutionAddress": "Maynard 3,Hanover,NH,US,03755",
  "InstitutionName": "Dartmouth College - PBS",
  "InstitutionalDepartmentName": "Department",
  "MRAcquisitionType": "2D",
  "MagneticFieldStrength": 3,
  "Manufacturer": "Siemens",
  "ManufacturersModelName": "Prisma",
  "Modality": "MR",
  "MultibandAccelerationFactor": 8,
  "PartialFourier": 1,
  "PatientPosition": "HFS",
  "PercentPhaseFOV": 100,
  "PercentSampling": 100,
  "PhaseEncodingDirection": "j-",
  "PhaseEncodingSteps": 82,
  "PhaseResolution": 1,
  "PixelBandwidth": 3050,
  "ProcedureStepDescription": "Wager_Wager^1076_spacetop",
  "ProtocolName": "func_run-01_task-narratives_acq-ap-mb8",
  "PulseSequenceDetails": "%CustomerSeq%\\cmrr_mbep2d_bold",
  "ReceiveCoilActiveElements": "HEA;HEP",
  "ReceiveCoilName": "Head_32",
  "ReconMatrixPE": 82,
  "RepetitionTime": 0.46,
  "SAR": 0.0887713,
  "ScanOptions": "FS",
  "ScanningSequence": "EP",
  "SequenceName": "epfid2d1_82",
  "SequenceVariant": "SK\\SS",
  "SeriesDescription": "func_run-01_task-narratives_acq-ap-mb8",
  "SeriesNumber": 10,
  "ShimSetting": [4171, -7696, -7230, 576, -1, 12, 5, 54],
  "SliceThickness": 2.7,
  "SliceTiming": [0, 0.2525, 0.0625, 0.315, 0.125, 0.3775, 0.1875, 0, 0.2525, 0.0625, 0.315, 0.125, 0.3775, 0.1875, 0, 0.2525, 0.0625, 0.315, 0.125, 0.3775, 0.1875, 0, 0.2525, 0.0625, 0.315, 0.125, 0.3775, 0.1875, 0, 0.2525, 0.0625, 0.315, 0.125, 0.3775, 0.1875, 0, 0.2525, 0.0625, 0.315, 0.125, 0.3775, 0.1875, 0, 0.2525, 0.0625, 0.315, 0.125, 0.3775, 0.1875, 0, 0.2525, 0.0625, 0.315, 0.125, 0.3775, 0.1875],
  "SoftwareVersions": "syngo MR E11",
  "SpacingBetweenSlices": 2.7,
  "StationName": "AWP66112",
  "TaskName": "narratives",
  "TotalReadoutTime": 0.03969,
  "TxRefAmp": 240.18,
  "WipMemBlock": "8dbde568-b139-4f96-96f4-9957ae1ef4e3||Sequence: R016 ve11c/master r/e634e98; Dec 19 2017 11:00:25 by eja",
  "dcmmeta_affine": [
    [-2.6766953468322754, 0.10516759008169174, 0.15041010081768036, 108.71733856201172],
    [0.10887788236141205, 2.6799488067626953, 0.06456752121448517, -96.07764434814453],
    [0.1467781364917755, -0.07007552683353424, 2.6950337886810303, -46.823123931884766],
    [0.0, 0.0, 0.0, 1.0]
],
  "dcmmeta_reorient_transform": [
    [0.0, -1.0, 0.0, 81.0],
    [1.0, 0.0, 0.0, 0.0],
    [0.0, 0.0, 1.0, 0.0],
    [0.0, 0.0, 0.0, 1.0]
],
  "dcmmeta_shape": [82, 82, 56, 967],
  "dcmmeta_slice_dim": 2,
  "dcmmeta_version": 0.6,
  "global": {
    "const": {
      "AccessionNumber": "A003471",
      "AcquisitionMatrix": [82, 0, 0, 82],
      "AngioFlag": "N",
      "BitsAllocated": 16,
      "BitsStored": 16,
      "BodyPartExamined": "BRAIN",
      "Columns": 656,
      "EchoNumbers": 1,
      "EchoTime": 27.2,
      "EchoTrainLength": 82,
      "FlipAngle": 44.0,
      "HighBit": 15,
      "ImageOrientationPatient": [0.99767736889174, -0.0405817561839, 0.05470821388323, 0.03919882801113, 0.99889000724505, 0.02611906025387],
      "ImagePositionPatient": [-915.63060255019, -858.89558203476, -114.73624497139],
      "ImageType": [
        "ORIGINAL",
        "PRIMARY",
        "M",
        "MB",
        "ND",
        "NORM",
        "MOSAIC"
],
      "ImagedNucleus": "1H",
      "ImagingFrequency": 123.252101,
      "InPlanePhaseEncodingDirection": "COL",
      "MRAcquisitionType": "2D",
      "MagneticFieldStrength": 3.0,
      "Manufacturer": "SIEMENS",
      "ManufacturerModelName": "Prisma",
      "Modality": "MR",
      "NumberOfAverages": 1.0,
      "NumberOfPhaseEncodingSteps": 82,
      "PercentPhaseFieldOfView": 100.0,
      "PercentSampling": 100.0,
      "PerformedProcedureStepStartTime": "111554.603000",
      "PhotometricInterpretation": "MONOCHROME2",
      "PixelBandwidth": 3050.0,
      "PixelRepresentation": 0,
      "PixelSpacing": [2.6829268932343, 2.6829268932343],
      "ProtocolName": "func_run-01_task-narratives_acq-ap-mb8",
      "RepetitionTime": 460.0,
      "Rows": 656,
      "SAR": 0.08877129099672,
      "SamplesPerPixel": 1,
      "ScanOptions": "FS",
      "ScanningSequence": "EP",
      "SequenceName": "epfid2d1_82",
      "SequenceVariant": [
        "SK",
        "SS"
],
      "SeriesDescription": "func_run-01_task-narratives_acq-ap-mb8",
      "SeriesNumber": 10,
      "SeriesTime": "120219.290000",
      "SliceLocation": -42.978229165934,
      "SliceThickness": 2.7000000476837,
      "SmallestImagePixelValue": 0,
      "SoftwareVersions": "syngo MR E11",
      "SpacingBetweenSlices": 2.6999999679455,
      "SpecificCharacterSet": "ISO_IR 100",
      "StudyID": "2",
      "StudyTime": "111554.564000",
      "TransmitCoilName": "Body",
      "VariableFlipAngleFlag": "N",
      "WindowCenterWidthExplanation": "Algo1",
      "dBdt": 0.0},
    "slices": {}
  },
  "time": {
    "samples": {
      "AcquisitionNumber": [1, 2, 3, 4, 5, 6, 7, 8, 9, 10, 11, 12, 13, 14, 15, 16, 17, 18, 19, 20, 21, 22, 23, 24, 25, 26, 27, 28, 29, 30, 31, 32, 33, 34, 35, 36, 37, 38, 39, 40, 41, 42, 43, 44, 45, 46, 47, 48, 49, 50, 51, 52, 53, 54, 55, 56, 57, 58, 59, 60, 61, 62, 63, 64, 65, 66, 67, 68, 69, 70, 71, 72, 73, 74, 75, 76, 77, 78, 79, 80, 81, 82, 83, 84, 85, 86, 87, 88, 89, 90, 91, 92, 93, 94, 95, 96, 97, 98, 99, 100, 101, 102, 103, 104, 105, 106, 107, 108, 109, 110, 111, 112, 113, 114, 115, 116, 117, 118, 119, 120, 121, 122, 123, 124, 125, 126, 127, 128, 129, 130, 131, 132, 133, 134, 135, 136, 137, 138, 139, 140, 141, 142, 143, 144, 145, 146, 147, 148, 149, 150, 151, 152, 153, 154, 155, 156, 157, 158, 159, 160, 161, 162, 163, 164, 165, 166, 167, 168, 169, 170, 171, 172, 173, 174, 175, 176, 177, 178, 179, 180, 181, 182, 183, 184, 185, 186, 187, 188, 189, 190, 191, 192, 193, 194, 195, 196, 197, 198, 199, 200, 201, 202, 203, 204, 205, 206, 207, 208, 209, 210, 211, 212, 213, 214, 215, 216, 217, 218, 219, 220, 221, 222, 223, 224, 225, 226, 227, 228, 229, 230, 231, 232, 233, 234, 235, 236, 237, 238, 239, 240, 241, 242, 243, 244, 245, 246, 247, 248, 249, 250, 251, 252, 253, 254, 255, 256, 257, 258, 259, 260, 261, 262, 263, 264, 265, 266, 267, 268, 269, 270, 271, 272, 273, 274, 275, 276, 277, 278, 279, 280, 281, 282, 283, 284, 285, 286, 287, 288, 289, 290, 291, 292, 293, 294, 295, 296, 297, 298, 299, 300, 301, 302, 303, 304, 305, 306, 307, 308, 309, 310, 311, 312, 313, 314, 315, 316, 317, 318, 319, 320, 321, 322, 323, 324, 325, 326, 327, 328, 329, 330, 331, 332, 333, 334, 335, 336, 337, 338, 339, 340, 341, 342, 343, 344, 345, 346, 347, 348, 349, 350, 351, 352, 353, 354, 355, 356, 357, 358, 359, 360, 361, 362, 363, 364, 365, 366, 367, 368, 369, 370, 371, 372, 373, 374, 375, 376, 377, 378, 379, 380, 381, 382, 383, 384, 385, 386, 387, 388, 389, 390, 391, 392, 393, 394, 395, 396, 397, 398, 399, 400, 401, 402, 403, 404, 405, 406, 407, 408, 409, 410, 411, 412, 413, 414, 415, 416, 417, 418, 419, 420, 421, 422, 423, 424, 425, 426, 427, 428, 429, 430, 431, 432, 433, 434, 435, 436, 437, 438, 439, 440, 441, 442, 443, 444, 445, 446, 447, 448, 449, 450, 451, 452, 453, 454, 455, 456, 457, 458, 459, 460, 461, 462, 463, 464, 465, 466, 467, 468, 469, 470, 471, 472, 473, 474, 475, 476, 477, 478, 479, 480, 481, 482, 483, 484, 485, 486, 487, 488, 489, 490, 491, 492, 493, 494, 495, 496, 497, 498, 499, 500, 501, 502, 503, 504, 505, 506, 507, 508, 509, 510, 511, 512, 513, 514, 515, 516, 517, 518, 519, 520, 521, 522, 523, 524, 525, 526, 527, 528, 529, 530, 531, 532, 533, 534, 535, 536, 537, 538, 539, 540, 541, 542, 543, 544, 545, 546, 547, 548, 549, 550, 551, 552, 553, 554, 555, 556, 557, 558, 559, 560, 561, 562, 563, 564, 565, 566, 567, 568, 569, 570, 571, 572, 573, 574, 575, 576, 577, 578, 579, 580, 581, 582, 583, 584, 585, 586, 587, 588, 589, 590, 591, 592, 593, 594, 595, 596, 597, 598, 599, 600, 601, 602, 603, 604, 605, 606, 607, 608, 609, 610, 611, 612, 613, 614, 615, 616, 617, 618, 619, 620, 621, 622, 623, 624, 625, 626, 627, 628, 629, 630, 631, 632, 633, 634, 635, 636, 637, 638, 639, 640, 641, 642, 643, 644, 645, 646, 647, 648, 649, 650, 651, 652, 653, 654, 655, 656, 657, 658, 659, 660, 661, 662, 663, 664, 665, 666, 667, 668, 669, 670, 671, 672, 673, 674, 675, 676, 677, 678, 679, 680, 681, 682, 683, 684, 685, 686, 687, 688, 689, 690, 691, 692, 693, 694, 695, 696, 697, 698, 699, 700, 701, 702, 703, 704, 705, 706, 707, 708, 709, 710, 711, 712, 713, 714, 715, 716, 717, 718, 719, 720, 721, 722, 723, 724, 725, 726, 727, 728, 729, 730, 731, 732, 733, 734, 735, 736, 737, 738, 739, 740, 741, 742, 743, 744, 745, 746, 747, 748, 749, 750, 751, 752, 753, 754, 755, 756, 757, 758, 759, 760, 761, 762, 763, 764, 765, 766, 767, 768, 769, 770, 771, 772, 773, 774, 775, 776, 777, 778, 779, 780, 781, 782, 783, 784, 785, 786, 787, 788, 789, 790, 791, 792, 793, 794, 795, 796, 797, 798, 799, 800, 801, 802, 803, 804, 805, 806, 807, 808, 809, 810, 811, 812, 813, 814, 815, 816, 817, 818, 819, 820, 821, 822, 823, 824, 825, 826, 827, 828, 829, 830, 831, 832, 833, 834, 835, 836, 837, 838, 839, 840, 841, 842, 843, 844, 845, 846, 847, 848, 849, 850, 851, 852, 853, 854, 855, 856, 857, 858, 859, 860, 861, 862, 863, 864, 865, 866, 867, 868, 869, 870, 871, 872, 873, 874, 875, 876, 877, 878, 879, 880, 881, 882, 883, 884, 885, 886, 887, 888, 889, 890, 891, 892, 893, 894, 895, 896, 897, 898, 899, 900, 901, 902, 903, 904, 905, 906, 907, 908, 909, 910, 911, 912, 913, 914, 915, 916, 917, 918, 919, 920, 921, 922, 923, 924, 925, 926, 927, 928, 929, 930, 931, 932, 933, 934, 935, 936, 937, 938, 939, 940, 941, 942, 943, 944, 945, 946, 947, 948, 949, 950, 951, 952, 953, 954, 955, 956, 957, 958, 959, 960, 961, 962, 963, 964, 965, 966, 967],
      "AcquisitionTime": ["120200.260000", "120200.720000", "120201.180000", "120201.640000", "120202.100000", "120202.560000", "120203.020000", "120203.480000", "120203.940000", "120204.400000", "120204.860000", "120205.320000", "120205.780000", "120206.240000", "120206.700000", "120207.160000", "120207.620000", "120208.080000", "120208.540000", "120209.000000", "120209.460000", "120209.920000", "120210.380000", "120210.840000", "120211.300000", "120211.760000", "120212.220000", "120212.680000", "120213.140000", "120213.600000", "120214.060000", "120214.520000", "120214.980000", "120215.440000", "120215.900000", "120216.360000", "120216.820000", "120217.280000", "120217.740000", "120218.200000", "120218.660000", "120219.120000", "120219.580000", "120220.040000", "120220.500000", "120220.960000", "120221.420000", "120221.880000", "120222.340000", "120222.800000", "120223.260000", "120223.720000", "120224.180000", "120224.640000", "120225.100000", "120225.560000", "120226.020000", "120226.480000", "120226.940000", "120227.400000", "120227.860000", "120228.320000", "120228.780000", "120229.240000", "120229.700000", "120230.160000", "120230.620000", "120231.080000", "120231.540000", "120232.000000", "120232.460000", "120232.920000", "120233.380000", "120233.840000", "120234.300000", "120234.760000", "120235.220000", "120235.680000", "120236.140000", "120236.600000", "120237.060000", "120237.520000", "120237.980000", "120238.440000", "120238.900000", "120239.360000", "120239.820000", "120240.280000", "120240.740000", "120241.200000", "120241.660000", "120242.120000", "120242.580000", "120243.040000", "120243.500000", "120243.960000", "120244.420000", "120244.880000", "120245.340000", "120245.800000", "120246.260000", "120246.720000", "120247.180000", "120247.640000", "120248.100000", "120248.560000", "120249.020000", "120249.480000", "120249.940000", "120250.400000", "120250.860000", "120251.320000", "120251.780000", "120252.240000", "120252.700000", "120253.160000", "120253.620000", "120254.080000", "120254.540000", "120255.000000", "120255.460000", "120255.920000", "120256.380000", "120256.840000", "120257.300000", "120257.760000", "120258.220000", "120258.680000", "120259.140000", "120259.600000", "120300.060000", "120300.520000", "120300.980000", "120301.440000", "120301.900000", "120302.360000", "120302.820000", "120303.280000", "120303.740000", "120304.200000", "120304.660000", "120305.120000", "120305.580000", "120306.040000", "120306.500000", "120306.960000", "120307.420000", "120307.880000", "120308.340000", "120308.800000", "120309.260000", "120309.720000", "120310.180000", "120310.640000", "120311.100000", "120311.560000", "120312.020000", "120312.480000", "120312.940000", "120313.400000", "120313.860000", "120314.320000", "120314.780000", "120315.240000", "120315.700000", "120316.160000", "120316.620000", "120317.080000", "120317.540000", "120318.000000", "120318.460000", "120318.920000", "120319.380000", "120319.840000", "120320.300000", "120320.760000", "120321.220000", "120321.680000", "120322.140000", "120322.600000", "120323.060000", "120323.520000", "120323.980000", "120324.440000", "120324.900000", "120325.360000", "120325.820000", "120326.280000", "120326.740000", "120327.200000", "120327.660000", "120328.120000", "120328.580000", "120329.040000", "120329.500000", "120329.960000", "120330.420000", "120330.880000", "120331.340000", "120331.800000", "120332.260000", "120332.720000", "120333.180000", "120333.640000", "120334.100000", "120334.560000", "120335.020000", "120335.480000", "120335.940000", "120336.400000", "120336.860000", "120337.320000", "120337.780000", "120338.240000", "120338.700000", "120339.160000", "120339.620000", "120340.080000", "120340.540000", "120341.000000", "120341.460000", "120341.920000", "120342.380000", "120342.840000", "120343.300000", "120343.760000", "120344.220000", "120344.680000", "120345.140000", "120345.600000", "120346.060000", "120346.520000", "120346.980000", "120347.440000", "120347.900000", "120348.360000", "120348.820000", "120349.280000", "120349.740000", "120350.200000", "120350.660000", "120351.120000", "120351.580000", "120352.040000", "120352.500000", "120352.960000", "120353.420000", "120353.880000", "120354.340000", "120354.800000", "120355.260000", "120355.720000", "120356.180000", "120356.640000", "120357.100000", "120357.560000", "120358.020000", "120358.480000", "120358.940000", "120359.400000", "120359.860000", "120400.320000", "120400.780000", "120401.240000", "120401.700000", "120402.160000", "120402.620000", "120403.080000", "120403.540000", "120404.000000", "120404.460000", "120404.920000", "120405.380000", "120405.840000", "120406.300000", "120406.760000", "120407.220000", "120407.680000", "120408.140000", "120408.600000", "120409.060000", "120409.520000", "120409.980000", "120410.440000", "120410.900000", "120411.360000", "120411.820000", "120412.280000", "120412.740000", "120413.200000", "120413.660000", "120414.120000", "120414.580000", "120415.040000", "120415.500000", "120415.960000", "120416.420000", "120416.880000", "120417.340000", "120417.800000", "120418.260000", "120418.720000", "120419.180000", "120419.640000", "120420.100000", "120420.560000", "120421.020000", "120421.480000", "120421.940000", "120422.400000", "120422.860000", "120423.320000", "120423.780000", "120424.240000", "120424.700000", "120425.160000", "120425.620000", "120426.080000", "120426.540000", "120427.000000", "120427.460000", "120427.920000", "120428.380000", "120428.840000", "120429.300000", "120429.760000", "120430.220000", "120430.680000", "120431.140000", "120431.600000", "120432.060000", "120432.520000", "120432.980000", "120433.440000", "120433.900000", "120434.360000", "120434.820000", "120435.280000", "120435.740000", "120436.200000", "120436.660000", "120437.120000", "120437.580000", "120438.040000", "120438.500000", "120438.960000", "120439.420000", "120439.880000", "120440.340000", "120440.800000", "120441.260000", "120441.720000", "120442.180000", "120442.640000", "120443.100000", "120443.560000", "120444.020000", "120444.480000", "120444.940000", "120445.400000", "120445.860000", "120446.320000", "120446.780000", "120447.240000", "120447.700000", "120448.160000", "120448.620000", "120449.080000", "120449.540000", "120450.000000", "120450.460000", "120450.920000", "120451.380000", "120451.840000", "120452.300000", "120452.760000", "120453.220000", "120453.680000", "120454.140000", "120454.600000", "120455.060000", "120455.520000", "120455.980000", "120456.440000", "120456.900000", "120457.360000", "120457.820000", "120458.280000", "120458.740000", "120459.200000", "120459.660000", "120500.120000", "120500.580000", "120501.040000", "120501.500000", "120501.960000", "120502.420000", "120502.880000", "120503.340000", "120503.800000", "120504.260000", "120504.720000", "120505.180000", "120505.640000", "120506.100000", "120506.560000", "120507.020000", "120507.480000", "120507.940000", "120508.400000", "120508.860000", "120509.320000", "120509.780000", "120510.240000", "120510.700000", "120511.160000", "120511.620000", "120512.080000", "120512.540000", "120513.000000", "120513.460000", "120513.920000", "120514.380000", "120514.840000", "120515.300000", "120515.760000", "120516.220000", "120516.680000", "120517.140000", "120517.600000", "120518.060000", "120518.520000", "120518.980000", "120519.440000", "120519.900000", "120520.360000", "120520.820000", "120521.280000", "120521.740000", "120522.200000", "120522.660000", "120523.120000", "120523.580000", "120524.040000", "120524.500000", "120524.960000", "120525.420000", "120525.880000", "120526.340000", "120526.800000", "120527.260000", "120527.720000", "120528.180000", "120528.640000", "120529.100000", "120529.560000", "120530.020000", "120530.480000", "120530.940000", "120531.400000", "120531.860000", "120532.320000", "120532.780000", "120533.240000", "120533.700000", "120534.160000", "120534.620000", "120535.080000", "120535.540000", "120536.000000", "120536.460000", "120536.920000", "120537.380000", "120537.840000", "120538.300000", "120538.760000", "120539.220000", "120539.680000", "120540.140000", "120540.600000", "120541.060000", "120541.520000", "120541.980000", "120542.440000", "120542.900000", "120543.360000", "120543.820000", "120544.280000", "120544.740000", "120545.200000", "120545.660000", "120546.120000", "120546.580000", "120547.040000", "120547.500000", "120547.960000", "120548.420000", "120548.880000", "120549.340000", "120549.800000", "120550.260000", "120550.720000", "120551.180000", "120551.640000", "120552.100000", "120552.560000", "120553.020000", "120553.480000", "120553.940000", "120554.400000", "120554.860000", "120555.320000", "120555.780000", "120556.240000", "120556.700000", "120557.160000", "120557.620000", "120558.080000", "120558.540000", "120559.000000", "120559.460000", "120559.920000", "120600.380000", "120600.840000", "120601.300000", "120601.760000", "120602.220000", "120602.680000", "120603.140000", "120603.600000", "120604.060000", "120604.520000", "120604.980000", "120605.440000", "120605.900000", "120606.360000", "120606.820000", "120607.280000", "120607.740000", "120608.200000", "120608.660000", "120609.120000", "120609.580000", "120610.040000", "120610.500000", "120610.960000", "120611.420000", "120611.880000", "120612.340000", "120612.800000", "120613.260000", "120613.720000", "120614.180000", "120614.640000", "120615.100000", "120615.560000", "120616.020000", "120616.480000", "120616.940000", "120617.400000", "120617.860000", "120618.320000", "120618.780000", "120619.240000", "120619.700000", "120620.160000", "120620.620000", "120621.080000", "120621.540000", "120622.000000", "120622.460000", "120622.920000", "120623.380000", "120623.840000", "120624.300000", "120624.760000", "120625.220000", "120625.680000", "120626.140000", "120626.600000", "120627.060000", "120627.520000", "120627.980000", "120628.440000", "120628.900000", "120629.360000", "120629.820000", "120630.280000", "120630.740000", "120631.200000", "120631.660000", "120632.120000", "120632.580000", "120633.040000", "120633.500000", "120633.960000", "120634.420000", "120634.880000", "120635.340000", "120635.800000", "120636.260000", "120636.720000", "120637.180000", "120637.640000", "120638.100000", "120638.560000", "120639.020000", "120639.480000", "120639.940000", "120640.400000", "120640.860000", "120641.320000", "120641.780000", "120642.240000", "120642.700000", "120643.160000", "120643.620000", "120644.080000", "120644.540000", "120645.000000", "120645.460000", "120645.920000", "120646.380000", "120646.840000", "120647.300000", "120647.760000", "120648.220000", "120648.680000", "120649.140000", "120649.600000", "120650.060000", "120650.520000", "120650.980000", "120651.440000", "120651.900000", "120652.360000", "120652.820000", "120653.280000", "120653.740000", "120654.200000", "120654.660000", "120655.120000", "120655.580000", "120656.040000", "120656.500000", "120656.960000", "120657.420000", "120657.880000", "120658.340000", "120658.800000", "120659.260000", "120659.720000", "120700.180000", "120700.640000", "120701.100000", "120701.560000", "120702.020000", "120702.480000", "120702.940000", "120703.400000", "120703.860000", "120704.320000", "120704.780000", "120705.240000", "120705.700000", "120706.160000", "120706.620000", "120707.080000", "120707.540000", "120708.000000", "120708.460000", "120708.920000", "120709.380000", "120709.840000", "120710.300000", "120710.760000", "120711.220000", "120711.680000", "120712.140000", "120712.600000", "120713.060000", "120713.520000", "120713.980000", "120714.440000", "120714.900000", "120715.360000", "120715.820000", "120716.280000", "120716.740000", "120717.200000", "120717.660000", "120718.120000", "120718.580000", "120719.040000", "120719.500000", "120719.960000", "120720.420000", "120720.880000", "120721.340000", "120721.800000", "120722.260000", "120722.720000", "120723.180000", "120723.640000", "120724.100000", "120724.560000", "120725.020000", "120725.480000", "120725.940000", "120726.400000", "120726.860000", "120727.320000", "120727.780000", "120728.240000", "120728.700000", "120729.160000", "120729.620000", "120730.080000", "120730.540000", "120731.000000", "120731.460000", "120731.920000", "120732.380000", "120732.840000", "120733.300000", "120733.760000", "120734.220000", "120734.680000", "120735.140000", "120735.600000", "120736.060000", "120736.520000", "120736.980000", "120737.440000", "120737.900000", "120738.360000", "120738.820000", "120739.280000", "120739.740000", "120740.200000", "120740.660000", "120741.120000", "120741.580000", "120742.040000", "120742.500000", "120742.960000", "120743.420000", "120743.880000", "120744.340000", "120744.800000", "120745.260000", "120745.720000", "120746.180000", "120746.640000", "120747.100000", "120747.560000", "120748.020000", "120748.480000", "120748.940000", "120749.400000", "120749.860000", "120750.320000", "120750.780000", "120751.240000", "120751.700000", "120752.160000", "120752.620000", "120753.080000", "120753.540000", "120754.000000", "120754.460000", "120754.920000", "120755.380000", "120755.840000", "120756.300000", "120756.760000", "120757.220000", "120757.680000", "120758.140000", "120758.600000", "120759.060000", "120759.520000", "120759.980000", "120800.440000", "120800.900000", "120801.360000", "120801.820000", "120802.280000", "120802.740000", "120803.200000", "120803.660000", "120804.120000", "120804.580000", "120805.040000", "120805.500000", "120805.960000", "120806.420000", "120806.880000", "120807.340000", "120807.800000", "120808.260000", "120808.720000", "120809.180000", "120809.640000", "120810.100000", "120810.560000", "120811.020000", "120811.480000", "120811.940000", "120812.400000", "120812.860000", "120813.320000", "120813.780000", "120814.240000", "120814.700000", "120815.160000", "120815.620000", "120816.080000", "120816.540000", "120817.000000", "120817.460000", "120817.920000", "120818.380000", "120818.840000", "120819.300000", "120819.760000", "120820.220000", "120820.680000", "120821.140000", "120821.600000", "120822.060000", "120822.520000", "120822.980000", "120823.440000", "120823.900000", "120824.360000", "120824.820000", "120825.280000", "120825.740000", "120826.200000", "120826.660000", "120827.120000", "120827.580000", "120828.040000", "120828.500000", "120828.960000", "120829.420000", "120829.880000", "120830.340000", "120830.800000", "120831.260000", "120831.720000", "120832.180000", "120832.640000", "120833.100000", "120833.560000", "120834.020000", "120834.480000", "120834.940000", "120835.400000", "120835.860000", "120836.320000", "120836.780000", "120837.240000", "120837.700000", "120838.160000", "120838.620000", "120839.080000", "120839.540000", "120840.000000", "120840.460000", "120840.920000", "120841.380000", "120841.840000", "120842.300000", "120842.760000", "120843.220000", "120843.680000", "120844.140000", "120844.600000", "120845.060000", "120845.520000", "120845.980000", "120846.440000", "120846.900000", "120847.360000", "120847.820000", "120848.280000", "120848.740000", "120849.200000", "120849.660000", "120850.120000", "120850.580000", "120851.040000", "120851.500000", "120851.960000", "120852.420000", "120852.880000", "120853.340000", "120853.800000", "120854.260000", "120854.720000", "120855.180000", "120855.640000", "120856.100000", "120856.560000", "120857.020000", "120857.480000", "120857.940000", "120858.400000", "120858.860000", "120859.320000", "120859.780000", "120900.240000", "120900.700000", "120901.160000", "120901.620000", "120902.080000", "120902.540000", "120903.000000", "120903.460000", "120903.920000", "120904.380000", "120904.840000", "120905.300000", "120905.760000", "120906.220000", "120906.680000", "120907.140000", "120907.600000", "120908.060000", "120908.520000", "120908.980000", "120909.440000", "120909.900000", "120910.360000", "120910.820000", "120911.280000", "120911.740000", "120912.200000", "120912.660000", "120913.120000", "120913.580000", "120914.040000", "120914.500000", "120914.960000", "120915.420000", "120915.880000", "120916.340000", "120916.800000", "120917.260000", "120917.720000", "120918.180000", "120918.640000", "120919.100000", "120919.560000", "120920.020000", "120920.480000", "120920.940000", "120921.400000", "120921.860000", "120922.320000", "120922.780000", "120923.240000", "120923.700000", "120924.160000", "120924.620000"],
