{
  "AcquisitionMatrixPE": 82,
  "AcquisitionNumber": 1,
  "AcquisitionTime": "12:46:39.422500",
  "BandwidthPerPixelPhaseEncode": 24.888,
  "BaseResolution": 82,
  "BodyPartExamined": "BRAIN",
  "ConsistencyInfo": "N4_VE11C_LATEST_20160120",
  "ConversionSoftware": "dcm2niix",
  "ConversionSoftwareVersion": "v1.0.20201102",
  "DerivedVendorReportedEchoSpacing": 0.00049,
  "DeviceSerialNumber": "66112",
  "DwellTime": 2e-06,
  "EchoTime": 0.0272,
  "EchoTrainLength": 82,
  "EffectiveEchoSpacing": 0.00049,
  "FlipAngle": 44,
  "ImageComments": "Unaliased MB8/PE3",
  "ImageOrientationPatientDICOM": [0.997677, -0.0405818, 0.0547082, 0.0391988, 0.99889, 0.0261191],
  "ImageType": [
    "ORIGINAL",
    "PRIMARY",
    "M",
    "MB",
    "ND",
    "NORM",
    "MOSAIC"
],
  "ImagingFrequency": 123.252,
  "InPlanePhaseEncodingDirectionDICOM": "COL",
  "InstitutionAddress": "Maynard 3,Hanover,NH,US,03755",
  "InstitutionName": "Dartmouth College - PBS",
  "InstitutionalDepartmentName": "Department",
  "MRAcquisitionType": "2D",
  "MagneticFieldStrength": 3,
  "Manufacturer": "Siemens",
  "ManufacturersModelName": "Prisma",
  "Modality": "MR",
  "MultibandAccelerationFactor": 8,
  "PartialFourier": 1,
  "PatientPosition": "HFS",
  "PercentPhaseFOV": 100,
  "PercentSampling": 100,
  "PhaseEncodingDirection": "j-",
  "PhaseEncodingSteps": 82,
  "PhaseResolution": 1,
  "PixelBandwidth": 3050,
  "ProcedureStepDescription": "Wager_Wager^1076_spacetop",
  "ProtocolName": "func_run-02_task-faces_acq-ap-mb8",
  "PulseSequenceDetails": "%CustomerSeq%\\cmrr_mbep2d_bold",
  "ReceiveCoilActiveElements": "HEA;HEP",
  "ReceiveCoilName": "Head_32",
  "ReconMatrixPE": 82,
  "RepetitionTime": 0.46,
  "SAR": 0.0887424,
  "ScanOptions": "FS",
  "ScanningSequence": "EP",
  "SequenceName": "epfid2d1_82",
  "SequenceVariant": "SK\\SS",
  "SeriesDescription": "func_run-02_task-faces_acq-ap-mb8",
  "SeriesNumber": 20,
  "ShimSetting": [4171, -7696, -7230, 576, -1, 12, 5, 54],
  "SliceThickness": 2.7,
  "SliceTiming": [0, 0.25, 0.0625, 0.3125, 0.125, 0.3775, 0.1875, 0, 0.25, 0.0625, 0.3125, 0.125, 0.3775, 0.1875, 0, 0.25, 0.0625, 0.3125, 0.125, 0.3775, 0.1875, 0, 0.25, 0.0625, 0.3125, 0.125, 0.3775, 0.1875, 0, 0.25, 0.0625, 0.3125, 0.125, 0.3775, 0.1875, 0, 0.25, 0.0625, 0.3125, 0.125, 0.3775, 0.1875, 0, 0.25, 0.0625, 0.3125, 0.125, 0.3775, 0.1875, 0, 0.25, 0.0625, 0.3125, 0.125, 0.3775, 0.1875],
  "SoftwareVersions": "syngo MR E11",
  "SpacingBetweenSlices": 2.7,
  "StationName": "AWP66112",
  "TaskName": "faces",
  "TotalReadoutTime": 0.03969,
  "TxRefAmp": 240.18,
  "WipMemBlock": "9df67040-47c7-4338-9573-1f42733b81a0||Sequence: R016 ve11c/master r/e634e98; Dec 19 2017 11:00:25 by eja",
  "dcmmeta_affine": [
    [-2.6766953468322754, 0.10516759008169174, 0.15041010081768036, 108.71733856201172],
    [0.10887788236141205, 2.6799488067626953, 0.06456752121448517, -96.07764434814453],
    [0.1467781364917755, -0.07007552683353424, 2.6950337886810303, -46.823123931884766],
    [0.0, 0.0, 0.0, 1.0]
],
  "dcmmeta_reorient_transform": [
    [0.0, -1.0, 0.0, 81.0],
    [1.0, 0.0, 0.0, 0.0],
    [0.0, 0.0, 1.0, 0.0],
    [0.0, 0.0, 0.0, 1.0]
],
  "dcmmeta_shape": [82, 82, 56, 914],
  "dcmmeta_slice_dim": 2,
  "dcmmeta_version": 0.6,
  "global": {
    "const": {
      "AccessionNumber": "A003471",
      "AcquisitionMatrix": [82, 0, 0, 82],
      "AngioFlag": "N",
      "BitsAllocated": 16,
      "BitsStored": 16,
      "BodyPartExamined": "BRAIN",
      "Columns": 656,
      "EchoNumbers": 1,
      "EchoTime": 27.2,
      "EchoTrainLength": 82,
      "FlipAngle": 44.0,
      "HighBit": 15,
      "ImageOrientationPatient": [0.99767736889174, -0.0405817561839, 0.05470821388323, 0.03919882801113, 0.99889000724505, 0.02611906025387],
      "ImagePositionPatient": [-915.63060255019, -858.89558203476, -114.73624497139],
      "ImageType": [
        "ORIGINAL",
        "PRIMARY",
        "M",
        "MB",
        "ND",
        "NORM",
        "MOSAIC"
],
      "ImagedNucleus": "1H",
      "ImagingFrequency": 123.252123,
      "InPlanePhaseEncodingDirection": "COL",
      "MRAcquisitionType": "2D",
      "MagneticFieldStrength": 3.0,
      "Manufacturer": "SIEMENS",
      "ManufacturerModelName": "Prisma",
      "Modality": "MR",
      "NumberOfAverages": 1.0,
      "NumberOfPhaseEncodingSteps": 82,
      "PercentPhaseFieldOfView": 100.0,
      "PercentSampling": 100.0,
      "PerformedProcedureStepStartTime": "111554.603000",
      "PhotometricInterpretation": "MONOCHROME2",
      "PixelBandwidth": 3050.0,
      "PixelRepresentation": 0,
      "PixelSpacing": [2.6829268932343, 2.6829268932343],
      "ProtocolName": "func_run-02_task-faces_acq-ap-mb8",
      "RepetitionTime": 460.0,
      "Rows": 656,
      "SAR": 0.08874243483599,
      "SamplesPerPixel": 1,
      "ScanOptions": "FS",
      "ScanningSequence": "EP",
      "SequenceName": "epfid2d1_82",
      "SequenceVariant": [
        "SK",
        "SS"
],
      "SeriesDescription": "func_run-02_task-faces_acq-ap-mb8",
      "SeriesNumber": 20,
      "SeriesTime": "124659.217000",
      "SliceLocation": -42.978229165934,
      "SliceThickness": 2.7000000476837,
      "SmallestImagePixelValue": 0,
      "SoftwareVersions": "syngo MR E11",
      "SpacingBetweenSlices": 2.6999999679455,
      "SpecificCharacterSet": "ISO_IR 100",
      "StudyID": "2",
      "StudyTime": "111554.564000",
      "TransmitCoilName": "Body",
      "VariableFlipAngleFlag": "N",
      "WindowCenterWidthExplanation": "Algo1",
      "dBdt": 0.0},
    "slices": {}
  },
  "time": {
    "samples": {
      "AcquisitionNumber": [1, 2, 3, 4, 5, 6, 7, 8, 9, 10, 11, 12, 13, 14, 15, 16, 17, 18, 19, 20, 21, 22, 23, 24, 25, 26, 27, 28, 29, 30, 31, 32, 33, 34, 35, 36, 37, 38, 39, 40, 41, 42, 43, 44, 45, 46, 47, 48, 49, 50, 51, 52, 53, 54, 55, 56, 57, 58, 59, 60, 61, 62, 63, 64, 65, 66, 67, 68, 69, 70, 71, 72, 73, 74, 75, 76, 77, 78, 79, 80, 81, 82, 83, 84, 85, 86, 87, 88, 89, 90, 91, 92, 93, 94, 95, 96, 97, 98, 99, 100, 101, 102, 103, 104, 105, 106, 107, 108, 109, 110, 111, 112, 113, 114, 115, 116, 117, 118, 119, 120, 121, 122, 123, 124, 125, 126, 127, 128, 129, 130, 131, 132, 133, 134, 135, 136, 137, 138, 139, 140, 141, 142, 143, 144, 145, 146, 147, 148, 149, 150, 151, 152, 153, 154, 155, 156, 157, 158, 159, 160, 161, 162, 163, 164, 165, 166, 167, 168, 169, 170, 171, 172, 173, 174, 175, 176, 177, 178, 179, 180, 181, 182, 183, 184, 185, 186, 187, 188, 189, 190, 191, 192, 193, 194, 195, 196, 197, 198, 199, 200, 201, 202, 203, 204, 205, 206, 207, 208, 209, 210, 211, 212, 213, 214, 215, 216, 217, 218, 219, 220, 221, 222, 223, 224, 225, 226, 227, 228, 229, 230, 231, 232, 233, 234, 235, 236, 237, 238, 239, 240, 241, 242, 243, 244, 245, 246, 247, 248, 249, 250, 251, 252, 253, 254, 255, 256, 257, 258, 259, 260, 261, 262, 263, 264, 265, 266, 267, 268, 269, 270, 271, 272, 273, 274, 275, 276, 277, 278, 279, 280, 281, 282, 283, 284, 285, 286, 287, 288, 289, 290, 291, 292, 293, 294, 295, 296, 297, 298, 299, 300, 301, 302, 303, 304, 305, 306, 307, 308, 309, 310, 311, 312, 313, 314, 315, 316, 317, 318, 319, 320, 321, 322, 323, 324, 325, 326, 327, 328, 329, 330, 331, 332, 333, 334, 335, 336, 337, 338, 339, 340, 341, 342, 343, 344, 345, 346, 347, 348, 349, 350, 351, 352, 353, 354, 355, 356, 357, 358, 359, 360, 361, 362, 363, 364, 365, 366, 367, 368, 369, 370, 371, 372, 373, 374, 375, 376, 377, 378, 379, 380, 381, 382, 383, 384, 385, 386, 387, 388, 389, 390, 391, 392, 393, 394, 395, 396, 397, 398, 399, 400, 401, 402, 403, 404, 405, 406, 407, 408, 409, 410, 411, 412, 413, 414, 415, 416, 417, 418, 419, 420, 421, 422, 423, 424, 425, 426, 427, 428, 429, 430, 431, 432, 433, 434, 435, 436, 437, 438, 439, 440, 441, 442, 443, 444, 445, 446, 447, 448, 449, 450, 451, 452, 453, 454, 455, 456, 457, 458, 459, 460, 461, 462, 463, 464, 465, 466, 467, 468, 469, 470, 471, 472, 473, 474, 475, 476, 477, 478, 479, 480, 481, 482, 483, 484, 485, 486, 487, 488, 489, 490, 491, 492, 493, 494, 495, 496, 497, 498, 499, 500, 501, 502, 503, 504, 505, 506, 507, 508, 509, 510, 511, 512, 513, 514, 515, 516, 517, 518, 519, 520, 521, 522, 523, 524, 525, 526, 527, 528, 529, 530, 531, 532, 533, 534, 535, 536, 537, 538, 539, 540, 541, 542, 543, 544, 545, 546, 547, 548, 549, 550, 551, 552, 553, 554, 555, 556, 557, 558, 559, 560, 561, 562, 563, 564, 565, 566, 567, 568, 569, 570, 571, 572, 573, 574, 575, 576, 577, 578, 579, 580, 581, 582, 583, 584, 585, 586, 587, 588, 589, 590, 591, 592, 593, 594, 595, 596, 597, 598, 599, 600, 601, 602, 603, 604, 605, 606, 607, 608, 609, 610, 611, 612, 613, 614, 615, 616, 617, 618, 619, 620, 621, 622, 623, 624, 625, 626, 627, 628, 629, 630, 631, 632, 633, 634, 635, 636, 637, 638, 639, 640, 641, 642, 643, 644, 645, 646, 647, 648, 649, 650, 651, 652, 653, 654, 655, 656, 657, 658, 659, 660, 661, 662, 663, 664, 665, 666, 667, 668, 669, 670, 671, 672, 673, 674, 675, 676, 677, 678, 679, 680, 681, 682, 683, 684, 685, 686, 687, 688, 689, 690, 691, 692, 693, 694, 695, 696, 697, 698, 699, 700, 701, 702, 703, 704, 705, 706, 707, 708, 709, 710, 711, 712, 713, 714, 715, 716, 717, 718, 719, 720, 721, 722, 723, 724, 725, 726, 727, 728, 729, 730, 731, 732, 733, 734, 735, 736, 737, 738, 739, 740, 741, 742, 743, 744, 745, 746, 747, 748, 749, 750, 751, 752, 753, 754, 755, 756, 757, 758, 759, 760, 761, 762, 763, 764, 765, 766, 767, 768, 769, 770, 771, 772, 773, 774, 775, 776, 777, 778, 779, 780, 781, 782, 783, 784, 785, 786, 787, 788, 789, 790, 791, 792, 793, 794, 795, 796, 797, 798, 799, 800, 801, 802, 803, 804, 805, 806, 807, 808, 809, 810, 811, 812, 813, 814, 815, 816, 817, 818, 819, 820, 821, 822, 823, 824, 825, 826, 827, 828, 829, 830, 831, 832, 833, 834, 835, 836, 837, 838, 839, 840, 841, 842, 843, 844, 845, 846, 847, 848, 849, 850, 851, 852, 853, 854, 855, 856, 857, 858, 859, 860, 861, 862, 863, 864, 865, 866, 867, 868, 869, 870, 871, 872, 873, 874, 875, 876, 877, 878, 879, 880, 881, 882, 883, 884, 885, 886, 887, 888, 889, 890, 891, 892, 893, 894, 895, 896, 897, 898, 899, 900, 901, 902, 903, 904, 905, 906, 907, 908, 909, 910, 911, 912, 913, 914],
      "AcquisitionTime": ["124639.422500", "124639.882500", "124640.342500", "124640.802500", "124641.262500", "124641.722500", "124642.182500", "124642.642500", "124643.102500", "124643.562500", "124644.022500", "124644.482500", "124644.942500", "124645.402500", "124645.862500", "124646.322500", "124646.782500", "124647.242500", "124647.702500", "124648.162500", "124648.622500", "124649.082500", "124649.542500", "124650.002500", "124650.462500", "124650.922500", "124651.382500", "124651.842500", "124652.302500", "124652.762500", "124653.222500", "124653.682500", "124654.142500", "124654.602500", "124655.062500", "124655.522500", "124655.982500", "124656.442500", "124656.902500", "124657.362500", "124657.822500", "124658.282500", "124658.742500", "124659.202500", "124659.662500", "124700.122500", "124700.582500", "124701.042500", "124701.502500", "124701.962500", "124702.422500", "124702.882500", "124703.342500", "124703.802500", "124704.262500", "124704.722500", "124705.182500", "124705.642500", "124706.102500", "124706.562500", "124707.022500", "124707.482500", "124707.942500", "124708.402500", "124708.862500", "124709.322500", "124709.782500", "124710.242500", "124710.702500", "124711.162500", "124711.622500", "124712.082500", "124712.542500", "124713.002500", "124713.462500", "124713.922500", "124714.382500", "124714.842500", "124715.302500", "124715.762500", "124716.222500", "124716.682500", "124717.142500", "124717.602500", "124718.062500", "124718.522500", "124718.982500", "124719.442500", "124719.902500", "124720.362500", "124720.822500", "124721.282500", "124721.742500", "124722.202500", "124722.662500", "124723.122500", "124723.582500", "124724.042500", "124724.502500", "124724.962500", "124725.422500", "124725.882500", "124726.342500", "124726.802500", "124727.262500", "124727.722500", "124728.182500", "124728.642500", "124729.102500", "124729.562500", "124730.022500", "124730.482500", "124730.942500", "124731.402500", "124731.862500", "124732.322500", "124732.782500", "124733.242500", "124733.702500", "124734.162500", "124734.622500", "124735.082500", "124735.542500", "124736.002500", "124736.462500", "124736.922500", "124737.382500", "124737.842500", "124738.302500", "124738.762500", "124739.222500", "124739.682500", "124740.142500", "124740.602500", "124741.062500", "124741.522500", "124741.982500", "124742.442500", "124742.902500", "124743.362500", "124743.822500", "124744.282500", "124744.742500", "124745.202500", "124745.662500", "124746.122500", "124746.582500", "124747.042500", "124747.502500", "124747.962500", "124748.422500", "124748.882500", "124749.342500", "124749.802500", "124750.262500", "124750.722500", "124751.182500", "124751.642500", "124752.102500", "124752.562500", "124753.022500", "124753.482500", "124753.942500", "124754.402500", "124754.862500", "124755.322500", "124755.782500", "124756.242500", "124756.702500", "124757.162500", "124757.622500", "124758.082500", "124758.542500", "124759.002500", "124759.462500", "124759.922500", "124800.382500", "124800.842500", "124801.302500", "124801.762500", "124802.222500", "124802.682500", "124803.142500", "124803.602500", "124804.062500", "124804.522500", "124804.982500", "124805.442500", "124805.902500", "124806.362500", "124806.822500", "124807.282500", "124807.742500", "124808.202500", "124808.662500", "124809.122500", "124809.582500", "124810.042500", "124810.502500", "124810.962500", "124811.422500", "124811.882500", "124812.342500", "124812.802500", "124813.262500", "124813.722500", "124814.182500", "124814.642500", "124815.102500", "124815.562500", "124816.022500", "124816.482500", "124816.942500", "124817.402500", "124817.862500", "124818.322500", "124818.782500", "124819.242500", "124819.702500", "124820.162500", "124820.622500", "124821.082500", "124821.542500", "124822.002500", "124822.462500", "124822.922500", "124823.382500", "124823.842500", "124824.302500", "124824.762500", "124825.222500", "124825.682500", "124826.142500", "124826.602500", "124827.062500", "124827.522500", "124827.982500", "124828.442500", "124828.902500", "124829.362500", "124829.822500", "124830.282500", "124830.742500", "124831.202500", "124831.662500", "124832.122500", "124832.582500", "124833.042500", "124833.502500", "124833.962500", "124834.422500", "124834.882500", "124835.342500", "124835.802500", "124836.262500", "124836.722500", "124837.182500", "124837.642500", "124838.102500", "124838.562500", "124839.022500", "124839.482500", "124839.942500", "124840.402500", "124840.862500", "124841.322500", "124841.782500", "124842.242500", "124842.702500", "124843.162500", "124843.622500", "124844.082500", "124844.542500", "124845.002500", "124845.462500", "124845.922500", "124846.382500", "124846.842500", "124847.302500", "124847.762500", "124848.222500", "124848.682500", "124849.142500", "124849.602500", "124850.062500", "124850.522500", "124850.982500", "124851.442500", "124851.902500", "124852.362500", "124852.822500", "124853.282500", "124853.742500", "124854.202500", "124854.662500", "124855.122500", "124855.582500", "124856.042500", "124856.502500", "124856.962500", "124857.422500", "124857.882500", "124858.342500", "124858.802500", "124859.262500", "124859.722500", "124900.182500", "124900.642500", "124901.102500", "124901.562500", "124902.022500", "124902.482500", "124902.942500", "124903.402500", "124903.862500", "124904.322500", "124904.782500", "124905.242500", "124905.702500", "124906.162500", "124906.622500", "124907.082500", "124907.542500", "124908.002500", "124908.462500", "124908.922500", "124909.382500", "124909.842500", "124910.302500", "124910.762500", "124911.222500", "124911.682500", "124912.142500", "124912.602500", "124913.062500", "124913.522500", "124913.982500", "124914.442500", "124914.902500", "124915.362500", "124915.822500", "124916.282500", "124916.742500", "124917.202500", "124917.662500", "124918.122500", "124918.582500", "124919.042500", "124919.502500", "124919.962500", "124920.422500", "124920.882500", "124921.342500", "124921.802500", "124922.262500", "124922.722500", "124923.182500", "124923.642500", "124924.102500", "124924.562500", "124925.022500", "124925.482500", "124925.942500", "124926.402500", "124926.862500", "124927.322500", "124927.782500", "124928.242500", "124928.702500", "124929.162500", "124929.622500", "124930.082500", "124930.542500", "124931.002500", "124931.462500", "124931.922500", "124932.382500", "124932.842500", "124933.302500", "124933.762500", "124934.222500", "124934.682500", "124935.142500", "124935.602500", "124936.062500", "124936.522500", "124936.982500", "124937.442500", "124937.902500", "124938.362500", "124938.822500", "124939.282500", "124939.742500", "124940.202500", "124940.662500", "124941.122500", "124941.582500", "124942.042500", "124942.502500", "124942.962500", "124943.422500", "124943.882500", "124944.342500", "124944.802500", "124945.262500", "124945.722500", "124946.182500", "124946.642500", "124947.102500", "124947.562500", "124948.022500", "124948.482500", "124948.942500", "124949.402500", "124949.862500", "124950.322500", "124950.782500", "124951.242500", "124951.702500", "124952.162500", "124952.622500", "124953.082500", "124953.542500", "124954.002500", "124954.462500", "124954.922500", "124955.382500", "124955.842500", "124956.302500", "124956.762500", "124957.222500", "124957.682500", "124958.142500", "124958.602500", "124959.062500", "124959.522500", "124959.982500", "125000.442500", "125000.902500", "125001.362500", "125001.822500", "125002.282500", "125002.742500", "125003.202500", "125003.662500", "125004.122500", "125004.582500", "125005.042500", "125005.502500", "125005.962500", "125006.422500", "125006.882500", "125007.342500", "125007.802500", "125008.262500", "125008.722500", "125009.182500", "125009.642500", "125010.102500", "125010.562500", "125011.022500", "125011.482500", "125011.942500", "125012.402500", "125012.862500", "125013.322500", "125013.782500", "125014.242500", "125014.702500", "125015.162500", "125015.622500", "125016.082500", "125016.542500", "125017.002500", "125017.462500", "125017.922500", "125018.382500", "125018.842500", "125019.302500", "125019.762500", "125020.222500", "125020.682500", "125021.142500", "125021.602500", "125022.062500", "125022.522500", "125022.982500", "125023.442500", "125023.902500", "125024.362500", "125024.822500", "125025.282500", "125025.742500", "125026.202500", "125026.662500", "125027.122500", "125027.582500", "125028.042500", "125028.502500", "125028.962500", "125029.422500", "125029.882500", "125030.342500", "125030.802500", "125031.262500", "125031.722500", "125032.182500", "125032.642500", "125033.102500", "125033.562500", "125034.022500", "125034.482500", "125034.942500", "125035.402500", "125035.862500", "125036.322500", "125036.782500", "125037.242500", "125037.702500", "125038.162500", "125038.622500", "125039.082500", "125039.542500", "125040.002500", "125040.462500", "125040.922500", "125041.382500", "125041.842500", "125042.302500", "125042.762500", "125043.222500", "125043.682500", "125044.142500", "125044.602500", "125045.062500", "125045.522500", "125045.982500", "125046.442500", "125046.902500", "125047.362500", "125047.822500", "125048.282500", "125048.742500", "125049.202500", "125049.662500", "125050.122500", "125050.582500", "125051.042500", "125051.502500", "125051.962500", "125052.422500", "125052.882500", "125053.342500", "125053.802500", "125054.262500", "125054.722500", "125055.182500", "125055.642500", "125056.102500", "125056.562500", "125057.022500", "125057.482500", "125057.942500", "125058.402500", "125058.862500", "125059.322500", "125059.782500", "125100.242500", "125100.702500", "125101.162500", "125101.622500", "125102.082500", "125102.542500", "125103.002500", "125103.462500", "125103.922500", "125104.382500", "125104.842500", "125105.302500", "125105.762500", "125106.222500", "125106.682500", "125107.142500", "125107.602500", "125108.062500", "125108.522500", "125108.982500", "125109.442500", "125109.902500", "125110.362500", "125110.822500", "125111.282500", "125111.742500", "125112.202500", "125112.662500", "125113.122500", "125113.582500", "125114.042500", "125114.502500", "125114.962500", "125115.422500", "125115.882500", "125116.342500", "125116.802500", "125117.262500", "125117.722500", "125118.182500", "125118.642500", "125119.102500", "125119.562500", "125120.022500", "125120.482500", "125120.942500", "125121.402500", "125121.862500", "125122.322500", "125122.782500", "125123.242500", "125123.702500", "125124.162500", "125124.622500", "125125.082500", "125125.542500", "125126.002500", "125126.462500", "125126.922500", "125127.382500", "125127.842500", "125128.302500", "125128.762500", "125129.222500", "125129.682500", "125130.142500", "125130.602500", "125131.062500", "125131.522500", "125131.982500", "125132.442500", "125132.902500", "125133.362500", "125133.822500", "125134.282500", "125134.742500", "125135.202500", "125135.662500", "125136.122500", "125136.582500", "125137.042500", "125137.502500", "125137.962500", "125138.422500", "125138.882500", "125139.342500", "125139.802500", "125140.262500", "125140.722500", "125141.182500", "125141.642500", "125142.102500", "125142.562500", "125143.022500", "125143.482500", "125143.942500", "125144.402500", "125144.862500", "125145.322500", "125145.782500", "125146.242500", "125146.702500", "125147.162500", "125147.622500", "125148.082500", "125148.542500", "125149.002500", "125149.462500", "125149.922500", "125150.382500", "125150.842500", "125151.302500", "125151.762500", "125152.222500", "125152.682500", "125153.142500", "125153.602500", "125154.062500", "125154.522500", "125154.982500", "125155.442500", "125155.902500", "125156.362500", "125156.822500", "125157.282500", "125157.742500", "125158.202500", "125158.662500", "125159.122500", "125159.582500", "125200.042500", "125200.502500", "125200.962500", "125201.422500", "125201.882500", "125202.342500", "125202.802500", "125203.262500", "125203.722500", "125204.182500", "125204.642500", "125205.102500", "125205.562500", "125206.022500", "125206.482500", "125206.942500", "125207.402500", "125207.862500", "125208.322500", "125208.782500", "125209.242500", "125209.702500", "125210.162500", "125210.622500", "125211.082500", "125211.542500", "125212.002500", "125212.462500", "125212.922500", "125213.382500", "125213.842500", "125214.302500", "125214.762500", "125215.222500", "125215.682500", "125216.142500", "125216.602500", "125217.062500", "125217.522500", "125217.982500", "125218.442500", "125218.902500", "125219.362500", "125219.822500", "125220.282500", "125220.742500", "125221.202500", "125221.662500", "125222.122500", "125222.582500", "125223.042500", "125223.502500", "125223.962500", "125224.422500", "125224.882500", "125225.342500", "125225.802500", "125226.262500", "125226.722500", "125227.182500", "125227.642500", "125228.102500", "125228.562500", "125229.022500", "125229.482500", "125229.942500", "125230.402500", "125230.862500", "125231.322500", "125231.782500", "125232.242500", "125232.702500", "125233.162500", "125233.622500", "125234.082500", "125234.542500", "125235.002500", "125235.462500", "125235.922500", "125236.382500", "125236.842500", "125237.302500", "125237.762500", "125238.222500", "125238.682500", "125239.142500", "125239.602500", "125240.062500", "125240.522500", "125240.982500", "125241.442500", "125241.902500", "125242.362500", "125242.822500", "125243.282500", "125243.742500", "125244.202500", "125244.662500", "125245.122500", "125245.582500", "125246.042500", "125246.502500", "125246.962500", "125247.422500", "125247.882500", "125248.342500", "125248.802500", "125249.262500", "125249.722500", "125250.182500", "125250.642500", "125251.102500", "125251.562500", "125252.022500", "125252.482500", "125252.942500", "125253.402500", "125253.862500", "125254.322500", "125254.782500", "125255.242500", "125255.702500", "125256.162500", "125256.622500", "125257.082500", "125257.542500", "125258.002500", "125258.462500", "125258.922500", "125259.382500", "125259.842500", "125300.302500", "125300.762500", "125301.222500", "125301.682500", "125302.142500", "125302.602500", "125303.062500", "125303.522500", "125303.982500", "125304.442500", "125304.902500", "125305.362500", "125305.822500", "125306.282500", "125306.742500", "125307.202500", "125307.662500", "125308.122500", "125308.582500", "125309.042500", "125309.502500", "125309.962500", "125310.422500", "125310.882500", "125311.342500", "125311.802500", "125312.262500", "125312.722500", "125313.182500", "125313.642500", "125314.102500", "125314.562500", "125315.022500", "125315.482500", "125315.942500", "125316.402500", "125316.862500", "125317.322500", "125317.782500", "125318.242500", "125318.702500", "125319.162500", "125319.622500", "125320.082500", "125320.542500", "125321.002500", "125321.462500", "125321.922500", "125322.382500", "125322.842500", "125323.302500", "125323.762500", "125324.222500", "125324.682500", "125325.142500", "125325.602500", "125326.062500", "125326.522500", "125326.982500", "125327.442500", "125327.902500", "125328.362500", "125328.822500", "125329.282500", "125329.742500", "125330.202500", "125330.662500", "125331.122500", "125331.582500", "125332.042500", "125332.502500", "125332.962500", "125333.422500", "125333.882500", "125334.342500", "125334.802500", "125335.262500", "125335.722500", "125336.182500", "125336.642500", "125337.102500", "125337.562500", "125338.022500", "125338.482500", "125338.942500", "125339.402500"],
