{
  "AcquisitionMatrixPE": 82,
  "AcquisitionNumber": 1,
  "AcquisitionTime": "13:04:49.017500",
  "BandwidthPerPixelPhaseEncode": 24.888,
  "BaseResolution": 82,
  "BodyPartExamined": "BRAIN",
  "ConsistencyInfo": "N4_VE11C_LATEST_20160120",
  "ConversionSoftware": "dcm2niix",
  "ConversionSoftwareVersion": "v1.0.20201102",
  "DerivedVendorReportedEchoSpacing": 0.00049,
  "DeviceSerialNumber": "66112",
  "DwellTime": 2e-06,
  "EchoTime": 0.0272,
  "EchoTrainLength": 82,
  "EffectiveEchoSpacing": 0.00049,
  "FlipAngle": 44,
  "ImageComments": "Unaliased MB8/PE3",
  "ImageOrientationPatientDICOM": [0.998019, -0.0210373, 0.059292, 0.0188145, 0.999108, 0.0378022],
  "ImageType": [
    "ORIGINAL",
    "PRIMARY",
    "M",
    "MB",
    "ND",
    "NORM",
    "MOSAIC"
],
  "ImagingFrequency": 123.252,
  "InPlanePhaseEncodingDirectionDICOM": "COL",
  "InstitutionAddress": "Maynard 3,Hanover,NH,US,03755",
  "InstitutionName": "Dartmouth College - PBS",
  "InstitutionalDepartmentName": "Department",
  "MRAcquisitionType": "2D",
  "MagneticFieldStrength": 3,
  "Manufacturer": "Siemens",
  "ManufacturersModelName": "Prisma",
  "Modality": "MR",
  "MultibandAccelerationFactor": 8,
  "PartialFourier": 1,
  "PatientPosition": "HFS",
  "PercentPhaseFOV": 100,
  "PercentSampling": 100,
  "PhaseEncodingDirection": "j-",
  "PhaseEncodingSteps": 82,
  "PhaseResolution": 1,
  "PixelBandwidth": 3050,
  "ProcedureStepDescription": "Wager_Wager^1076_spacetop",
  "ProtocolName": "func_run-01_task-alignvideo_acq-ap-mb8",
  "PulseSequenceDetails": "%CustomerSeq%\\cmrr_mbep2d_bold",
  "ReceiveCoilActiveElements": "HEA;HEP",
  "ReceiveCoilName": "Head_32",
  "ReconMatrixPE": 82,
  "RepetitionTime": 0.46,
  "SAR": 0.0886955,
  "ScanOptions": "FS",
  "ScanningSequence": "EP",
  "SequenceName": "epfid2d1_82",
  "SequenceVariant": "SK\\SS",
  "SeriesDescription": "func_run-01_task-alignvideo_acq-ap-mb8",
  "SeriesNumber": 32,
  "ShimSetting": [4171, -7695, -7232, 572, -5, 18, 5, 56],
  "SliceThickness": 2.7,
  "SliceTiming": [0, 0.2525, 0.0625, 0.315, 0.125, 0.3775, 0.1875, 0, 0.2525, 0.0625, 0.315, 0.125, 0.3775, 0.1875, 0, 0.2525, 0.0625, 0.315, 0.125, 0.3775, 0.1875, 0, 0.2525, 0.0625, 0.315, 0.125, 0.3775, 0.1875, 0, 0.2525, 0.0625, 0.315, 0.125, 0.3775, 0.1875, 0, 0.2525, 0.0625, 0.315, 0.125, 0.3775, 0.1875, 0, 0.2525, 0.0625, 0.315, 0.125, 0.3775, 0.1875, 0, 0.2525, 0.0625, 0.315, 0.125, 0.3775, 0.1875],
  "SoftwareVersions": "syngo MR E11",
  "SpacingBetweenSlices": 2.7,
  "StationName": "AWP66112",
  "TaskName": "alignvideo",
  "TotalReadoutTime": 0.03969,
  "TxRefAmp": 240.18,
  "WipMemBlock": "66fde28b-ab56-4ec7-9687-34bc030a423c||Sequence: R016 ve11c/master r/e634e98; Dec 19 2017 11:00:25 by eja",
  "dcmmeta_affine": [
    [-2.677612066268921, 0.05047789216041565, 0.1620928794145584, 110.55265808105469],
    [0.05644167214632034, 2.6805338859558105, 0.09885186702013016, -99.83153533935547],
    [0.15907615423202515, -0.10142064094543457, 2.693316698074341, -44.31338882446289],
    [0.0, 0.0, 0.0, 1.0]
],
  "dcmmeta_reorient_transform": [
    [0.0, -1.0, 0.0, 81.0],
    [1.0, 0.0, 0.0, 0.0],
    [0.0, 0.0, 1.0, 0.0],
    [0.0, 0.0, 0.0, 1.0]
],
  "dcmmeta_shape": [82, 82, 56, 839],
  "dcmmeta_slice_dim": 2,
  "dcmmeta_version": 0.6,
  "global": {
    "const": {
      "AccessionNumber": "A003471",
      "AcquisitionMatrix": [82, 0, 0, 82],
      "AngioFlag": "N",
      "BitsAllocated": 16,
      "BitsStored": 16,
      "BodyPartExamined": "BRAIN",
      "Columns": 656,
      "EchoNumbers": 1,
      "EchoTime": 27.2,
      "EchoTrainLength": 82,
      "FlipAngle": 44.0,
      "HighBit": 15,
      "ImageOrientationPatient": [0.99801898081495, -0.0210373493373, 0.05929202194184, 0.01881448705278, 0.99910810525371, 0.0378022366174],
      "ImagePositionPatient": [-897.60315306174, -870.40621658199, -127.29104069474],
      "ImageType": [
        "ORIGINAL",
        "PRIMARY",
        "M",
        "MB",
        "ND",
        "NORM",
        "MOSAIC"
],
      "ImagedNucleus": "1H",
      "ImagingFrequency": 123.252123,
      "InPlanePhaseEncodingDirection": "COL",
      "MRAcquisitionType": "2D",
      "MagneticFieldStrength": 3.0,
      "Manufacturer": "SIEMENS",
      "ManufacturerModelName": "Prisma",
      "Modality": "MR",
      "NumberOfAverages": 1.0,
      "NumberOfPhaseEncodingSteps": 82,
      "PercentPhaseFieldOfView": 100.0,
      "PercentSampling": 100.0,
      "PerformedProcedureStepStartTime": "111554.603000",
      "PhotometricInterpretation": "MONOCHROME2",
      "PixelBandwidth": 3050.0,
      "PixelRepresentation": 0,
      "PixelSpacing": [2.6829268932343, 2.6829268932343],
      "ProtocolName": "func_run-01_task-alignvideo_acq-ap-mb8",
      "RepetitionTime": 460.0,
      "Rows": 656,
      "SAR": 0.08869547325414,
      "SamplesPerPixel": 1,
      "ScanOptions": "FS",
      "ScanningSequence": "EP",
      "SequenceName": "epfid2d1_82",
      "SequenceVariant": [
        "SK",
        "SS"
],
      "SeriesDescription": "func_run-01_task-alignvideo_acq-ap-mb8",
      "SeriesNumber": 32,
      "SeriesTime": "130459.219000",
      "SliceLocation": -41.221747722491,
      "SliceThickness": 2.7000000476837,
      "SmallestImagePixelValue": 0,
      "SoftwareVersions": "syngo MR E11",
      "SpacingBetweenSlices": 2.700000068638,
      "SpecificCharacterSet": "ISO_IR 100",
      "StudyID": "2",
      "StudyTime": "111554.564000",
      "TransmitCoilName": "Body",
      "VariableFlipAngleFlag": "N",
      "WindowCenterWidthExplanation": "Algo1",
      "dBdt": 0.0},
    "slices": {}
  },
  "time": {
    "samples": {
      "AcquisitionNumber": [1, 2, 3, 4, 5, 6, 7, 8, 9, 10, 11, 12, 13, 14, 15, 16, 17, 18, 19, 20, 21, 22, 23, 24, 25, 26, 27, 28, 29, 30, 31, 32, 33, 34, 35, 36, 37, 38, 39, 40, 41, 42, 43, 44, 45, 46, 47, 48, 49, 50, 51, 52, 53, 54, 55, 56, 57, 58, 59, 60, 61, 62, 63, 64, 65, 66, 67, 68, 69, 70, 71, 72, 73, 74, 75, 76, 77, 78, 79, 80, 81, 82, 83, 84, 85, 86, 87, 88, 89, 90, 91, 92, 93, 94, 95, 96, 97, 98, 99, 100, 101, 102, 103, 104, 105, 106, 107, 108, 109, 110, 111, 112, 113, 114, 115, 116, 117, 118, 119, 120, 121, 122, 123, 124, 125, 126, 127, 128, 129, 130, 131, 132, 133, 134, 135, 136, 137, 138, 139, 140, 141, 142, 143, 144, 145, 146, 147, 148, 149, 150, 151, 152, 153, 154, 155, 156, 157, 158, 159, 160, 161, 162, 163, 164, 165, 166, 167, 168, 169, 170, 171, 172, 173, 174, 175, 176, 177, 178, 179, 180, 181, 182, 183, 184, 185, 186, 187, 188, 189, 190, 191, 192, 193, 194, 195, 196, 197, 198, 199, 200, 201, 202, 203, 204, 205, 206, 207, 208, 209, 210, 211, 212, 213, 214, 215, 216, 217, 218, 219, 220, 221, 222, 223, 224, 225, 226, 227, 228, 229, 230, 231, 232, 233, 234, 235, 236, 237, 238, 239, 240, 241, 242, 243, 244, 245, 246, 247, 248, 249, 250, 251, 252, 253, 254, 255, 256, 257, 258, 259, 260, 261, 262, 263, 264, 265, 266, 267, 268, 269, 270, 271, 272, 273, 274, 275, 276, 277, 278, 279, 280, 281, 282, 283, 284, 285, 286, 287, 288, 289, 290, 291, 292, 293, 294, 295, 296, 297, 298, 299, 300, 301, 302, 303, 304, 305, 306, 307, 308, 309, 310, 311, 312, 313, 314, 315, 316, 317, 318, 319, 320, 321, 322, 323, 324, 325, 326, 327, 328, 329, 330, 331, 332, 333, 334, 335, 336, 337, 338, 339, 340, 341, 342, 343, 344, 345, 346, 347, 348, 349, 350, 351, 352, 353, 354, 355, 356, 357, 358, 359, 360, 361, 362, 363, 364, 365, 366, 367, 368, 369, 370, 371, 372, 373, 374, 375, 376, 377, 378, 379, 380, 381, 382, 383, 384, 385, 386, 387, 388, 389, 390, 391, 392, 393, 394, 395, 396, 397, 398, 399, 400, 401, 402, 403, 404, 405, 406, 407, 408, 409, 410, 411, 412, 413, 414, 415, 416, 417, 418, 419, 420, 421, 422, 423, 424, 425, 426, 427, 428, 429, 430, 431, 432, 433, 434, 435, 436, 437, 438, 439, 440, 441, 442, 443, 444, 445, 446, 447, 448, 449, 450, 451, 452, 453, 454, 455, 456, 457, 458, 459, 460, 461, 462, 463, 464, 465, 466, 467, 468, 469, 470, 471, 472, 473, 474, 475, 476, 477, 478, 479, 480, 481, 482, 483, 484, 485, 486, 487, 488, 489, 490, 491, 492, 493, 494, 495, 496, 497, 498, 499, 500, 501, 502, 503, 504, 505, 506, 507, 508, 509, 510, 511, 512, 513, 514, 515, 516, 517, 518, 519, 520, 521, 522, 523, 524, 525, 526, 527, 528, 529, 530, 531, 532, 533, 534, 535, 536, 537, 538, 539, 540, 541, 542, 543, 544, 545, 546, 547, 548, 549, 550, 551, 552, 553, 554, 555, 556, 557, 558, 559, 560, 561, 562, 563, 564, 565, 566, 567, 568, 569, 570, 571, 572, 573, 574, 575, 576, 577, 578, 579, 580, 581, 582, 583, 584, 585, 586, 587, 588, 589, 590, 591, 592, 593, 594, 595, 596, 597, 598, 599, 600, 601, 602, 603, 604, 605, 606, 607, 608, 609, 610, 611, 612, 613, 614, 615, 616, 617, 618, 619, 620, 621, 622, 623, 624, 625, 626, 627, 628, 629, 630, 631, 632, 633, 634, 635, 636, 637, 638, 639, 640, 641, 642, 643, 644, 645, 646, 647, 648, 649, 650, 651, 652, 653, 654, 655, 656, 657, 658, 659, 660, 661, 662, 663, 664, 665, 666, 667, 668, 669, 670, 671, 672, 673, 674, 675, 676, 677, 678, 679, 680, 681, 682, 683, 684, 685, 686, 687, 688, 689, 690, 691, 692, 693, 694, 695, 696, 697, 698, 699, 700, 701, 702, 703, 704, 705, 706, 707, 708, 709, 710, 711, 712, 713, 714, 715, 716, 717, 718, 719, 720, 721, 722, 723, 724, 725, 726, 727, 728, 729, 730, 731, 732, 733, 734, 735, 736, 737, 738, 739, 740, 741, 742, 743, 744, 745, 746, 747, 748, 749, 750, 751, 752, 753, 754, 755, 756, 757, 758, 759, 760, 761, 762, 763, 764, 765, 766, 767, 768, 769, 770, 771, 772, 773, 774, 775, 776, 777, 778, 779, 780, 781, 782, 783, 784, 785, 786, 787, 788, 789, 790, 791, 792, 793, 794, 795, 796, 797, 798, 799, 800, 801, 802, 803, 804, 805, 806, 807, 808, 809, 810, 811, 812, 813, 814, 815, 816, 817, 818, 819, 820, 821, 822, 823, 824, 825, 826, 827, 828, 829, 830, 831, 832, 833, 834, 835, 836, 837, 838, 839],
      "AcquisitionTime": ["130449.017500", "130449.477500", "130449.937500", "130450.397500", "130450.857500", "130451.317500", "130451.777500", "130452.237500", "130452.697500", "130453.157500", "130453.617500", "130454.077500", "130454.537500", "130454.997500", "130455.457500", "130455.917500", "130456.377500", "130456.837500", "130457.297500", "130457.757500", "130458.217500", "130458.677500", "130459.137500", "130459.597500", "130500.057500", "130500.517500", "130500.977500", "130501.437500", "130501.897500", "130502.357500", "130502.817500", "130503.277500", "130503.737500", "130504.197500", "130504.657500", "130505.117500", "130505.577500", "130506.037500", "130506.497500", "130506.957500", "130507.417500", "130507.877500", "130508.337500", "130508.797500", "130509.257500", "130509.717500", "130510.177500", "130510.637500", "130511.097500", "130511.557500", "130512.017500", "130512.477500", "130512.937500", "130513.397500", "130513.857500", "130514.317500", "130514.777500", "130515.237500", "130515.697500", "130516.157500", "130516.617500", "130517.077500", "130517.537500", "130517.997500", "130518.457500", "130518.917500", "130519.377500", "130519.837500", "130520.297500", "130520.757500", "130521.217500", "130521.677500", "130522.137500", "130522.597500", "130523.057500", "130523.517500", "130523.977500", "130524.437500", "130524.897500", "130525.357500", "130525.817500", "130526.277500", "130526.737500", "130527.197500", "130527.657500", "130528.117500", "130528.577500", "130529.037500", "130529.497500", "130529.957500", "130530.417500", "130530.877500", "130531.337500", "130531.797500", "130532.257500", "130532.717500", "130533.177500", "130533.637500", "130534.097500", "130534.557500", "130535.017500", "130535.477500", "130535.937500", "130536.397500", "130536.857500", "130537.317500", "130537.777500", "130538.237500", "130538.697500", "130539.157500", "130539.617500", "130540.077500", "130540.537500", "130540.997500", "130541.457500", "130541.917500", "130542.377500", "130542.837500", "130543.297500", "130543.757500", "130544.217500", "130544.677500", "130545.137500", "130545.597500", "130546.057500", "130546.517500", "130546.977500", "130547.437500", "130547.897500", "130548.357500", "130548.817500", "130549.277500", "130549.737500", "130550.197500", "130550.657500", "130551.117500", "130551.577500", "130552.037500", "130552.497500", "130552.957500", "130553.417500", "130553.877500", "130554.337500", "130554.797500", "130555.257500", "130555.717500", "130556.177500", "130556.637500", "130557.097500", "130557.557500", "130558.017500", "130558.477500", "130558.937500", "130559.397500", "130559.857500", "130600.317500", "130600.777500", "130601.237500", "130601.697500", "130602.157500", "130602.617500", "130603.077500", "130603.537500", "130603.997500", "130604.457500", "130604.917500", "130605.377500", "130605.837500", "130606.297500", "130606.757500", "130607.217500", "130607.677500", "130608.137500", "130608.597500", "130609.057500", "130609.517500", "130609.977500", "130610.437500", "130610.897500", "130611.357500", "130611.817500", "130612.277500", "130612.737500", "130613.197500", "130613.657500", "130614.117500", "130614.577500", "130615.037500", "130615.497500", "130615.957500", "130616.417500", "130616.877500", "130617.337500", "130617.797500", "130618.257500", "130618.717500", "130619.177500", "130619.637500", "130620.097500", "130620.557500", "130621.017500", "130621.477500", "130621.937500", "130622.397500", "130622.857500", "130623.317500", "130623.777500", "130624.237500", "130624.697500", "130625.157500", "130625.617500", "130626.077500", "130626.537500", "130626.997500", "130627.457500", "130627.917500", "130628.377500", "130628.837500", "130629.297500", "130629.757500", "130630.217500", "130630.677500", "130631.137500", "130631.597500", "130632.057500", "130632.517500", "130632.977500", "130633.437500", "130633.897500", "130634.357500", "130634.817500", "130635.277500", "130635.737500", "130636.197500", "130636.657500", "130637.117500", "130637.577500", "130638.037500", "130638.497500", "130638.957500", "130639.417500", "130639.877500", "130640.337500", "130640.797500", "130641.257500", "130641.717500", "130642.177500", "130642.637500", "130643.097500", "130643.557500", "130644.017500", "130644.477500", "130644.937500", "130645.397500", "130645.857500", "130646.317500", "130646.777500", "130647.237500", "130647.697500", "130648.157500", "130648.617500", "130649.077500", "130649.537500", "130649.997500", "130650.457500", "130650.917500", "130651.377500", "130651.837500", "130652.297500", "130652.757500", "130653.217500", "130653.677500", "130654.137500", "130654.597500", "130655.057500", "130655.517500", "130655.977500", "130656.437500", "130656.897500", "130657.357500", "130657.817500", "130658.277500", "130658.737500", "130659.197500", "130659.657500", "130700.117500", "130700.577500", "130701.037500", "130701.497500", "130701.957500", "130702.417500", "130702.877500", "130703.337500", "130703.797500", "130704.257500", "130704.717500", "130705.177500", "130705.637500", "130706.097500", "130706.557500", "130707.017500", "130707.477500", "130707.937500", "130708.397500", "130708.857500", "130709.317500", "130709.777500", "130710.237500", "130710.697500", "130711.157500", "130711.617500", "130712.077500", "130712.537500", "130712.997500", "130713.457500", "130713.917500", "130714.377500", "130714.837500", "130715.297500", "130715.757500", "130716.217500", "130716.677500", "130717.137500", "130717.597500", "130718.057500", "130718.517500", "130718.977500", "130719.437500", "130719.897500", "130720.357500", "130720.817500", "130721.277500", "130721.737500", "130722.197500", "130722.657500", "130723.117500", "130723.577500", "130724.037500", "130724.497500", "130724.957500", "130725.417500", "130725.877500", "130726.337500", "130726.797500", "130727.257500", "130727.717500", "130728.177500", "130728.637500", "130729.097500", "130729.557500", "130730.017500", "130730.477500", "130730.937500", "130731.397500", "130731.857500", "130732.317500", "130732.777500", "130733.237500", "130733.697500", "130734.157500", "130734.617500", "130735.077500", "130735.537500", "130735.997500", "130736.457500", "130736.917500", "130737.377500", "130737.837500", "130738.297500", "130738.757500", "130739.217500", "130739.677500", "130740.137500", "130740.597500", "130741.057500", "130741.517500", "130741.977500", "130742.437500", "130742.897500", "130743.357500", "130743.817500", "130744.277500", "130744.737500", "130745.197500", "130745.657500", "130746.117500", "130746.577500", "130747.037500", "130747.497500", "130747.957500", "130748.417500", "130748.877500", "130749.337500", "130749.797500", "130750.257500", "130750.717500", "130751.177500", "130751.637500", "130752.097500", "130752.557500", "130753.017500", "130753.477500", "130753.937500", "130754.397500", "130754.857500", "130755.317500", "130755.777500", "130756.237500", "130756.697500", "130757.157500", "130757.617500", "130758.077500", "130758.537500", "130758.997500", "130759.457500", "130759.917500", "130800.377500", "130800.837500", "130801.297500", "130801.757500", "130802.217500", "130802.677500", "130803.137500", "130803.597500", "130804.057500", "130804.517500", "130804.977500", "130805.437500", "130805.897500", "130806.357500", "130806.817500", "130807.277500", "130807.737500", "130808.197500", "130808.657500", "130809.117500", "130809.577500", "130810.037500", "130810.497500", "130810.957500", "130811.417500", "130811.877500", "130812.337500", "130812.797500", "130813.257500", "130813.717500", "130814.177500", "130814.637500", "130815.097500", "130815.557500", "130816.017500", "130816.477500", "130816.937500", "130817.397500", "130817.857500", "130818.317500", "130818.777500", "130819.237500", "130819.697500", "130820.157500", "130820.617500", "130821.077500", "130821.537500", "130821.997500", "130822.457500", "130822.917500", "130823.377500", "130823.837500", "130824.297500", "130824.757500", "130825.217500", "130825.677500", "130826.137500", "130826.597500", "130827.057500", "130827.517500", "130827.977500", "130828.437500", "130828.897500", "130829.357500", "130829.817500", "130830.277500", "130830.737500", "130831.197500", "130831.657500", "130832.117500", "130832.577500", "130833.037500", "130833.497500", "130833.957500", "130834.417500", "130834.877500", "130835.337500", "130835.797500", "130836.257500", "130836.717500", "130837.177500", "130837.637500", "130838.097500", "130838.557500", "130839.017500", "130839.477500", "130839.937500", "130840.397500", "130840.857500", "130841.317500", "130841.777500", "130842.237500", "130842.697500", "130843.157500", "130843.617500", "130844.077500", "130844.537500", "130844.997500", "130845.457500", "130845.917500", "130846.377500", "130846.837500", "130847.297500", "130847.757500", "130848.217500", "130848.677500", "130849.137500", "130849.597500", "130850.057500", "130850.517500", "130850.977500", "130851.437500", "130851.897500", "130852.357500", "130852.817500", "130853.277500", "130853.737500", "130854.197500", "130854.657500", "130855.117500", "130855.577500", "130856.037500", "130856.497500", "130856.957500", "130857.417500", "130857.877500", "130858.337500", "130858.797500", "130859.257500", "130859.717500", "130900.177500", "130900.637500", "130901.097500", "130901.557500", "130902.017500", "130902.477500", "130902.937500", "130903.397500", "130903.857500", "130904.317500", "130904.777500", "130905.237500", "130905.697500", "130906.157500", "130906.617500", "130907.077500", "130907.537500", "130907.997500", "130908.457500", "130908.917500", "130909.377500", "130909.837500", "130910.297500", "130910.757500", "130911.217500", "130911.677500", "130912.137500", "130912.597500", "130913.057500", "130913.517500", "130913.977500", "130914.437500", "130914.897500", "130915.357500", "130915.817500", "130916.277500", "130916.737500", "130917.197500", "130917.657500", "130918.117500", "130918.577500", "130919.037500", "130919.497500", "130919.957500", "130920.417500", "130920.877500", "130921.337500", "130921.797500", "130922.257500", "130922.717500", "130923.177500", "130923.637500", "130924.097500", "130924.557500", "130925.017500", "130925.477500", "130925.937500", "130926.397500", "130926.857500", "130927.317500", "130927.777500", "130928.237500", "130928.697500", "130929.157500", "130929.617500", "130930.077500", "130930.537500", "130930.997500", "130931.457500", "130931.917500", "130932.377500", "130932.837500", "130933.297500", "130933.757500", "130934.217500", "130934.677500", "130935.137500", "130935.597500", "130936.057500", "130936.517500", "130936.977500", "130937.437500", "130937.897500", "130938.357500", "130938.817500", "130939.277500", "130939.737500", "130940.197500", "130940.657500", "130941.117500", "130941.577500", "130942.037500", "130942.497500", "130942.957500", "130943.417500", "130943.877500", "130944.337500", "130944.797500", "130945.257500", "130945.717500", "130946.177500", "130946.637500", "130947.097500", "130947.557500", "130948.017500", "130948.477500", "130948.937500", "130949.397500", "130949.857500", "130950.317500", "130950.777500", "130951.237500", "130951.697500", "130952.157500", "130952.617500", "130953.077500", "130953.537500", "130953.997500", "130954.457500", "130954.917500", "130955.377500", "130955.837500", "130956.297500", "130956.757500", "130957.217500", "130957.677500", "130958.137500", "130958.597500", "130959.057500", "130959.517500", "130959.977500", "131000.437500", "131000.897500", "131001.357500", "131001.817500", "131002.277500", "131002.737500", "131003.197500", "131003.657500", "131004.117500", "131004.577500", "131005.037500", "131005.497500", "131005.957500", "131006.417500", "131006.877500", "131007.337500", "131007.797500", "131008.257500", "131008.717500", "131009.177500", "131009.637500", "131010.097500", "131010.557500", "131011.017500", "131011.477500", "131011.937500", "131012.397500", "131012.857500", "131013.317500", "131013.777500", "131014.237500", "131014.697500", "131015.157500", "131015.617500", "131016.077500", "131016.537500", "131016.997500", "131017.457500", "131017.917500", "131018.377500", "131018.837500", "131019.297500", "131019.757500", "131020.217500", "131020.677500", "131021.137500", "131021.597500", "131022.057500", "131022.517500", "131022.977500", "131023.437500", "131023.897500", "131024.357500", "131024.817500", "131025.277500", "131025.737500", "131026.197500", "131026.657500", "131027.117500", "131027.577500", "131028.037500", "131028.497500", "131028.957500", "131029.417500", "131029.877500", "131030.337500", "131030.797500", "131031.257500", "131031.717500", "131032.177500", "131032.637500", "131033.097500", "131033.557500", "131034.017500", "131034.477500", "131034.937500", "131035.397500", "131035.857500", "131036.317500", "131036.777500", "131037.237500", "131037.697500", "131038.157500", "131038.617500", "131039.077500", "131039.537500", "131039.997500", "131040.457500", "131040.917500", "131041.377500", "131041.837500", "131042.297500", "131042.757500", "131043.217500", "131043.677500", "131044.137500", "131044.597500", "131045.057500", "131045.517500", "131045.977500", "131046.437500", "131046.897500", "131047.357500", "131047.817500", "131048.277500", "131048.737500", "131049.197500", "131049.657500", "131050.117500", "131050.577500", "131051.037500", "131051.497500", "131051.957500", "131052.417500", "131052.877500", "131053.337500", "131053.797500", "131054.257500", "131054.717500", "131055.177500", "131055.637500", "131056.097500", "131056.557500", "131057.017500", "131057.477500", "131057.937500", "131058.397500", "131058.857500", "131059.317500", "131059.777500", "131100.237500", "131100.697500", "131101.157500", "131101.617500", "131102.077500", "131102.537500", "131102.997500", "131103.457500", "131103.917500", "131104.377500", "131104.837500", "131105.297500", "131105.757500", "131106.217500", "131106.677500", "131107.137500", "131107.597500", "131108.057500", "131108.517500", "131108.977500", "131109.437500", "131109.897500", "131110.357500", "131110.817500", "131111.277500", "131111.737500", "131112.197500", "131112.657500", "131113.117500", "131113.577500", "131114.037500", "131114.497500"],
