{
  "AcquisitionMatrixPE": 140,
  "AcquisitionNumber": 1,
  "AcquisitionTime": "19:39:7.042500",
  "BandwidthPerPixelPhaseEncode": 10.352,
  "BaseResolution": 140,
  "BodyPartExamined": "BRAIN",
  "ConsistencyInfo": "N4_VE11E_LATEST_20181129",
  "ConversionSoftware": "dcm2niix",
  "ConversionSoftwareVersion": "v1.0.20201102",
  "DerivedVendorReportedEchoSpacing": 0.000689998,
  "DeviceSerialNumber": "66112",
  "DiffusionScheme": "Monopolar",
  "DwellTime": 2.1e-06,
  "EchoTime": 0.0884,
  "EchoTrainLength": 105,
  "EffectiveEchoSpacing": 0.000689998,
  "FlipAngle": 90,
  "ImageComments": "Unaliased MB3/PE3 SENSE1",
  "ImageOrientationPatientDICOM": [0.997605, -0.059718, 0.0349017, 0.0538537, 0.987236, 0.14988],
  "ImageType": [
    "ORIGINAL",
    "PRIMARY",
    "DIFFUSION",
    "NONE",
    "MB",
    "ND",
    "MOSAIC"
],
  "ImagingFrequency": 123.259,
  "InPlanePhaseEncodingDirectionDICOM": "COL",
  "InstitutionAddress": "Maynard 3,Hanover,NH,US,03755",
  "InstitutionName": "Dartmouth College - PBS",
  "InstitutionalDepartmentName": "Department",
  "MRAcquisitionType": "2D",
  "MagneticFieldStrength": 3,
  "Manufacturer": "Siemens",
  "ManufacturersModelName": "Prisma",
  "Modality": "MR",
  "MultibandAccelerationFactor": 3,
  "PartialFourier": 0.75,
  "PatientPosition": "HFS",
  "PercentPhaseFOV": 100,
  "PercentSampling": 100,
  "PhaseEncodingDirection": "j-",
  "PhaseEncodingSteps": 105,
  "PhaseResolution": 1,
  "PixelBandwidth": 1700,
  "ProcedureStepDescription": "Wager_Wager^1076_spacetop",
  "ProtocolName": "dwi_acq-96dir-6b0-mb",
  "PulseSequenceDetails": "%CustomerSeq%\\cmrr_mbep2d_diff",
  "ReceiveCoilActiveElements": "HEA;HEP",
  "ReceiveCoilName": "Head_32",
  "ReconMatrixPE": 140,
  "RepetitionTime": 4.11,
  "SAR": 0.26451,
  "ScanOptions": "PFP\\FS",
  "ScanningSequence": "EP",
  "SequenceName": "ep_b5#1",
  "SequenceVariant": "SK\\SS",
  "SeriesDescription": "dwi_acq-96dir-6b0-mb",
  "SeriesNumber": 8,
  "ShimSetting": [4253, -7744, -7268, 214, -10, 48, -5, 76],
  "SliceThickness": 1.7,
  "SliceTiming": [0, 2.12, 0.1525, 2.2725, 0.3025, 2.425, 0.455, 2.575, 0.605, 2.7275, 0.7575, 2.8775, 0.91, 3.03, 1.06, 3.1825, 1.2125, 3.3325, 1.3625, 3.485, 1.515, 3.635, 1.6675, 3.7875, 1.8175, 3.94, 1.97, 0, 2.12, 0.1525, 2.2725, 0.3025, 2.425, 0.455, 2.575, 0.605, 2.7275, 0.7575, 2.8775, 0.91, 3.03, 1.06, 3.1825, 1.2125, 3.3325, 1.3625, 3.485, 1.515, 3.635, 1.6675, 3.7875, 1.8175, 3.94, 1.97, 0, 2.12, 0.1525, 2.2725, 0.3025, 2.425, 0.455, 2.575, 0.605, 2.7275, 0.7575, 2.8775, 0.91, 3.03, 1.06, 3.1825, 1.2125, 3.3325, 1.3625, 3.485, 1.515, 3.635, 1.6675, 3.7875, 1.8175, 3.94, 1.97],
  "SoftwareVersions": "syngo MR E11",
  "SpacingBetweenSlices": 1.7,
  "StationName": "AWP66112",
  "TotalReadoutTime": 0.0959097,
  "TxRefAmp": 270.574,
  "WipMemBlock": "69b8005e-f211-4413-9c4b-8525b85cd3a3||Sequence: R016 ve11e/master r/434b28f1; Aug  7 2019 19:06:17 by eja",
  "dcmmeta_affine": [
    [-1.7101799249649048, 0.09232065826654434, 0.07379142940044403, 113.51612091064453],
    [0.10237373411655426, 1.692405343055725, 0.2509904205799103, -108.13784790039062],
    [0.0598314143717289, -0.2569371163845062, 1.679749608039856, -41.47990036010742],
    [0.0, 0.0, 0.0, 1.0]
],
  "dcmmeta_reorient_transform": [
    [0.0, -1.0, 0.0, 139.0],
    [1.0, 0.0, 0.0, 0.0],
    [0.0, 0.0, 1.0, 0.0],
    [0.0, 0.0, 0.0, 1.0]
],
  "dcmmeta_shape": [140, 140, 81, 103],
  "dcmmeta_slice_dim": 2,
  "dcmmeta_version": 0.6,
  "global": {
    "const": {
      "AccessionNumber": "A004295",
      "AcquisitionMatrix": [140, 0, 0, 140],
      "AngioFlag": "N",
      "BitsAllocated": 16,
      "BitsStored": 16,
      "BodyPartExamined": "BRAIN",
      "Columns": 1260,
      "EchoNumbers": 1,
      "EchoTime": 88.4,
      "EchoTrainLength": 105,
      "FlipAngle": 90.0,
      "HighBit": 15,
      "ImageOrientationPatient": [0.99760494868079, -0.0597180092779, 0.0349016580621, 0.05385371665071, 0.98723642920893, 0.14987998547408],
      "ImagePositionPatient": [-1135.7490191351, -1017.5241828041, -254.58453985557],
      "ImageType": [
        "ORIGINAL",
        "PRIMARY",
        "DIFFUSION",
        "NONE",
        "MB",
        "ND",
        "MOSAIC"
],
      "ImagedNucleus": "1H",
      "ImagingFrequency": 123.25914,
      "InPlanePhaseEncodingDirection": "COL",
      "MRAcquisitionType": "2D",
      "MagneticFieldStrength": 3.0,
      "Manufacturer": "SIEMENS",
      "ManufacturerModelName": "Prisma",
      "Modality": "MR",
      "NumberOfAverages": 1.0,
      "NumberOfPhaseEncodingSteps": 105,
      "PercentPhaseFieldOfView": 100.0,
      "PercentSampling": 100.0,
      "PerformedProcedureStepStartTime": "185219.575000",
      "PhotometricInterpretation": "MONOCHROME2",
      "PixelBandwidth": 1700.0,
      "PixelRepresentation": 0,
      "PixelSpacing": [1.7142857313156, 1.7142857313156],
      "ProtocolName": "dwi_acq-96dir-6b0-mb",
      "RepetitionTime": 4110.0,
      "Rows": 1260,
      "SAR": 0.26451029895955,
      "SamplesPerPixel": 1,
      "ScanOptions": [
        "PFP",
        "FS"
],
      "ScanningSequence": "EP",
      "SequenceVariant": [
        "SK",
        "SS"
],
      "SeriesDescription": "dwi_acq-96dir-6b0-mb",
      "SeriesNumber": 8,
      "SeriesTime": "194035.016000",
      "SliceLocation": -52.024055447942,
      "SliceThickness": 1.7000000476837,
      "SmallestImagePixelValue": 0,
      "SoftwareVersions": "syngo MR E11",
      "SpacingBetweenSlices": 1.7000000124154,
      "SpecificCharacterSet": "ISO_IR 100",
      "StudyID": "1",
      "StudyTime": "185219.513000",
      "TransmitCoilName": "Body",
      "VariableFlipAngleFlag": "N",
      "WindowCenterWidthExplanation": "Algo1"
    },
    "slices": {}
  },
  "time": {
    "samples": {
      "AcquisitionNumber": [1, 2, 3, 4, 5, 6, 7, 8, 9, 10, 11, 12, 13, 14, 15, 16, 17, 18, 19, 20, 21, 22, 23, 24, 25, 26, 27, 28, 29, 30, 31, 32, 33, 34, 35, 36, 37, 38, 39, 40, 41, 42, 43, 44, 45, 46, 47, 48, 49, 50, 51, 52, 53, 54, 55, 56, 57, 58, 59, 60, 61, 62, 63, 64, 65, 66, 67, 68, 69, 70, 71, 72, 73, 74, 75, 76, 77, 78, 79, 80, 81, 82, 83, 84, 85, 86, 87, 88, 89, 90, 91, 92, 93, 94, 95, 96, 97, 98, 99, 100, 101, 102, 103],
      "AcquisitionTime": ["193907.042500", "193911.152500", "193915.262500", "193919.372500", "193923.482500", "193927.592500", "193931.702500", "193935.812500", "193939.922500", "193944.032500", "193948.142500", "193952.252500", "193956.362500", "194000.472500", "194004.582500", "194008.692500", "194012.802500", "194016.912500", "194021.022500", "194025.132500", "194029.242500", "194033.352500", "194037.462500", "194041.572500", "194045.682500", "194049.792500", "194053.902500", "194058.012500", "194102.122500", "194106.232500", "194110.342500", "194114.452500", "194118.562500", "194122.672500", "194126.782500", "194130.892500", "194135.002500", "194139.112500", "194143.222500", "194147.332500", "194151.442500", "194155.552500", "194159.662500", "194203.772500", "194207.882500", "194211.992500", "194216.102500", "194220.212500", "194224.322500", "194228.432500", "194232.542500", "194236.652500", "194240.762500", "194244.872500", "194248.982500", "194253.092500", "194257.202500", "194301.312500", "194305.422500", "194309.532500", "194313.642500", "194317.752500", "194321.862500", "194325.972500", "194330.082500", "194334.192500", "194338.302500", "194342.412500", "194346.522500", "194350.632500", "194354.742500", "194358.852500", "194402.962500", "194407.072500", "194411.182500", "194415.292500", "194419.402500", "194423.512500", "194427.622500", "194431.732500", "194435.842500", "194439.952500", "194444.062500", "194448.172500", "194452.282500", "194456.392500", "194500.502500", "194504.612500", "194508.722500", "194512.832500", "194516.942500", "194521.052500", "194525.162500", "194529.272500", "194533.382500", "194537.492500", "194541.602500", "194545.712500", "194549.822500", "194553.932500", "194558.042500", "194602.152500", "194606.262500"],
      "ContentTime": ["194035.020000", "194035.024000", "194035.027000", "194035.030000", "194035.033000", "194035.036000", "194035.039000", "194035.052000", "194035.055000", "194035.058000", "194035.061000", "194035.064000", "194035.067000", "194035.070000", "194035.073000", "194035.076000", "194035.079000", "194035.082000", "194035.085000", "194035.088000", "194035.091000", "194215.016000", "194215.020000", "194215.023000", "194215.026000", "194215.029000", "194215.032000", "194215.035000", "194215.038000", "194215.041000", "194215.044000", "194215.047000", "194215.050000", "194215.053000", "194215.056000", "194215.059000", "194215.062000", "194215.065000", "194215.068000", "194215.071000", "194215.074000", "194215.077000", "194215.081000", "194215.084000", "194215.087000", "194335.015000", "194335.019000", "194335.022000", "194335.025000", "194335.028000", "194335.031000", "194335.034000", "194335.037000", "194335.040000", "194335.043000", "194335.046000", "194335.049000", "194335.052000", "194335.055000", "194335.058000", "194335.061000", "194335.064000", "194335.067000", "194335.070000", "194335.074000", "194515.015000", "194515.019000", "194515.022000", "194515.025000", "194515.028000", "194515.031000", "194515.034000", "194515.037000", "194515.040000", "194515.043000", "194515.046000", "194515.049000", "194515.052000", "194515.055000", "194515.058000", "194515.061000", "194515.064000", "194515.067000", "194515.070000", "194515.073000", "194515.076000", "194515.079000", "194515.082000", "194515.085000", "194535.015000", "194535.018000", "194535.032000", "194535.035000", "194535.038000", "194610.581000", "194610.585000", "194610.588000", "194610.591000", "194610.594000", "194610.597000", "194610.600000", "194610.603000", "194610.607000"],
      "InstanceCreationTime": ["194035.020000", "194035.024000", "194035.027000", "194035.030000", "194035.033000", "194035.036000", "194035.039000", "194035.052000", "194035.055000", "194035.058000", "194035.061000", "194035.064000", "194035.067000", "194035.070000", "194035.073000", "194035.076000", "194035.079000", "194035.082000", "194035.085000", "194035.088000", "194035.091000", "194215.016000", "194215.020000", "194215.023000", "194215.026000", "194215.029000", "194215.032000", "194215.035000", "194215.038000", "194215.041000", "194215.044000", "194215.047000", "194215.050000", "194215.053000", "194215.056000", "194215.059000", "194215.062000", "194215.065000", "194215.068000", "194215.071000", "194215.074000", "194215.077000", "194215.081000", "194215.084000", "194215.087000", "194335.015000", "194335.019000", "194335.022000", "194335.025000", "194335.028000", "194335.031000", "194335.034000", "194335.037000", "194335.040000", "194335.043000", "194335.046000", "194335.049000", "194335.052000", "194335.055000", "194335.058000", "194335.061000", "194335.064000", "194335.067000", "194335.070000", "194335.074000", "194515.015000", "194515.019000", "194515.022000", "194515.025000", "194515.028000", "194515.031000", "194515.034000", "194515.037000", "194515.040000", "194515.043000", "194515.046000", "194515.049000", "194515.052000", "194515.055000", "194515.058000", "194515.061000", "194515.064000", "194515.067000", "194515.070000", "194515.073000", "194515.076000", "194515.079000", "194515.082000", "194515.085000", "194535.015000", "194535.018000", "194535.032000", "194535.035000", "194535.038000", "194610.581000", "194610.585000", "194610.588000", "194610.591000", "194610.594000", "194610.597000", "194610.600000", "194610.603000", "194610.607000"],
      "InstanceNumber": [1, 2, 3, 4, 5, 6, 7, 8, 9, 10, 11, 12, 13, 14, 15, 16, 17, 18, 19, 20, 21, 22, 23, 24, 25, 26, 27, 28, 29, 30, 31, 32, 33, 34, 35, 36, 37, 38, 39, 40, 41, 42, 43, 44, 45, 46, 47, 48, 49, 50, 51, 52, 53, 54, 55, 56, 57, 58, 59, 60, 61, 62, 63, 64, 65, 66, 67, 68, 69, 70, 71, 72, 73, 74, 75, 76, 77, 78, 79, 80, 81, 82, 83, 84, 85, 86, 87, 88, 89, 90, 91, 92, 93, 94, 95, 96, 97, 98, 99, 100, 101, 102, 103],
      "LargestImagePixelValue": [65535, 65535, 65535, 65535, 65535, 45286, 65535, 65535, 65535, 51668, 33286, 43197, 32605, 41026, 44199, 28425, 51429, 52749, 51775, 48364, 46024, 48786, 33202, 55296, 65535, 25946, 26781, 17829, 23137, 16446, 19777, 24167, 16107, 21005, 22667, 27379, 16068, 24215, 16315, 20084, 65535, 15036, 11255, 15222, 22018, 16762, 14979, 9052, 9906, 15132, 9612, 11694, 10879, 16320, 15609, 14598, 14644, 15533, 10179, 9176, 9163, 11850, 11767, 13198, 9623, 18767, 12843, 9596, 18504, 14103, 15014, 12945, 8682, 65535, 28168, 16352, 11910, 13092, 10128, 8708, 11157, 27143, 15824, 13963, 12345, 15116, 19385, 17910, 11690, 27424, 14650, 13388, 13494, 13397, 10861, 12732, 11943, 11442, 8283, 10435, 13423, 14291, 65535],
      "SequenceName": [
 "ep_b5#1",
 "ep_b5#1",
 "ep_b500#2",
 "ep_b500#3",
 "ep_b500#4",
 "ep_b505#5",
 "ep_b495#6",
 "ep_b500#7",
 "ep_b5#8",
 "ep_b1000#9",
 "ep_b1005#10",
 "ep_b995#11",
 "ep_b1005#12",
 "ep_b995#13",
 "ep_b995#14",
 "ep_b1005#15",
 "ep_b1000#16",
 "ep_b1000#17",
 "ep_b995#18",
 "ep_b1000#19",
 "ep_b995#20",
 "ep_b1000#21",
 "ep_b1005#22",
 "ep_b1005#23",
 "ep_b5#24",
 "ep_b2000#25",
 "ep_b1995#26",
 "ep_b1990#27",
 "ep_b1995#28",
 "ep_b2005#29",
 "ep_b2010#30",
 "ep_b2005#31",
 "ep_b2005#32",
 "ep_b1995#33",
 "ep_b1995#34",
 "ep_b1995#35",
 "ep_b2005#36",
 "ep_b2000#37",
 "ep_b2010#38",
 "ep_b2000#39",
 "ep_b5#40",
 "ep_b3000#41",
 "ep_b3005#42",
 "ep_b3010#43",
 "ep_b3010#44",
 "ep_b2995#45",
 "ep_b3000#46",
 "ep_b2990#47",
 "ep_b3005#48",
 "ep_b3000#49",
 "ep_b2990#50",
 "ep_b2990#51",
 "ep_b2995#52",
 "ep_b2995#53",
 "ep_b3010#54",
 "ep_b3000#55",
 "ep_b2995#56",
 "ep_b3000#57",
 "ep_b2990#58",
 "ep_b2990#59",
 "ep_b3000#60",
 "ep_b2990#61",
 "ep_b2990#62",
 "ep_b2995#63",
 "ep_b3005#64",
 "ep_b3010#65",
 "ep_b3000#66",
 "ep_b3005#67",
 "ep_b3010#68",
 "ep_b3005#69",
 "ep_b3005#70",
 "ep_b3005#71",
 "ep_b2990#72",
 "ep_b5#73",
 "ep_b3010#74",
 "ep_b3000#75",
 "ep_b3005#76",
 "ep_b3005#77",
 "ep_b2995#78",
 "ep_b3005#79",
 "ep_b2995#80",
 "ep_b3010#81",
 "ep_b3010#82",
 "ep_b3005#83",
 "ep_b3000#84",
 "ep_b3000#85",
 "ep_b3010#86",
 "ep_b3010#87",
 "ep_b2990#88",
 "ep_b3010#89",
 "ep_b2990#90",
 "ep_b2995#91",
 "ep_b2995#92",
 "ep_b2995#93",
 "ep_b3005#94",
 "ep_b3005#95",
 "ep_b2995#96",
 "ep_b3000#97",
 "ep_b2990#98",
 "ep_b3000#99",
 "ep_b3000#100",
 "ep_b2995#101",
 "ep_b5#102"
],
      "WindowCenter": [11820.0, 11823.0, 8441.0, 8085.0, 8206.0, 7053.0, 7303.0, 8486.0, 11570.0, 6443.0, 4913.0, 5258.0, 5271.0, 4640.0, 5492.0, 3994.0, 6339.0, 6274.0, 6197.0, 6130.0, 5757.0, 6122.0, 4924.0, 6342.0, 11679.0, 4020.0, 3953.0, 2580.0, 3595.0, 2908.0, 3704.0, 3422.0, 3371.0, 3198.0, 3266.0, 3556.0, 2648.0, 3636.0, 3046.0, 2984.0, 11259.0, 2792.0, 2283.0, 2855.0, 3380.0, 2118.0, 2924.0, 1663.0, 1715.0, 2898.0, 1657.0, 1643.0, 2262.0, 2687.0, 2359.0, 2753.0, 2680.0, 2689.0, 1717.0, 1504.0, 1979.0, 1881.0, 1923.0, 2508.0, 2386.0, 2836.0, 2265.0, 2440.0, 2846.0, 2796.0, 2879.0, 2749.0, 1582.0, 9537.0, 4621.0, 2641.0, 2617.0, 2506.0, 1708.0, 1747.0, 2100.0, 4195.0, 2912.0, 2854.0, 2283.0, 2710.0, 2959.0, 3027.0, 1689.0, 4701.0, 1829.0, 2165.0, 2069.0, 2413.0, 1968.0, 2686.0, 2082.0, 2573.0, 1612.0, 2176.0, 2726.0, 2689.0, 10699.0],
      "WindowWidth": [27629.0, 27636.0, 17939.0, 17083.0, 17408.0, 15063.0, 15426.0, 18068.0, 26797.0, 13681.0, 10808.0, 11356.0, 11462.0, 10187.0, 11819.0, 9030.0, 13397.0, 13347.0, 13120.0, 13057.0, 12277.0, 13085.0, 10795.0, 13426.0, 27133.0, 8939.0, 8797.0, 6193.0, 8100.0, 7091.0, 8704.0, 7765.0, 7886.0, 7348.0, 7476.0, 8074.0, 6321.0, 8184.0, 7357.0, 6945.0, 25805.0, 6598.0, 5731.0, 7038.0, 8292.0, 5169.0, 6836.0, 4344.0, 4427.0, 6826.0, 4380.0, 4308.0, 5582.0, 6372.0, 6092.0, 6507.0, 6370.0, 6345.0, 4405.0, 3938.0, 4977.0, 4721.0, 4803.0, 6013.0, 5828.0, 7157.0, 5530.0, 5957.0, 7124.0, 6655.0, 6793.0, 6585.0, 4249.0, 21087.0, 10268.0, 6269.0, 6346.0, 6014.0, 4372.0, 4491.0, 5201.0, 9352.0, 6961.0, 6788.0, 5570.0, 6442.0, 7487.0, 7338.0, 4416.0, 10235.0, 4645.0, 5286.0, 5095.0, 5839.0, 5077.0, 6468.0, 5147.0, 6181.0, 4253.0, 5372.0, 6489.0, 6375.0, 24058.0]
    },
    "slices": {}
  }
}