{
  "AcquisitionMatrixPE": 82,
  "AcquisitionNumber": 1,
  "AcquisitionTime": "18:40:35.220000",
  "BandwidthPerPixelPhaseEncode": 24.888,
  "BaseResolution": 82,
  "BodyPartExamined": "BRAIN",
  "ConsistencyInfo": "N4_VE11E_LATEST_20181129",
  "ConversionSoftware": "dcm2niix",
  "ConversionSoftwareVersion": "v1.0.20201102",
  "DerivedVendorReportedEchoSpacing": 0.00049,
  "DeviceSerialNumber": "66112",
  "DwellTime": 2e-06,
  "EchoTime": 0.0272,
  "EchoTrainLength": 82,
  "EffectiveEchoSpacing": 0.00049,
  "FlipAngle": 44,
  "ImageComments": "Unaliased MB8/PE3",
  "ImageOrientationPatientDICOM": [0.998507, 0.0503019, 0.021298, -0.0523296, 0.992684, 0.108813],
  "ImageType": [
    "ORIGINAL",
    "PRIMARY",
    "M",
    "MB",
    "ND",
    "NORM",
    "MOSAIC"
],
  "ImagingFrequency": 123.252,
  "InPlanePhaseEncodingDirectionDICOM": "COL",
  "InstitutionAddress": "Maynard 3,Hanover,NH,US,03755",
  "InstitutionName": "Dartmouth College - PBS",
  "InstitutionalDepartmentName": "Department",
  "MRAcquisitionType": "2D",
  "MagneticFieldStrength": 3,
  "Manufacturer": "Siemens",
  "ManufacturersModelName": "Prisma",
  "Modality": "MR",
  "MultibandAccelerationFactor": 8,
  "PartialFourier": 1,
  "PatientPosition": "HFS",
  "PercentPhaseFOV": 100,
  "PercentSampling": 100,
  "PhaseEncodingDirection": "j-",
  "PhaseEncodingSteps": 82,
  "PhaseResolution": 1,
  "PixelBandwidth": 3050,
  "ProcedureStepDescription": "Wager_Wager^1076_spacetop",
  "ProtocolName": "func_run-05_task-social_acq-ap-mb8",
  "PulseSequenceDetails": "%CustomerSeq%\\cmrr_mbep2d_bold",
  "ReceiveCoilActiveElements": "HEA;HEP",
  "ReceiveCoilName": "Head_32",
  "ReconMatrixPE": 82,
  "RepetitionTime": 0.46,
  "SAR": 0.0861828,
  "ScanOptions": "FS",
  "ScanningSequence": "EP",
  "SequenceName": "epfid2d1_82",
  "SequenceVariant": "SK\\SS",
  "SeriesDescription": "func_run-05_task-social_acq-ap-mb8",
  "SeriesNumber": 22,
  "ShimSetting": [4160, -7785, -7284, 828, -17, -386, 100, 35],
  "SliceThickness": 2.7,
  "SliceTiming": [0, 0.2525, 0.0625, 0.315, 0.125, 0.3775, 0.1875, 0, 0.2525, 0.0625, 0.315, 0.125, 0.3775, 0.1875, 0, 0.2525, 0.0625, 0.315, 0.125, 0.3775, 0.1875, 0, 0.2525, 0.0625, 0.315, 0.125, 0.3775, 0.1875, 0, 0.2525, 0.0625, 0.315, 0.125, 0.3775, 0.1875, 0, 0.2525, 0.0625, 0.315, 0.125, 0.3775, 0.1875, 0, 0.2525, 0.0625, 0.315, 0.125, 0.3775, 0.1875, 0, 0.2525, 0.0625, 0.315, 0.125, 0.3775, 0.1875],
  "SoftwareVersions": "syngo MR E11",
  "SpacingBetweenSlices": 2.7,
  "StationName": "AWP66112",
  "TaskName": "social",
  "TotalReadoutTime": 0.03969,
  "TxRefAmp": 226.916,
  "WipMemBlock": "ec03f336-e336-43ab-abb1-20b7fe84c503||Sequence: R016 ve11e/master r/434b28f1; Aug  7 2019 18:53:46 by eja",
  "dcmmeta_affine": [
    [-2.6789212226867676, -0.1403963565826416, 0.042305391281843185, 117.38031768798828],
    [-0.13495641946792603, 2.6632983684539795, 0.2963653802871704, -100.77108764648438],
    [0.05714092776179314, -0.29193708300590515, 2.683351993560791, -67.05414581298828],
    [0.0, 0.0, 0.0, 1.0]
],
  "dcmmeta_reorient_transform": [
    [0.0, -1.0, 0.0, 81.0],
    [1.0, 0.0, 0.0, 0.0],
    [0.0, 0.0, 1.0, 0.0],
    [0.0, 0.0, 0.0, 1.0]
],
  "dcmmeta_shape": [82, 82, 56, 872],
  "dcmmeta_slice_dim": 2,
  "dcmmeta_version": 0.6,
  "global": {
    "const": {
      "AccessionNumber": "A003953",
      "AcquisitionMatrix": [82, 0, 0, 82],
      "AngioFlag": "N",
      "BitsAllocated": 16,
      "BitsStored": 16,
      "BodyPartExamined": "BRAIN",
      "Columns": 656,
      "EchoNumbers": 1,
      "EchoTime": 27.2,
      "EchoTrainLength": 82,
      "FlipAngle": 44.0,
      "HighBit": 15,
      "ImageOrientationPatient": [0.99850694086774, 0.05030193874486, 0.02129798106539, -0.0523295522055, 0.99268392202868, 0.10881290783607],
      "ImagePositionPatient": [-834.56481898362, -918.05521325692, -190.88643231419],
      "ImageType": [
        "ORIGINAL",
        "PRIMARY",
        "M",
        "MB",
        "ND",
        "NORM",
        "MOSAIC"
],
      "ImagedNucleus": "1H",
      "ImagingFrequency": 123.252236,
      "InPlanePhaseEncodingDirection": "COL",
      "MRAcquisitionType": "2D",
      "MagneticFieldStrength": 3.0,
      "Manufacturer": "SIEMENS",
      "ManufacturerModelName": "Prisma",
      "Modality": "MR",
      "NumberOfAverages": 1.0,
      "NumberOfPhaseEncodingSteps": 82,
      "PercentPhaseFieldOfView": 100.0,
      "PercentSampling": 100.0,
      "PerformedProcedureStepStartTime": "173119.793000",
      "PhotometricInterpretation": "MONOCHROME2",
      "PixelBandwidth": 3050.0,
      "PixelRepresentation": 0,
      "PixelSpacing": [2.6829268932343, 2.6829268932343],
      "ProtocolName": "func_run-05_task-social_acq-ap-mb8",
      "RepetitionTime": 460.0,
      "Rows": 656,
      "SAR": 0.08618280550653,
      "SamplesPerPixel": 1,
      "ScanOptions": "FS",
      "ScanningSequence": "EP",
      "SequenceName": "epfid2d1_82",
      "SequenceVariant": [
        "SK",
        "SS"
],
      "SeriesDescription": "func_run-05_task-social_acq-ap-mb8",
      "SeriesNumber": 22,
      "SeriesTime": "184058.647000",
      "SliceLocation": -75.862632289669,
      "SliceThickness": 2.7000000476837,
      "SmallestImagePixelValue": 0,
      "SoftwareVersions": "syngo MR E11",
      "SpacingBetweenSlices": 2.6999999960646,
      "SpecificCharacterSet": "ISO_IR 100",
      "StudyID": "1",
      "StudyTime": "173119.682000",
      "TransmitCoilName": "Body",
      "VariableFlipAngleFlag": "N",
      "WindowCenterWidthExplanation": "Algo1"
    },
    "slices": {}
  },
  "time": {
    "samples": {
      "AcquisitionNumber": [1, 2, 3, 4, 5, 6, 7, 8, 9, 10, 11, 12, 13, 14, 15, 16, 17, 18, 19, 20, 21, 22, 23, 24, 25, 26, 27, 28, 29, 30, 31, 32, 33, 34, 35, 36, 37, 38, 39, 40, 41, 42, 43, 44, 45, 46, 47, 48, 49, 50, 51, 52, 53, 54, 55, 56, 57, 58, 59, 60, 61, 62, 63, 64, 65, 66, 67, 68, 69, 70, 71, 72, 73, 74, 75, 76, 77, 78, 79, 80, 81, 82, 83, 84, 85, 86, 87, 88, 89, 90, 91, 92, 93, 94, 95, 96, 97, 98, 99, 100, 101, 102, 103, 104, 105, 106, 107, 108, 109, 110, 111, 112, 113, 114, 115, 116, 117, 118, 119, 120, 121, 122, 123, 124, 125, 126, 127, 128, 129, 130, 131, 132, 133, 134, 135, 136, 137, 138, 139, 140, 141, 142, 143, 144, 145, 146, 147, 148, 149, 150, 151, 152, 153, 154, 155, 156, 157, 158, 159, 160, 161, 162, 163, 164, 165, 166, 167, 168, 169, 170, 171, 172, 173, 174, 175, 176, 177, 178, 179, 180, 181, 182, 183, 184, 185, 186, 187, 188, 189, 190, 191, 192, 193, 194, 195, 196, 197, 198, 199, 200, 201, 202, 203, 204, 205, 206, 207, 208, 209, 210, 211, 212, 213, 214, 215, 216, 217, 218, 219, 220, 221, 222, 223, 224, 225, 226, 227, 228, 229, 230, 231, 232, 233, 234, 235, 236, 237, 238, 239, 240, 241, 242, 243, 244, 245, 246, 247, 248, 249, 250, 251, 252, 253, 254, 255, 256, 257, 258, 259, 260, 261, 262, 263, 264, 265, 266, 267, 268, 269, 270, 271, 272, 273, 274, 275, 276, 277, 278, 279, 280, 281, 282, 283, 284, 285, 286, 287, 288, 289, 290, 291, 292, 293, 294, 295, 296, 297, 298, 299, 300, 301, 302, 303, 304, 305, 306, 307, 308, 309, 310, 311, 312, 313, 314, 315, 316, 317, 318, 319, 320, 321, 322, 323, 324, 325, 326, 327, 328, 329, 330, 331, 332, 333, 334, 335, 336, 337, 338, 339, 340, 341, 342, 343, 344, 345, 346, 347, 348, 349, 350, 351, 352, 353, 354, 355, 356, 357, 358, 359, 360, 361, 362, 363, 364, 365, 366, 367, 368, 369, 370, 371, 372, 373, 374, 375, 376, 377, 378, 379, 380, 381, 382, 383, 384, 385, 386, 387, 388, 389, 390, 391, 392, 393, 394, 395, 396, 397, 398, 399, 400, 401, 402, 403, 404, 405, 406, 407, 408, 409, 410, 411, 412, 413, 414, 415, 416, 417, 418, 419, 420, 421, 422, 423, 424, 425, 426, 427, 428, 429, 430, 431, 432, 433, 434, 435, 436, 437, 438, 439, 440, 441, 442, 443, 444, 445, 446, 447, 448, 449, 450, 451, 452, 453, 454, 455, 456, 457, 458, 459, 460, 461, 462, 463, 464, 465, 466, 467, 468, 469, 470, 471, 472, 473, 474, 475, 476, 477, 478, 479, 480, 481, 482, 483, 484, 485, 486, 487, 488, 489, 490, 491, 492, 493, 494, 495, 496, 497, 498, 499, 500, 501, 502, 503, 504, 505, 506, 507, 508, 509, 510, 511, 512, 513, 514, 515, 516, 517, 518, 519, 520, 521, 522, 523, 524, 525, 526, 527, 528, 529, 530, 531, 532, 533, 534, 535, 536, 537, 538, 539, 540, 541, 542, 543, 544, 545, 546, 547, 548, 549, 550, 551, 552, 553, 554, 555, 556, 557, 558, 559, 560, 561, 562, 563, 564, 565, 566, 567, 568, 569, 570, 571, 572, 573, 574, 575, 576, 577, 578, 579, 580, 581, 582, 583, 584, 585, 586, 587, 588, 589, 590, 591, 592, 593, 594, 595, 596, 597, 598, 599, 600, 601, 602, 603, 604, 605, 606, 607, 608, 609, 610, 611, 612, 613, 614, 615, 616, 617, 618, 619, 620, 621, 622, 623, 624, 625, 626, 627, 628, 629, 630, 631, 632, 633, 634, 635, 636, 637, 638, 639, 640, 641, 642, 643, 644, 645, 646, 647, 648, 649, 650, 651, 652, 653, 654, 655, 656, 657, 658, 659, 660, 661, 662, 663, 664, 665, 666, 667, 668, 669, 670, 671, 672, 673, 674, 675, 676, 677, 678, 679, 680, 681, 682, 683, 684, 685, 686, 687, 688, 689, 690, 691, 692, 693, 694, 695, 696, 697, 698, 699, 700, 701, 702, 703, 704, 705, 706, 707, 708, 709, 710, 711, 712, 713, 714, 715, 716, 717, 718, 719, 720, 721, 722, 723, 724, 725, 726, 727, 728, 729, 730, 731, 732, 733, 734, 735, 736, 737, 738, 739, 740, 741, 742, 743, 744, 745, 746, 747, 748, 749, 750, 751, 752, 753, 754, 755, 756, 757, 758, 759, 760, 761, 762, 763, 764, 765, 766, 767, 768, 769, 770, 771, 772, 773, 774, 775, 776, 777, 778, 779, 780, 781, 782, 783, 784, 785, 786, 787, 788, 789, 790, 791, 792, 793, 794, 795, 796, 797, 798, 799, 800, 801, 802, 803, 804, 805, 806, 807, 808, 809, 810, 811, 812, 813, 814, 815, 816, 817, 818, 819, 820, 821, 822, 823, 824, 825, 826, 827, 828, 829, 830, 831, 832, 833, 834, 835, 836, 837, 838, 839, 840, 841, 842, 843, 844, 845, 846, 847, 848, 849, 850, 851, 852, 853, 854, 855, 856, 857, 858, 859, 860, 861, 862, 863, 864, 865, 866, 867, 868, 869, 870, 871, 872],
      "AcquisitionTime": ["184035.220000", "184035.680000", "184036.140000", "184036.600000", "184037.060000", "184037.520000", "184037.980000", "184038.440000", "184038.900000", "184039.360000", "184039.820000", "184040.280000", "184040.740000", "184041.200000", "184041.660000", "184042.120000", "184042.580000", "184043.040000", "184043.500000", "184043.960000", "184044.420000", "184044.880000", "184045.340000", "184045.800000", "184046.260000", "184046.720000", "184047.180000", "184047.640000", "184048.100000", "184048.560000", "184049.020000", "184049.480000", "184049.940000", "184050.400000", "184050.860000", "184051.320000", "184051.780000", "184052.240000", "184052.700000", "184053.160000", "184053.620000", "184054.080000", "184054.540000", "184055.000000", "184055.460000", "184055.920000", "184056.380000", "184056.840000", "184057.300000", "184057.760000", "184058.220000", "184058.680000", "184059.140000", "184059.600000", "184100.060000", "184100.520000", "184100.980000", "184101.440000", "184101.900000", "184102.360000", "184102.820000", "184103.280000", "184103.740000", "184104.200000", "184104.660000", "184105.120000", "184105.580000", "184106.040000", "184106.500000", "184106.960000", "184107.420000", "184107.880000", "184108.340000", "184108.800000", "184109.260000", "184109.720000", "184110.180000", "184110.640000", "184111.100000", "184111.560000", "184112.020000", "184112.480000", "184112.940000", "184113.400000", "184113.860000", "184114.320000", "184114.780000", "184115.240000", "184115.700000", "184116.160000", "184116.620000", "184117.080000", "184117.540000", "184118.000000", "184118.460000", "184118.920000", "184119.380000", "184119.840000", "184120.300000", "184120.760000", "184121.220000", "184121.680000", "184122.140000", "184122.600000", "184123.060000", "184123.520000", "184123.980000", "184124.440000", "184124.900000", "184125.360000", "184125.820000", "184126.280000", "184126.740000", "184127.200000", "184127.660000", "184128.120000", "184128.580000", "184129.040000", "184129.500000", "184129.960000", "184130.420000", "184130.880000", "184131.340000", "184131.800000", "184132.260000", "184132.720000", "184133.180000", "184133.640000", "184134.100000", "184134.560000", "184135.020000", "184135.480000", "184135.940000", "184136.400000", "184136.860000", "184137.320000", "184137.780000", "184138.240000", "184138.700000", "184139.160000", "184139.620000", "184140.080000", "184140.540000", "184141.000000", "184141.460000", "184141.920000", "184142.380000", "184142.840000", "184143.300000", "184143.760000", "184144.220000", "184144.680000", "184145.140000", "184145.600000", "184146.060000", "184146.520000", "184146.980000", "184147.440000", "184147.900000", "184148.360000", "184148.820000", "184149.280000", "184149.740000", "184150.200000", "184150.660000", "184151.120000", "184151.580000", "184152.040000", "184152.500000", "184152.960000", "184153.420000", "184153.880000", "184154.340000", "184154.800000", "184155.260000", "184155.720000", "184156.180000", "184156.640000", "184157.100000", "184157.560000", "184158.020000", "184158.480000", "184158.940000", "184159.400000", "184159.860000", "184200.320000", "184200.780000", "184201.240000", "184201.700000", "184202.160000", "184202.620000", "184203.080000", "184203.540000", "184204.000000", "184204.460000", "184204.920000", "184205.380000", "184205.840000", "184206.300000", "184206.760000", "184207.220000", "184207.680000", "184208.140000", "184208.600000", "184209.060000", "184209.520000", "184209.980000", "184210.440000", "184210.900000", "184211.360000", "184211.820000", "184212.280000", "184212.740000", "184213.200000", "184213.660000", "184214.120000", "184214.580000", "184215.040000", "184215.500000", "184215.960000", "184216.420000", "184216.880000", "184217.340000", "184217.800000", "184218.260000", "184218.720000", "184219.180000", "184219.640000", "184220.100000", "184220.560000", "184221.020000", "184221.480000", "184221.940000", "184222.400000", "184222.860000", "184223.320000", "184223.780000", "184224.240000", "184224.700000", "184225.160000", "184225.620000", "184226.080000", "184226.540000", "184227.000000", "184227.460000", "184227.920000", "184228.380000", "184228.840000", "184229.300000", "184229.760000", "184230.220000", "184230.680000", "184231.140000", "184231.600000", "184232.060000", "184232.520000", "184232.980000", "184233.440000", "184233.900000", "184234.360000", "184234.820000", "184235.280000", "184235.740000", "184236.200000", "184236.660000", "184237.120000", "184237.580000", "184238.040000", "184238.500000", "184238.960000", "184239.420000", "184239.880000", "184240.340000", "184240.800000", "184241.260000", "184241.720000", "184242.180000", "184242.640000", "184243.100000", "184243.560000", "184244.020000", "184244.480000", "184244.940000", "184245.400000", "184245.860000", "184246.320000", "184246.780000", "184247.240000", "184247.700000", "184248.160000", "184248.620000", "184249.080000", "184249.540000", "184250.000000", "184250.460000", "184250.920000", "184251.380000", "184251.840000", "184252.300000", "184252.760000", "184253.220000", "184253.680000", "184254.140000", "184254.600000", "184255.060000", "184255.520000", "184255.980000", "184256.440000", "184256.900000", "184257.360000", "184257.820000", "184258.280000", "184258.740000", "184259.200000", "184259.660000", "184300.120000", "184300.580000", "184301.040000", "184301.500000", "184301.960000", "184302.420000", "184302.880000", "184303.340000", "184303.800000", "184304.260000", "184304.720000", "184305.180000", "184305.640000", "184306.100000", "184306.560000", "184307.020000", "184307.480000", "184307.940000", "184308.400000", "184308.860000", "184309.320000", "184309.780000", "184310.240000", "184310.700000", "184311.160000", "184311.620000", "184312.080000", "184312.540000", "184313.000000", "184313.460000", "184313.920000", "184314.380000", "184314.840000", "184315.300000", "184315.760000", "184316.220000", "184316.680000", "184317.140000", "184317.600000", "184318.060000", "184318.520000", "184318.980000", "184319.440000", "184319.900000", "184320.360000", "184320.820000", "184321.280000", "184321.740000", "184322.200000", "184322.660000", "184323.120000", "184323.580000", "184324.040000", "184324.500000", "184324.960000", "184325.420000", "184325.880000", "184326.340000", "184326.800000", "184327.260000", "184327.720000", "184328.180000", "184328.640000", "184329.100000", "184329.560000", "184330.020000", "184330.480000", "184330.940000", "184331.400000", "184331.860000", "184332.320000", "184332.780000", "184333.240000", "184333.700000", "184334.160000", "184334.620000", "184335.080000", "184335.540000", "184336.000000", "184336.460000", "184336.920000", "184337.380000", "184337.840000", "184338.300000", "184338.760000", "184339.220000", "184339.680000", "184340.140000", "184340.600000", "184341.060000", "184341.520000", "184341.980000", "184342.440000", "184342.900000", "184343.360000", "184343.820000", "184344.280000", "184344.740000", "184345.200000", "184345.660000", "184346.120000", "184346.580000", "184347.040000", "184347.500000", "184347.960000", "184348.420000", "184348.880000", "184349.340000", "184349.800000", "184350.260000", "184350.720000", "184351.180000", "184351.640000", "184352.100000", "184352.560000", "184353.020000", "184353.480000", "184353.940000", "184354.400000", "184354.860000", "184355.320000", "184355.780000", "184356.240000", "184356.700000", "184357.160000", "184357.620000", "184358.080000", "184358.540000", "184359.000000", "184359.460000", "184359.920000", "184400.380000", "184400.840000", "184401.300000", "184401.760000", "184402.220000", "184402.680000", "184403.140000", "184403.600000", "184404.060000", "184404.520000", "184404.980000", "184405.440000", "184405.900000", "184406.360000", "184406.820000", "184407.280000", "184407.740000", "184408.200000", "184408.660000", "184409.120000", "184409.580000", "184410.040000", "184410.500000", "184410.960000", "184411.420000", "184411.880000", "184412.340000", "184412.800000", "184413.260000", "184413.720000", "184414.180000", "184414.640000", "184415.100000", "184415.560000", "184416.020000", "184416.480000", "184416.940000", "184417.400000", "184417.860000", "184418.320000", "184418.780000", "184419.240000", "184419.700000", "184420.160000", "184420.620000", "184421.080000", "184421.540000", "184422.000000", "184422.460000", "184422.920000", "184423.380000", "184423.840000", "184424.300000", "184424.760000", "184425.220000", "184425.680000", "184426.140000", "184426.600000", "184427.060000", "184427.520000", "184427.980000", "184428.440000", "184428.900000", "184429.360000", "184429.820000", "184430.280000", "184430.740000", "184431.200000", "184431.660000", "184432.120000", "184432.580000", "184433.040000", "184433.500000", "184433.960000", "184434.420000", "184434.880000", "184435.340000", "184435.800000", "184436.260000", "184436.720000", "184437.180000", "184437.640000", "184438.100000", "184438.560000", "184439.020000", "184439.480000", "184439.940000", "184440.400000", "184440.860000", "184441.320000", "184441.780000", "184442.240000", "184442.700000", "184443.160000", "184443.620000", "184444.080000", "184444.540000", "184445.000000", "184445.460000", "184445.920000", "184446.380000", "184446.840000", "184447.300000", "184447.760000", "184448.220000", "184448.680000", "184449.140000", "184449.600000", "184450.060000", "184450.520000", "184450.980000", "184451.440000", "184451.900000", "184452.360000", "184452.820000", "184453.280000", "184453.740000", "184454.200000", "184454.660000", "184455.120000", "184455.580000", "184456.040000", "184456.500000", "184456.960000", "184457.420000", "184457.880000", "184458.340000", "184458.800000", "184459.260000", "184459.720000", "184500.180000", "184500.640000", "184501.100000", "184501.560000", "184502.020000", "184502.480000", "184502.940000", "184503.400000", "184503.860000", "184504.320000", "184504.780000", "184505.240000", "184505.700000", "184506.160000", "184506.620000", "184507.080000", "184507.540000", "184508.000000", "184508.460000", "184508.920000", "184509.380000", "184509.840000", "184510.300000", "184510.760000", "184511.220000", "184511.680000", "184512.140000", "184512.600000", "184513.060000", "184513.520000", "184513.980000", "184514.440000", "184514.900000", "184515.360000", "184515.820000", "184516.280000", "184516.740000", "184517.200000", "184517.660000", "184518.120000", "184518.580000", "184519.040000", "184519.500000", "184519.960000", "184520.420000", "184520.880000", "184521.340000", "184521.800000", "184522.260000", "184522.720000", "184523.180000", "184523.640000", "184524.100000", "184524.560000", "184525.020000", "184525.480000", "184525.940000", "184526.400000", "184526.860000", "184527.320000", "184527.780000", "184528.240000", "184528.700000", "184529.160000", "184529.620000", "184530.080000", "184530.540000", "184531.000000", "184531.460000", "184531.920000", "184532.380000", "184532.840000", "184533.300000", "184533.760000", "184534.220000", "184534.680000", "184535.140000", "184535.600000", "184536.060000", "184536.520000", "184536.980000", "184537.440000", "184537.900000", "184538.360000", "184538.820000", "184539.280000", "184539.740000", "184540.200000", "184540.660000", "184541.120000", "184541.580000", "184542.040000", "184542.500000", "184542.960000", "184543.420000", "184543.880000", "184544.340000", "184544.800000", "184545.260000", "184545.720000", "184546.180000", "184546.640000", "184547.100000", "184547.560000", "184548.020000", "184548.480000", "184548.940000", "184549.400000", "184549.860000", "184550.320000", "184550.780000", "184551.240000", "184551.700000", "184552.160000", "184552.620000", "184553.080000", "184553.540000", "184554.000000", "184554.460000", "184554.920000", "184555.380000", "184555.840000", "184556.300000", "184556.760000", "184557.220000", "184557.680000", "184558.140000", "184558.600000", "184559.060000", "184559.520000", "184559.980000", "184600.440000", "184600.900000", "184601.360000", "184601.820000", "184602.280000", "184602.740000", "184603.200000", "184603.660000", "184604.120000", "184604.580000", "184605.040000", "184605.500000", "184605.960000", "184606.420000", "184606.880000", "184607.340000", "184607.800000", "184608.260000", "184608.720000", "184609.180000", "184609.640000", "184610.100000", "184610.560000", "184611.020000", "184611.480000", "184611.940000", "184612.400000", "184612.860000", "184613.320000", "184613.780000", "184614.240000", "184614.700000", "184615.160000", "184615.620000", "184616.080000", "184616.540000", "184617.000000", "184617.460000", "184617.920000", "184618.380000", "184618.840000", "184619.300000", "184619.760000", "184620.220000", "184620.680000", "184621.140000", "184621.600000", "184622.060000", "184622.520000", "184622.980000", "184623.440000", "184623.900000", "184624.360000", "184624.820000", "184625.280000", "184625.740000", "184626.200000", "184626.660000", "184627.120000", "184627.580000", "184628.040000", "184628.500000", "184628.960000", "184629.420000", "184629.880000", "184630.340000", "184630.800000", "184631.260000", "184631.720000", "184632.180000", "184632.640000", "184633.100000", "184633.560000", "184634.020000", "184634.480000", "184634.940000", "184635.400000", "184635.860000", "184636.320000", "184636.780000", "184637.240000", "184637.700000", "184638.160000", "184638.620000", "184639.080000", "184639.540000", "184640.000000", "184640.460000", "184640.920000", "184641.380000", "184641.840000", "184642.300000", "184642.760000", "184643.220000", "184643.680000", "184644.140000", "184644.600000", "184645.060000", "184645.520000", "184645.980000", "184646.440000", "184646.900000", "184647.360000", "184647.820000", "184648.280000", "184648.740000", "184649.200000", "184649.660000", "184650.120000", "184650.580000", "184651.040000", "184651.500000", "184651.960000", "184652.420000", "184652.880000", "184653.340000", "184653.800000", "184654.260000", "184654.720000", "184655.180000", "184655.640000", "184656.100000", "184656.560000", "184657.020000", "184657.480000", "184657.940000", "184658.400000", "184658.860000", "184659.320000", "184659.780000", "184700.240000", "184700.700000", "184701.160000", "184701.620000", "184702.080000", "184702.540000", "184703.000000", "184703.460000", "184703.920000", "184704.380000", "184704.840000", "184705.300000", "184705.760000", "184706.220000", "184706.680000", "184707.140000", "184707.600000", "184708.060000", "184708.520000", "184708.980000", "184709.440000", "184709.900000", "184710.360000", "184710.820000", "184711.280000", "184711.740000", "184712.200000", "184712.660000", "184713.120000", "184713.580000", "184714.040000", "184714.500000", "184714.960000", "184715.420000", "184715.880000"],
