{
  "AcquisitionMatrixPE": 82,
  "AcquisitionNumber": 1,
  "AcquisitionTime": "18:32:17.162500",
  "BandwidthPerPixelPhaseEncode": 24.888,
  "BaseResolution": 82,
  "BodyPartExamined": "BRAIN",
  "ConsistencyInfo": "N4_VE11E_LATEST_20181129",
  "ConversionSoftware": "dcm2niix",
  "ConversionSoftwareVersion": "v1.0.20201102",
  "DerivedVendorReportedEchoSpacing": 0.00049,
  "DeviceSerialNumber": "66112",
  "DwellTime": 2e-06,
  "EchoTime": 0.0272,
  "EchoTrainLength": 82,
  "EffectiveEchoSpacing": 0.00049,
  "FlipAngle": 44,
  "ImageComments": "Unaliased MB8/PE3",
  "ImageOrientationPatientDICOM": [0.998507, 0.0503019, 0.021298, -0.0523296, 0.992684, 0.108813],
  "ImageType": [
    "ORIGINAL",
    "PRIMARY",
    "M",
    "MB",
    "ND",
    "NORM",
    "MOSAIC"
],
  "ImagingFrequency": 123.252,
  "InPlanePhaseEncodingDirectionDICOM": "COL",
  "InstitutionAddress": "Maynard 3,Hanover,NH,US,03755",
  "InstitutionName": "Dartmouth College - PBS",
  "InstitutionalDepartmentName": "Department",
  "MRAcquisitionType": "2D",
  "MagneticFieldStrength": 3,
  "Manufacturer": "Siemens",
  "ManufacturersModelName": "Prisma",
  "Modality": "MR",
  "MultibandAccelerationFactor": 8,
  "PartialFourier": 1,
  "PatientPosition": "HFS",
  "PercentPhaseFOV": 100,
  "PercentSampling": 100,
  "PhaseEncodingDirection": "j-",
  "PhaseEncodingSteps": 82,
  "PhaseResolution": 1,
  "PixelBandwidth": 3050,
  "ProcedureStepDescription": "Wager_Wager^1076_spacetop",
  "ProtocolName": "func_run-04_task-social_acq-ap-mb8",
  "PulseSequenceDetails": "%CustomerSeq%\\cmrr_mbep2d_bold",
  "ReceiveCoilActiveElements": "HEA;HEP",
  "ReceiveCoilName": "Head_32",
  "ReconMatrixPE": 82,
  "RepetitionTime": 0.46,
  "SAR": 0.0861828,
  "ScanOptions": "FS",
  "ScanningSequence": "EP",
  "SequenceName": "epfid2d1_82",
  "SequenceVariant": "SK\\SS",
  "SeriesDescription": "func_run-04_task-social_acq-ap-mb8",
  "SeriesNumber": 18,
  "ShimSetting": [4160, -7785, -7284, 828, -17, -386, 100, 35],
  "SliceThickness": 2.7,
  "SliceTiming": [0, 0.25, 0.0625, 0.3125, 0.125, 0.375, 0.1875, 0, 0.25, 0.0625, 0.3125, 0.125, 0.375, 0.1875, 0, 0.25, 0.0625, 0.3125, 0.125, 0.375, 0.1875, 0, 0.25, 0.0625, 0.3125, 0.125, 0.375, 0.1875, 0, 0.25, 0.0625, 0.3125, 0.125, 0.375, 0.1875, 0, 0.25, 0.0625, 0.3125, 0.125, 0.375, 0.1875, 0, 0.25, 0.0625, 0.3125, 0.125, 0.375, 0.1875, 0, 0.25, 0.0625, 0.3125, 0.125, 0.375, 0.1875],
  "SoftwareVersions": "syngo MR E11",
  "SpacingBetweenSlices": 2.7,
  "StationName": "AWP66112",
  "TaskName": "social",
  "TotalReadoutTime": 0.03969,
  "TxRefAmp": 226.916,
  "WipMemBlock": "6fd5647c-f89a-46a8-bfb0-246f3f06ba1c||Sequence: R016 ve11e/master r/434b28f1; Aug  7 2019 18:53:46 by eja",
  "dcmmeta_affine": [
    [-2.6789212226867676, -0.1403963565826416, 0.042305391281843185, 117.38031768798828],
    [-0.13495641946792603, 2.6632983684539795, 0.2963653802871704, -100.77108764648438],
    [0.05714092776179314, -0.29193708300590515, 2.683351993560791, -67.05414581298828],
    [0.0, 0.0, 0.0, 1.0]
],
  "dcmmeta_reorient_transform": [
    [0.0, -1.0, 0.0, 81.0],
    [1.0, 0.0, 0.0, 0.0],
    [0.0, 0.0, 1.0, 0.0],
    [0.0, 0.0, 0.0, 1.0]
],
  "dcmmeta_shape": [82, 82, 56, 872],
  "dcmmeta_slice_dim": 2,
  "dcmmeta_version": 0.6,
  "global": {
    "const": {
      "AccessionNumber": "A003953",
      "AcquisitionMatrix": [82, 0, 0, 82],
      "AngioFlag": "N",
      "BitsAllocated": 16,
      "BitsStored": 16,
      "BodyPartExamined": "BRAIN",
      "Columns": 656,
      "EchoNumbers": 1,
      "EchoTime": 27.2,
      "EchoTrainLength": 82,
      "FlipAngle": 44.0,
      "HighBit": 15,
      "ImageOrientationPatient": [0.99850694086774, 0.05030193874486, 0.02129798106539, -0.0523295522055, 0.99268392202868, 0.10881290783607],
      "ImagePositionPatient": [-834.56481898362, -918.05521325692, -190.88643231419],
      "ImageType": [
        "ORIGINAL",
        "PRIMARY",
        "M",
        "MB",
        "ND",
        "NORM",
        "MOSAIC"
],
      "ImagedNucleus": "1H",
      "ImagingFrequency": 123.252238,
      "InPlanePhaseEncodingDirection": "COL",
      "MRAcquisitionType": "2D",
      "MagneticFieldStrength": 3.0,
      "Manufacturer": "SIEMENS",
      "ManufacturerModelName": "Prisma",
      "Modality": "MR",
      "NumberOfAverages": 1.0,
      "NumberOfPhaseEncodingSteps": 82,
      "PercentPhaseFieldOfView": 100.0,
      "PercentSampling": 100.0,
      "PerformedProcedureStepStartTime": "173119.793000",
      "PhotometricInterpretation": "MONOCHROME2",
      "PixelBandwidth": 3050.0,
      "PixelRepresentation": 0,
      "PixelSpacing": [2.6829268932343, 2.6829268932343],
      "ProtocolName": "func_run-04_task-social_acq-ap-mb8",
      "RepetitionTime": 460.0,
      "Rows": 656,
      "SAR": 0.08618280550653,
      "SamplesPerPixel": 1,
      "ScanOptions": "FS",
      "ScanningSequence": "EP",
      "SequenceName": "epfid2d1_82",
      "SequenceVariant": [
        "SK",
        "SS"
],
      "SeriesDescription": "func_run-04_task-social_acq-ap-mb8",
      "SeriesNumber": 18,
      "SeriesTime": "183238.483000",
      "SliceLocation": -75.862632289669,
      "SliceThickness": 2.7000000476837,
      "SmallestImagePixelValue": 0,
      "SoftwareVersions": "syngo MR E11",
      "SpacingBetweenSlices": 2.6999999960646,
      "SpecificCharacterSet": "ISO_IR 100",
      "StudyID": "1",
      "StudyTime": "173119.682000",
      "TransmitCoilName": "Body",
      "VariableFlipAngleFlag": "N",
      "WindowCenterWidthExplanation": "Algo1"
    },
    "slices": {}
  },
  "time": {
    "samples": {
      "AcquisitionNumber": [1, 2, 3, 4, 5, 6, 7, 8, 9, 10, 11, 12, 13, 14, 15, 16, 17, 18, 19, 20, 21, 22, 23, 24, 25, 26, 27, 28, 29, 30, 31, 32, 33, 34, 35, 36, 37, 38, 39, 40, 41, 42, 43, 44, 45, 46, 47, 48, 49, 50, 51, 52, 53, 54, 55, 56, 57, 58, 59, 60, 61, 62, 63, 64, 65, 66, 67, 68, 69, 70, 71, 72, 73, 74, 75, 76, 77, 78, 79, 80, 81, 82, 83, 84, 85, 86, 87, 88, 89, 90, 91, 92, 93, 94, 95, 96, 97, 98, 99, 100, 101, 102, 103, 104, 105, 106, 107, 108, 109, 110, 111, 112, 113, 114, 115, 116, 117, 118, 119, 120, 121, 122, 123, 124, 125, 126, 127, 128, 129, 130, 131, 132, 133, 134, 135, 136, 137, 138, 139, 140, 141, 142, 143, 144, 145, 146, 147, 148, 149, 150, 151, 152, 153, 154, 155, 156, 157, 158, 159, 160, 161, 162, 163, 164, 165, 166, 167, 168, 169, 170, 171, 172, 173, 174, 175, 176, 177, 178, 179, 180, 181, 182, 183, 184, 185, 186, 187, 188, 189, 190, 191, 192, 193, 194, 195, 196, 197, 198, 199, 200, 201, 202, 203, 204, 205, 206, 207, 208, 209, 210, 211, 212, 213, 214, 215, 216, 217, 218, 219, 220, 221, 222, 223, 224, 225, 226, 227, 228, 229, 230, 231, 232, 233, 234, 235, 236, 237, 238, 239, 240, 241, 242, 243, 244, 245, 246, 247, 248, 249, 250, 251, 252, 253, 254, 255, 256, 257, 258, 259, 260, 261, 262, 263, 264, 265, 266, 267, 268, 269, 270, 271, 272, 273, 274, 275, 276, 277, 278, 279, 280, 281, 282, 283, 284, 285, 286, 287, 288, 289, 290, 291, 292, 293, 294, 295, 296, 297, 298, 299, 300, 301, 302, 303, 304, 305, 306, 307, 308, 309, 310, 311, 312, 313, 314, 315, 316, 317, 318, 319, 320, 321, 322, 323, 324, 325, 326, 327, 328, 329, 330, 331, 332, 333, 334, 335, 336, 337, 338, 339, 340, 341, 342, 343, 344, 345, 346, 347, 348, 349, 350, 351, 352, 353, 354, 355, 356, 357, 358, 359, 360, 361, 362, 363, 364, 365, 366, 367, 368, 369, 370, 371, 372, 373, 374, 375, 376, 377, 378, 379, 380, 381, 382, 383, 384, 385, 386, 387, 388, 389, 390, 391, 392, 393, 394, 395, 396, 397, 398, 399, 400, 401, 402, 403, 404, 405, 406, 407, 408, 409, 410, 411, 412, 413, 414, 415, 416, 417, 418, 419, 420, 421, 422, 423, 424, 425, 426, 427, 428, 429, 430, 431, 432, 433, 434, 435, 436, 437, 438, 439, 440, 441, 442, 443, 444, 445, 446, 447, 448, 449, 450, 451, 452, 453, 454, 455, 456, 457, 458, 459, 460, 461, 462, 463, 464, 465, 466, 467, 468, 469, 470, 471, 472, 473, 474, 475, 476, 477, 478, 479, 480, 481, 482, 483, 484, 485, 486, 487, 488, 489, 490, 491, 492, 493, 494, 495, 496, 497, 498, 499, 500, 501, 502, 503, 504, 505, 506, 507, 508, 509, 510, 511, 512, 513, 514, 515, 516, 517, 518, 519, 520, 521, 522, 523, 524, 525, 526, 527, 528, 529, 530, 531, 532, 533, 534, 535, 536, 537, 538, 539, 540, 541, 542, 543, 544, 545, 546, 547, 548, 549, 550, 551, 552, 553, 554, 555, 556, 557, 558, 559, 560, 561, 562, 563, 564, 565, 566, 567, 568, 569, 570, 571, 572, 573, 574, 575, 576, 577, 578, 579, 580, 581, 582, 583, 584, 585, 586, 587, 588, 589, 590, 591, 592, 593, 594, 595, 596, 597, 598, 599, 600, 601, 602, 603, 604, 605, 606, 607, 608, 609, 610, 611, 612, 613, 614, 615, 616, 617, 618, 619, 620, 621, 622, 623, 624, 625, 626, 627, 628, 629, 630, 631, 632, 633, 634, 635, 636, 637, 638, 639, 640, 641, 642, 643, 644, 645, 646, 647, 648, 649, 650, 651, 652, 653, 654, 655, 656, 657, 658, 659, 660, 661, 662, 663, 664, 665, 666, 667, 668, 669, 670, 671, 672, 673, 674, 675, 676, 677, 678, 679, 680, 681, 682, 683, 684, 685, 686, 687, 688, 689, 690, 691, 692, 693, 694, 695, 696, 697, 698, 699, 700, 701, 702, 703, 704, 705, 706, 707, 708, 709, 710, 711, 712, 713, 714, 715, 716, 717, 718, 719, 720, 721, 722, 723, 724, 725, 726, 727, 728, 729, 730, 731, 732, 733, 734, 735, 736, 737, 738, 739, 740, 741, 742, 743, 744, 745, 746, 747, 748, 749, 750, 751, 752, 753, 754, 755, 756, 757, 758, 759, 760, 761, 762, 763, 764, 765, 766, 767, 768, 769, 770, 771, 772, 773, 774, 775, 776, 777, 778, 779, 780, 781, 782, 783, 784, 785, 786, 787, 788, 789, 790, 791, 792, 793, 794, 795, 796, 797, 798, 799, 800, 801, 802, 803, 804, 805, 806, 807, 808, 809, 810, 811, 812, 813, 814, 815, 816, 817, 818, 819, 820, 821, 822, 823, 824, 825, 826, 827, 828, 829, 830, 831, 832, 833, 834, 835, 836, 837, 838, 839, 840, 841, 842, 843, 844, 845, 846, 847, 848, 849, 850, 851, 852, 853, 854, 855, 856, 857, 858, 859, 860, 861, 862, 863, 864, 865, 866, 867, 868, 869, 870, 871, 872],
      "AcquisitionTime": ["183217.162500", "183217.622500", "183218.082500", "183218.542500", "183219.002500", "183219.462500", "183219.922500", "183220.382500", "183220.842500", "183221.302500", "183221.762500", "183222.222500", "183222.682500", "183223.142500", "183223.602500", "183224.062500", "183224.522500", "183224.982500", "183225.442500", "183225.902500", "183226.362500", "183226.822500", "183227.282500", "183227.742500", "183228.202500", "183228.662500", "183229.122500", "183229.582500", "183230.042500", "183230.502500", "183230.962500", "183231.422500", "183231.882500", "183232.342500", "183232.802500", "183233.262500", "183233.722500", "183234.182500", "183234.642500", "183235.102500", "183235.562500", "183236.022500", "183236.482500", "183236.942500", "183237.402500", "183237.862500", "183238.322500", "183238.782500", "183239.242500", "183239.702500", "183240.162500", "183240.622500", "183241.082500", "183241.542500", "183242.002500", "183242.462500", "183242.922500", "183243.382500", "183243.842500", "183244.302500", "183244.762500", "183245.222500", "183245.682500", "183246.142500", "183246.602500", "183247.062500", "183247.522500", "183247.982500", "183248.442500", "183248.902500", "183249.362500", "183249.822500", "183250.282500", "183250.742500", "183251.202500", "183251.662500", "183252.122500", "183252.582500", "183253.042500", "183253.502500", "183253.962500", "183254.422500", "183254.882500", "183255.342500", "183255.802500", "183256.262500", "183256.722500", "183257.182500", "183257.642500", "183258.102500", "183258.562500", "183259.022500", "183259.482500", "183259.942500", "183300.402500", "183300.862500", "183301.322500", "183301.782500", "183302.242500", "183302.702500", "183303.162500", "183303.622500", "183304.082500", "183304.542500", "183305.002500", "183305.462500", "183305.922500", "183306.382500", "183306.842500", "183307.302500", "183307.762500", "183308.222500", "183308.682500", "183309.142500", "183309.602500", "183310.062500", "183310.522500", "183310.982500", "183311.442500", "183311.902500", "183312.362500", "183312.822500", "183313.282500", "183313.742500", "183314.202500", "183314.662500", "183315.122500", "183315.582500", "183316.042500", "183316.502500", "183316.962500", "183317.422500", "183317.882500", "183318.342500", "183318.802500", "183319.262500", "183319.722500", "183320.182500", "183320.642500", "183321.102500", "183321.562500", "183322.022500", "183322.482500", "183322.942500", "183323.402500", "183323.862500", "183324.322500", "183324.782500", "183325.242500", "183325.702500", "183326.162500", "183326.622500", "183327.082500", "183327.542500", "183328.002500", "183328.462500", "183328.922500", "183329.382500", "183329.842500", "183330.302500", "183330.762500", "183331.222500", "183331.682500", "183332.142500", "183332.602500", "183333.062500", "183333.522500", "183333.982500", "183334.442500", "183334.902500", "183335.362500", "183335.822500", "183336.282500", "183336.742500", "183337.202500", "183337.662500", "183338.122500", "183338.582500", "183339.042500", "183339.502500", "183339.962500", "183340.422500", "183340.882500", "183341.342500", "183341.802500", "183342.262500", "183342.722500", "183343.182500", "183343.642500", "183344.102500", "183344.562500", "183345.022500", "183345.482500", "183345.942500", "183346.402500", "183346.862500", "183347.322500", "183347.782500", "183348.242500", "183348.702500", "183349.162500", "183349.622500", "183350.082500", "183350.542500", "183351.002500", "183351.462500", "183351.922500", "183352.382500", "183352.842500", "183353.302500", "183353.762500", "183354.222500", "183354.682500", "183355.142500", "183355.602500", "183356.062500", "183356.522500", "183356.982500", "183357.442500", "183357.902500", "183358.362500", "183358.822500", "183359.282500", "183359.742500", "183400.202500", "183400.662500", "183401.122500", "183401.582500", "183402.042500", "183402.502500", "183402.962500", "183403.422500", "183403.882500", "183404.342500", "183404.802500", "183405.262500", "183405.722500", "183406.182500", "183406.642500", "183407.102500", "183407.562500", "183408.022500", "183408.482500", "183408.942500", "183409.402500", "183409.862500", "183410.322500", "183410.782500", "183411.242500", "183411.702500", "183412.162500", "183412.622500", "183413.082500", "183413.542500", "183414.002500", "183414.462500", "183414.922500", "183415.382500", "183415.842500", "183416.302500", "183416.762500", "183417.222500", "183417.682500", "183418.142500", "183418.602500", "183419.062500", "183419.522500", "183419.982500", "183420.442500", "183420.902500", "183421.362500", "183421.822500", "183422.282500", "183422.742500", "183423.202500", "183423.662500", "183424.122500", "183424.582500", "183425.042500", "183425.502500", "183425.962500", "183426.422500", "183426.882500", "183427.342500", "183427.802500", "183428.262500", "183428.722500", "183429.182500", "183429.642500", "183430.102500", "183430.562500", "183431.022500", "183431.482500", "183431.942500", "183432.402500", "183432.862500", "183433.322500", "183433.782500", "183434.242500", "183434.702500", "183435.162500", "183435.622500", "183436.082500", "183436.542500", "183437.002500", "183437.462500", "183437.922500", "183438.382500", "183438.842500", "183439.302500", "183439.762500", "183440.222500", "183440.682500", "183441.142500", "183441.602500", "183442.062500", "183442.522500", "183442.982500", "183443.442500", "183443.902500", "183444.362500", "183444.822500", "183445.282500", "183445.742500", "183446.202500", "183446.662500", "183447.122500", "183447.582500", "183448.042500", "183448.502500", "183448.962500", "183449.422500", "183449.882500", "183450.342500", "183450.802500", "183451.262500", "183451.722500", "183452.182500", "183452.642500", "183453.102500", "183453.562500", "183454.022500", "183454.482500", "183454.942500", "183455.402500", "183455.862500", "183456.322500", "183456.782500", "183457.242500", "183457.702500", "183458.162500", "183458.622500", "183459.082500", "183459.542500", "183500.002500", "183500.462500", "183500.922500", "183501.382500", "183501.842500", "183502.302500", "183502.762500", "183503.222500", "183503.682500", "183504.142500", "183504.602500", "183505.062500", "183505.522500", "183505.982500", "183506.442500", "183506.902500", "183507.362500", "183507.822500", "183508.282500", "183508.742500", "183509.202500", "183509.662500", "183510.122500", "183510.582500", "183511.042500", "183511.502500", "183511.962500", "183512.422500", "183512.882500", "183513.342500", "183513.802500", "183514.262500", "183514.722500", "183515.182500", "183515.642500", "183516.102500", "183516.562500", "183517.022500", "183517.482500", "183517.942500", "183518.402500", "183518.862500", "183519.322500", "183519.782500", "183520.242500", "183520.702500", "183521.162500", "183521.622500", "183522.082500", "183522.542500", "183523.002500", "183523.462500", "183523.922500", "183524.382500", "183524.842500", "183525.302500", "183525.762500", "183526.222500", "183526.682500", "183527.142500", "183527.602500", "183528.062500", "183528.522500", "183528.982500", "183529.442500", "183529.902500", "183530.362500", "183530.822500", "183531.282500", "183531.742500", "183532.202500", "183532.662500", "183533.122500", "183533.582500", "183534.042500", "183534.502500", "183534.962500", "183535.422500", "183535.882500", "183536.342500", "183536.802500", "183537.262500", "183537.722500", "183538.182500", "183538.642500", "183539.102500", "183539.562500", "183540.022500", "183540.482500", "183540.942500", "183541.402500", "183541.862500", "183542.322500", "183542.782500", "183543.242500", "183543.702500", "183544.162500", "183544.622500", "183545.082500", "183545.542500", "183546.002500", "183546.462500", "183546.922500", "183547.382500", "183547.842500", "183548.302500", "183548.762500", "183549.222500", "183549.682500", "183550.142500", "183550.602500", "183551.062500", "183551.522500", "183551.982500", "183552.442500", "183552.902500", "183553.362500", "183553.822500", "183554.282500", "183554.742500", "183555.202500", "183555.662500", "183556.122500", "183556.582500", "183557.042500", "183557.502500", "183557.962500", "183558.422500", "183558.882500", "183559.342500", "183559.802500", "183600.262500", "183600.722500", "183601.182500", "183601.642500", "183602.102500", "183602.562500", "183603.022500", "183603.482500", "183603.942500", "183604.402500", "183604.862500", "183605.322500", "183605.782500", "183606.242500", "183606.702500", "183607.162500", "183607.622500", "183608.082500", "183608.542500", "183609.002500", "183609.462500", "183609.922500", "183610.382500", "183610.842500", "183611.302500", "183611.762500", "183612.222500", "183612.682500", "183613.142500", "183613.602500", "183614.062500", "183614.522500", "183614.982500", "183615.442500", "183615.902500", "183616.362500", "183616.822500", "183617.282500", "183617.742500", "183618.202500", "183618.662500", "183619.122500", "183619.582500", "183620.042500", "183620.502500", "183620.962500", "183621.422500", "183621.882500", "183622.342500", "183622.802500", "183623.262500", "183623.722500", "183624.182500", "183624.642500", "183625.102500", "183625.562500", "183626.022500", "183626.482500", "183626.942500", "183627.402500", "183627.862500", "183628.322500", "183628.782500", "183629.242500", "183629.702500", "183630.162500", "183630.622500", "183631.082500", "183631.542500", "183632.002500", "183632.462500", "183632.922500", "183633.382500", "183633.842500", "183634.302500", "183634.762500", "183635.222500", "183635.682500", "183636.142500", "183636.602500", "183637.062500", "183637.522500", "183637.982500", "183638.442500", "183638.902500", "183639.362500", "183639.822500", "183640.282500", "183640.742500", "183641.202500", "183641.662500", "183642.122500", "183642.582500", "183643.042500", "183643.502500", "183643.962500", "183644.422500", "183644.882500", "183645.342500", "183645.802500", "183646.262500", "183646.722500", "183647.182500", "183647.642500", "183648.102500", "183648.562500", "183649.022500", "183649.482500", "183649.942500", "183650.402500", "183650.862500", "183651.322500", "183651.782500", "183652.242500", "183652.702500", "183653.162500", "183653.622500", "183654.082500", "183654.542500", "183655.002500", "183655.462500", "183655.922500", "183656.382500", "183656.842500", "183657.302500", "183657.762500", "183658.222500", "183658.682500", "183659.142500", "183659.602500", "183700.062500", "183700.522500", "183700.982500", "183701.442500", "183701.902500", "183702.362500", "183702.822500", "183703.282500", "183703.742500", "183704.202500", "183704.662500", "183705.122500", "183705.582500", "183706.042500", "183706.502500", "183706.962500", "183707.422500", "183707.882500", "183708.342500", "183708.802500", "183709.262500", "183709.722500", "183710.182500", "183710.642500", "183711.102500", "183711.562500", "183712.022500", "183712.482500", "183712.942500", "183713.402500", "183713.862500", "183714.322500", "183714.782500", "183715.242500", "183715.702500", "183716.162500", "183716.622500", "183717.082500", "183717.542500", "183718.002500", "183718.462500", "183718.922500", "183719.382500", "183719.842500", "183720.302500", "183720.762500", "183721.222500", "183721.682500", "183722.142500", "183722.602500", "183723.062500", "183723.522500", "183723.982500", "183724.442500", "183724.902500", "183725.362500", "183725.822500", "183726.282500", "183726.742500", "183727.202500", "183727.662500", "183728.122500", "183728.582500", "183729.042500", "183729.502500", "183729.962500", "183730.422500", "183730.882500", "183731.342500", "183731.802500", "183732.262500", "183732.722500", "183733.182500", "183733.642500", "183734.102500", "183734.562500", "183735.022500", "183735.482500", "183735.942500", "183736.402500", "183736.862500", "183737.322500", "183737.782500", "183738.242500", "183738.702500", "183739.162500", "183739.622500", "183740.082500", "183740.542500", "183741.002500", "183741.462500", "183741.922500", "183742.382500", "183742.842500", "183743.302500", "183743.762500", "183744.222500", "183744.682500", "183745.142500", "183745.602500", "183746.062500", "183746.522500", "183746.982500", "183747.442500", "183747.902500", "183748.362500", "183748.822500", "183749.282500", "183749.742500", "183750.202500", "183750.662500", "183751.122500", "183751.582500", "183752.042500", "183752.502500", "183752.962500", "183753.422500", "183753.882500", "183754.342500", "183754.802500", "183755.262500", "183755.722500", "183756.182500", "183756.642500", "183757.102500", "183757.562500", "183758.022500", "183758.482500", "183758.942500", "183759.402500", "183759.862500", "183800.322500", "183800.782500", "183801.242500", "183801.702500", "183802.162500", "183802.622500", "183803.082500", "183803.542500", "183804.002500", "183804.462500", "183804.922500", "183805.382500", "183805.842500", "183806.302500", "183806.762500", "183807.222500", "183807.682500", "183808.142500", "183808.602500", "183809.062500", "183809.522500", "183809.982500", "183810.442500", "183810.902500", "183811.362500", "183811.822500", "183812.282500", "183812.742500", "183813.202500", "183813.662500", "183814.122500", "183814.582500", "183815.042500", "183815.502500", "183815.962500", "183816.422500", "183816.882500", "183817.342500", "183817.802500", "183818.262500", "183818.722500", "183819.182500", "183819.642500", "183820.102500", "183820.562500", "183821.022500", "183821.482500", "183821.942500", "183822.402500", "183822.862500", "183823.322500", "183823.782500", "183824.242500", "183824.702500", "183825.162500", "183825.622500", "183826.082500", "183826.542500", "183827.002500", "183827.462500", "183827.922500", "183828.382500", "183828.842500", "183829.302500", "183829.762500", "183830.222500", "183830.682500", "183831.142500", "183831.602500", "183832.062500", "183832.522500", "183832.982500", "183833.442500", "183833.902500", "183834.362500", "183834.822500", "183835.282500", "183835.742500", "183836.202500", "183836.662500", "183837.122500", "183837.582500", "183838.042500", "183838.502500", "183838.962500", "183839.422500", "183839.882500", "183840.342500", "183840.802500", "183841.262500", "183841.722500", "183842.182500", "183842.642500", "183843.102500", "183843.562500", "183844.022500", "183844.482500", "183844.942500", "183845.402500", "183845.862500", "183846.322500", "183846.782500", "183847.242500", "183847.702500", "183848.162500", "183848.622500", "183849.082500", "183849.542500", "183850.002500", "183850.462500", "183850.922500", "183851.382500", "183851.842500", "183852.302500", "183852.762500", "183853.222500", "183853.682500", "183854.142500", "183854.602500", "183855.062500", "183855.522500", "183855.982500", "183856.442500", "183856.902500", "183857.362500", "183857.822500"],
