{
  "AcquisitionMatrixPE": 82,
  "AcquisitionNumber": 1,
  "AcquisitionTime": "18:07:56.207500",
  "BandwidthPerPixelPhaseEncode": 24.888,
  "BaseResolution": 82,
  "BodyPartExamined": "BRAIN",
  "ConsistencyInfo": "N4_VE11E_LATEST_20181129",
  "ConversionSoftware": "dcm2niix",
  "ConversionSoftwareVersion": "v1.0.20201102",
  "DerivedVendorReportedEchoSpacing": 0.00049,
  "DeviceSerialNumber": "66112",
  "DwellTime": 2e-06,
  "EchoTime": 0.0272,
  "EchoTrainLength": 82,
  "EffectiveEchoSpacing": 0.00049,
  "FlipAngle": 44,
  "ImageComments": "Unaliased MB8/PE3",
  "ImageOrientationPatientDICOM": [0.998507, 0.0503019, 0.021298, -0.0523296, 0.992684, 0.108813],
  "ImageType": [
    "ORIGINAL",
    "PRIMARY",
    "M",
    "MB",
    "ND",
    "NORM",
    "MOSAIC"
],
  "ImagingFrequency": 123.252,
  "InPlanePhaseEncodingDirectionDICOM": "COL",
  "InstitutionAddress": "Maynard 3,Hanover,NH,US,03755",
  "InstitutionName": "Dartmouth College - PBS",
  "InstitutionalDepartmentName": "Department",
  "MRAcquisitionType": "2D",
  "MagneticFieldStrength": 3,
  "Manufacturer": "Siemens",
  "ManufacturersModelName": "Prisma",
  "Modality": "MR",
  "MultibandAccelerationFactor": 8,
  "PartialFourier": 1,
  "PatientPosition": "HFS",
  "PercentPhaseFOV": 100,
  "PercentSampling": 100,
  "PhaseEncodingDirection": "j-",
  "PhaseEncodingSteps": 82,
  "PhaseResolution": 1,
  "PixelBandwidth": 3050,
  "ProcedureStepDescription": "Wager_Wager^1076_spacetop",
  "ProtocolName": "func_run-01_task-social_acq-ap-mb8",
  "PulseSequenceDetails": "%CustomerSeq%\\cmrr_mbep2d_bold",
  "ReceiveCoilActiveElements": "HEA;HEP",
  "ReceiveCoilName": "Head_32",
  "ReconMatrixPE": 82,
  "RepetitionTime": 0.46,
  "SAR": 0.0861828,
  "ScanOptions": "FS",
  "ScanningSequence": "EP",
  "SequenceName": "epfid2d1_82",
  "SequenceVariant": "SK\\SS",
  "SeriesDescription": "func_run-01_task-social_acq-ap-mb8",
  "SeriesNumber": 12,
  "ShimSetting": [4160, -7785, -7284, 828, -17, -386, 100, 35],
  "SliceThickness": 2.7,
  "SliceTiming": [0, 0.25, 0.0625, 0.3125, 0.125, 0.3775, 0.1875, 0, 0.25, 0.0625, 0.3125, 0.125, 0.3775, 0.1875, 0, 0.25, 0.0625, 0.3125, 0.125, 0.3775, 0.1875, 0, 0.25, 0.0625, 0.3125, 0.125, 0.3775, 0.1875, 0, 0.25, 0.0625, 0.3125, 0.125, 0.3775, 0.1875, 0, 0.25, 0.0625, 0.3125, 0.125, 0.3775, 0.1875, 0, 0.25, 0.0625, 0.3125, 0.125, 0.3775, 0.1875, 0, 0.25, 0.0625, 0.3125, 0.125, 0.3775, 0.1875],
  "SoftwareVersions": "syngo MR E11",
  "SpacingBetweenSlices": 2.7,
  "StationName": "AWP66112",
  "TaskName": "social",
  "TotalReadoutTime": 0.03969,
  "TxRefAmp": 226.916,
  "WipMemBlock": "e480f964-f7ac-4457-9bf0-257aa351a769||Sequence: R016 ve11e/master r/434b28f1; Aug  7 2019 18:53:46 by eja",
  "dcmmeta_affine": [
    [-2.6789212226867676, -0.1403963565826416, 0.042305391281843185, 117.38031768798828],
    [-0.13495641946792603, 2.6632983684539795, 0.2963653802871704, -100.77108764648438],
    [0.05714092776179314, -0.29193708300590515, 2.683351993560791, -67.05414581298828],
    [0.0, 0.0, 0.0, 1.0]
],
  "dcmmeta_reorient_transform": [
    [0.0, -1.0, 0.0, 81.0],
    [1.0, 0.0, 0.0, 0.0],
    [0.0, 0.0, 1.0, 0.0],
    [0.0, 0.0, 0.0, 1.0]
],
  "dcmmeta_shape": [82, 82, 56, 872],
  "dcmmeta_slice_dim": 2,
  "dcmmeta_version": 0.6,
  "global": {
    "const": {
      "AccessionNumber": "A003953",
      "AcquisitionMatrix": [82, 0, 0, 82],
      "AngioFlag": "N",
      "BitsAllocated": 16,
      "BitsStored": 16,
      "BodyPartExamined": "BRAIN",
      "Columns": 656,
      "EchoNumbers": 1,
      "EchoTime": 27.2,
      "EchoTrainLength": 82,
      "FlipAngle": 44.0,
      "HighBit": 15,
      "ImageOrientationPatient": [0.99850694086774, 0.05030193874486, 0.02129798106539, -0.0523295522055, 0.99268392202868, 0.10881290783607],
      "ImagePositionPatient": [-834.56481898362, -918.05521325692, -190.88643231419],
      "ImageType": [
        "ORIGINAL",
        "PRIMARY",
        "M",
        "MB",
        "ND",
        "NORM",
        "MOSAIC"
],
      "ImagedNucleus": "1H",
      "ImagingFrequency": 123.252236,
      "InPlanePhaseEncodingDirection": "COL",
      "MRAcquisitionType": "2D",
      "MagneticFieldStrength": 3.0,
      "Manufacturer": "SIEMENS",
      "ManufacturerModelName": "Prisma",
      "Modality": "MR",
      "NumberOfAverages": 1.0,
      "NumberOfPhaseEncodingSteps": 82,
      "PercentPhaseFieldOfView": 100.0,
      "PercentSampling": 100.0,
      "PerformedProcedureStepStartTime": "173119.793000",
      "PhotometricInterpretation": "MONOCHROME2",
      "PixelBandwidth": 3050.0,
      "PixelRepresentation": 0,
      "PixelSpacing": [2.6829268932343, 2.6829268932343],
      "ProtocolName": "func_run-01_task-social_acq-ap-mb8",
      "RepetitionTime": 460.0,
      "Rows": 656,
      "SAR": 0.08618280550653,
      "SamplesPerPixel": 1,
      "ScanOptions": "FS",
      "ScanningSequence": "EP",
      "SequenceName": "epfid2d1_82",
      "SequenceVariant": [
        "SK",
        "SS"
],
      "SeriesDescription": "func_run-01_task-social_acq-ap-mb8",
      "SeriesNumber": 12,
      "SeriesTime": "180818.474000",
      "SliceLocation": -75.862632289669,
      "SliceThickness": 2.7000000476837,
      "SmallestImagePixelValue": 0,
      "SoftwareVersions": "syngo MR E11",
      "SpacingBetweenSlices": 2.6999999960646,
      "SpecificCharacterSet": "ISO_IR 100",
      "StudyID": "1",
      "StudyTime": "173119.682000",
      "TransmitCoilName": "Body",
      "VariableFlipAngleFlag": "N",
      "WindowCenterWidthExplanation": "Algo1"
    },
    "slices": {}
  },
  "time": {
    "samples": {
      "AcquisitionNumber": [1, 2, 3, 4, 5, 6, 7, 8, 9, 10, 11, 12, 13, 14, 15, 16, 17, 18, 19, 20, 21, 22, 23, 24, 25, 26, 27, 28, 29, 30, 31, 32, 33, 34, 35, 36, 37, 38, 39, 40, 41, 42, 43, 44, 45, 46, 47, 48, 49, 50, 51, 52, 53, 54, 55, 56, 57, 58, 59, 60, 61, 62, 63, 64, 65, 66, 67, 68, 69, 70, 71, 72, 73, 74, 75, 76, 77, 78, 79, 80, 81, 82, 83, 84, 85, 86, 87, 88, 89, 90, 91, 92, 93, 94, 95, 96, 97, 98, 99, 100, 101, 102, 103, 104, 105, 106, 107, 108, 109, 110, 111, 112, 113, 114, 115, 116, 117, 118, 119, 120, 121, 122, 123, 124, 125, 126, 127, 128, 129, 130, 131, 132, 133, 134, 135, 136, 137, 138, 139, 140, 141, 142, 143, 144, 145, 146, 147, 148, 149, 150, 151, 152, 153, 154, 155, 156, 157, 158, 159, 160, 161, 162, 163, 164, 165, 166, 167, 168, 169, 170, 171, 172, 173, 174, 175, 176, 177, 178, 179, 180, 181, 182, 183, 184, 185, 186, 187, 188, 189, 190, 191, 192, 193, 194, 195, 196, 197, 198, 199, 200, 201, 202, 203, 204, 205, 206, 207, 208, 209, 210, 211, 212, 213, 214, 215, 216, 217, 218, 219, 220, 221, 222, 223, 224, 225, 226, 227, 228, 229, 230, 231, 232, 233, 234, 235, 236, 237, 238, 239, 240, 241, 242, 243, 244, 245, 246, 247, 248, 249, 250, 251, 252, 253, 254, 255, 256, 257, 258, 259, 260, 261, 262, 263, 264, 265, 266, 267, 268, 269, 270, 271, 272, 273, 274, 275, 276, 277, 278, 279, 280, 281, 282, 283, 284, 285, 286, 287, 288, 289, 290, 291, 292, 293, 294, 295, 296, 297, 298, 299, 300, 301, 302, 303, 304, 305, 306, 307, 308, 309, 310, 311, 312, 313, 314, 315, 316, 317, 318, 319, 320, 321, 322, 323, 324, 325, 326, 327, 328, 329, 330, 331, 332, 333, 334, 335, 336, 337, 338, 339, 340, 341, 342, 343, 344, 345, 346, 347, 348, 349, 350, 351, 352, 353, 354, 355, 356, 357, 358, 359, 360, 361, 362, 363, 364, 365, 366, 367, 368, 369, 370, 371, 372, 373, 374, 375, 376, 377, 378, 379, 380, 381, 382, 383, 384, 385, 386, 387, 388, 389, 390, 391, 392, 393, 394, 395, 396, 397, 398, 399, 400, 401, 402, 403, 404, 405, 406, 407, 408, 409, 410, 411, 412, 413, 414, 415, 416, 417, 418, 419, 420, 421, 422, 423, 424, 425, 426, 427, 428, 429, 430, 431, 432, 433, 434, 435, 436, 437, 438, 439, 440, 441, 442, 443, 444, 445, 446, 447, 448, 449, 450, 451, 452, 453, 454, 455, 456, 457, 458, 459, 460, 461, 462, 463, 464, 465, 466, 467, 468, 469, 470, 471, 472, 473, 474, 475, 476, 477, 478, 479, 480, 481, 482, 483, 484, 485, 486, 487, 488, 489, 490, 491, 492, 493, 494, 495, 496, 497, 498, 499, 500, 501, 502, 503, 504, 505, 506, 507, 508, 509, 510, 511, 512, 513, 514, 515, 516, 517, 518, 519, 520, 521, 522, 523, 524, 525, 526, 527, 528, 529, 530, 531, 532, 533, 534, 535, 536, 537, 538, 539, 540, 541, 542, 543, 544, 545, 546, 547, 548, 549, 550, 551, 552, 553, 554, 555, 556, 557, 558, 559, 560, 561, 562, 563, 564, 565, 566, 567, 568, 569, 570, 571, 572, 573, 574, 575, 576, 577, 578, 579, 580, 581, 582, 583, 584, 585, 586, 587, 588, 589, 590, 591, 592, 593, 594, 595, 596, 597, 598, 599, 600, 601, 602, 603, 604, 605, 606, 607, 608, 609, 610, 611, 612, 613, 614, 615, 616, 617, 618, 619, 620, 621, 622, 623, 624, 625, 626, 627, 628, 629, 630, 631, 632, 633, 634, 635, 636, 637, 638, 639, 640, 641, 642, 643, 644, 645, 646, 647, 648, 649, 650, 651, 652, 653, 654, 655, 656, 657, 658, 659, 660, 661, 662, 663, 664, 665, 666, 667, 668, 669, 670, 671, 672, 673, 674, 675, 676, 677, 678, 679, 680, 681, 682, 683, 684, 685, 686, 687, 688, 689, 690, 691, 692, 693, 694, 695, 696, 697, 698, 699, 700, 701, 702, 703, 704, 705, 706, 707, 708, 709, 710, 711, 712, 713, 714, 715, 716, 717, 718, 719, 720, 721, 722, 723, 724, 725, 726, 727, 728, 729, 730, 731, 732, 733, 734, 735, 736, 737, 738, 739, 740, 741, 742, 743, 744, 745, 746, 747, 748, 749, 750, 751, 752, 753, 754, 755, 756, 757, 758, 759, 760, 761, 762, 763, 764, 765, 766, 767, 768, 769, 770, 771, 772, 773, 774, 775, 776, 777, 778, 779, 780, 781, 782, 783, 784, 785, 786, 787, 788, 789, 790, 791, 792, 793, 794, 795, 796, 797, 798, 799, 800, 801, 802, 803, 804, 805, 806, 807, 808, 809, 810, 811, 812, 813, 814, 815, 816, 817, 818, 819, 820, 821, 822, 823, 824, 825, 826, 827, 828, 829, 830, 831, 832, 833, 834, 835, 836, 837, 838, 839, 840, 841, 842, 843, 844, 845, 846, 847, 848, 849, 850, 851, 852, 853, 854, 855, 856, 857, 858, 859, 860, 861, 862, 863, 864, 865, 866, 867, 868, 869, 870, 871, 872],
      "AcquisitionTime": ["180756.207500", "180756.667500", "180757.127500", "180757.587500", "180758.047500", "180758.507500", "180758.967500", "180759.427500", "180759.887500", "180800.347500", "180800.807500", "180801.267500", "180801.727500", "180802.187500", "180802.647500", "180803.107500", "180803.567500", "180804.027500", "180804.487500", "180804.947500", "180805.407500", "180805.867500", "180806.327500", "180806.787500", "180807.247500", "180807.707500", "180808.167500", "180808.627500", "180809.087500", "180809.547500", "180810.007500", "180810.467500", "180810.927500", "180811.387500", "180811.847500", "180812.307500", "180812.767500", "180813.227500", "180813.687500", "180814.147500", "180814.607500", "180815.067500", "180815.527500", "180815.987500", "180816.447500", "180816.907500", "180817.367500", "180817.827500", "180818.287500", "180818.747500", "180819.207500", "180819.667500", "180820.127500", "180820.587500", "180821.047500", "180821.507500", "180821.967500", "180822.427500", "180822.887500", "180823.347500", "180823.807500", "180824.267500", "180824.727500", "180825.187500", "180825.647500", "180826.107500", "180826.567500", "180827.027500", "180827.487500", "180827.947500", "180828.407500", "180828.867500", "180829.327500", "180829.787500", "180830.247500", "180830.707500", "180831.167500", "180831.627500", "180832.087500", "180832.547500", "180833.007500", "180833.467500", "180833.927500", "180834.387500", "180834.847500", "180835.307500", "180835.767500", "180836.227500", "180836.687500", "180837.147500", "180837.607500", "180838.067500", "180838.527500", "180838.987500", "180839.447500", "180839.907500", "180840.367500", "180840.827500", "180841.287500", "180841.747500", "180842.207500", "180842.667500", "180843.127500", "180843.587500", "180844.047500", "180844.507500", "180844.967500", "180845.427500", "180845.887500", "180846.347500", "180846.807500", "180847.267500", "180847.727500", "180848.187500", "180848.647500", "180849.107500", "180849.567500", "180850.027500", "180850.487500", "180850.947500", "180851.407500", "180851.867500", "180852.327500", "180852.787500", "180853.247500", "180853.707500", "180854.167500", "180854.627500", "180855.087500", "180855.547500", "180856.007500", "180856.467500", "180856.927500", "180857.387500", "180857.847500", "180858.307500", "180858.767500", "180859.227500", "180859.687500", "180900.147500", "180900.607500", "180901.067500", "180901.527500", "180901.987500", "180902.447500", "180902.907500", "180903.367500", "180903.827500", "180904.287500", "180904.747500", "180905.207500", "180905.667500", "180906.127500", "180906.587500", "180907.047500", "180907.507500", "180907.967500", "180908.427500", "180908.887500", "180909.347500", "180909.807500", "180910.267500", "180910.727500", "180911.187500", "180911.647500", "180912.107500", "180912.567500", "180913.027500", "180913.487500", "180913.947500", "180914.407500", "180914.867500", "180915.327500", "180915.787500", "180916.247500", "180916.707500", "180917.167500", "180917.627500", "180918.087500", "180918.547500", "180919.007500", "180919.467500", "180919.927500", "180920.387500", "180920.847500", "180921.307500", "180921.767500", "180922.227500", "180922.687500", "180923.147500", "180923.607500", "180924.067500", "180924.527500", "180924.987500", "180925.447500", "180925.907500", "180926.367500", "180926.827500", "180927.287500", "180927.747500", "180928.207500", "180928.667500", "180929.127500", "180929.587500", "180930.047500", "180930.507500", "180930.967500", "180931.427500", "180931.887500", "180932.347500", "180932.807500", "180933.267500", "180933.727500", "180934.187500", "180934.647500", "180935.107500", "180935.567500", "180936.027500", "180936.487500", "180936.947500", "180937.407500", "180937.867500", "180938.327500", "180938.787500", "180939.247500", "180939.707500", "180940.167500", "180940.627500", "180941.087500", "180941.547500", "180942.007500", "180942.467500", "180942.927500", "180943.387500", "180943.847500", "180944.307500", "180944.767500", "180945.227500", "180945.687500", "180946.147500", "180946.607500", "180947.067500", "180947.527500", "180947.987500", "180948.447500", "180948.907500", "180949.367500", "180949.827500", "180950.287500", "180950.747500", "180951.207500", "180951.667500", "180952.127500", "180952.587500", "180953.047500", "180953.507500", "180953.967500", "180954.427500", "180954.887500", "180955.347500", "180955.807500", "180956.267500", "180956.727500", "180957.187500", "180957.647500", "180958.107500", "180958.567500", "180959.027500", "180959.487500", "180959.947500", "181000.407500", "181000.867500", "181001.327500", "181001.787500", "181002.247500", "181002.707500", "181003.167500", "181003.627500", "181004.087500", "181004.547500", "181005.007500", "181005.467500", "181005.927500", "181006.387500", "181006.847500", "181007.307500", "181007.767500", "181008.227500", "181008.687500", "181009.147500", "181009.607500", "181010.067500", "181010.527500", "181010.987500", "181011.447500", "181011.907500", "181012.367500", "181012.827500", "181013.287500", "181013.747500", "181014.207500", "181014.667500", "181015.127500", "181015.587500", "181016.047500", "181016.507500", "181016.967500", "181017.427500", "181017.887500", "181018.347500", "181018.807500", "181019.267500", "181019.727500", "181020.187500", "181020.647500", "181021.107500", "181021.567500", "181022.027500", "181022.487500", "181022.947500", "181023.407500", "181023.867500", "181024.327500", "181024.787500", "181025.247500", "181025.707500", "181026.167500", "181026.627500", "181027.087500", "181027.547500", "181028.007500", "181028.467500", "181028.927500", "181029.387500", "181029.847500", "181030.307500", "181030.767500", "181031.227500", "181031.687500", "181032.147500", "181032.607500", "181033.067500", "181033.527500", "181033.987500", "181034.447500", "181034.907500", "181035.367500", "181035.827500", "181036.287500", "181036.747500", "181037.207500", "181037.667500", "181038.127500", "181038.587500", "181039.047500", "181039.507500", "181039.967500", "181040.427500", "181040.887500", "181041.347500", "181041.807500", "181042.267500", "181042.727500", "181043.187500", "181043.647500", "181044.107500", "181044.567500", "181045.027500", "181045.487500", "181045.947500", "181046.407500", "181046.867500", "181047.327500", "181047.787500", "181048.247500", "181048.707500", "181049.167500", "181049.627500", "181050.087500", "181050.547500", "181051.007500", "181051.467500", "181051.927500", "181052.387500", "181052.847500", "181053.307500", "181053.767500", "181054.227500", "181054.687500", "181055.147500", "181055.607500", "181056.067500", "181056.527500", "181056.987500", "181057.447500", "181057.907500", "181058.367500", "181058.827500", "181059.287500", "181059.747500", "181100.207500", "181100.667500", "181101.127500", "181101.587500", "181102.047500", "181102.507500", "181102.967500", "181103.427500", "181103.887500", "181104.347500", "181104.807500", "181105.267500", "181105.727500", "181106.187500", "181106.647500", "181107.107500", "181107.567500", "181108.027500", "181108.487500", "181108.947500", "181109.407500", "181109.867500", "181110.327500", "181110.787500", "181111.247500", "181111.707500", "181112.167500", "181112.627500", "181113.087500", "181113.547500", "181114.007500", "181114.467500", "181114.927500", "181115.387500", "181115.847500", "181116.307500", "181116.767500", "181117.227500", "181117.687500", "181118.147500", "181118.607500", "181119.067500", "181119.527500", "181119.987500", "181120.447500", "181120.907500", "181121.367500", "181121.827500", "181122.287500", "181122.747500", "181123.207500", "181123.667500", "181124.127500", "181124.587500", "181125.047500", "181125.507500", "181125.967500", "181126.427500", "181126.887500", "181127.347500", "181127.807500", "181128.267500", "181128.727500", "181129.187500", "181129.647500", "181130.107500", "181130.567500", "181131.027500", "181131.487500", "181131.947500", "181132.407500", "181132.867500", "181133.327500", "181133.787500", "181134.247500", "181134.707500", "181135.167500", "181135.627500", "181136.087500", "181136.547500", "181137.007500", "181137.467500", "181137.927500", "181138.387500", "181138.847500", "181139.307500", "181139.767500", "181140.227500", "181140.687500", "181141.147500", "181141.607500", "181142.067500", "181142.527500", "181142.987500", "181143.447500", "181143.907500", "181144.367500", "181144.827500", "181145.287500", "181145.747500", "181146.207500", "181146.667500", "181147.127500", "181147.587500", "181148.047500", "181148.507500", "181148.967500", "181149.427500", "181149.887500", "181150.347500", "181150.807500", "181151.267500", "181151.727500", "181152.187500", "181152.647500", "181153.107500", "181153.567500", "181154.027500", "181154.487500", "181154.947500", "181155.407500", "181155.867500", "181156.327500", "181156.787500", "181157.247500", "181157.707500", "181158.167500", "181158.627500", "181159.087500", "181159.547500", "181200.007500", "181200.467500", "181200.927500", "181201.387500", "181201.847500", "181202.307500", "181202.767500", "181203.227500", "181203.687500", "181204.147500", "181204.607500", "181205.067500", "181205.527500", "181205.987500", "181206.447500", "181206.907500", "181207.367500", "181207.827500", "181208.287500", "181208.747500", "181209.207500", "181209.667500", "181210.127500", "181210.587500", "181211.047500", "181211.507500", "181211.967500", "181212.427500", "181212.887500", "181213.347500", "181213.807500", "181214.267500", "181214.727500", "181215.187500", "181215.647500", "181216.107500", "181216.567500", "181217.027500", "181217.487500", "181217.947500", "181218.407500", "181218.867500", "181219.327500", "181219.787500", "181220.247500", "181220.707500", "181221.167500", "181221.627500", "181222.087500", "181222.547500", "181223.007500", "181223.467500", "181223.927500", "181224.387500", "181224.847500", "181225.307500", "181225.767500", "181226.227500", "181226.687500", "181227.147500", "181227.607500", "181228.067500", "181228.527500", "181228.987500", "181229.447500", "181229.907500", "181230.367500", "181230.827500", "181231.287500", "181231.747500", "181232.207500", "181232.667500", "181233.127500", "181233.587500", "181234.047500", "181234.507500", "181234.967500", "181235.427500", "181235.887500", "181236.347500", "181236.807500", "181237.267500", "181237.727500", "181238.187500", "181238.647500", "181239.107500", "181239.567500", "181240.027500", "181240.487500", "181240.947500", "181241.407500", "181241.867500", "181242.327500", "181242.787500", "181243.247500", "181243.707500", "181244.167500", "181244.627500", "181245.087500", "181245.547500", "181246.007500", "181246.467500", "181246.927500", "181247.387500", "181247.847500", "181248.307500", "181248.767500", "181249.227500", "181249.687500", "181250.147500", "181250.607500", "181251.067500", "181251.527500", "181251.987500", "181252.447500", "181252.907500", "181253.367500", "181253.827500", "181254.287500", "181254.747500", "181255.207500", "181255.667500", "181256.127500", "181256.587500", "181257.047500", "181257.507500", "181257.967500", "181258.427500", "181258.887500", "181259.347500", "181259.807500", "181300.267500", "181300.727500", "181301.187500", "181301.647500", "181302.107500", "181302.567500", "181303.027500", "181303.487500", "181303.947500", "181304.407500", "181304.867500", "181305.327500", "181305.787500", "181306.247500", "181306.707500", "181307.167500", "181307.627500", "181308.087500", "181308.547500", "181309.007500", "181309.467500", "181309.927500", "181310.387500", "181310.847500", "181311.307500", "181311.767500", "181312.227500", "181312.687500", "181313.147500", "181313.607500", "181314.067500", "181314.527500", "181314.987500", "181315.447500", "181315.907500", "181316.367500", "181316.827500", "181317.287500", "181317.747500", "181318.207500", "181318.667500", "181319.127500", "181319.587500", "181320.047500", "181320.507500", "181320.967500", "181321.427500", "181321.887500", "181322.347500", "181322.807500", "181323.267500", "181323.727500", "181324.187500", "181324.647500", "181325.107500", "181325.567500", "181326.027500", "181326.487500", "181326.947500", "181327.407500", "181327.867500", "181328.327500", "181328.787500", "181329.247500", "181329.707500", "181330.167500", "181330.627500", "181331.087500", "181331.547500", "181332.007500", "181332.467500", "181332.927500", "181333.387500", "181333.847500", "181334.307500", "181334.767500", "181335.227500", "181335.687500", "181336.147500", "181336.607500", "181337.067500", "181337.527500", "181337.987500", "181338.447500", "181338.907500", "181339.367500", "181339.827500", "181340.287500", "181340.747500", "181341.207500", "181341.667500", "181342.127500", "181342.587500", "181343.047500", "181343.507500", "181343.967500", "181344.427500", "181344.887500", "181345.347500", "181345.807500", "181346.267500", "181346.727500", "181347.187500", "181347.647500", "181348.107500", "181348.567500", "181349.027500", "181349.487500", "181349.947500", "181350.407500", "181350.867500", "181351.327500", "181351.787500", "181352.247500", "181352.707500", "181353.167500", "181353.627500", "181354.087500", "181354.547500", "181355.007500", "181355.467500", "181355.927500", "181356.387500", "181356.847500", "181357.307500", "181357.767500", "181358.227500", "181358.687500", "181359.147500", "181359.607500", "181400.067500", "181400.527500", "181400.987500", "181401.447500", "181401.907500", "181402.367500", "181402.827500", "181403.287500", "181403.747500", "181404.207500", "181404.667500", "181405.127500", "181405.587500", "181406.047500", "181406.507500", "181406.967500", "181407.427500", "181407.887500", "181408.347500", "181408.807500", "181409.267500", "181409.727500", "181410.187500", "181410.647500", "181411.107500", "181411.567500", "181412.027500", "181412.487500", "181412.947500", "181413.407500", "181413.867500", "181414.327500", "181414.787500", "181415.247500", "181415.707500", "181416.167500", "181416.627500", "181417.087500", "181417.547500", "181418.007500", "181418.467500", "181418.927500", "181419.387500", "181419.847500", "181420.307500", "181420.767500", "181421.227500", "181421.687500", "181422.147500", "181422.607500", "181423.067500", "181423.527500", "181423.987500", "181424.447500", "181424.907500", "181425.367500", "181425.827500", "181426.287500", "181426.747500", "181427.207500", "181427.667500", "181428.127500", "181428.587500", "181429.047500", "181429.507500", "181429.967500", "181430.427500", "181430.887500", "181431.347500", "181431.807500", "181432.267500", "181432.727500", "181433.187500", "181433.647500", "181434.107500", "181434.567500", "181435.027500", "181435.487500", "181435.947500", "181436.407500", "181436.867500"],
