{
  "AcquisitionMatrixPE": 82,
  "AcquisitionNumber": 1,
  "AcquisitionTime": "18:47:37.297500",
  "BandwidthPerPixelPhaseEncode": 24.888,
  "BaseResolution": 82,
  "BodyPartExamined": "BRAIN",
  "ConsistencyInfo": "N4_VE11E_LATEST_20181129",
  "ConversionSoftware": "dcm2niix",
  "ConversionSoftwareVersion": "v1.0.20201102",
  "DerivedVendorReportedEchoSpacing": 0.00049,
  "DeviceSerialNumber": "66112",
  "DwellTime": 2e-06,
  "EchoTime": 0.0272,
  "EchoTrainLength": 82,
  "EffectiveEchoSpacing": 0.00049,
  "FlipAngle": 44,
  "ImageComments": "Unaliased MB8/PE3",
  "ImageOrientationPatientDICOM": [0.998507, 0.0503019, 0.021298, -0.0523296, 0.992684, 0.108813],
  "ImageType": [
    "ORIGINAL",
    "PRIMARY",
    "M",
    "MB",
    "ND",
    "NORM",
    "MOSAIC"
],
  "ImagingFrequency": 123.252,
  "InPlanePhaseEncodingDirectionDICOM": "COL",
  "InstitutionAddress": "Maynard 3,Hanover,NH,US,03755",
  "InstitutionName": "Dartmouth College - PBS",
  "InstitutionalDepartmentName": "Department",
  "MRAcquisitionType": "2D",
  "MagneticFieldStrength": 3,
  "Manufacturer": "Siemens",
  "ManufacturersModelName": "Prisma",
  "Modality": "MR",
  "MultibandAccelerationFactor": 8,
  "PartialFourier": 1,
  "PatientPosition": "HFS",
  "PercentPhaseFOV": 100,
  "PercentSampling": 100,
  "PhaseEncodingDirection": "j-",
  "PhaseEncodingSteps": 82,
  "PhaseResolution": 1,
  "PixelBandwidth": 3050,
  "ProcedureStepDescription": "Wager_Wager^1076_spacetop",
  "ProtocolName": "func_run-06_task-social_acq-ap-mb8",
  "PulseSequenceDetails": "%CustomerSeq%\\cmrr_mbep2d_bold",
  "ReceiveCoilActiveElements": "HEA;HEP",
  "ReceiveCoilName": "Head_32",
  "ReconMatrixPE": 82,
  "RepetitionTime": 0.46,
  "SAR": 0.0861828,
  "ScanOptions": "FS",
  "ScanningSequence": "EP",
  "SequenceName": "epfid2d1_82",
  "SequenceVariant": "SK\\SS",
  "SeriesDescription": "func_run-06_task-social_acq-ap-mb8",
  "SeriesNumber": 24,
  "ShimSetting": [4160, -7785, -7284, 828, -17, -386, 100, 35],
  "SliceThickness": 2.7,
  "SliceTiming": [0, 0.2525, 0.0625, 0.315, 0.125, 0.3775, 0.1875, 0, 0.2525, 0.0625, 0.315, 0.125, 0.3775, 0.1875, 0, 0.2525, 0.0625, 0.315, 0.125, 0.3775, 0.1875, 0, 0.2525, 0.0625, 0.315, 0.125, 0.3775, 0.1875, 0, 0.2525, 0.0625, 0.315, 0.125, 0.3775, 0.1875, 0, 0.2525, 0.0625, 0.315, 0.125, 0.3775, 0.1875, 0, 0.2525, 0.0625, 0.315, 0.125, 0.3775, 0.1875, 0, 0.2525, 0.0625, 0.315, 0.125, 0.3775, 0.1875],
  "SoftwareVersions": "syngo MR E11",
  "SpacingBetweenSlices": 2.7,
  "StationName": "AWP66112",
  "TaskName": "social",
  "TotalReadoutTime": 0.03969,
  "TxRefAmp": 226.916,
  "WipMemBlock": "7f6c8331-2955-45b8-9d25-227ca48c065c||Sequence: R016 ve11e/master r/434b28f1; Aug  7 2019 18:53:46 by eja",
  "dcmmeta_affine": [
    [-2.6789212226867676, -0.1403963565826416, 0.042305391281843185, 117.38031768798828],
    [-0.13495641946792603, 2.6632983684539795, 0.2963653802871704, -100.77108764648438],
    [0.05714092776179314, -0.29193708300590515, 2.683351993560791, -67.05414581298828],
    [0.0, 0.0, 0.0, 1.0]
],
  "dcmmeta_reorient_transform": [
    [0.0, -1.0, 0.0, 81.0],
    [1.0, 0.0, 0.0, 0.0],
    [0.0, 0.0, 1.0, 0.0],
    [0.0, 0.0, 0.0, 1.0]
],
  "dcmmeta_shape": [82, 82, 56, 872],
  "dcmmeta_slice_dim": 2,
  "dcmmeta_version": 0.6,
  "global": {
    "const": {
      "AccessionNumber": "A003953",
      "AcquisitionMatrix": [82, 0, 0, 82],
      "AngioFlag": "N",
      "BitsAllocated": 16,
      "BitsStored": 16,
      "BodyPartExamined": "BRAIN",
      "Columns": 656,
      "EchoNumbers": 1,
      "EchoTime": 27.2,
      "EchoTrainLength": 82,
      "FlipAngle": 44.0,
      "HighBit": 15,
      "ImageOrientationPatient": [0.99850694086774, 0.05030193874486, 0.02129798106539, -0.0523295522055, 0.99268392202868, 0.10881290783607],
      "ImagePositionPatient": [-834.56481898362, -918.05521325692, -190.88643231419],
      "ImageType": [
        "ORIGINAL",
        "PRIMARY",
        "M",
        "MB",
        "ND",
        "NORM",
        "MOSAIC"
],
      "ImagedNucleus": "1H",
      "ImagingFrequency": 123.252239,
      "InPlanePhaseEncodingDirection": "COL",
      "MRAcquisitionType": "2D",
      "MagneticFieldStrength": 3.0,
      "Manufacturer": "SIEMENS",
      "ManufacturerModelName": "Prisma",
      "Modality": "MR",
      "NumberOfAverages": 1.0,
      "NumberOfPhaseEncodingSteps": 82,
      "PercentPhaseFieldOfView": 100.0,
      "PercentSampling": 100.0,
      "PerformedProcedureStepStartTime": "173119.793000",
      "PhotometricInterpretation": "MONOCHROME2",
      "PixelBandwidth": 3050.0,
      "PixelRepresentation": 0,
      "PixelSpacing": [2.6829268932343, 2.6829268932343],
      "ProtocolName": "func_run-06_task-social_acq-ap-mb8",
      "RepetitionTime": 460.0,
      "Rows": 656,
      "SAR": 0.08618280550653,
      "SamplesPerPixel": 1,
      "ScanOptions": "FS",
      "ScanningSequence": "EP",
      "SequenceName": "epfid2d1_82",
      "SequenceVariant": [
        "SK",
        "SS"
],
      "SeriesDescription": "func_run-06_task-social_acq-ap-mb8",
      "SeriesNumber": 24,
      "SeriesTime": "184758.485000",
      "SliceLocation": -75.862632289669,
      "SliceThickness": 2.7000000476837,
      "SmallestImagePixelValue": 0,
      "SoftwareVersions": "syngo MR E11",
      "SpacingBetweenSlices": 2.6999999960646,
      "SpecificCharacterSet": "ISO_IR 100",
      "StudyID": "1",
      "StudyTime": "173119.682000",
      "TransmitCoilName": "Body",
      "VariableFlipAngleFlag": "N",
      "WindowCenterWidthExplanation": "Algo1"
    },
    "slices": {}
  },
  "time": {
    "samples": {
      "AcquisitionNumber": [1, 2, 3, 4, 5, 6, 7, 8, 9, 10, 11, 12, 13, 14, 15, 16, 17, 18, 19, 20, 21, 22, 23, 24, 25, 26, 27, 28, 29, 30, 31, 32, 33, 34, 35, 36, 37, 38, 39, 40, 41, 42, 43, 44, 45, 46, 47, 48, 49, 50, 51, 52, 53, 54, 55, 56, 57, 58, 59, 60, 61, 62, 63, 64, 65, 66, 67, 68, 69, 70, 71, 72, 73, 74, 75, 76, 77, 78, 79, 80, 81, 82, 83, 84, 85, 86, 87, 88, 89, 90, 91, 92, 93, 94, 95, 96, 97, 98, 99, 100, 101, 102, 103, 104, 105, 106, 107, 108, 109, 110, 111, 112, 113, 114, 115, 116, 117, 118, 119, 120, 121, 122, 123, 124, 125, 126, 127, 128, 129, 130, 131, 132, 133, 134, 135, 136, 137, 138, 139, 140, 141, 142, 143, 144, 145, 146, 147, 148, 149, 150, 151, 152, 153, 154, 155, 156, 157, 158, 159, 160, 161, 162, 163, 164, 165, 166, 167, 168, 169, 170, 171, 172, 173, 174, 175, 176, 177, 178, 179, 180, 181, 182, 183, 184, 185, 186, 187, 188, 189, 190, 191, 192, 193, 194, 195, 196, 197, 198, 199, 200, 201, 202, 203, 204, 205, 206, 207, 208, 209, 210, 211, 212, 213, 214, 215, 216, 217, 218, 219, 220, 221, 222, 223, 224, 225, 226, 227, 228, 229, 230, 231, 232, 233, 234, 235, 236, 237, 238, 239, 240, 241, 242, 243, 244, 245, 246, 247, 248, 249, 250, 251, 252, 253, 254, 255, 256, 257, 258, 259, 260, 261, 262, 263, 264, 265, 266, 267, 268, 269, 270, 271, 272, 273, 274, 275, 276, 277, 278, 279, 280, 281, 282, 283, 284, 285, 286, 287, 288, 289, 290, 291, 292, 293, 294, 295, 296, 297, 298, 299, 300, 301, 302, 303, 304, 305, 306, 307, 308, 309, 310, 311, 312, 313, 314, 315, 316, 317, 318, 319, 320, 321, 322, 323, 324, 325, 326, 327, 328, 329, 330, 331, 332, 333, 334, 335, 336, 337, 338, 339, 340, 341, 342, 343, 344, 345, 346, 347, 348, 349, 350, 351, 352, 353, 354, 355, 356, 357, 358, 359, 360, 361, 362, 363, 364, 365, 366, 367, 368, 369, 370, 371, 372, 373, 374, 375, 376, 377, 378, 379, 380, 381, 382, 383, 384, 385, 386, 387, 388, 389, 390, 391, 392, 393, 394, 395, 396, 397, 398, 399, 400, 401, 402, 403, 404, 405, 406, 407, 408, 409, 410, 411, 412, 413, 414, 415, 416, 417, 418, 419, 420, 421, 422, 423, 424, 425, 426, 427, 428, 429, 430, 431, 432, 433, 434, 435, 436, 437, 438, 439, 440, 441, 442, 443, 444, 445, 446, 447, 448, 449, 450, 451, 452, 453, 454, 455, 456, 457, 458, 459, 460, 461, 462, 463, 464, 465, 466, 467, 468, 469, 470, 471, 472, 473, 474, 475, 476, 477, 478, 479, 480, 481, 482, 483, 484, 485, 486, 487, 488, 489, 490, 491, 492, 493, 494, 495, 496, 497, 498, 499, 500, 501, 502, 503, 504, 505, 506, 507, 508, 509, 510, 511, 512, 513, 514, 515, 516, 517, 518, 519, 520, 521, 522, 523, 524, 525, 526, 527, 528, 529, 530, 531, 532, 533, 534, 535, 536, 537, 538, 539, 540, 541, 542, 543, 544, 545, 546, 547, 548, 549, 550, 551, 552, 553, 554, 555, 556, 557, 558, 559, 560, 561, 562, 563, 564, 565, 566, 567, 568, 569, 570, 571, 572, 573, 574, 575, 576, 577, 578, 579, 580, 581, 582, 583, 584, 585, 586, 587, 588, 589, 590, 591, 592, 593, 594, 595, 596, 597, 598, 599, 600, 601, 602, 603, 604, 605, 606, 607, 608, 609, 610, 611, 612, 613, 614, 615, 616, 617, 618, 619, 620, 621, 622, 623, 624, 625, 626, 627, 628, 629, 630, 631, 632, 633, 634, 635, 636, 637, 638, 639, 640, 641, 642, 643, 644, 645, 646, 647, 648, 649, 650, 651, 652, 653, 654, 655, 656, 657, 658, 659, 660, 661, 662, 663, 664, 665, 666, 667, 668, 669, 670, 671, 672, 673, 674, 675, 676, 677, 678, 679, 680, 681, 682, 683, 684, 685, 686, 687, 688, 689, 690, 691, 692, 693, 694, 695, 696, 697, 698, 699, 700, 701, 702, 703, 704, 705, 706, 707, 708, 709, 710, 711, 712, 713, 714, 715, 716, 717, 718, 719, 720, 721, 722, 723, 724, 725, 726, 727, 728, 729, 730, 731, 732, 733, 734, 735, 736, 737, 738, 739, 740, 741, 742, 743, 744, 745, 746, 747, 748, 749, 750, 751, 752, 753, 754, 755, 756, 757, 758, 759, 760, 761, 762, 763, 764, 765, 766, 767, 768, 769, 770, 771, 772, 773, 774, 775, 776, 777, 778, 779, 780, 781, 782, 783, 784, 785, 786, 787, 788, 789, 790, 791, 792, 793, 794, 795, 796, 797, 798, 799, 800, 801, 802, 803, 804, 805, 806, 807, 808, 809, 810, 811, 812, 813, 814, 815, 816, 817, 818, 819, 820, 821, 822, 823, 824, 825, 826, 827, 828, 829, 830, 831, 832, 833, 834, 835, 836, 837, 838, 839, 840, 841, 842, 843, 844, 845, 846, 847, 848, 849, 850, 851, 852, 853, 854, 855, 856, 857, 858, 859, 860, 861, 862, 863, 864, 865, 866, 867, 868, 869, 870, 871, 872],
      "AcquisitionTime": ["184737.297500", "184737.757500", "184738.217500", "184738.677500", "184739.137500", "184739.597500", "184740.057500", "184740.517500", "184740.977500", "184741.437500", "184741.897500", "184742.357500", "184742.817500", "184743.277500", "184743.737500", "184744.197500", "184744.657500", "184745.117500", "184745.577500", "184746.037500", "184746.497500", "184746.957500", "184747.417500", "184747.877500", "184748.337500", "184748.797500", "184749.257500", "184749.717500", "184750.177500", "184750.637500", "184751.097500", "184751.557500", "184752.017500", "184752.477500", "184752.937500", "184753.397500", "184753.857500", "184754.317500", "184754.777500", "184755.237500", "184755.697500", "184756.157500", "184756.617500", "184757.077500", "184757.537500", "184757.997500", "184758.457500", "184758.917500", "184759.377500", "184759.837500", "184800.297500", "184800.757500", "184801.217500", "184801.677500", "184802.137500", "184802.597500", "184803.057500", "184803.517500", "184803.977500", "184804.437500", "184804.897500", "184805.357500", "184805.817500", "184806.277500", "184806.737500", "184807.197500", "184807.657500", "184808.117500", "184808.577500", "184809.037500", "184809.497500", "184809.957500", "184810.417500", "184810.877500", "184811.337500", "184811.797500", "184812.257500", "184812.717500", "184813.177500", "184813.637500", "184814.097500", "184814.557500", "184815.017500", "184815.477500", "184815.937500", "184816.397500", "184816.857500", "184817.317500", "184817.777500", "184818.237500", "184818.697500", "184819.157500", "184819.617500", "184820.077500", "184820.537500", "184820.997500", "184821.457500", "184821.917500", "184822.377500", "184822.837500", "184823.297500", "184823.757500", "184824.217500", "184824.677500", "184825.137500", "184825.597500", "184826.057500", "184826.517500", "184826.977500", "184827.437500", "184827.897500", "184828.357500", "184828.817500", "184829.277500", "184829.737500", "184830.197500", "184830.657500", "184831.117500", "184831.577500", "184832.037500", "184832.497500", "184832.957500", "184833.417500", "184833.877500", "184834.337500", "184834.797500", "184835.257500", "184835.717500", "184836.177500", "184836.637500", "184837.097500", "184837.557500", "184838.017500", "184838.477500", "184838.937500", "184839.397500", "184839.857500", "184840.317500", "184840.777500", "184841.237500", "184841.697500", "184842.157500", "184842.617500", "184843.077500", "184843.537500", "184843.997500", "184844.457500", "184844.917500", "184845.377500", "184845.837500", "184846.297500", "184846.757500", "184847.217500", "184847.677500", "184848.137500", "184848.597500", "184849.057500", "184849.517500", "184849.977500", "184850.437500", "184850.897500", "184851.357500", "184851.817500", "184852.277500", "184852.737500", "184853.197500", "184853.657500", "184854.117500", "184854.577500", "184855.037500", "184855.497500", "184855.957500", "184856.417500", "184856.877500", "184857.337500", "184857.797500", "184858.257500", "184858.717500", "184859.177500", "184859.637500", "184900.097500", "184900.557500", "184901.017500", "184901.477500", "184901.937500", "184902.397500", "184902.857500", "184903.317500", "184903.777500", "184904.237500", "184904.697500", "184905.157500", "184905.617500", "184906.077500", "184906.537500", "184906.997500", "184907.457500", "184907.917500", "184908.377500", "184908.837500", "184909.297500", "184909.757500", "184910.217500", "184910.677500", "184911.137500", "184911.597500", "184912.057500", "184912.517500", "184912.977500", "184913.437500", "184913.897500", "184914.357500", "184914.817500", "184915.277500", "184915.737500", "184916.197500", "184916.657500", "184917.117500", "184917.577500", "184918.037500", "184918.497500", "184918.957500", "184919.417500", "184919.877500", "184920.337500", "184920.797500", "184921.257500", "184921.717500", "184922.177500", "184922.637500", "184923.097500", "184923.557500", "184924.017500", "184924.477500", "184924.937500", "184925.397500", "184925.857500", "184926.317500", "184926.777500", "184927.237500", "184927.697500", "184928.157500", "184928.617500", "184929.077500", "184929.537500", "184929.997500", "184930.457500", "184930.917500", "184931.377500", "184931.837500", "184932.297500", "184932.757500", "184933.217500", "184933.677500", "184934.137500", "184934.597500", "184935.057500", "184935.517500", "184935.977500", "184936.437500", "184936.897500", "184937.357500", "184937.817500", "184938.277500", "184938.737500", "184939.197500", "184939.657500", "184940.117500", "184940.577500", "184941.037500", "184941.497500", "184941.957500", "184942.417500", "184942.877500", "184943.337500", "184943.797500", "184944.257500", "184944.717500", "184945.177500", "184945.637500", "184946.097500", "184946.557500", "184947.017500", "184947.477500", "184947.937500", "184948.397500", "184948.857500", "184949.317500", "184949.777500", "184950.237500", "184950.697500", "184951.157500", "184951.617500", "184952.077500", "184952.537500", "184952.997500", "184953.457500", "184953.917500", "184954.377500", "184954.837500", "184955.297500", "184955.757500", "184956.217500", "184956.677500", "184957.137500", "184957.597500", "184958.057500", "184958.517500", "184958.977500", "184959.437500", "184959.897500", "185000.357500", "185000.817500", "185001.277500", "185001.737500", "185002.197500", "185002.657500", "185003.117500", "185003.577500", "185004.037500", "185004.497500", "185004.957500", "185005.417500", "185005.877500", "185006.337500", "185006.797500", "185007.257500", "185007.717500", "185008.177500", "185008.637500", "185009.097500", "185009.557500", "185010.017500", "185010.477500", "185010.937500", "185011.397500", "185011.857500", "185012.317500", "185012.777500", "185013.237500", "185013.697500", "185014.157500", "185014.617500", "185015.077500", "185015.537500", "185015.997500", "185016.457500", "185016.917500", "185017.377500", "185017.837500", "185018.297500", "185018.757500", "185019.217500", "185019.677500", "185020.137500", "185020.597500", "185021.057500", "185021.517500", "185021.977500", "185022.437500", "185022.897500", "185023.357500", "185023.817500", "185024.277500", "185024.737500", "185025.197500", "185025.657500", "185026.117500", "185026.577500", "185027.037500", "185027.497500", "185027.957500", "185028.417500", "185028.877500", "185029.337500", "185029.797500", "185030.257500", "185030.717500", "185031.177500", "185031.637500", "185032.097500", "185032.557500", "185033.017500", "185033.477500", "185033.937500", "185034.397500", "185034.857500", "185035.317500", "185035.777500", "185036.237500", "185036.697500", "185037.157500", "185037.617500", "185038.077500", "185038.537500", "185038.997500", "185039.457500", "185039.917500", "185040.377500", "185040.837500", "185041.297500", "185041.757500", "185042.217500", "185042.677500", "185043.137500", "185043.597500", "185044.057500", "185044.517500", "185044.977500", "185045.437500", "185045.897500", "185046.357500", "185046.817500", "185047.277500", "185047.737500", "185048.197500", "185048.657500", "185049.117500", "185049.577500", "185050.037500", "185050.497500", "185050.957500", "185051.417500", "185051.877500", "185052.337500", "185052.797500", "185053.257500", "185053.717500", "185054.177500", "185054.637500", "185055.097500", "185055.557500", "185056.017500", "185056.477500", "185056.937500", "185057.397500", "185057.857500", "185058.317500", "185058.777500", "185059.237500", "185059.697500", "185100.157500", "185100.617500", "185101.077500", "185101.537500", "185101.997500", "185102.457500", "185102.917500", "185103.377500", "185103.837500", "185104.297500", "185104.757500", "185105.217500", "185105.677500", "185106.137500", "185106.597500", "185107.057500", "185107.517500", "185107.977500", "185108.437500", "185108.897500", "185109.357500", "185109.817500", "185110.277500", "185110.737500", "185111.197500", "185111.657500", "185112.117500", "185112.577500", "185113.037500", "185113.497500", "185113.957500", "185114.417500", "185114.877500", "185115.337500", "185115.797500", "185116.257500", "185116.717500", "185117.177500", "185117.637500", "185118.097500", "185118.557500", "185119.017500", "185119.477500", "185119.937500", "185120.397500", "185120.857500", "185121.317500", "185121.777500", "185122.237500", "185122.697500", "185123.157500", "185123.617500", "185124.077500", "185124.537500", "185124.997500", "185125.457500", "185125.917500", "185126.377500", "185126.837500", "185127.297500", "185127.757500", "185128.217500", "185128.677500", "185129.137500", "185129.597500", "185130.057500", "185130.517500", "185130.977500", "185131.437500", "185131.897500", "185132.357500", "185132.817500", "185133.277500", "185133.737500", "185134.197500", "185134.657500", "185135.117500", "185135.577500", "185136.037500", "185136.497500", "185136.957500", "185137.417500", "185137.877500", "185138.337500", "185138.797500", "185139.257500", "185139.717500", "185140.177500", "185140.637500", "185141.097500", "185141.557500", "185142.017500", "185142.477500", "185142.937500", "185143.397500", "185143.857500", "185144.317500", "185144.777500", "185145.237500", "185145.697500", "185146.157500", "185146.617500", "185147.077500", "185147.537500", "185147.997500", "185148.457500", "185148.917500", "185149.377500", "185149.837500", "185150.297500", "185150.757500", "185151.217500", "185151.677500", "185152.137500", "185152.597500", "185153.057500", "185153.517500", "185153.977500", "185154.437500", "185154.897500", "185155.357500", "185155.817500", "185156.277500", "185156.737500", "185157.197500", "185157.657500", "185158.117500", "185158.577500", "185159.037500", "185159.497500", "185159.957500", "185200.417500", "185200.877500", "185201.337500", "185201.797500", "185202.257500", "185202.717500", "185203.177500", "185203.637500", "185204.097500", "185204.557500", "185205.017500", "185205.477500", "185205.937500", "185206.397500", "185206.857500", "185207.317500", "185207.777500", "185208.237500", "185208.697500", "185209.157500", "185209.617500", "185210.077500", "185210.537500", "185210.997500", "185211.457500", "185211.917500", "185212.377500", "185212.837500", "185213.297500", "185213.757500", "185214.217500", "185214.677500", "185215.137500", "185215.597500", "185216.057500", "185216.517500", "185216.977500", "185217.437500", "185217.897500", "185218.357500", "185218.817500", "185219.277500", "185219.737500", "185220.197500", "185220.657500", "185221.117500", "185221.577500", "185222.037500", "185222.497500", "185222.957500", "185223.417500", "185223.877500", "185224.337500", "185224.797500", "185225.257500", "185225.717500", "185226.177500", "185226.637500", "185227.097500", "185227.557500", "185228.017500", "185228.477500", "185228.937500", "185229.397500", "185229.857500", "185230.317500", "185230.777500", "185231.237500", "185231.697500", "185232.157500", "185232.617500", "185233.077500", "185233.537500", "185233.997500", "185234.457500", "185234.917500", "185235.377500", "185235.837500", "185236.297500", "185236.757500", "185237.217500", "185237.677500", "185238.137500", "185238.597500", "185239.057500", "185239.517500", "185239.977500", "185240.437500", "185240.897500", "185241.357500", "185241.817500", "185242.277500", "185242.737500", "185243.197500", "185243.657500", "185244.117500", "185244.577500", "185245.037500", "185245.497500", "185245.957500", "185246.417500", "185246.877500", "185247.337500", "185247.797500", "185248.257500", "185248.717500", "185249.177500", "185249.637500", "185250.097500", "185250.557500", "185251.017500", "185251.477500", "185251.937500", "185252.397500", "185252.857500", "185253.317500", "185253.777500", "185254.237500", "185254.697500", "185255.157500", "185255.617500", "185256.077500", "185256.537500", "185256.997500", "185257.457500", "185257.917500", "185258.377500", "185258.837500", "185259.297500", "185259.757500", "185300.217500", "185300.677500", "185301.137500", "185301.597500", "185302.057500", "185302.517500", "185302.977500", "185303.437500", "185303.897500", "185304.357500", "185304.817500", "185305.277500", "185305.737500", "185306.197500", "185306.657500", "185307.117500", "185307.577500", "185308.037500", "185308.497500", "185308.957500", "185309.417500", "185309.877500", "185310.337500", "185310.797500", "185311.257500", "185311.717500", "185312.177500", "185312.637500", "185313.097500", "185313.557500", "185314.017500", "185314.477500", "185314.937500", "185315.397500", "185315.857500", "185316.317500", "185316.777500", "185317.237500", "185317.697500", "185318.157500", "185318.617500", "185319.077500", "185319.537500", "185319.997500", "185320.457500", "185320.917500", "185321.377500", "185321.837500", "185322.297500", "185322.757500", "185323.217500", "185323.677500", "185324.137500", "185324.597500", "185325.057500", "185325.517500", "185325.977500", "185326.437500", "185326.897500", "185327.357500", "185327.817500", "185328.277500", "185328.737500", "185329.197500", "185329.657500", "185330.117500", "185330.577500", "185331.037500", "185331.497500", "185331.957500", "185332.417500", "185332.877500", "185333.337500", "185333.797500", "185334.257500", "185334.717500", "185335.177500", "185335.637500", "185336.097500", "185336.557500", "185337.017500", "185337.477500", "185337.937500", "185338.397500", "185338.857500", "185339.317500", "185339.777500", "185340.237500", "185340.697500", "185341.157500", "185341.617500", "185342.077500", "185342.537500", "185342.997500", "185343.457500", "185343.917500", "185344.377500", "185344.837500", "185345.297500", "185345.757500", "185346.217500", "185346.677500", "185347.137500", "185347.597500", "185348.057500", "185348.517500", "185348.977500", "185349.437500", "185349.897500", "185350.357500", "185350.817500", "185351.277500", "185351.737500", "185352.197500", "185352.657500", "185353.117500", "185353.577500", "185354.037500", "185354.497500", "185354.957500", "185355.417500", "185355.877500", "185356.337500", "185356.797500", "185357.257500", "185357.717500", "185358.177500", "185358.637500", "185359.097500", "185359.557500", "185400.017500", "185400.477500", "185400.937500", "185401.397500", "185401.857500", "185402.317500", "185402.777500", "185403.237500", "185403.697500", "185404.157500", "185404.617500", "185405.077500", "185405.537500", "185405.997500", "185406.457500", "185406.917500", "185407.377500", "185407.837500", "185408.297500", "185408.757500", "185409.217500", "185409.677500", "185410.137500", "185410.597500", "185411.057500", "185411.517500", "185411.977500", "185412.437500", "185412.897500", "185413.357500", "185413.817500", "185414.277500", "185414.737500", "185415.197500", "185415.657500", "185416.117500", "185416.577500", "185417.037500", "185417.497500", "185417.957500"],
