{
  "AcquisitionMatrixPE": 82,
  "AcquisitionNumber": 1,
  "AcquisitionTime": "18:14:58.222500",
  "BandwidthPerPixelPhaseEncode": 24.888,
  "BaseResolution": 82,
  "BodyPartExamined": "BRAIN",
  "ConsistencyInfo": "N4_VE11E_LATEST_20181129",
  "ConversionSoftware": "dcm2niix",
  "ConversionSoftwareVersion": "v1.0.20201102",
  "DerivedVendorReportedEchoSpacing": 0.00049,
  "DeviceSerialNumber": "66112",
  "DwellTime": 2e-06,
  "EchoTime": 0.0272,
  "EchoTrainLength": 82,
  "EffectiveEchoSpacing": 0.00049,
  "FlipAngle": 44,
  "ImageComments": "Unaliased MB8/PE3",
  "ImageOrientationPatientDICOM": [0.998507, 0.0503019, 0.021298, -0.0523296, 0.992684, 0.108813],
  "ImageType": [
    "ORIGINAL",
    "PRIMARY",
    "M",
    "MB",
    "ND",
    "NORM",
    "MOSAIC"
],
  "ImagingFrequency": 123.252,
  "InPlanePhaseEncodingDirectionDICOM": "COL",
  "InstitutionAddress": "Maynard 3,Hanover,NH,US,03755",
  "InstitutionName": "Dartmouth College - PBS",
  "InstitutionalDepartmentName": "Department",
  "MRAcquisitionType": "2D",
  "MagneticFieldStrength": 3,
  "Manufacturer": "Siemens",
  "ManufacturersModelName": "Prisma",
  "Modality": "MR",
  "MultibandAccelerationFactor": 8,
  "PartialFourier": 1,
  "PatientPosition": "HFS",
  "PercentPhaseFOV": 100,
  "PercentSampling": 100,
  "PhaseEncodingDirection": "j-",
  "PhaseEncodingSteps": 82,
  "PhaseResolution": 1,
  "PixelBandwidth": 3050,
  "ProcedureStepDescription": "Wager_Wager^1076_spacetop",
  "ProtocolName": "func_run-02_task-social_acq-ap-mb8",
  "PulseSequenceDetails": "%CustomerSeq%\\cmrr_mbep2d_bold",
  "ReceiveCoilActiveElements": "HEA;HEP",
  "ReceiveCoilName": "Head_32",
  "ReconMatrixPE": 82,
  "RepetitionTime": 0.46,
  "SAR": 0.0861828,
  "ScanOptions": "FS",
  "ScanningSequence": "EP",
  "SequenceName": "epfid2d1_82",
  "SequenceVariant": "SK\\SS",
  "SeriesDescription": "func_run-02_task-social_acq-ap-mb8",
  "SeriesNumber": 14,
  "ShimSetting": [4160, -7785, -7284, 828, -17, -386, 100, 35],
  "SliceThickness": 2.7,
  "SliceTiming": [0, 0.25, 0.0625, 0.315, 0.125, 0.3775, 0.1875, 0, 0.25, 0.0625, 0.315, 0.125, 0.3775, 0.1875, 0, 0.25, 0.0625, 0.315, 0.125, 0.3775, 0.1875, 0, 0.25, 0.0625, 0.315, 0.125, 0.3775, 0.1875, 0, 0.25, 0.0625, 0.315, 0.125, 0.3775, 0.1875, 0, 0.25, 0.0625, 0.315, 0.125, 0.3775, 0.1875, 0, 0.25, 0.0625, 0.315, 0.125, 0.3775, 0.1875, 0, 0.25, 0.0625, 0.315, 0.125, 0.3775, 0.1875],
  "SoftwareVersions": "syngo MR E11",
  "SpacingBetweenSlices": 2.7,
  "StationName": "AWP66112",
  "TaskName": "social",
  "TotalReadoutTime": 0.03969,
  "TxRefAmp": 226.916,
  "WipMemBlock": "3bf46a62-2aa7-45ad-bc15-2ef37667a785||Sequence: R016 ve11e/master r/434b28f1; Aug  7 2019 18:53:46 by eja",
  "dcmmeta_affine": [
    [-2.6789212226867676, -0.1403963565826416, 0.042305391281843185, 117.38031768798828],
    [-0.13495641946792603, 2.6632983684539795, 0.2963653802871704, -100.77108764648438],
    [0.05714092776179314, -0.29193708300590515, 2.683351993560791, -67.05414581298828],
    [0.0, 0.0, 0.0, 1.0]
],
  "dcmmeta_reorient_transform": [
    [0.0, -1.0, 0.0, 81.0],
    [1.0, 0.0, 0.0, 0.0],
    [0.0, 0.0, 1.0, 0.0],
    [0.0, 0.0, 0.0, 1.0]
],
  "dcmmeta_shape": [82, 82, 56, 872],
  "dcmmeta_slice_dim": 2,
  "dcmmeta_version": 0.6,
  "global": {
    "const": {
      "AccessionNumber": "A003953",
      "AcquisitionMatrix": [82, 0, 0, 82],
      "AngioFlag": "N",
      "BitsAllocated": 16,
      "BitsStored": 16,
      "BodyPartExamined": "BRAIN",
      "Columns": 656,
      "EchoNumbers": 1,
      "EchoTime": 27.2,
      "EchoTrainLength": 82,
      "FlipAngle": 44.0,
      "HighBit": 15,
      "ImageOrientationPatient": [0.99850694086774, 0.05030193874486, 0.02129798106539, -0.0523295522055, 0.99268392202868, 0.10881290783607],
      "ImagePositionPatient": [-834.56481898362, -918.05521325692, -190.88643231419],
      "ImageType": [
        "ORIGINAL",
        "PRIMARY",
        "M",
        "MB",
        "ND",
        "NORM",
        "MOSAIC"
],
      "ImagedNucleus": "1H",
      "ImagingFrequency": 123.252237,
      "InPlanePhaseEncodingDirection": "COL",
      "MRAcquisitionType": "2D",
      "MagneticFieldStrength": 3.0,
      "Manufacturer": "SIEMENS",
      "ManufacturerModelName": "Prisma",
      "Modality": "MR",
      "NumberOfAverages": 1.0,
      "NumberOfPhaseEncodingSteps": 82,
      "PercentPhaseFieldOfView": 100.0,
      "PercentSampling": 100.0,
      "PerformedProcedureStepStartTime": "173119.793000",
      "PhotometricInterpretation": "MONOCHROME2",
      "PixelBandwidth": 3050.0,
      "PixelRepresentation": 0,
      "PixelSpacing": [2.6829268932343, 2.6829268932343],
      "ProtocolName": "func_run-02_task-social_acq-ap-mb8",
      "RepetitionTime": 460.0,
      "Rows": 656,
      "SAR": 0.08618280550653,
      "SamplesPerPixel": 1,
      "ScanOptions": "FS",
      "ScanningSequence": "EP",
      "SequenceName": "epfid2d1_82",
      "SequenceVariant": [
        "SK",
        "SS"
],
      "SeriesDescription": "func_run-02_task-social_acq-ap-mb8",
      "SeriesNumber": 14,
      "SeriesTime": "181518.582000",
      "SliceLocation": -75.862632289669,
      "SliceThickness": 2.7000000476837,
      "SmallestImagePixelValue": 0,
      "SoftwareVersions": "syngo MR E11",
      "SpacingBetweenSlices": 2.6999999960646,
      "SpecificCharacterSet": "ISO_IR 100",
      "StudyID": "1",
      "StudyTime": "173119.682000",
      "TransmitCoilName": "Body",
      "VariableFlipAngleFlag": "N",
      "WindowCenterWidthExplanation": "Algo1"
    },
    "slices": {}
  },
  "time": {
    "samples": {
      "AcquisitionNumber": [1, 2, 3, 4, 5, 6, 7, 8, 9, 10, 11, 12, 13, 14, 15, 16, 17, 18, 19, 20, 21, 22, 23, 24, 25, 26, 27, 28, 29, 30, 31, 32, 33, 34, 35, 36, 37, 38, 39, 40, 41, 42, 43, 44, 45, 46, 47, 48, 49, 50, 51, 52, 53, 54, 55, 56, 57, 58, 59, 60, 61, 62, 63, 64, 65, 66, 67, 68, 69, 70, 71, 72, 73, 74, 75, 76, 77, 78, 79, 80, 81, 82, 83, 84, 85, 86, 87, 88, 89, 90, 91, 92, 93, 94, 95, 96, 97, 98, 99, 100, 101, 102, 103, 104, 105, 106, 107, 108, 109, 110, 111, 112, 113, 114, 115, 116, 117, 118, 119, 120, 121, 122, 123, 124, 125, 126, 127, 128, 129, 130, 131, 132, 133, 134, 135, 136, 137, 138, 139, 140, 141, 142, 143, 144, 145, 146, 147, 148, 149, 150, 151, 152, 153, 154, 155, 156, 157, 158, 159, 160, 161, 162, 163, 164, 165, 166, 167, 168, 169, 170, 171, 172, 173, 174, 175, 176, 177, 178, 179, 180, 181, 182, 183, 184, 185, 186, 187, 188, 189, 190, 191, 192, 193, 194, 195, 196, 197, 198, 199, 200, 201, 202, 203, 204, 205, 206, 207, 208, 209, 210, 211, 212, 213, 214, 215, 216, 217, 218, 219, 220, 221, 222, 223, 224, 225, 226, 227, 228, 229, 230, 231, 232, 233, 234, 235, 236, 237, 238, 239, 240, 241, 242, 243, 244, 245, 246, 247, 248, 249, 250, 251, 252, 253, 254, 255, 256, 257, 258, 259, 260, 261, 262, 263, 264, 265, 266, 267, 268, 269, 270, 271, 272, 273, 274, 275, 276, 277, 278, 279, 280, 281, 282, 283, 284, 285, 286, 287, 288, 289, 290, 291, 292, 293, 294, 295, 296, 297, 298, 299, 300, 301, 302, 303, 304, 305, 306, 307, 308, 309, 310, 311, 312, 313, 314, 315, 316, 317, 318, 319, 320, 321, 322, 323, 324, 325, 326, 327, 328, 329, 330, 331, 332, 333, 334, 335, 336, 337, 338, 339, 340, 341, 342, 343, 344, 345, 346, 347, 348, 349, 350, 351, 352, 353, 354, 355, 356, 357, 358, 359, 360, 361, 362, 363, 364, 365, 366, 367, 368, 369, 370, 371, 372, 373, 374, 375, 376, 377, 378, 379, 380, 381, 382, 383, 384, 385, 386, 387, 388, 389, 390, 391, 392, 393, 394, 395, 396, 397, 398, 399, 400, 401, 402, 403, 404, 405, 406, 407, 408, 409, 410, 411, 412, 413, 414, 415, 416, 417, 418, 419, 420, 421, 422, 423, 424, 425, 426, 427, 428, 429, 430, 431, 432, 433, 434, 435, 436, 437, 438, 439, 440, 441, 442, 443, 444, 445, 446, 447, 448, 449, 450, 451, 452, 453, 454, 455, 456, 457, 458, 459, 460, 461, 462, 463, 464, 465, 466, 467, 468, 469, 470, 471, 472, 473, 474, 475, 476, 477, 478, 479, 480, 481, 482, 483, 484, 485, 486, 487, 488, 489, 490, 491, 492, 493, 494, 495, 496, 497, 498, 499, 500, 501, 502, 503, 504, 505, 506, 507, 508, 509, 510, 511, 512, 513, 514, 515, 516, 517, 518, 519, 520, 521, 522, 523, 524, 525, 526, 527, 528, 529, 530, 531, 532, 533, 534, 535, 536, 537, 538, 539, 540, 541, 542, 543, 544, 545, 546, 547, 548, 549, 550, 551, 552, 553, 554, 555, 556, 557, 558, 559, 560, 561, 562, 563, 564, 565, 566, 567, 568, 569, 570, 571, 572, 573, 574, 575, 576, 577, 578, 579, 580, 581, 582, 583, 584, 585, 586, 587, 588, 589, 590, 591, 592, 593, 594, 595, 596, 597, 598, 599, 600, 601, 602, 603, 604, 605, 606, 607, 608, 609, 610, 611, 612, 613, 614, 615, 616, 617, 618, 619, 620, 621, 622, 623, 624, 625, 626, 627, 628, 629, 630, 631, 632, 633, 634, 635, 636, 637, 638, 639, 640, 641, 642, 643, 644, 645, 646, 647, 648, 649, 650, 651, 652, 653, 654, 655, 656, 657, 658, 659, 660, 661, 662, 663, 664, 665, 666, 667, 668, 669, 670, 671, 672, 673, 674, 675, 676, 677, 678, 679, 680, 681, 682, 683, 684, 685, 686, 687, 688, 689, 690, 691, 692, 693, 694, 695, 696, 697, 698, 699, 700, 701, 702, 703, 704, 705, 706, 707, 708, 709, 710, 711, 712, 713, 714, 715, 716, 717, 718, 719, 720, 721, 722, 723, 724, 725, 726, 727, 728, 729, 730, 731, 732, 733, 734, 735, 736, 737, 738, 739, 740, 741, 742, 743, 744, 745, 746, 747, 748, 749, 750, 751, 752, 753, 754, 755, 756, 757, 758, 759, 760, 761, 762, 763, 764, 765, 766, 767, 768, 769, 770, 771, 772, 773, 774, 775, 776, 777, 778, 779, 780, 781, 782, 783, 784, 785, 786, 787, 788, 789, 790, 791, 792, 793, 794, 795, 796, 797, 798, 799, 800, 801, 802, 803, 804, 805, 806, 807, 808, 809, 810, 811, 812, 813, 814, 815, 816, 817, 818, 819, 820, 821, 822, 823, 824, 825, 826, 827, 828, 829, 830, 831, 832, 833, 834, 835, 836, 837, 838, 839, 840, 841, 842, 843, 844, 845, 846, 847, 848, 849, 850, 851, 852, 853, 854, 855, 856, 857, 858, 859, 860, 861, 862, 863, 864, 865, 866, 867, 868, 869, 870, 871, 872],
      "AcquisitionTime": ["181458.222500", "181458.682500", "181459.142500", "181459.602500", "181500.062500", "181500.522500", "181500.982500", "181501.442500", "181501.902500", "181502.362500", "181502.822500", "181503.282500", "181503.742500", "181504.202500", "181504.662500", "181505.122500", "181505.582500", "181506.042500", "181506.502500", "181506.962500", "181507.422500", "181507.882500", "181508.342500", "181508.802500", "181509.262500", "181509.722500", "181510.182500", "181510.642500", "181511.102500", "181511.562500", "181512.022500", "181512.482500", "181512.942500", "181513.402500", "181513.862500", "181514.322500", "181514.782500", "181515.242500", "181515.702500", "181516.162500", "181516.622500", "181517.082500", "181517.542500", "181518.002500", "181518.462500", "181518.922500", "181519.382500", "181519.842500", "181520.302500", "181520.762500", "181521.222500", "181521.682500", "181522.142500", "181522.602500", "181523.062500", "181523.522500", "181523.982500", "181524.442500", "181524.902500", "181525.362500", "181525.822500", "181526.282500", "181526.742500", "181527.202500", "181527.662500", "181528.122500", "181528.582500", "181529.042500", "181529.502500", "181529.962500", "181530.422500", "181530.882500", "181531.342500", "181531.802500", "181532.262500", "181532.722500", "181533.182500", "181533.642500", "181534.102500", "181534.562500", "181535.022500", "181535.482500", "181535.942500", "181536.402500", "181536.862500", "181537.322500", "181537.782500", "181538.242500", "181538.702500", "181539.162500", "181539.622500", "181540.082500", "181540.542500", "181541.002500", "181541.462500", "181541.922500", "181542.382500", "181542.842500", "181543.302500", "181543.762500", "181544.222500", "181544.682500", "181545.142500", "181545.602500", "181546.062500", "181546.522500", "181546.982500", "181547.442500", "181547.902500", "181548.362500", "181548.822500", "181549.282500", "181549.742500", "181550.202500", "181550.662500", "181551.122500", "181551.582500", "181552.042500", "181552.502500", "181552.962500", "181553.422500", "181553.882500", "181554.342500", "181554.802500", "181555.262500", "181555.722500", "181556.182500", "181556.642500", "181557.102500", "181557.562500", "181558.022500", "181558.482500", "181558.942500", "181559.402500", "181559.862500", "181600.322500", "181600.782500", "181601.242500", "181601.702500", "181602.162500", "181602.622500", "181603.082500", "181603.542500", "181604.002500", "181604.462500", "181604.922500", "181605.382500", "181605.842500", "181606.302500", "181606.762500", "181607.222500", "181607.682500", "181608.142500", "181608.602500", "181609.062500", "181609.522500", "181609.982500", "181610.442500", "181610.902500", "181611.362500", "181611.822500", "181612.282500", "181612.742500", "181613.202500", "181613.662500", "181614.122500", "181614.582500", "181615.042500", "181615.502500", "181615.962500", "181616.422500", "181616.882500", "181617.342500", "181617.802500", "181618.262500", "181618.722500", "181619.182500", "181619.642500", "181620.102500", "181620.562500", "181621.022500", "181621.482500", "181621.942500", "181622.402500", "181622.862500", "181623.322500", "181623.782500", "181624.242500", "181624.702500", "181625.162500", "181625.622500", "181626.082500", "181626.542500", "181627.002500", "181627.462500", "181627.922500", "181628.382500", "181628.842500", "181629.302500", "181629.762500", "181630.222500", "181630.682500", "181631.142500", "181631.602500", "181632.062500", "181632.522500", "181632.982500", "181633.442500", "181633.902500", "181634.362500", "181634.822500", "181635.282500", "181635.742500", "181636.202500", "181636.662500", "181637.122500", "181637.582500", "181638.042500", "181638.502500", "181638.962500", "181639.422500", "181639.882500", "181640.342500", "181640.802500", "181641.262500", "181641.722500", "181642.182500", "181642.642500", "181643.102500", "181643.562500", "181644.022500", "181644.482500", "181644.942500", "181645.402500", "181645.862500", "181646.322500", "181646.782500", "181647.242500", "181647.702500", "181648.162500", "181648.622500", "181649.082500", "181649.542500", "181650.002500", "181650.462500", "181650.922500", "181651.382500", "181651.842500", "181652.302500", "181652.762500", "181653.222500", "181653.682500", "181654.142500", "181654.602500", "181655.062500", "181655.522500", "181655.982500", "181656.442500", "181656.902500", "181657.362500", "181657.822500", "181658.282500", "181658.742500", "181659.202500", "181659.662500", "181700.122500", "181700.582500", "181701.042500", "181701.502500", "181701.962500", "181702.422500", "181702.882500", "181703.342500", "181703.802500", "181704.262500", "181704.722500", "181705.182500", "181705.642500", "181706.102500", "181706.562500", "181707.022500", "181707.482500", "181707.942500", "181708.402500", "181708.862500", "181709.322500", "181709.782500", "181710.242500", "181710.702500", "181711.162500", "181711.622500", "181712.082500", "181712.542500", "181713.002500", "181713.462500", "181713.922500", "181714.382500", "181714.842500", "181715.302500", "181715.762500", "181716.222500", "181716.682500", "181717.142500", "181717.602500", "181718.062500", "181718.522500", "181718.982500", "181719.442500", "181719.902500", "181720.362500", "181720.822500", "181721.282500", "181721.742500", "181722.202500", "181722.662500", "181723.122500", "181723.582500", "181724.042500", "181724.502500", "181724.962500", "181725.422500", "181725.882500", "181726.342500", "181726.802500", "181727.262500", "181727.722500", "181728.182500", "181728.642500", "181729.102500", "181729.562500", "181730.022500", "181730.482500", "181730.942500", "181731.402500", "181731.862500", "181732.322500", "181732.782500", "181733.242500", "181733.702500", "181734.162500", "181734.622500", "181735.082500", "181735.542500", "181736.002500", "181736.462500", "181736.922500", "181737.382500", "181737.842500", "181738.302500", "181738.762500", "181739.222500", "181739.682500", "181740.142500", "181740.602500", "181741.062500", "181741.522500", "181741.982500", "181742.442500", "181742.902500", "181743.362500", "181743.822500", "181744.282500", "181744.742500", "181745.202500", "181745.662500", "181746.122500", "181746.582500", "181747.042500", "181747.502500", "181747.962500", "181748.422500", "181748.882500", "181749.342500", "181749.802500", "181750.262500", "181750.722500", "181751.182500", "181751.642500", "181752.102500", "181752.562500", "181753.022500", "181753.482500", "181753.942500", "181754.402500", "181754.862500", "181755.322500", "181755.782500", "181756.242500", "181756.702500", "181757.162500", "181757.622500", "181758.082500", "181758.542500", "181759.002500", "181759.462500", "181759.922500", "181800.382500", "181800.842500", "181801.302500", "181801.762500", "181802.222500", "181802.682500", "181803.142500", "181803.602500", "181804.062500", "181804.522500", "181804.982500", "181805.442500", "181805.902500", "181806.362500", "181806.822500", "181807.282500", "181807.742500", "181808.202500", "181808.662500", "181809.122500", "181809.582500", "181810.042500", "181810.502500", "181810.962500", "181811.422500", "181811.882500", "181812.342500", "181812.802500", "181813.262500", "181813.722500", "181814.182500", "181814.642500", "181815.102500", "181815.562500", "181816.022500", "181816.482500", "181816.942500", "181817.402500", "181817.862500", "181818.322500", "181818.782500", "181819.242500", "181819.702500", "181820.162500", "181820.622500", "181821.082500", "181821.542500", "181822.002500", "181822.462500", "181822.922500", "181823.382500", "181823.842500", "181824.302500", "181824.762500", "181825.222500", "181825.682500", "181826.142500", "181826.602500", "181827.062500", "181827.522500", "181827.982500", "181828.442500", "181828.902500", "181829.362500", "181829.822500", "181830.282500", "181830.742500", "181831.202500", "181831.662500", "181832.122500", "181832.582500", "181833.042500", "181833.502500", "181833.962500", "181834.422500", "181834.882500", "181835.342500", "181835.802500", "181836.262500", "181836.722500", "181837.182500", "181837.642500", "181838.102500", "181838.562500", "181839.022500", "181839.482500", "181839.942500", "181840.402500", "181840.862500", "181841.322500", "181841.782500", "181842.242500", "181842.702500", "181843.162500", "181843.622500", "181844.082500", "181844.542500", "181845.002500", "181845.462500", "181845.922500", "181846.382500", "181846.842500", "181847.302500", "181847.762500", "181848.222500", "181848.682500", "181849.142500", "181849.602500", "181850.062500", "181850.522500", "181850.982500", "181851.442500", "181851.902500", "181852.362500", "181852.822500", "181853.282500", "181853.742500", "181854.202500", "181854.662500", "181855.122500", "181855.582500", "181856.042500", "181856.502500", "181856.962500", "181857.422500", "181857.882500", "181858.342500", "181858.802500", "181859.262500", "181859.722500", "181900.182500", "181900.642500", "181901.102500", "181901.562500", "181902.022500", "181902.482500", "181902.942500", "181903.402500", "181903.862500", "181904.322500", "181904.782500", "181905.242500", "181905.702500", "181906.162500", "181906.622500", "181907.082500", "181907.542500", "181908.002500", "181908.462500", "181908.922500", "181909.382500", "181909.842500", "181910.302500", "181910.762500", "181911.222500", "181911.682500", "181912.142500", "181912.602500", "181913.062500", "181913.522500", "181913.982500", "181914.442500", "181914.902500", "181915.362500", "181915.822500", "181916.282500", "181916.742500", "181917.202500", "181917.662500", "181918.122500", "181918.582500", "181919.042500", "181919.502500", "181919.962500", "181920.422500", "181920.882500", "181921.342500", "181921.802500", "181922.262500", "181922.722500", "181923.182500", "181923.642500", "181924.102500", "181924.562500", "181925.022500", "181925.482500", "181925.942500", "181926.402500", "181926.862500", "181927.322500", "181927.782500", "181928.242500", "181928.702500", "181929.162500", "181929.622500", "181930.082500", "181930.542500", "181931.002500", "181931.462500", "181931.922500", "181932.382500", "181932.842500", "181933.302500", "181933.762500", "181934.222500", "181934.682500", "181935.142500", "181935.602500", "181936.062500", "181936.522500", "181936.982500", "181937.442500", "181937.902500", "181938.362500", "181938.822500", "181939.282500", "181939.742500", "181940.202500", "181940.662500", "181941.122500", "181941.582500", "181942.042500", "181942.502500", "181942.962500", "181943.422500", "181943.882500", "181944.342500", "181944.802500", "181945.262500", "181945.722500", "181946.182500", "181946.642500", "181947.102500", "181947.562500", "181948.022500", "181948.482500", "181948.942500", "181949.402500", "181949.862500", "181950.322500", "181950.782500", "181951.242500", "181951.702500", "181952.162500", "181952.622500", "181953.082500", "181953.542500", "181954.002500", "181954.462500", "181954.922500", "181955.382500", "181955.842500", "181956.302500", "181956.762500", "181957.222500", "181957.682500", "181958.142500", "181958.602500", "181959.062500", "181959.522500", "181959.982500", "182000.442500", "182000.902500", "182001.362500", "182001.822500", "182002.282500", "182002.742500", "182003.202500", "182003.662500", "182004.122500", "182004.582500", "182005.042500", "182005.502500", "182005.962500", "182006.422500", "182006.882500", "182007.342500", "182007.802500", "182008.262500", "182008.722500", "182009.182500", "182009.642500", "182010.102500", "182010.562500", "182011.022500", "182011.482500", "182011.942500", "182012.402500", "182012.862500", "182013.322500", "182013.782500", "182014.242500", "182014.702500", "182015.162500", "182015.622500", "182016.082500", "182016.542500", "182017.002500", "182017.462500", "182017.922500", "182018.382500", "182018.842500", "182019.302500", "182019.762500", "182020.222500", "182020.682500", "182021.142500", "182021.602500", "182022.062500", "182022.522500", "182022.982500", "182023.442500", "182023.902500", "182024.362500", "182024.822500", "182025.282500", "182025.742500", "182026.202500", "182026.662500", "182027.122500", "182027.582500", "182028.042500", "182028.502500", "182028.962500", "182029.422500", "182029.882500", "182030.342500", "182030.802500", "182031.262500", "182031.722500", "182032.182500", "182032.642500", "182033.102500", "182033.562500", "182034.022500", "182034.482500", "182034.942500", "182035.402500", "182035.862500", "182036.322500", "182036.782500", "182037.242500", "182037.702500", "182038.162500", "182038.622500", "182039.082500", "182039.542500", "182040.002500", "182040.462500", "182040.922500", "182041.382500", "182041.842500", "182042.302500", "182042.762500", "182043.222500", "182043.682500", "182044.142500", "182044.602500", "182045.062500", "182045.522500", "182045.982500", "182046.442500", "182046.902500", "182047.362500", "182047.822500", "182048.282500", "182048.742500", "182049.202500", "182049.662500", "182050.122500", "182050.582500", "182051.042500", "182051.502500", "182051.962500", "182052.422500", "182052.882500", "182053.342500", "182053.802500", "182054.262500", "182054.722500", "182055.182500", "182055.642500", "182056.102500", "182056.562500", "182057.022500", "182057.482500", "182057.942500", "182058.402500", "182058.862500", "182059.322500", "182059.782500", "182100.242500", "182100.702500", "182101.162500", "182101.622500", "182102.082500", "182102.542500", "182103.002500", "182103.462500", "182103.922500", "182104.382500", "182104.842500", "182105.302500", "182105.762500", "182106.222500", "182106.682500", "182107.142500", "182107.602500", "182108.062500", "182108.522500", "182108.982500", "182109.442500", "182109.902500", "182110.362500", "182110.822500", "182111.282500", "182111.742500", "182112.202500", "182112.662500", "182113.122500", "182113.582500", "182114.042500", "182114.502500", "182114.962500", "182115.422500", "182115.882500", "182116.342500", "182116.802500", "182117.262500", "182117.722500", "182118.182500", "182118.642500", "182119.102500", "182119.562500", "182120.022500", "182120.482500", "182120.942500", "182121.402500", "182121.862500", "182122.322500", "182122.782500", "182123.242500", "182123.702500", "182124.162500", "182124.622500", "182125.082500", "182125.542500", "182126.002500", "182126.462500", "182126.922500", "182127.382500", "182127.842500", "182128.302500", "182128.762500", "182129.222500", "182129.682500", "182130.142500", "182130.602500", "182131.062500", "182131.522500", "182131.982500", "182132.442500", "182132.902500", "182133.362500", "182133.822500", "182134.282500", "182134.742500", "182135.202500", "182135.662500", "182136.122500", "182136.582500", "182137.042500", "182137.502500", "182137.962500", "182138.422500", "182138.882500"],
