{
  "AcquisitionMatrixPE": 82,
  "AcquisitionNumber": 1,
  "AcquisitionTime": "10:59:15.527500",
  "BandwidthPerPixelPhaseEncode": 24.888,
  "BaseResolution": 82,
  "BodyPartExamined": "BRAIN",
  "ConsistencyInfo": "N4_VE11E_LATEST_20181129",
  "ConversionSoftware": "dcm2niix",
  "ConversionSoftwareVersion": "v1.0.20201102",
  "DerivedVendorReportedEchoSpacing": 0.00049,
  "DeviceSerialNumber": "66112",
  "DwellTime": 2e-06,
  "EchoTime": 0.0272,
  "EchoTrainLength": 82,
  "EffectiveEchoSpacing": 0.00049,
  "FlipAngle": 44,
  "ImageComments": "Unaliased MB8/PE3",
  "ImageOrientationPatientDICOM": [0.999683, -0.0220464, 0.0121714, 0.0225114, 0.998966, -0.0394924],
  "ImageType": [
    "ORIGINAL",
    "PRIMARY",
    "M",
    "MB",
    "ND",
    "NORM",
    "MOSAIC"
],
  "ImagingFrequency": 123.252,
  "InPlanePhaseEncodingDirectionDICOM": "COL",
  "InstitutionAddress": "Maynard 3,Hanover,NH,US,03755",
  "InstitutionName": "Dartmouth College - PBS",
  "InstitutionalDepartmentName": "Department",
  "MRAcquisitionType": "2D",
  "MagneticFieldStrength": 3,
  "Manufacturer": "Siemens",
  "ManufacturersModelName": "Prisma",
  "Modality": "MR",
  "MultibandAccelerationFactor": 8,
  "PartialFourier": 1,
  "PatientPosition": "HFS",
  "PercentPhaseFOV": 100,
  "PercentSampling": 100,
  "PhaseEncodingDirection": "j-",
  "PhaseEncodingSteps": 82,
  "PhaseResolution": 1,
  "PixelBandwidth": 3050,
  "ProcedureStepDescription": "Wager_Wager^1076_spacetop",
  "ProtocolName": "func_run-01_task-narratives_acq-ap-mb8",
  "PulseSequenceDetails": "%CustomerSeq%\\cmrr_mbep2d_bold",
  "ReceiveCoilActiveElements": "HEA;HEP",
  "ReceiveCoilName": "Head_32",
  "ReconMatrixPE": 82,
  "RepetitionTime": 0.46,
  "SAR": 0.107855,
  "ScanOptions": "FS",
  "ScanningSequence": "EP",
  "SequenceName": "epfid2d1_82",
  "SequenceVariant": "SK\\SS",
  "SeriesDescription": "func_run-01_task-narratives_acq-ap-mb8",
  "SeriesNumber": 10,
  "ShimSetting": [4143, -7719, -7296, 480, -76, -132, -33, 72],
  "SliceThickness": 2.7,
  "SliceTiming": [0, 0.2525, 0.0625, 0.315, 0.125, 0.3775, 0.19, 0, 0.2525, 0.0625, 0.315, 0.125, 0.3775, 0.19, 0, 0.2525, 0.0625, 0.315, 0.125, 0.3775, 0.19, 0, 0.2525, 0.0625, 0.315, 0.125, 0.3775, 0.19, 0, 0.2525, 0.0625, 0.315, 0.125, 0.3775, 0.19, 0, 0.2525, 0.0625, 0.315, 0.125, 0.3775, 0.19, 0, 0.2525, 0.0625, 0.315, 0.125, 0.3775, 0.19, 0, 0.2525, 0.0625, 0.315, 0.125, 0.3775, 0.19],
  "SoftwareVersions": "syngo MR E11",
  "SpacingBetweenSlices": 2.7,
  "StationName": "AWP66112",
  "TaskName": "narratives",
  "TotalReadoutTime": 0.03969,
  "TxRefAmp": 273.474,
  "WipMemBlock": "3e76c6a4-8df5-42d5-b834-d51a4e0faf2a||Sequence: R016 ve11e/master r/434b28f1; Aug  7 2019 18:53:46 by eja",
  "dcmmeta_affine": [
    [-2.6820759773254395, 0.060396526008844376, 0.030478093773126602, 105.29087829589844],
    [0.059148889034986496, 2.6801533699035645, -0.10733535140752792, -92.33726501464844],
    [0.032655056565999985, 0.10595512390136719, 2.6976935863494873, -64.97203063964844],
    [0.0, 0.0, 0.0, 1.0]
],
  "dcmmeta_reorient_transform": [
    [0.0, -1.0, 0.0, 81.0],
    [1.0, 0.0, 0.0, 0.0],
    [0.0, 0.0, 1.0, 0.0],
    [0.0, 0.0, 0.0, 1.0]
],
  "dcmmeta_shape": [82, 82, 56, 967],
  "dcmmeta_slice_dim": 2,
  "dcmmeta_version": 0.6,
  "global": {
    "const": {
      "AccessionNumber": "A003941",
      "AcquisitionMatrix": [82, 0, 0, 82],
      "AngioFlag": "N",
      "BitsAllocated": 16,
      "BitsStored": 16,
      "BodyPartExamined": "BRAIN",
      "Columns": 656,
      "EchoNumbers": 1,
      "EchoTime": 27.2,
      "EchoTrainLength": 82,
      "FlipAngle": 44.0,
      "HighBit": 15,
      "ImageOrientationPatient": [0.99968285589601, -0.0220464039463, 0.01217142968737, 0.02251143158156, 0.99896626005932, -0.0394923626951],
      "ImagePositionPatient": [-897.27262021258, -876.98347352079, -35.352548320201],
      "ImageType": [
        "ORIGINAL",
        "PRIMARY",
        "M",
        "MB",
        "ND",
        "NORM",
        "MOSAIC"
],
      "ImagedNucleus": "1H",
      "ImagingFrequency": 123.252154,
      "InPlanePhaseEncodingDirection": "COL",
      "MRAcquisitionType": "2D",
      "MagneticFieldStrength": 3.0,
      "Manufacturer": "SIEMENS",
      "ManufacturerModelName": "Prisma",
      "Modality": "MR",
      "NumberOfAverages": 1.0,
      "NumberOfPhaseEncodingSteps": 82,
      "PercentPhaseFieldOfView": 100.0,
      "PercentSampling": 100.0,
      "PerformedProcedureStepStartTime": "103330.940000",
      "PhotometricInterpretation": "MONOCHROME2",
      "PixelBandwidth": 3050.0,
      "PixelRepresentation": 0,
      "PixelSpacing": [2.6829268932343, 2.6829268932343],
      "ProtocolName": "func_run-01_task-narratives_acq-ap-mb8",
      "RepetitionTime": 460.0,
      "Rows": 656,
      "SAR": 0.1078549700655,
      "SamplesPerPixel": 1,
      "ScanOptions": "FS",
      "ScanningSequence": "EP",
      "SequenceName": "epfid2d1_82",
      "SequenceVariant": [
        "SK",
        "SS"
],
      "SeriesDescription": "func_run-01_task-narratives_acq-ap-mb8",
      "SeriesNumber": 10,
      "SeriesTime": "105943.668000",
      "SliceLocation": -60.0572261295,
      "SliceThickness": 2.7000000476837,
      "SmallestImagePixelValue": 0,
      "SoftwareVersions": "syngo MR E11",
      "SpacingBetweenSlices": 2.6999999974685,
      "SpecificCharacterSet": "ISO_IR 100",
      "StudyID": "2",
      "StudyTime": "103330.885000",
      "TransmitCoilName": "Body",
      "VariableFlipAngleFlag": "N",
      "WindowCenterWidthExplanation": "Algo1"
    },
    "slices": {}
  },
  "time": {
    "samples": {
      "AcquisitionNumber": [1, 2, 3, 4, 5, 6, 7, 8, 9, 10, 11, 12, 13, 14, 15, 16, 17, 18, 19, 20, 21, 22, 23, 24, 25, 26, 27, 28, 29, 30, 31, 32, 33, 34, 35, 36, 37, 38, 39, 40, 41, 42, 43, 44, 45, 46, 47, 48, 49, 50, 51, 52, 53, 54, 55, 56, 57, 58, 59, 60, 61, 62, 63, 64, 65, 66, 67, 68, 69, 70, 71, 72, 73, 74, 75, 76, 77, 78, 79, 80, 81, 82, 83, 84, 85, 86, 87, 88, 89, 90, 91, 92, 93, 94, 95, 96, 97, 98, 99, 100, 101, 102, 103, 104, 105, 106, 107, 108, 109, 110, 111, 112, 113, 114, 115, 116, 117, 118, 119, 120, 121, 122, 123, 124, 125, 126, 127, 128, 129, 130, 131, 132, 133, 134, 135, 136, 137, 138, 139, 140, 141, 142, 143, 144, 145, 146, 147, 148, 149, 150, 151, 152, 153, 154, 155, 156, 157, 158, 159, 160, 161, 162, 163, 164, 165, 166, 167, 168, 169, 170, 171, 172, 173, 174, 175, 176, 177, 178, 179, 180, 181, 182, 183, 184, 185, 186, 187, 188, 189, 190, 191, 192, 193, 194, 195, 196, 197, 198, 199, 200, 201, 202, 203, 204, 205, 206, 207, 208, 209, 210, 211, 212, 213, 214, 215, 216, 217, 218, 219, 220, 221, 222, 223, 224, 225, 226, 227, 228, 229, 230, 231, 232, 233, 234, 235, 236, 237, 238, 239, 240, 241, 242, 243, 244, 245, 246, 247, 248, 249, 250, 251, 252, 253, 254, 255, 256, 257, 258, 259, 260, 261, 262, 263, 264, 265, 266, 267, 268, 269, 270, 271, 272, 273, 274, 275, 276, 277, 278, 279, 280, 281, 282, 283, 284, 285, 286, 287, 288, 289, 290, 291, 292, 293, 294, 295, 296, 297, 298, 299, 300, 301, 302, 303, 304, 305, 306, 307, 308, 309, 310, 311, 312, 313, 314, 315, 316, 317, 318, 319, 320, 321, 322, 323, 324, 325, 326, 327, 328, 329, 330, 331, 332, 333, 334, 335, 336, 337, 338, 339, 340, 341, 342, 343, 344, 345, 346, 347, 348, 349, 350, 351, 352, 353, 354, 355, 356, 357, 358, 359, 360, 361, 362, 363, 364, 365, 366, 367, 368, 369, 370, 371, 372, 373, 374, 375, 376, 377, 378, 379, 380, 381, 382, 383, 384, 385, 386, 387, 388, 389, 390, 391, 392, 393, 394, 395, 396, 397, 398, 399, 400, 401, 402, 403, 404, 405, 406, 407, 408, 409, 410, 411, 412, 413, 414, 415, 416, 417, 418, 419, 420, 421, 422, 423, 424, 425, 426, 427, 428, 429, 430, 431, 432, 433, 434, 435, 436, 437, 438, 439, 440, 441, 442, 443, 444, 445, 446, 447, 448, 449, 450, 451, 452, 453, 454, 455, 456, 457, 458, 459, 460, 461, 462, 463, 464, 465, 466, 467, 468, 469, 470, 471, 472, 473, 474, 475, 476, 477, 478, 479, 480, 481, 482, 483, 484, 485, 486, 487, 488, 489, 490, 491, 492, 493, 494, 495, 496, 497, 498, 499, 500, 501, 502, 503, 504, 505, 506, 507, 508, 509, 510, 511, 512, 513, 514, 515, 516, 517, 518, 519, 520, 521, 522, 523, 524, 525, 526, 527, 528, 529, 530, 531, 532, 533, 534, 535, 536, 537, 538, 539, 540, 541, 542, 543, 544, 545, 546, 547, 548, 549, 550, 551, 552, 553, 554, 555, 556, 557, 558, 559, 560, 561, 562, 563, 564, 565, 566, 567, 568, 569, 570, 571, 572, 573, 574, 575, 576, 577, 578, 579, 580, 581, 582, 583, 584, 585, 586, 587, 588, 589, 590, 591, 592, 593, 594, 595, 596, 597, 598, 599, 600, 601, 602, 603, 604, 605, 606, 607, 608, 609, 610, 611, 612, 613, 614, 615, 616, 617, 618, 619, 620, 621, 622, 623, 624, 625, 626, 627, 628, 629, 630, 631, 632, 633, 634, 635, 636, 637, 638, 639, 640, 641, 642, 643, 644, 645, 646, 647, 648, 649, 650, 651, 652, 653, 654, 655, 656, 657, 658, 659, 660, 661, 662, 663, 664, 665, 666, 667, 668, 669, 670, 671, 672, 673, 674, 675, 676, 677, 678, 679, 680, 681, 682, 683, 684, 685, 686, 687, 688, 689, 690, 691, 692, 693, 694, 695, 696, 697, 698, 699, 700, 701, 702, 703, 704, 705, 706, 707, 708, 709, 710, 711, 712, 713, 714, 715, 716, 717, 718, 719, 720, 721, 722, 723, 724, 725, 726, 727, 728, 729, 730, 731, 732, 733, 734, 735, 736, 737, 738, 739, 740, 741, 742, 743, 744, 745, 746, 747, 748, 749, 750, 751, 752, 753, 754, 755, 756, 757, 758, 759, 760, 761, 762, 763, 764, 765, 766, 767, 768, 769, 770, 771, 772, 773, 774, 775, 776, 777, 778, 779, 780, 781, 782, 783, 784, 785, 786, 787, 788, 789, 790, 791, 792, 793, 794, 795, 796, 797, 798, 799, 800, 801, 802, 803, 804, 805, 806, 807, 808, 809, 810, 811, 812, 813, 814, 815, 816, 817, 818, 819, 820, 821, 822, 823, 824, 825, 826, 827, 828, 829, 830, 831, 832, 833, 834, 835, 836, 837, 838, 839, 840, 841, 842, 843, 844, 845, 846, 847, 848, 849, 850, 851, 852, 853, 854, 855, 856, 857, 858, 859, 860, 861, 862, 863, 864, 865, 866, 867, 868, 869, 870, 871, 872, 873, 874, 875, 876, 877, 878, 879, 880, 881, 882, 883, 884, 885, 886, 887, 888, 889, 890, 891, 892, 893, 894, 895, 896, 897, 898, 899, 900, 901, 902, 903, 904, 905, 906, 907, 908, 909, 910, 911, 912, 913, 914, 915, 916, 917, 918, 919, 920, 921, 922, 923, 924, 925, 926, 927, 928, 929, 930, 931, 932, 933, 934, 935, 936, 937, 938, 939, 940, 941, 942, 943, 944, 945, 946, 947, 948, 949, 950, 951, 952, 953, 954, 955, 956, 957, 958, 959, 960, 961, 962, 963, 964, 965, 966, 967],
      "AcquisitionTime": ["105915.527500", "105915.987500", "105916.447500", "105916.907500", "105917.367500", "105917.827500", "105918.287500", "105918.747500", "105919.207500", "105919.667500", "105920.127500", "105920.587500", "105921.047500", "105921.507500", "105921.967500", "105922.427500", "105922.887500", "105923.347500", "105923.807500", "105924.267500", "105924.727500", "105925.187500", "105925.647500", "105926.107500", "105926.567500", "105927.027500", "105927.487500", "105927.947500", "105928.407500", "105928.867500", "105929.327500", "105929.787500", "105930.247500", "105930.707500", "105931.167500", "105931.627500", "105932.087500", "105932.547500", "105933.007500", "105933.467500", "105933.927500", "105934.387500", "105934.847500", "105935.307500", "105935.767500", "105936.227500", "105936.687500", "105937.147500", "105937.607500", "105938.067500", "105938.527500", "105938.987500", "105939.447500", "105939.907500", "105940.367500", "105940.827500", "105941.287500", "105941.747500", "105942.207500", "105942.667500", "105943.127500", "105943.587500", "105944.047500", "105944.507500", "105944.967500", "105945.427500", "105945.887500", "105946.347500", "105946.807500", "105947.267500", "105947.727500", "105948.187500", "105948.647500", "105949.107500", "105949.567500", "105950.027500", "105950.487500", "105950.947500", "105951.407500", "105951.867500", "105952.327500", "105952.787500", "105953.247500", "105953.707500", "105954.167500", "105954.627500", "105955.087500", "105955.547500", "105956.007500", "105956.467500", "105956.927500", "105957.387500", "105957.847500", "105958.307500", "105958.767500", "105959.227500", "105959.687500", "110000.147500", "110000.607500", "110001.067500", "110001.527500", "110001.987500", "110002.447500", "110002.907500", "110003.367500", "110003.827500", "110004.287500", "110004.747500", "110005.207500", "110005.667500", "110006.127500", "110006.587500", "110007.047500", "110007.507500", "110007.967500", "110008.427500", "110008.887500", "110009.347500", "110009.807500", "110010.267500", "110010.727500", "110011.187500", "110011.647500", "110012.107500", "110012.567500", "110013.027500", "110013.487500", "110013.947500", "110014.407500", "110014.867500", "110015.327500", "110015.787500", "110016.247500", "110016.707500", "110017.167500", "110017.627500", "110018.087500", "110018.547500", "110019.007500", "110019.467500", "110019.927500", "110020.387500", "110020.847500", "110021.307500", "110021.767500", "110022.227500", "110022.687500", "110023.147500", "110023.607500", "110024.067500", "110024.527500", "110024.987500", "110025.447500", "110025.907500", "110026.367500", "110026.827500", "110027.287500", "110027.747500", "110028.207500", "110028.667500", "110029.127500", "110029.587500", "110030.047500", "110030.507500", "110030.967500", "110031.427500", "110031.887500", "110032.347500", "110032.807500", "110033.267500", "110033.727500", "110034.187500", "110034.647500", "110035.107500", "110035.567500", "110036.027500", "110036.487500", "110036.947500", "110037.407500", "110037.867500", "110038.327500", "110038.787500", "110039.247500", "110039.707500", "110040.167500", "110040.627500", "110041.087500", "110041.547500", "110042.007500", "110042.467500", "110042.927500", "110043.387500", "110043.847500", "110044.307500", "110044.767500", "110045.227500", "110045.687500", "110046.147500", "110046.607500", "110047.067500", "110047.527500", "110047.987500", "110048.447500", "110048.907500", "110049.367500", "110049.827500", "110050.287500", "110050.747500", "110051.207500", "110051.667500", "110052.127500", "110052.587500", "110053.047500", "110053.507500", "110053.967500", "110054.427500", "110054.887500", "110055.347500", "110055.807500", "110056.267500", "110056.727500", "110057.187500", "110057.647500", "110058.107500", "110058.567500", "110059.027500", "110059.487500", "110059.947500", "110100.407500", "110100.867500", "110101.327500", "110101.787500", "110102.247500", "110102.707500", "110103.167500", "110103.627500", "110104.087500", "110104.547500", "110105.007500", "110105.467500", "110105.927500", "110106.387500", "110106.847500", "110107.307500", "110107.767500", "110108.227500", "110108.687500", "110109.147500", "110109.607500", "110110.067500", "110110.527500", "110110.987500", "110111.447500", "110111.907500", "110112.367500", "110112.827500", "110113.287500", "110113.747500", "110114.207500", "110114.667500", "110115.127500", "110115.587500", "110116.047500", "110116.507500", "110116.967500", "110117.427500", "110117.887500", "110118.347500", "110118.807500", "110119.267500", "110119.727500", "110120.187500", "110120.647500", "110121.107500", "110121.567500", "110122.027500", "110122.487500", "110122.947500", "110123.407500", "110123.867500", "110124.327500", "110124.787500", "110125.247500", "110125.707500", "110126.167500", "110126.627500", "110127.087500", "110127.547500", "110128.007500", "110128.467500", "110128.927500", "110129.387500", "110129.847500", "110130.307500", "110130.767500", "110131.227500", "110131.687500", "110132.147500", "110132.607500", "110133.067500", "110133.527500", "110133.987500", "110134.447500", "110134.907500", "110135.367500", "110135.827500", "110136.287500", "110136.747500", "110137.207500", "110137.667500", "110138.127500", "110138.587500", "110139.047500", "110139.507500", "110139.967500", "110140.427500", "110140.887500", "110141.347500", "110141.807500", "110142.267500", "110142.727500", "110143.187500", "110143.647500", "110144.107500", "110144.567500", "110145.027500", "110145.487500", "110145.947500", "110146.407500", "110146.867500", "110147.327500", "110147.787500", "110148.247500", "110148.707500", "110149.167500", "110149.627500", "110150.087500", "110150.547500", "110151.007500", "110151.467500", "110151.927500", "110152.387500", "110152.847500", "110153.307500", "110153.767500", "110154.227500", "110154.687500", "110155.147500", "110155.607500", "110156.067500", "110156.527500", "110156.987500", "110157.447500", "110157.907500", "110158.367500", "110158.827500", "110159.287500", "110159.747500", "110200.207500", "110200.667500", "110201.127500", "110201.587500", "110202.047500", "110202.507500", "110202.967500", "110203.427500", "110203.887500", "110204.347500", "110204.807500", "110205.267500", "110205.727500", "110206.187500", "110206.647500", "110207.107500", "110207.567500", "110208.027500", "110208.487500", "110208.947500", "110209.407500", "110209.867500", "110210.327500", "110210.787500", "110211.247500", "110211.707500", "110212.167500", "110212.627500", "110213.087500", "110213.547500", "110214.007500", "110214.467500", "110214.927500", "110215.387500", "110215.847500", "110216.307500", "110216.767500", "110217.227500", "110217.687500", "110218.147500", "110218.607500", "110219.067500", "110219.527500", "110219.987500", "110220.447500", "110220.907500", "110221.367500", "110221.827500", "110222.287500", "110222.747500", "110223.207500", "110223.667500", "110224.127500", "110224.587500", "110225.047500", "110225.507500", "110225.967500", "110226.427500", "110226.887500", "110227.347500", "110227.807500", "110228.267500", "110228.727500", "110229.187500", "110229.647500", "110230.107500", "110230.567500", "110231.027500", "110231.487500", "110231.947500", "110232.407500", "110232.867500", "110233.327500", "110233.787500", "110234.247500", "110234.707500", "110235.167500", "110235.627500", "110236.087500", "110236.547500", "110237.007500", "110237.467500", "110237.927500", "110238.387500", "110238.847500", "110239.307500", "110239.767500", "110240.227500", "110240.687500", "110241.147500", "110241.607500", "110242.067500", "110242.527500", "110242.987500", "110243.447500", "110243.907500", "110244.367500", "110244.827500", "110245.287500", "110245.747500", "110246.207500", "110246.667500", "110247.127500", "110247.587500", "110248.047500", "110248.507500", "110248.967500", "110249.427500", "110249.887500", "110250.347500", "110250.807500", "110251.267500", "110251.727500", "110252.187500", "110252.647500", "110253.107500", "110253.567500", "110254.027500", "110254.487500", "110254.947500", "110255.407500", "110255.867500", "110256.327500", "110256.787500", "110257.247500", "110257.707500", "110258.167500", "110258.627500", "110259.087500", "110259.547500", "110300.007500", "110300.467500", "110300.927500", "110301.387500", "110301.847500", "110302.307500", "110302.767500", "110303.227500", "110303.687500", "110304.147500", "110304.607500", "110305.067500", "110305.527500", "110305.987500", "110306.447500", "110306.907500", "110307.367500", "110307.827500", "110308.287500", "110308.747500", "110309.207500", "110309.667500", "110310.127500", "110310.587500", "110311.047500", "110311.507500", "110311.967500", "110312.427500", "110312.887500", "110313.347500", "110313.807500", "110314.267500", "110314.727500", "110315.187500", "110315.647500", "110316.107500", "110316.567500", "110317.027500", "110317.487500", "110317.947500", "110318.407500", "110318.867500", "110319.327500", "110319.787500", "110320.247500", "110320.707500", "110321.167500", "110321.627500", "110322.087500", "110322.547500", "110323.007500", "110323.467500", "110323.927500", "110324.387500", "110324.847500", "110325.307500", "110325.767500", "110326.227500", "110326.687500", "110327.147500", "110327.607500", "110328.067500", "110328.527500", "110328.987500", "110329.447500", "110329.907500", "110330.367500", "110330.827500", "110331.287500", "110331.747500", "110332.207500", "110332.667500", "110333.127500", "110333.587500", "110334.047500", "110334.507500", "110334.967500", "110335.427500", "110335.887500", "110336.347500", "110336.807500", "110337.267500", "110337.727500", "110338.187500", "110338.647500", "110339.107500", "110339.567500", "110340.027500", "110340.487500", "110340.947500", "110341.407500", "110341.867500", "110342.327500", "110342.787500", "110343.247500", "110343.707500", "110344.167500", "110344.627500", "110345.087500", "110345.547500", "110346.007500", "110346.467500", "110346.927500", "110347.387500", "110347.847500", "110348.307500", "110348.767500", "110349.227500", "110349.687500", "110350.147500", "110350.607500", "110351.067500", "110351.527500", "110351.987500", "110352.447500", "110352.907500", "110353.367500", "110353.827500", "110354.287500", "110354.747500", "110355.207500", "110355.667500", "110356.127500", "110356.587500", "110357.047500", "110357.507500", "110357.967500", "110358.427500", "110358.887500", "110359.347500", "110359.807500", "110400.267500", "110400.727500", "110401.187500", "110401.647500", "110402.107500", "110402.567500", "110403.027500", "110403.487500", "110403.947500", "110404.407500", "110404.867500", "110405.327500", "110405.787500", "110406.247500", "110406.707500", "110407.167500", "110407.627500", "110408.087500", "110408.547500", "110409.007500", "110409.467500", "110409.927500", "110410.387500", "110410.847500", "110411.307500", "110411.767500", "110412.227500", "110412.687500", "110413.147500", "110413.607500", "110414.067500", "110414.527500", "110414.987500", "110415.447500", "110415.907500", "110416.367500", "110416.827500", "110417.287500", "110417.747500", "110418.207500", "110418.667500", "110419.127500", "110419.587500", "110420.047500", "110420.507500", "110420.967500", "110421.427500", "110421.887500", "110422.347500", "110422.807500", "110423.267500", "110423.727500", "110424.187500", "110424.647500", "110425.107500", "110425.567500", "110426.027500", "110426.487500", "110426.947500", "110427.407500", "110427.867500", "110428.327500", "110428.787500", "110429.247500", "110429.707500", "110430.167500", "110430.627500", "110431.087500", "110431.547500", "110432.007500", "110432.467500", "110432.927500", "110433.387500", "110433.847500", "110434.307500", "110434.767500", "110435.227500", "110435.687500", "110436.147500", "110436.607500", "110437.067500", "110437.527500", "110437.987500", "110438.447500", "110438.907500", "110439.367500", "110439.827500", "110440.287500", "110440.747500", "110441.207500", "110441.667500", "110442.127500", "110442.587500", "110443.047500", "110443.507500", "110443.967500", "110444.427500", "110444.887500", "110445.347500", "110445.807500", "110446.267500", "110446.727500", "110447.187500", "110447.647500", "110448.107500", "110448.567500", "110449.027500", "110449.487500", "110449.947500", "110450.407500", "110450.867500", "110451.327500", "110451.787500", "110452.247500", "110452.707500", "110453.167500", "110453.627500", "110454.087500", "110454.547500", "110455.007500", "110455.467500", "110455.927500", "110456.387500", "110456.847500", "110457.307500", "110457.767500", "110458.227500", "110458.687500", "110459.147500", "110459.607500", "110500.067500", "110500.527500", "110500.987500", "110501.447500", "110501.907500", "110502.367500", "110502.827500", "110503.287500", "110503.747500", "110504.207500", "110504.667500", "110505.127500", "110505.587500", "110506.047500", "110506.507500", "110506.967500", "110507.427500", "110507.887500", "110508.347500", "110508.807500", "110509.267500", "110509.727500", "110510.187500", "110510.647500", "110511.107500", "110511.567500", "110512.027500", "110512.487500", "110512.947500", "110513.407500", "110513.867500", "110514.327500", "110514.787500", "110515.247500", "110515.707500", "110516.167500", "110516.627500", "110517.087500", "110517.547500", "110518.007500", "110518.467500", "110518.927500", "110519.387500", "110519.847500", "110520.307500", "110520.767500", "110521.227500", "110521.687500", "110522.147500", "110522.607500", "110523.067500", "110523.527500", "110523.987500", "110524.447500", "110524.907500", "110525.367500", "110525.827500", "110526.287500", "110526.747500", "110527.207500", "110527.667500", "110528.127500", "110528.587500", "110529.047500", "110529.507500", "110529.967500", "110530.427500", "110530.887500", "110531.347500", "110531.807500", "110532.267500", "110532.727500", "110533.187500", "110533.647500", "110534.107500", "110534.567500", "110535.027500", "110535.487500", "110535.947500", "110536.407500", "110536.867500", "110537.327500", "110537.787500", "110538.247500", "110538.707500", "110539.167500", "110539.627500", "110540.087500", "110540.547500", "110541.007500", "110541.467500", "110541.927500", "110542.387500", "110542.847500", "110543.307500", "110543.767500", "110544.227500", "110544.687500", "110545.147500", "110545.607500", "110546.067500", "110546.527500", "110546.987500", "110547.447500", "110547.907500", "110548.367500", "110548.827500", "110549.287500", "110549.747500", "110550.207500", "110550.667500", "110551.127500", "110551.587500", "110552.047500", "110552.507500", "110552.967500", "110553.427500", "110553.887500", "110554.347500", "110554.807500", "110555.267500", "110555.727500", "110556.187500", "110556.647500", "110557.107500", "110557.567500", "110558.027500", "110558.487500", "110558.947500", "110559.407500", "110559.867500", "110600.327500", "110600.787500", "110601.247500", "110601.707500", "110602.167500", "110602.627500", "110603.087500", "110603.547500", "110604.007500", "110604.467500", "110604.927500", "110605.387500", "110605.847500", "110606.307500", "110606.767500", "110607.227500", "110607.687500", "110608.147500", "110608.607500", "110609.067500", "110609.527500", "110609.987500", "110610.447500", "110610.907500", "110611.367500", "110611.827500", "110612.287500", "110612.747500", "110613.207500", "110613.667500", "110614.127500", "110614.587500", "110615.047500", "110615.507500", "110615.967500", "110616.427500", "110616.887500", "110617.347500", "110617.807500", "110618.267500", "110618.727500", "110619.187500", "110619.647500", "110620.107500", "110620.567500", "110621.027500", "110621.487500", "110621.947500", "110622.407500", "110622.867500", "110623.327500", "110623.787500", "110624.247500", "110624.707500", "110625.167500", "110625.627500", "110626.087500", "110626.547500", "110627.007500", "110627.467500", "110627.927500", "110628.387500", "110628.847500", "110629.307500", "110629.767500", "110630.227500", "110630.687500", "110631.147500", "110631.607500", "110632.067500", "110632.527500", "110632.987500", "110633.447500", "110633.907500", "110634.367500", "110634.827500", "110635.287500", "110635.747500", "110636.207500", "110636.667500", "110637.127500", "110637.587500", "110638.047500", "110638.507500", "110638.967500", "110639.427500", "110639.887500"],
