{
  "AcquisitionMatrixPE": 82,
  "AcquisitionNumber": 1,
  "AcquisitionTime": "11:44:15.295000",
  "BandwidthPerPixelPhaseEncode": 24.888,
  "BaseResolution": 82,
  "BodyPartExamined": "BRAIN",
  "ConsistencyInfo": "N4_VE11E_LATEST_20181129",
  "ConversionSoftware": "dcm2niix",
  "ConversionSoftwareVersion": "v1.0.20201102",
  "DerivedVendorReportedEchoSpacing": 0.00049,
  "DeviceSerialNumber": "66112",
  "DwellTime": 2e-06,
  "EchoTime": 0.0272,
  "EchoTrainLength": 82,
  "EffectiveEchoSpacing": 0.00049,
  "FlipAngle": 44,
  "ImageComments": "Unaliased MB8/PE3",
  "ImageOrientationPatientDICOM": [0.999683, -0.0220464, 0.0121714, 0.0225114, 0.998966, -0.0394924],
  "ImageType": [
    "ORIGINAL",
    "PRIMARY",
    "M",
    "MB",
    "ND",
    "NORM",
    "MOSAIC"
],
  "ImagingFrequency": 123.252,
  "InPlanePhaseEncodingDirectionDICOM": "COL",
  "InstitutionAddress": "Maynard 3,Hanover,NH,US,03755",
  "InstitutionName": "Dartmouth College - PBS",
  "InstitutionalDepartmentName": "Department",
  "MRAcquisitionType": "2D",
  "MagneticFieldStrength": 3,
  "Manufacturer": "Siemens",
  "ManufacturersModelName": "Prisma",
  "Modality": "MR",
  "MultibandAccelerationFactor": 8,
  "PartialFourier": 1,
  "PatientPosition": "HFS",
  "PercentPhaseFOV": 100,
  "PercentSampling": 100,
  "PhaseEncodingDirection": "j-",
  "PhaseEncodingSteps": 82,
  "PhaseResolution": 1,
  "PixelBandwidth": 3050,
  "ProcedureStepDescription": "Wager_Wager^1076_spacetop",
  "ProtocolName": "func_run-02_task-faces_acq-ap-mb8",
  "PulseSequenceDetails": "%CustomerSeq%\\cmrr_mbep2d_bold",
  "ReceiveCoilActiveElements": "HEA;HEP",
  "ReceiveCoilName": "Head_32",
  "ReconMatrixPE": 82,
  "RepetitionTime": 0.46,
  "SAR": 0.10782,
  "ScanOptions": "FS",
  "ScanningSequence": "EP",
  "SequenceName": "epfid2d1_82",
  "SequenceVariant": "SK\\SS",
  "SeriesDescription": "func_run-02_task-faces_acq-ap-mb8",
  "SeriesNumber": 20,
  "ShimSetting": [4143, -7719, -7296, 480, -76, -132, -33, 72],
  "SliceThickness": 2.7,
  "SliceTiming": [0, 0.25, 0.0625, 0.3125, 0.125, 0.3775, 0.1875, 0, 0.25, 0.0625, 0.3125, 0.125, 0.3775, 0.1875, 0, 0.25, 0.0625, 0.3125, 0.125, 0.3775, 0.1875, 0, 0.25, 0.0625, 0.3125, 0.125, 0.3775, 0.1875, 0, 0.25, 0.0625, 0.3125, 0.125, 0.3775, 0.1875, 0, 0.25, 0.0625, 0.3125, 0.125, 0.3775, 0.1875, 0, 0.25, 0.0625, 0.3125, 0.125, 0.3775, 0.1875, 0, 0.25, 0.0625, 0.3125, 0.125, 0.3775, 0.1875],
  "SoftwareVersions": "syngo MR E11",
  "SpacingBetweenSlices": 2.7,
  "StationName": "AWP66112",
  "TaskName": "faces",
  "TotalReadoutTime": 0.03969,
  "TxRefAmp": 273.474,
  "WipMemBlock": "f04f5680-968a-49cc-b626-ccf323eb3715||Sequence: R016 ve11e/master r/434b28f1; Aug  7 2019 18:53:46 by eja",
  "dcmmeta_affine": [
    [-2.6820759773254395, 0.060396526008844376, 0.030478093773126602, 105.29087829589844],
    [0.059148889034986496, 2.6801533699035645, -0.10733535140752792, -92.33726501464844],
    [0.032655056565999985, 0.10595512390136719, 2.6976935863494873, -64.97203063964844],
    [0.0, 0.0, 0.0, 1.0]
],
  "dcmmeta_reorient_transform": [
    [0.0, -1.0, 0.0, 81.0],
    [1.0, 0.0, 0.0, 0.0],
    [0.0, 0.0, 1.0, 0.0],
    [0.0, 0.0, 0.0, 1.0]
],
  "dcmmeta_shape": [82, 82, 56, 914],
  "dcmmeta_slice_dim": 2,
  "dcmmeta_version": 0.6,
  "global": {
    "const": {
      "AccessionNumber": "A003941",
      "AcquisitionMatrix": [82, 0, 0, 82],
      "AngioFlag": "N",
      "BitsAllocated": 16,
      "BitsStored": 16,
      "BodyPartExamined": "BRAIN",
      "Columns": 656,
      "EchoNumbers": 1,
      "EchoTime": 27.2,
      "EchoTrainLength": 82,
      "FlipAngle": 44.0,
      "HighBit": 15,
      "ImageOrientationPatient": [0.99968285589601, -0.0220464039463, 0.01217142968737, 0.02251143158156, 0.99896626005932, -0.0394923626951],
      "ImagePositionPatient": [-897.27262021258, -876.98347352079, -35.352548320201],
      "ImageType": [
        "ORIGINAL",
        "PRIMARY",
        "M",
        "MB",
        "ND",
        "NORM",
        "MOSAIC"
],
      "ImagedNucleus": "1H",
      "ImagingFrequency": 123.252176,
      "InPlanePhaseEncodingDirection": "COL",
      "MRAcquisitionType": "2D",
      "MagneticFieldStrength": 3.0,
      "Manufacturer": "SIEMENS",
      "ManufacturerModelName": "Prisma",
      "Modality": "MR",
      "NumberOfAverages": 1.0,
      "NumberOfPhaseEncodingSteps": 82,
      "PercentPhaseFieldOfView": 100.0,
      "PercentSampling": 100.0,
      "PerformedProcedureStepStartTime": "103330.940000",
      "PhotometricInterpretation": "MONOCHROME2",
      "PixelBandwidth": 3050.0,
      "PixelRepresentation": 0,
      "PixelSpacing": [2.6829268932343, 2.6829268932343],
      "ProtocolName": "func_run-02_task-faces_acq-ap-mb8",
      "RepetitionTime": 460.0,
      "Rows": 656,
      "SAR": 0.10781990359074,
      "SamplesPerPixel": 1,
      "ScanOptions": "FS",
      "ScanningSequence": "EP",
      "SequenceName": "epfid2d1_82",
      "SequenceVariant": [
        "SK",
        "SS"
],
      "SeriesDescription": "func_run-02_task-faces_acq-ap-mb8",
      "SeriesNumber": 20,
      "SeriesTime": "114443.824000",
      "SliceLocation": -60.0572261295,
      "SliceThickness": 2.7000000476837,
      "SmallestImagePixelValue": 0,
      "SoftwareVersions": "syngo MR E11",
      "SpacingBetweenSlices": 2.6999999974685,
      "SpecificCharacterSet": "ISO_IR 100",
      "StudyID": "2",
      "StudyTime": "103330.885000",
      "TransmitCoilName": "Body",
      "VariableFlipAngleFlag": "N",
      "WindowCenterWidthExplanation": "Algo1"
    },
    "slices": {}
  },
  "time": {
    "samples": {
      "AcquisitionNumber": [1, 2, 3, 4, 5, 6, 7, 8, 9, 10, 11, 12, 13, 14, 15, 16, 17, 18, 19, 20, 21, 22, 23, 24, 25, 26, 27, 28, 29, 30, 31, 32, 33, 34, 35, 36, 37, 38, 39, 40, 41, 42, 43, 44, 45, 46, 47, 48, 49, 50, 51, 52, 53, 54, 55, 56, 57, 58, 59, 60, 61, 62, 63, 64, 65, 66, 67, 68, 69, 70, 71, 72, 73, 74, 75, 76, 77, 78, 79, 80, 81, 82, 83, 84, 85, 86, 87, 88, 89, 90, 91, 92, 93, 94, 95, 96, 97, 98, 99, 100, 101, 102, 103, 104, 105, 106, 107, 108, 109, 110, 111, 112, 113, 114, 115, 116, 117, 118, 119, 120, 121, 122, 123, 124, 125, 126, 127, 128, 129, 130, 131, 132, 133, 134, 135, 136, 137, 138, 139, 140, 141, 142, 143, 144, 145, 146, 147, 148, 149, 150, 151, 152, 153, 154, 155, 156, 157, 158, 159, 160, 161, 162, 163, 164, 165, 166, 167, 168, 169, 170, 171, 172, 173, 174, 175, 176, 177, 178, 179, 180, 181, 182, 183, 184, 185, 186, 187, 188, 189, 190, 191, 192, 193, 194, 195, 196, 197, 198, 199, 200, 201, 202, 203, 204, 205, 206, 207, 208, 209, 210, 211, 212, 213, 214, 215, 216, 217, 218, 219, 220, 221, 222, 223, 224, 225, 226, 227, 228, 229, 230, 231, 232, 233, 234, 235, 236, 237, 238, 239, 240, 241, 242, 243, 244, 245, 246, 247, 248, 249, 250, 251, 252, 253, 254, 255, 256, 257, 258, 259, 260, 261, 262, 263, 264, 265, 266, 267, 268, 269, 270, 271, 272, 273, 274, 275, 276, 277, 278, 279, 280, 281, 282, 283, 284, 285, 286, 287, 288, 289, 290, 291, 292, 293, 294, 295, 296, 297, 298, 299, 300, 301, 302, 303, 304, 305, 306, 307, 308, 309, 310, 311, 312, 313, 314, 315, 316, 317, 318, 319, 320, 321, 322, 323, 324, 325, 326, 327, 328, 329, 330, 331, 332, 333, 334, 335, 336, 337, 338, 339, 340, 341, 342, 343, 344, 345, 346, 347, 348, 349, 350, 351, 352, 353, 354, 355, 356, 357, 358, 359, 360, 361, 362, 363, 364, 365, 366, 367, 368, 369, 370, 371, 372, 373, 374, 375, 376, 377, 378, 379, 380, 381, 382, 383, 384, 385, 386, 387, 388, 389, 390, 391, 392, 393, 394, 395, 396, 397, 398, 399, 400, 401, 402, 403, 404, 405, 406, 407, 408, 409, 410, 411, 412, 413, 414, 415, 416, 417, 418, 419, 420, 421, 422, 423, 424, 425, 426, 427, 428, 429, 430, 431, 432, 433, 434, 435, 436, 437, 438, 439, 440, 441, 442, 443, 444, 445, 446, 447, 448, 449, 450, 451, 452, 453, 454, 455, 456, 457, 458, 459, 460, 461, 462, 463, 464, 465, 466, 467, 468, 469, 470, 471, 472, 473, 474, 475, 476, 477, 478, 479, 480, 481, 482, 483, 484, 485, 486, 487, 488, 489, 490, 491, 492, 493, 494, 495, 496, 497, 498, 499, 500, 501, 502, 503, 504, 505, 506, 507, 508, 509, 510, 511, 512, 513, 514, 515, 516, 517, 518, 519, 520, 521, 522, 523, 524, 525, 526, 527, 528, 529, 530, 531, 532, 533, 534, 535, 536, 537, 538, 539, 540, 541, 542, 543, 544, 545, 546, 547, 548, 549, 550, 551, 552, 553, 554, 555, 556, 557, 558, 559, 560, 561, 562, 563, 564, 565, 566, 567, 568, 569, 570, 571, 572, 573, 574, 575, 576, 577, 578, 579, 580, 581, 582, 583, 584, 585, 586, 587, 588, 589, 590, 591, 592, 593, 594, 595, 596, 597, 598, 599, 600, 601, 602, 603, 604, 605, 606, 607, 608, 609, 610, 611, 612, 613, 614, 615, 616, 617, 618, 619, 620, 621, 622, 623, 624, 625, 626, 627, 628, 629, 630, 631, 632, 633, 634, 635, 636, 637, 638, 639, 640, 641, 642, 643, 644, 645, 646, 647, 648, 649, 650, 651, 652, 653, 654, 655, 656, 657, 658, 659, 660, 661, 662, 663, 664, 665, 666, 667, 668, 669, 670, 671, 672, 673, 674, 675, 676, 677, 678, 679, 680, 681, 682, 683, 684, 685, 686, 687, 688, 689, 690, 691, 692, 693, 694, 695, 696, 697, 698, 699, 700, 701, 702, 703, 704, 705, 706, 707, 708, 709, 710, 711, 712, 713, 714, 715, 716, 717, 718, 719, 720, 721, 722, 723, 724, 725, 726, 727, 728, 729, 730, 731, 732, 733, 734, 735, 736, 737, 738, 739, 740, 741, 742, 743, 744, 745, 746, 747, 748, 749, 750, 751, 752, 753, 754, 755, 756, 757, 758, 759, 760, 761, 762, 763, 764, 765, 766, 767, 768, 769, 770, 771, 772, 773, 774, 775, 776, 777, 778, 779, 780, 781, 782, 783, 784, 785, 786, 787, 788, 789, 790, 791, 792, 793, 794, 795, 796, 797, 798, 799, 800, 801, 802, 803, 804, 805, 806, 807, 808, 809, 810, 811, 812, 813, 814, 815, 816, 817, 818, 819, 820, 821, 822, 823, 824, 825, 826, 827, 828, 829, 830, 831, 832, 833, 834, 835, 836, 837, 838, 839, 840, 841, 842, 843, 844, 845, 846, 847, 848, 849, 850, 851, 852, 853, 854, 855, 856, 857, 858, 859, 860, 861, 862, 863, 864, 865, 866, 867, 868, 869, 870, 871, 872, 873, 874, 875, 876, 877, 878, 879, 880, 881, 882, 883, 884, 885, 886, 887, 888, 889, 890, 891, 892, 893, 894, 895, 896, 897, 898, 899, 900, 901, 902, 903, 904, 905, 906, 907, 908, 909, 910, 911, 912, 913, 914],
      "AcquisitionTime": ["114415.295000", "114415.755000", "114416.215000", "114416.675000", "114417.135000", "114417.595000", "114418.055000", "114418.515000", "114418.975000", "114419.435000", "114419.895000", "114420.355000", "114420.815000", "114421.275000", "114421.735000", "114422.195000", "114422.655000", "114423.115000", "114423.575000", "114424.035000", "114424.495000", "114424.955000", "114425.415000", "114425.875000", "114426.335000", "114426.795000", "114427.255000", "114427.715000", "114428.175000", "114428.635000", "114429.095000", "114429.555000", "114430.015000", "114430.475000", "114430.935000", "114431.395000", "114431.855000", "114432.315000", "114432.775000", "114433.235000", "114433.695000", "114434.155000", "114434.615000", "114435.075000", "114435.535000", "114435.995000", "114436.455000", "114436.915000", "114437.375000", "114437.835000", "114438.295000", "114438.755000", "114439.215000", "114439.675000", "114440.135000", "114440.595000", "114441.055000", "114441.515000", "114441.975000", "114442.435000", "114442.895000", "114443.355000", "114443.815000", "114444.275000", "114444.735000", "114445.195000", "114445.655000", "114446.115000", "114446.575000", "114447.035000", "114447.495000", "114447.955000", "114448.415000", "114448.875000", "114449.335000", "114449.795000", "114450.255000", "114450.715000", "114451.175000", "114451.635000", "114452.095000", "114452.555000", "114453.015000", "114453.475000", "114453.935000", "114454.395000", "114454.855000", "114455.315000", "114455.775000", "114456.235000", "114456.695000", "114457.155000", "114457.615000", "114458.075000", "114458.535000", "114458.995000", "114459.455000", "114459.915000", "114500.375000", "114500.835000", "114501.295000", "114501.755000", "114502.215000", "114502.675000", "114503.135000", "114503.595000", "114504.055000", "114504.515000", "114504.975000", "114505.435000", "114505.895000", "114506.355000", "114506.815000", "114507.275000", "114507.735000", "114508.195000", "114508.655000", "114509.115000", "114509.575000", "114510.035000", "114510.495000", "114510.955000", "114511.415000", "114511.875000", "114512.335000", "114512.795000", "114513.255000", "114513.715000", "114514.175000", "114514.635000", "114515.095000", "114515.555000", "114516.015000", "114516.475000", "114516.935000", "114517.395000", "114517.855000", "114518.315000", "114518.775000", "114519.235000", "114519.695000", "114520.155000", "114520.615000", "114521.075000", "114521.535000", "114521.995000", "114522.455000", "114522.915000", "114523.375000", "114523.835000", "114524.295000", "114524.755000", "114525.215000", "114525.675000", "114526.135000", "114526.595000", "114527.055000", "114527.515000", "114527.975000", "114528.435000", "114528.895000", "114529.355000", "114529.815000", "114530.275000", "114530.735000", "114531.195000", "114531.655000", "114532.115000", "114532.575000", "114533.035000", "114533.495000", "114533.955000", "114534.415000", "114534.875000", "114535.335000", "114535.795000", "114536.255000", "114536.715000", "114537.175000", "114537.635000", "114538.095000", "114538.555000", "114539.015000", "114539.475000", "114539.935000", "114540.395000", "114540.855000", "114541.315000", "114541.775000", "114542.235000", "114542.695000", "114543.155000", "114543.615000", "114544.075000", "114544.535000", "114544.995000", "114545.455000", "114545.915000", "114546.375000", "114546.835000", "114547.295000", "114547.755000", "114548.215000", "114548.675000", "114549.135000", "114549.595000", "114550.055000", "114550.515000", "114550.975000", "114551.435000", "114551.895000", "114552.355000", "114552.815000", "114553.275000", "114553.735000", "114554.195000", "114554.655000", "114555.115000", "114555.575000", "114556.035000", "114556.495000", "114556.955000", "114557.415000", "114557.875000", "114558.335000", "114558.795000", "114559.255000", "114559.715000", "114600.175000", "114600.635000", "114601.095000", "114601.555000", "114602.015000", "114602.475000", "114602.935000", "114603.395000", "114603.855000", "114604.315000", "114604.775000", "114605.235000", "114605.695000", "114606.155000", "114606.615000", "114607.075000", "114607.535000", "114607.995000", "114608.455000", "114608.915000", "114609.375000", "114609.835000", "114610.295000", "114610.755000", "114611.215000", "114611.675000", "114612.135000", "114612.595000", "114613.055000", "114613.515000", "114613.975000", "114614.435000", "114614.895000", "114615.355000", "114615.815000", "114616.275000", "114616.735000", "114617.195000", "114617.655000", "114618.115000", "114618.575000", "114619.035000", "114619.495000", "114619.955000", "114620.415000", "114620.875000", "114621.335000", "114621.795000", "114622.255000", "114622.715000", "114623.175000", "114623.635000", "114624.095000", "114624.555000", "114625.015000", "114625.475000", "114625.935000", "114626.395000", "114626.855000", "114627.315000", "114627.775000", "114628.235000", "114628.695000", "114629.155000", "114629.615000", "114630.075000", "114630.535000", "114630.995000", "114631.455000", "114631.915000", "114632.375000", "114632.835000", "114633.295000", "114633.755000", "114634.215000", "114634.675000", "114635.135000", "114635.595000", "114636.055000", "114636.515000", "114636.975000", "114637.435000", "114637.895000", "114638.355000", "114638.815000", "114639.275000", "114639.735000", "114640.195000", "114640.655000", "114641.115000", "114641.575000", "114642.035000", "114642.495000", "114642.955000", "114643.415000", "114643.875000", "114644.335000", "114644.795000", "114645.255000", "114645.715000", "114646.175000", "114646.635000", "114647.095000", "114647.555000", "114648.015000", "114648.475000", "114648.935000", "114649.395000", "114649.855000", "114650.315000", "114650.775000", "114651.235000", "114651.695000", "114652.155000", "114652.615000", "114653.075000", "114653.535000", "114653.995000", "114654.455000", "114654.915000", "114655.375000", "114655.835000", "114656.295000", "114656.755000", "114657.215000", "114657.675000", "114658.135000", "114658.595000", "114659.055000", "114659.515000", "114659.975000", "114700.435000", "114700.895000", "114701.355000", "114701.815000", "114702.275000", "114702.735000", "114703.195000", "114703.655000", "114704.115000", "114704.575000", "114705.035000", "114705.495000", "114705.955000", "114706.415000", "114706.875000", "114707.335000", "114707.795000", "114708.255000", "114708.715000", "114709.175000", "114709.635000", "114710.095000", "114710.555000", "114711.015000", "114711.475000", "114711.935000", "114712.395000", "114712.855000", "114713.315000", "114713.775000", "114714.235000", "114714.695000", "114715.155000", "114715.615000", "114716.075000", "114716.535000", "114716.995000", "114717.455000", "114717.915000", "114718.375000", "114718.835000", "114719.295000", "114719.755000", "114720.215000", "114720.675000", "114721.135000", "114721.595000", "114722.055000", "114722.515000", "114722.975000", "114723.435000", "114723.895000", "114724.355000", "114724.815000", "114725.275000", "114725.735000", "114726.195000", "114726.655000", "114727.115000", "114727.575000", "114728.035000", "114728.495000", "114728.955000", "114729.415000", "114729.875000", "114730.335000", "114730.795000", "114731.255000", "114731.715000", "114732.175000", "114732.635000", "114733.095000", "114733.555000", "114734.015000", "114734.475000", "114734.935000", "114735.395000", "114735.855000", "114736.315000", "114736.775000", "114737.235000", "114737.695000", "114738.155000", "114738.615000", "114739.075000", "114739.535000", "114739.995000", "114740.455000", "114740.915000", "114741.375000", "114741.835000", "114742.295000", "114742.755000", "114743.215000", "114743.675000", "114744.135000", "114744.595000", "114745.055000", "114745.515000", "114745.975000", "114746.435000", "114746.895000", "114747.355000", "114747.815000", "114748.275000", "114748.735000", "114749.195000", "114749.655000", "114750.115000", "114750.575000", "114751.035000", "114751.495000", "114751.955000", "114752.415000", "114752.875000", "114753.335000", "114753.795000", "114754.255000", "114754.715000", "114755.175000", "114755.635000", "114756.095000", "114756.555000", "114757.015000", "114757.475000", "114757.935000", "114758.395000", "114758.855000", "114759.315000", "114759.775000", "114800.235000", "114800.695000", "114801.155000", "114801.615000", "114802.075000", "114802.535000", "114802.995000", "114803.455000", "114803.915000", "114804.375000", "114804.835000", "114805.295000", "114805.755000", "114806.215000", "114806.675000", "114807.135000", "114807.595000", "114808.055000", "114808.515000", "114808.975000", "114809.435000", "114809.895000", "114810.355000", "114810.815000", "114811.275000", "114811.735000", "114812.195000", "114812.655000", "114813.115000", "114813.575000", "114814.035000", "114814.495000", "114814.955000", "114815.415000", "114815.875000", "114816.335000", "114816.795000", "114817.255000", "114817.715000", "114818.175000", "114818.635000", "114819.095000", "114819.555000", "114820.015000", "114820.475000", "114820.935000", "114821.395000", "114821.855000", "114822.315000", "114822.775000", "114823.235000", "114823.695000", "114824.155000", "114824.615000", "114825.075000", "114825.535000", "114825.995000", "114826.455000", "114826.915000", "114827.375000", "114827.835000", "114828.295000", "114828.755000", "114829.215000", "114829.675000", "114830.135000", "114830.595000", "114831.055000", "114831.515000", "114831.975000", "114832.435000", "114832.895000", "114833.355000", "114833.815000", "114834.275000", "114834.735000", "114835.195000", "114835.655000", "114836.115000", "114836.575000", "114837.035000", "114837.495000", "114837.955000", "114838.415000", "114838.875000", "114839.335000", "114839.795000", "114840.255000", "114840.715000", "114841.175000", "114841.635000", "114842.095000", "114842.555000", "114843.015000", "114843.475000", "114843.935000", "114844.395000", "114844.855000", "114845.315000", "114845.775000", "114846.235000", "114846.695000", "114847.155000", "114847.615000", "114848.075000", "114848.535000", "114848.995000", "114849.455000", "114849.915000", "114850.375000", "114850.835000", "114851.295000", "114851.755000", "114852.215000", "114852.675000", "114853.135000", "114853.595000", "114854.055000", "114854.515000", "114854.975000", "114855.435000", "114855.895000", "114856.355000", "114856.815000", "114857.275000", "114857.735000", "114858.195000", "114858.655000", "114859.115000", "114859.575000", "114900.035000", "114900.495000", "114900.955000", "114901.415000", "114901.875000", "114902.335000", "114902.795000", "114903.255000", "114903.715000", "114904.175000", "114904.635000", "114905.095000", "114905.555000", "114906.015000", "114906.475000", "114906.935000", "114907.395000", "114907.855000", "114908.315000", "114908.775000", "114909.235000", "114909.695000", "114910.155000", "114910.615000", "114911.075000", "114911.535000", "114911.995000", "114912.455000", "114912.915000", "114913.375000", "114913.835000", "114914.295000", "114914.755000", "114915.215000", "114915.675000", "114916.135000", "114916.595000", "114917.055000", "114917.515000", "114917.975000", "114918.435000", "114918.895000", "114919.355000", "114919.815000", "114920.275000", "114920.735000", "114921.195000", "114921.655000", "114922.115000", "114922.575000", "114923.035000", "114923.495000", "114923.955000", "114924.415000", "114924.875000", "114925.335000", "114925.795000", "114926.255000", "114926.715000", "114927.175000", "114927.635000", "114928.095000", "114928.555000", "114929.015000", "114929.475000", "114929.935000", "114930.395000", "114930.855000", "114931.315000", "114931.775000", "114932.235000", "114932.695000", "114933.155000", "114933.615000", "114934.075000", "114934.535000", "114934.995000", "114935.455000", "114935.915000", "114936.375000", "114936.835000", "114937.295000", "114937.755000", "114938.215000", "114938.675000", "114939.135000", "114939.595000", "114940.055000", "114940.515000", "114940.975000", "114941.435000", "114941.895000", "114942.355000", "114942.815000", "114943.275000", "114943.735000", "114944.195000", "114944.655000", "114945.115000", "114945.575000", "114946.035000", "114946.495000", "114946.955000", "114947.415000", "114947.875000", "114948.335000", "114948.795000", "114949.255000", "114949.715000", "114950.175000", "114950.635000", "114951.095000", "114951.555000", "114952.015000", "114952.475000", "114952.935000", "114953.395000", "114953.855000", "114954.315000", "114954.775000", "114955.235000", "114955.695000", "114956.155000", "114956.615000", "114957.075000", "114957.535000", "114957.995000", "114958.455000", "114958.915000", "114959.375000", "114959.835000", "115000.295000", "115000.755000", "115001.215000", "115001.675000", "115002.135000", "115002.595000", "115003.055000", "115003.515000", "115003.975000", "115004.435000", "115004.895000", "115005.355000", "115005.815000", "115006.275000", "115006.735000", "115007.195000", "115007.655000", "115008.115000", "115008.575000", "115009.035000", "115009.495000", "115009.955000", "115010.415000", "115010.875000", "115011.335000", "115011.795000", "115012.255000", "115012.715000", "115013.175000", "115013.635000", "115014.095000", "115014.555000", "115015.015000", "115015.475000", "115015.935000", "115016.395000", "115016.855000", "115017.315000", "115017.775000", "115018.235000", "115018.695000", "115019.155000", "115019.615000", "115020.075000", "115020.535000", "115020.995000", "115021.455000", "115021.915000", "115022.375000", "115022.835000", "115023.295000", "115023.755000", "115024.215000", "115024.675000", "115025.135000", "115025.595000", "115026.055000", "115026.515000", "115026.975000", "115027.435000", "115027.895000", "115028.355000", "115028.815000", "115029.275000", "115029.735000", "115030.195000", "115030.655000", "115031.115000", "115031.575000", "115032.035000", "115032.495000", "115032.955000", "115033.415000", "115033.875000", "115034.335000", "115034.795000", "115035.255000", "115035.715000", "115036.175000", "115036.635000", "115037.095000", "115037.555000", "115038.015000", "115038.475000", "115038.935000", "115039.395000", "115039.855000", "115040.315000", "115040.775000", "115041.235000", "115041.695000", "115042.155000", "115042.615000", "115043.075000", "115043.535000", "115043.995000", "115044.455000", "115044.915000", "115045.375000", "115045.835000", "115046.295000", "115046.755000", "115047.215000", "115047.675000", "115048.135000", "115048.595000", "115049.055000", "115049.515000", "115049.975000", "115050.435000", "115050.895000", "115051.355000", "115051.815000", "115052.275000", "115052.735000", "115053.195000", "115053.655000", "115054.115000", "115054.575000", "115055.035000", "115055.495000", "115055.955000", "115056.415000", "115056.875000", "115057.335000", "115057.795000", "115058.255000", "115058.715000", "115059.175000", "115059.635000", "115100.095000", "115100.555000", "115101.015000", "115101.475000", "115101.935000", "115102.395000", "115102.855000", "115103.315000", "115103.775000", "115104.235000", "115104.695000", "115105.155000", "115105.615000", "115106.075000", "115106.535000", "115106.995000", "115107.455000", "115107.915000", "115108.375000", "115108.835000", "115109.295000", "115109.755000", "115110.215000", "115110.675000", "115111.135000", "115111.595000", "115112.055000", "115112.515000", "115112.975000", "115113.435000", "115113.895000", "115114.355000", "115114.815000", "115115.275000"],
