{
  "AcquisitionMatrixPE": 82,
  "AcquisitionNumber": 1,
  "AcquisitionTime": "11:36:53.012500",
  "BandwidthPerPixelPhaseEncode": 24.888,
  "BaseResolution": 82,
  "BodyPartExamined": "BRAIN",
  "ConsistencyInfo": "N4_VE11E_LATEST_20181129",
  "ConversionSoftware": "dcm2niix",
  "ConversionSoftwareVersion": "v1.0.20201102",
  "DerivedVendorReportedEchoSpacing": 0.00049,
  "DeviceSerialNumber": "66112",
  "DwellTime": 2e-06,
  "EchoTime": 0.0272,
  "EchoTrainLength": 82,
  "EffectiveEchoSpacing": 0.00049,
  "FlipAngle": 44,
  "ImageComments": "Unaliased MB8/PE3",
  "ImageOrientationPatientDICOM": [0.999683, -0.0220464, 0.0121714, 0.0225114, 0.998966, -0.0394924],
  "ImageType": [
    "ORIGINAL",
    "PRIMARY",
    "M",
    "MB",
    "ND",
    "NORM",
    "MOSAIC"
],
  "ImagingFrequency": 123.252,
  "InPlanePhaseEncodingDirectionDICOM": "COL",
  "InstitutionAddress": "Maynard 3,Hanover,NH,US,03755",
  "InstitutionName": "Dartmouth College - PBS",
  "InstitutionalDepartmentName": "Department",
  "MRAcquisitionType": "2D",
  "MagneticFieldStrength": 3,
  "Manufacturer": "Siemens",
  "ManufacturersModelName": "Prisma",
  "Modality": "MR",
  "MultibandAccelerationFactor": 8,
  "PartialFourier": 1,
  "PatientPosition": "HFS",
  "PercentPhaseFOV": 100,
  "PercentSampling": 100,
  "PhaseEncodingDirection": "j-",
  "PhaseEncodingSteps": 82,
  "PhaseResolution": 1,
  "PixelBandwidth": 3050,
  "ProcedureStepDescription": "Wager_Wager^1076_spacetop",
  "ProtocolName": "func_run-01_task-faces_acq-ap-mb8",
  "PulseSequenceDetails": "%CustomerSeq%\\cmrr_mbep2d_bold",
  "ReceiveCoilActiveElements": "HEA;HEP",
  "ReceiveCoilName": "Head_32",
  "ReconMatrixPE": 82,
  "RepetitionTime": 0.46,
  "SAR": 0.10782,
  "ScanOptions": "FS",
  "ScanningSequence": "EP",
  "SequenceName": "epfid2d1_82",
  "SequenceVariant": "SK\\SS",
  "SeriesDescription": "func_run-01_task-faces_acq-ap-mb8",
  "SeriesNumber": 18,
  "ShimSetting": [4143, -7719, -7296, 480, -76, -132, -33, 72],
  "SliceThickness": 2.7,
  "SliceTiming": [0, 0.2525, 0.0625, 0.315, 0.1275, 0.3775, 0.19, 0, 0.2525, 0.0625, 0.315, 0.1275, 0.3775, 0.19, 0, 0.2525, 0.0625, 0.315, 0.1275, 0.3775, 0.19, 0, 0.2525, 0.0625, 0.315, 0.1275, 0.3775, 0.19, 0, 0.2525, 0.0625, 0.315, 0.1275, 0.3775, 0.19, 0, 0.2525, 0.0625, 0.315, 0.1275, 0.3775, 0.19, 0, 0.2525, 0.0625, 0.315, 0.1275, 0.3775, 0.19, 0, 0.2525, 0.0625, 0.315, 0.1275, 0.3775, 0.19],
  "SoftwareVersions": "syngo MR E11",
  "SpacingBetweenSlices": 2.7,
  "StationName": "AWP66112",
  "TaskName": "faces",
  "TotalReadoutTime": 0.03969,
  "TxRefAmp": 273.474,
  "WipMemBlock": "82a7f867-7018-46d9-a3d8-852f4f97eccc||Sequence: R016 ve11e/master r/434b28f1; Aug  7 2019 18:53:46 by eja",
  "dcmmeta_affine": [
    [-2.6820759773254395, 0.060396526008844376, 0.030478093773126602, 105.29087829589844],
    [0.059148889034986496, 2.6801533699035645, -0.10733535140752792, -92.33726501464844],
    [0.032655056565999985, 0.10595512390136719, 2.6976935863494873, -64.97203063964844],
    [0.0, 0.0, 0.0, 1.0]
],
  "dcmmeta_reorient_transform": [
    [0.0, -1.0, 0.0, 81.0],
    [1.0, 0.0, 0.0, 0.0],
    [0.0, 0.0, 1.0, 0.0],
    [0.0, 0.0, 0.0, 1.0]
],
  "dcmmeta_shape": [82, 82, 56, 914],
  "dcmmeta_slice_dim": 2,
  "dcmmeta_version": 0.6,
  "global": {
    "const": {
      "AccessionNumber": "A003941",
      "AcquisitionMatrix": [82, 0, 0, 82],
      "AngioFlag": "N",
      "BitsAllocated": 16,
      "BitsStored": 16,
      "BodyPartExamined": "BRAIN",
      "Columns": 656,
      "EchoNumbers": 1,
      "EchoTime": 27.2,
      "EchoTrainLength": 82,
      "FlipAngle": 44.0,
      "HighBit": 15,
      "ImageOrientationPatient": [0.99968285589601, -0.0220464039463, 0.01217142968737, 0.02251143158156, 0.99896626005932, -0.0394923626951],
      "ImagePositionPatient": [-897.27262021258, -876.98347352079, -35.352548320201],
      "ImageType": [
        "ORIGINAL",
        "PRIMARY",
        "M",
        "MB",
        "ND",
        "NORM",
        "MOSAIC"
],
      "ImagedNucleus": "1H",
      "ImagingFrequency": 123.252174,
      "InPlanePhaseEncodingDirection": "COL",
      "MRAcquisitionType": "2D",
      "MagneticFieldStrength": 3.0,
      "Manufacturer": "SIEMENS",
      "ManufacturerModelName": "Prisma",
      "Modality": "MR",
      "NumberOfAverages": 1.0,
      "NumberOfPhaseEncodingSteps": 82,
      "PercentPhaseFieldOfView": 100.0,
      "PercentSampling": 100.0,
      "PerformedProcedureStepStartTime": "103330.940000",
      "PhotometricInterpretation": "MONOCHROME2",
      "PixelBandwidth": 3050.0,
      "PixelRepresentation": 0,
      "PixelSpacing": [2.6829268932343, 2.6829268932343],
      "ProtocolName": "func_run-01_task-faces_acq-ap-mb8",
      "RepetitionTime": 460.0,
      "Rows": 656,
      "SAR": 0.10781990359074,
      "SamplesPerPixel": 1,
      "ScanOptions": "FS",
      "ScanningSequence": "EP",
      "SequenceName": "epfid2d1_82",
      "SequenceVariant": [
        "SK",
        "SS"
],
      "SeriesDescription": "func_run-01_task-faces_acq-ap-mb8",
      "SeriesNumber": 18,
      "SeriesTime": "113703.759000",
      "SliceLocation": -60.0572261295,
      "SliceThickness": 2.7000000476837,
      "SmallestImagePixelValue": 0,
      "SoftwareVersions": "syngo MR E11",
      "SpacingBetweenSlices": 2.6999999974685,
      "SpecificCharacterSet": "ISO_IR 100",
      "StudyID": "2",
      "StudyTime": "103330.885000",
      "TransmitCoilName": "Body",
      "VariableFlipAngleFlag": "N",
      "WindowCenterWidthExplanation": "Algo1"
    },
    "slices": {}
  },
  "time": {
    "samples": {
      "AcquisitionNumber": [1, 2, 3, 4, 5, 6, 7, 8, 9, 10, 11, 12, 13, 14, 15, 16, 17, 18, 19, 20, 21, 22, 23, 24, 25, 26, 27, 28, 29, 30, 31, 32, 33, 34, 35, 36, 37, 38, 39, 40, 41, 42, 43, 44, 45, 46, 47, 48, 49, 50, 51, 52, 53, 54, 55, 56, 57, 58, 59, 60, 61, 62, 63, 64, 65, 66, 67, 68, 69, 70, 71, 72, 73, 74, 75, 76, 77, 78, 79, 80, 81, 82, 83, 84, 85, 86, 87, 88, 89, 90, 91, 92, 93, 94, 95, 96, 97, 98, 99, 100, 101, 102, 103, 104, 105, 106, 107, 108, 109, 110, 111, 112, 113, 114, 115, 116, 117, 118, 119, 120, 121, 122, 123, 124, 125, 126, 127, 128, 129, 130, 131, 132, 133, 134, 135, 136, 137, 138, 139, 140, 141, 142, 143, 144, 145, 146, 147, 148, 149, 150, 151, 152, 153, 154, 155, 156, 157, 158, 159, 160, 161, 162, 163, 164, 165, 166, 167, 168, 169, 170, 171, 172, 173, 174, 175, 176, 177, 178, 179, 180, 181, 182, 183, 184, 185, 186, 187, 188, 189, 190, 191, 192, 193, 194, 195, 196, 197, 198, 199, 200, 201, 202, 203, 204, 205, 206, 207, 208, 209, 210, 211, 212, 213, 214, 215, 216, 217, 218, 219, 220, 221, 222, 223, 224, 225, 226, 227, 228, 229, 230, 231, 232, 233, 234, 235, 236, 237, 238, 239, 240, 241, 242, 243, 244, 245, 246, 247, 248, 249, 250, 251, 252, 253, 254, 255, 256, 257, 258, 259, 260, 261, 262, 263, 264, 265, 266, 267, 268, 269, 270, 271, 272, 273, 274, 275, 276, 277, 278, 279, 280, 281, 282, 283, 284, 285, 286, 287, 288, 289, 290, 291, 292, 293, 294, 295, 296, 297, 298, 299, 300, 301, 302, 303, 304, 305, 306, 307, 308, 309, 310, 311, 312, 313, 314, 315, 316, 317, 318, 319, 320, 321, 322, 323, 324, 325, 326, 327, 328, 329, 330, 331, 332, 333, 334, 335, 336, 337, 338, 339, 340, 341, 342, 343, 344, 345, 346, 347, 348, 349, 350, 351, 352, 353, 354, 355, 356, 357, 358, 359, 360, 361, 362, 363, 364, 365, 366, 367, 368, 369, 370, 371, 372, 373, 374, 375, 376, 377, 378, 379, 380, 381, 382, 383, 384, 385, 386, 387, 388, 389, 390, 391, 392, 393, 394, 395, 396, 397, 398, 399, 400, 401, 402, 403, 404, 405, 406, 407, 408, 409, 410, 411, 412, 413, 414, 415, 416, 417, 418, 419, 420, 421, 422, 423, 424, 425, 426, 427, 428, 429, 430, 431, 432, 433, 434, 435, 436, 437, 438, 439, 440, 441, 442, 443, 444, 445, 446, 447, 448, 449, 450, 451, 452, 453, 454, 455, 456, 457, 458, 459, 460, 461, 462, 463, 464, 465, 466, 467, 468, 469, 470, 471, 472, 473, 474, 475, 476, 477, 478, 479, 480, 481, 482, 483, 484, 485, 486, 487, 488, 489, 490, 491, 492, 493, 494, 495, 496, 497, 498, 499, 500, 501, 502, 503, 504, 505, 506, 507, 508, 509, 510, 511, 512, 513, 514, 515, 516, 517, 518, 519, 520, 521, 522, 523, 524, 525, 526, 527, 528, 529, 530, 531, 532, 533, 534, 535, 536, 537, 538, 539, 540, 541, 542, 543, 544, 545, 546, 547, 548, 549, 550, 551, 552, 553, 554, 555, 556, 557, 558, 559, 560, 561, 562, 563, 564, 565, 566, 567, 568, 569, 570, 571, 572, 573, 574, 575, 576, 577, 578, 579, 580, 581, 582, 583, 584, 585, 586, 587, 588, 589, 590, 591, 592, 593, 594, 595, 596, 597, 598, 599, 600, 601, 602, 603, 604, 605, 606, 607, 608, 609, 610, 611, 612, 613, 614, 615, 616, 617, 618, 619, 620, 621, 622, 623, 624, 625, 626, 627, 628, 629, 630, 631, 632, 633, 634, 635, 636, 637, 638, 639, 640, 641, 642, 643, 644, 645, 646, 647, 648, 649, 650, 651, 652, 653, 654, 655, 656, 657, 658, 659, 660, 661, 662, 663, 664, 665, 666, 667, 668, 669, 670, 671, 672, 673, 674, 675, 676, 677, 678, 679, 680, 681, 682, 683, 684, 685, 686, 687, 688, 689, 690, 691, 692, 693, 694, 695, 696, 697, 698, 699, 700, 701, 702, 703, 704, 705, 706, 707, 708, 709, 710, 711, 712, 713, 714, 715, 716, 717, 718, 719, 720, 721, 722, 723, 724, 725, 726, 727, 728, 729, 730, 731, 732, 733, 734, 735, 736, 737, 738, 739, 740, 741, 742, 743, 744, 745, 746, 747, 748, 749, 750, 751, 752, 753, 754, 755, 756, 757, 758, 759, 760, 761, 762, 763, 764, 765, 766, 767, 768, 769, 770, 771, 772, 773, 774, 775, 776, 777, 778, 779, 780, 781, 782, 783, 784, 785, 786, 787, 788, 789, 790, 791, 792, 793, 794, 795, 796, 797, 798, 799, 800, 801, 802, 803, 804, 805, 806, 807, 808, 809, 810, 811, 812, 813, 814, 815, 816, 817, 818, 819, 820, 821, 822, 823, 824, 825, 826, 827, 828, 829, 830, 831, 832, 833, 834, 835, 836, 837, 838, 839, 840, 841, 842, 843, 844, 845, 846, 847, 848, 849, 850, 851, 852, 853, 854, 855, 856, 857, 858, 859, 860, 861, 862, 863, 864, 865, 866, 867, 868, 869, 870, 871, 872, 873, 874, 875, 876, 877, 878, 879, 880, 881, 882, 883, 884, 885, 886, 887, 888, 889, 890, 891, 892, 893, 894, 895, 896, 897, 898, 899, 900, 901, 902, 903, 904, 905, 906, 907, 908, 909, 910, 911, 912, 913, 914],
      "AcquisitionTime": ["113653.012500", "113653.472500", "113653.932500", "113654.392500", "113654.852500", "113655.312500", "113655.772500", "113656.232500", "113656.692500", "113657.152500", "113657.612500", "113658.072500", "113658.532500", "113658.992500", "113659.452500", "113659.912500", "113700.372500", "113700.832500", "113701.292500", "113701.752500", "113702.212500", "113702.672500", "113703.132500", "113703.592500", "113704.052500", "113704.512500", "113704.972500", "113705.432500", "113705.892500", "113706.352500", "113706.812500", "113707.272500", "113707.732500", "113708.192500", "113708.652500", "113709.112500", "113709.572500", "113710.032500", "113710.492500", "113710.952500", "113711.412500", "113711.872500", "113712.332500", "113712.792500", "113713.252500", "113713.712500", "113714.172500", "113714.632500", "113715.092500", "113715.552500", "113716.012500", "113716.472500", "113716.932500", "113717.392500", "113717.852500", "113718.312500", "113718.772500", "113719.232500", "113719.692500", "113720.152500", "113720.612500", "113721.072500", "113721.532500", "113721.992500", "113722.452500", "113722.912500", "113723.372500", "113723.832500", "113724.292500", "113724.752500", "113725.212500", "113725.672500", "113726.132500", "113726.592500", "113727.052500", "113727.512500", "113727.972500", "113728.432500", "113728.892500", "113729.352500", "113729.812500", "113730.272500", "113730.732500", "113731.192500", "113731.652500", "113732.112500", "113732.572500", "113733.032500", "113733.492500", "113733.952500", "113734.412500", "113734.872500", "113735.332500", "113735.792500", "113736.252500", "113736.712500", "113737.172500", "113737.632500", "113738.092500", "113738.552500", "113739.012500", "113739.472500", "113739.932500", "113740.392500", "113740.852500", "113741.312500", "113741.772500", "113742.232500", "113742.692500", "113743.152500", "113743.612500", "113744.072500", "113744.532500", "113744.992500", "113745.452500", "113745.912500", "113746.372500", "113746.832500", "113747.292500", "113747.752500", "113748.212500", "113748.672500", "113749.132500", "113749.592500", "113750.052500", "113750.512500", "113750.972500", "113751.432500", "113751.892500", "113752.352500", "113752.812500", "113753.272500", "113753.732500", "113754.192500", "113754.652500", "113755.112500", "113755.572500", "113756.032500", "113756.492500", "113756.952500", "113757.412500", "113757.872500", "113758.332500", "113758.792500", "113759.252500", "113759.712500", "113800.172500", "113800.632500", "113801.092500", "113801.552500", "113802.012500", "113802.472500", "113802.932500", "113803.392500", "113803.852500", "113804.312500", "113804.772500", "113805.232500", "113805.692500", "113806.152500", "113806.612500", "113807.072500", "113807.532500", "113807.992500", "113808.452500", "113808.912500", "113809.372500", "113809.832500", "113810.292500", "113810.752500", "113811.212500", "113811.672500", "113812.132500", "113812.592500", "113813.052500", "113813.512500", "113813.972500", "113814.432500", "113814.892500", "113815.352500", "113815.812500", "113816.272500", "113816.732500", "113817.192500", "113817.652500", "113818.112500", "113818.572500", "113819.032500", "113819.492500", "113819.952500", "113820.412500", "113820.872500", "113821.332500", "113821.792500", "113822.252500", "113822.712500", "113823.172500", "113823.632500", "113824.092500", "113824.552500", "113825.012500", "113825.472500", "113825.932500", "113826.392500", "113826.852500", "113827.312500", "113827.772500", "113828.232500", "113828.692500", "113829.152500", "113829.612500", "113830.072500", "113830.532500", "113830.992500", "113831.452500", "113831.912500", "113832.372500", "113832.832500", "113833.292500", "113833.752500", "113834.212500", "113834.672500", "113835.132500", "113835.592500", "113836.052500", "113836.512500", "113836.972500", "113837.432500", "113837.892500", "113838.352500", "113838.812500", "113839.272500", "113839.732500", "113840.192500", "113840.652500", "113841.112500", "113841.572500", "113842.032500", "113842.492500", "113842.952500", "113843.412500", "113843.872500", "113844.332500", "113844.792500", "113845.252500", "113845.712500", "113846.172500", "113846.632500", "113847.092500", "113847.552500", "113848.012500", "113848.472500", "113848.932500", "113849.392500", "113849.852500", "113850.312500", "113850.772500", "113851.232500", "113851.692500", "113852.152500", "113852.612500", "113853.072500", "113853.532500", "113853.992500", "113854.452500", "113854.912500", "113855.372500", "113855.832500", "113856.292500", "113856.752500", "113857.212500", "113857.672500", "113858.132500", "113858.592500", "113859.052500", "113859.512500", "113859.972500", "113900.432500", "113900.892500", "113901.352500", "113901.812500", "113902.272500", "113902.732500", "113903.192500", "113903.652500", "113904.112500", "113904.572500", "113905.032500", "113905.492500", "113905.952500", "113906.412500", "113906.872500", "113907.332500", "113907.792500", "113908.252500", "113908.712500", "113909.172500", "113909.632500", "113910.092500", "113910.552500", "113911.012500", "113911.472500", "113911.932500", "113912.392500", "113912.852500", "113913.312500", "113913.772500", "113914.232500", "113914.692500", "113915.152500", "113915.612500", "113916.072500", "113916.532500", "113916.992500", "113917.452500", "113917.912500", "113918.372500", "113918.832500", "113919.292500", "113919.752500", "113920.212500", "113920.672500", "113921.132500", "113921.592500", "113922.052500", "113922.512500", "113922.972500", "113923.432500", "113923.892500", "113924.352500", "113924.812500", "113925.272500", "113925.732500", "113926.192500", "113926.652500", "113927.112500", "113927.572500", "113928.032500", "113928.492500", "113928.952500", "113929.412500", "113929.872500", "113930.332500", "113930.792500", "113931.252500", "113931.712500", "113932.172500", "113932.632500", "113933.092500", "113933.552500", "113934.012500", "113934.472500", "113934.932500", "113935.392500", "113935.852500", "113936.312500", "113936.772500", "113937.232500", "113937.692500", "113938.152500", "113938.612500", "113939.072500", "113939.532500", "113939.992500", "113940.452500", "113940.912500", "113941.372500", "113941.832500", "113942.292500", "113942.752500", "113943.212500", "113943.672500", "113944.132500", "113944.592500", "113945.052500", "113945.512500", "113945.972500", "113946.432500", "113946.892500", "113947.352500", "113947.812500", "113948.272500", "113948.732500", "113949.192500", "113949.652500", "113950.112500", "113950.572500", "113951.032500", "113951.492500", "113951.952500", "113952.412500", "113952.872500", "113953.332500", "113953.792500", "113954.252500", "113954.712500", "113955.172500", "113955.632500", "113956.092500", "113956.552500", "113957.012500", "113957.472500", "113957.932500", "113958.392500", "113958.852500", "113959.312500", "113959.772500", "114000.232500", "114000.692500", "114001.152500", "114001.612500", "114002.072500", "114002.532500", "114002.992500", "114003.452500", "114003.912500", "114004.372500", "114004.832500", "114005.292500", "114005.752500", "114006.212500", "114006.672500", "114007.132500", "114007.592500", "114008.052500", "114008.512500", "114008.972500", "114009.432500", "114009.892500", "114010.352500", "114010.812500", "114011.272500", "114011.732500", "114012.192500", "114012.652500", "114013.112500", "114013.572500", "114014.032500", "114014.492500", "114014.952500", "114015.412500", "114015.872500", "114016.332500", "114016.792500", "114017.252500", "114017.712500", "114018.172500", "114018.632500", "114019.092500", "114019.552500", "114020.012500", "114020.472500", "114020.932500", "114021.392500", "114021.852500", "114022.312500", "114022.772500", "114023.232500", "114023.692500", "114024.152500", "114024.612500", "114025.072500", "114025.532500", "114025.992500", "114026.452500", "114026.912500", "114027.372500", "114027.832500", "114028.292500", "114028.752500", "114029.212500", "114029.672500", "114030.132500", "114030.592500", "114031.052500", "114031.512500", "114031.972500", "114032.432500", "114032.892500", "114033.352500", "114033.812500", "114034.272500", "114034.732500", "114035.192500", "114035.652500", "114036.112500", "114036.572500", "114037.032500", "114037.492500", "114037.952500", "114038.412500", "114038.872500", "114039.332500", "114039.792500", "114040.252500", "114040.712500", "114041.172500", "114041.632500", "114042.092500", "114042.552500", "114043.012500", "114043.472500", "114043.932500", "114044.392500", "114044.852500", "114045.312500", "114045.772500", "114046.232500", "114046.692500", "114047.152500", "114047.612500", "114048.072500", "114048.532500", "114048.992500", "114049.452500", "114049.912500", "114050.372500", "114050.832500", "114051.292500", "114051.752500", "114052.212500", "114052.672500", "114053.132500", "114053.592500", "114054.052500", "114054.512500", "114054.972500", "114055.432500", "114055.892500", "114056.352500", "114056.812500", "114057.272500", "114057.732500", "114058.192500", "114058.652500", "114059.112500", "114059.572500", "114100.032500", "114100.492500", "114100.952500", "114101.412500", "114101.872500", "114102.332500", "114102.792500", "114103.252500", "114103.712500", "114104.172500", "114104.632500", "114105.092500", "114105.552500", "114106.012500", "114106.472500", "114106.932500", "114107.392500", "114107.852500", "114108.312500", "114108.772500", "114109.232500", "114109.692500", "114110.152500", "114110.612500", "114111.072500", "114111.532500", "114111.992500", "114112.452500", "114112.912500", "114113.372500", "114113.832500", "114114.292500", "114114.752500", "114115.212500", "114115.672500", "114116.132500", "114116.592500", "114117.052500", "114117.512500", "114117.972500", "114118.432500", "114118.892500", "114119.352500", "114119.812500", "114120.272500", "114120.732500", "114121.192500", "114121.652500", "114122.112500", "114122.572500", "114123.032500", "114123.492500", "114123.952500", "114124.412500", "114124.872500", "114125.332500", "114125.792500", "114126.252500", "114126.712500", "114127.172500", "114127.632500", "114128.092500", "114128.552500", "114129.012500", "114129.472500", "114129.932500", "114130.392500", "114130.852500", "114131.312500", "114131.772500", "114132.232500", "114132.692500", "114133.152500", "114133.612500", "114134.072500", "114134.532500", "114134.992500", "114135.452500", "114135.912500", "114136.372500", "114136.832500", "114137.292500", "114137.752500", "114138.212500", "114138.672500", "114139.132500", "114139.592500", "114140.052500", "114140.512500", "114140.972500", "114141.432500", "114141.892500", "114142.352500", "114142.812500", "114143.272500", "114143.732500", "114144.192500", "114144.652500", "114145.112500", "114145.572500", "114146.032500", "114146.492500", "114146.952500", "114147.412500", "114147.872500", "114148.332500", "114148.792500", "114149.252500", "114149.712500", "114150.172500", "114150.632500", "114151.092500", "114151.552500", "114152.012500", "114152.472500", "114152.932500", "114153.392500", "114153.852500", "114154.312500", "114154.772500", "114155.232500", "114155.692500", "114156.152500", "114156.612500", "114157.072500", "114157.532500", "114157.992500", "114158.452500", "114158.912500", "114159.372500", "114159.832500", "114200.292500", "114200.752500", "114201.212500", "114201.672500", "114202.132500", "114202.592500", "114203.052500", "114203.512500", "114203.972500", "114204.432500", "114204.892500", "114205.352500", "114205.812500", "114206.272500", "114206.732500", "114207.192500", "114207.652500", "114208.112500", "114208.572500", "114209.032500", "114209.492500", "114209.952500", "114210.412500", "114210.872500", "114211.332500", "114211.792500", "114212.252500", "114212.712500", "114213.172500", "114213.632500", "114214.092500", "114214.552500", "114215.012500", "114215.472500", "114215.932500", "114216.392500", "114216.852500", "114217.312500", "114217.772500", "114218.232500", "114218.692500", "114219.152500", "114219.612500", "114220.072500", "114220.532500", "114220.992500", "114221.452500", "114221.912500", "114222.372500", "114222.832500", "114223.292500", "114223.752500", "114224.212500", "114224.672500", "114225.132500", "114225.592500", "114226.052500", "114226.512500", "114226.972500", "114227.432500", "114227.892500", "114228.352500", "114228.812500", "114229.272500", "114229.732500", "114230.192500", "114230.652500", "114231.112500", "114231.572500", "114232.032500", "114232.492500", "114232.952500", "114233.412500", "114233.872500", "114234.332500", "114234.792500", "114235.252500", "114235.712500", "114236.172500", "114236.632500", "114237.092500", "114237.552500", "114238.012500", "114238.472500", "114238.932500", "114239.392500", "114239.852500", "114240.312500", "114240.772500", "114241.232500", "114241.692500", "114242.152500", "114242.612500", "114243.072500", "114243.532500", "114243.992500", "114244.452500", "114244.912500", "114245.372500", "114245.832500", "114246.292500", "114246.752500", "114247.212500", "114247.672500", "114248.132500", "114248.592500", "114249.052500", "114249.512500", "114249.972500", "114250.432500", "114250.892500", "114251.352500", "114251.812500", "114252.272500", "114252.732500", "114253.192500", "114253.652500", "114254.112500", "114254.572500", "114255.032500", "114255.492500", "114255.952500", "114256.412500", "114256.872500", "114257.332500", "114257.792500", "114258.252500", "114258.712500", "114259.172500", "114259.632500", "114300.092500", "114300.552500", "114301.012500", "114301.472500", "114301.932500", "114302.392500", "114302.852500", "114303.312500", "114303.772500", "114304.232500", "114304.692500", "114305.152500", "114305.612500", "114306.072500", "114306.532500", "114306.992500", "114307.452500", "114307.912500", "114308.372500", "114308.832500", "114309.292500", "114309.752500", "114310.212500", "114310.672500", "114311.132500", "114311.592500", "114312.052500", "114312.512500", "114312.972500", "114313.432500", "114313.892500", "114314.352500", "114314.812500", "114315.272500", "114315.732500", "114316.192500", "114316.652500", "114317.112500", "114317.572500", "114318.032500", "114318.492500", "114318.952500", "114319.412500", "114319.872500", "114320.332500", "114320.792500", "114321.252500", "114321.712500", "114322.172500", "114322.632500", "114323.092500", "114323.552500", "114324.012500", "114324.472500", "114324.932500", "114325.392500", "114325.852500", "114326.312500", "114326.772500", "114327.232500", "114327.692500", "114328.152500", "114328.612500", "114329.072500", "114329.532500", "114329.992500", "114330.452500", "114330.912500", "114331.372500", "114331.832500", "114332.292500", "114332.752500", "114333.212500", "114333.672500", "114334.132500", "114334.592500", "114335.052500", "114335.512500", "114335.972500", "114336.432500", "114336.892500", "114337.352500", "114337.812500", "114338.272500", "114338.732500", "114339.192500", "114339.652500", "114340.112500", "114340.572500", "114341.032500", "114341.492500", "114341.952500", "114342.412500", "114342.872500", "114343.332500", "114343.792500", "114344.252500", "114344.712500", "114345.172500", "114345.632500", "114346.092500", "114346.552500", "114347.012500", "114347.472500", "114347.932500", "114348.392500", "114348.852500", "114349.312500", "114349.772500", "114350.232500", "114350.692500", "114351.152500", "114351.612500", "114352.072500", "114352.532500", "114352.992500"],
