{
  "AcquisitionMatrixPE": 82,
  "AcquisitionNumber": 1,
  "AcquisitionTime": "12:31:39.957500",
  "BandwidthPerPixelPhaseEncode": 24.888,
  "BaseResolution": 82,
  "BodyPartExamined": "BRAIN",
  "ConsistencyInfo": "N4_VE11E_LATEST_20181129",
  "ConversionSoftware": "dcm2niix",
  "ConversionSoftwareVersion": "v1.0.20201102",
  "DerivedVendorReportedEchoSpacing": 0.00049,
  "DeviceSerialNumber": "66112",
  "DwellTime": 2e-06,
  "EchoTime": 0.0272,
  "EchoTrainLength": 82,
  "EffectiveEchoSpacing": 0.00049,
  "FlipAngle": 44,
  "ImageComments": "Unaliased MB8/PE3",
  "ImageOrientationPatientDICOM": [0.999904, -0.0138036, -0.000989231, 0.0137877, 0.999798, -0.0146031],
  "ImageType": [
    "ORIGINAL",
    "PRIMARY",
    "M",
    "MB",
    "ND",
    "NORM",
    "MOSAIC"
],
  "ImagingFrequency": 123.252,
  "InPlanePhaseEncodingDirectionDICOM": "COL",
  "InstitutionAddress": "Maynard 3,Hanover,NH,US,03755",
  "InstitutionName": "Dartmouth College - PBS",
  "InstitutionalDepartmentName": "Department",
  "MRAcquisitionType": "2D",
  "MagneticFieldStrength": 3,
  "Manufacturer": "Siemens",
  "ManufacturersModelName": "Prisma",
  "Modality": "MR",
  "MultibandAccelerationFactor": 8,
  "PartialFourier": 1,
  "PatientPosition": "HFS",
  "PercentPhaseFOV": 100,
  "PercentSampling": 100,
  "PhaseEncodingDirection": "j-",
  "PhaseEncodingSteps": 82,
  "PhaseResolution": 1,
  "PixelBandwidth": 3050,
  "ProcedureStepDescription": "Wager_Wager^1076_spacetop",
  "ProtocolName": "func_run-04_task-alignvideo_acq-ap-mb8",
  "PulseSequenceDetails": "%CustomerSeq%\\cmrr_mbep2d_bold",
  "ReceiveCoilActiveElements": "HEA;HEP",
  "ReceiveCoilName": "Head_32",
  "ReconMatrixPE": 82,
  "RepetitionTime": 0.46,
  "SAR": 0.10782,
  "ScanOptions": "FS",
  "ScanningSequence": "EP",
  "SequenceName": "epfid2d1_82",
  "SequenceVariant": "SK\\SS",
  "SeriesDescription": "func_run-04_task-alignvideo_acq-ap-mb8",
  "SeriesNumber": 36,
  "ShimSetting": [4142, -7719, -7296, 477, -81, -135, -34, 72],
  "SliceThickness": 2.7,
  "SliceTiming": [0, 0.25, 0.0625, 0.3125, 0.125, 0.375, 0.1875, 0, 0.25, 0.0625, 0.3125, 0.125, 0.375, 0.1875, 0, 0.25, 0.0625, 0.3125, 0.125, 0.375, 0.1875, 0, 0.25, 0.0625, 0.3125, 0.125, 0.375, 0.1875, 0, 0.25, 0.0625, 0.3125, 0.125, 0.375, 0.1875, 0, 0.25, 0.0625, 0.3125, 0.125, 0.375, 0.1875, 0, 0.25, 0.0625, 0.3125, 0.125, 0.375, 0.1875, 0, 0.25, 0.0625, 0.3125, 0.125, 0.375, 0.1875],
  "SoftwareVersions": "syngo MR E11",
  "SpacingBetweenSlices": 2.7,
  "StationName": "AWP66112",
  "TaskName": "alignvideo",
  "TotalReadoutTime": 0.03969,
  "TxRefAmp": 273.474,
  "WipMemBlock": "a201fb73-a5f8-4482-a429-d6046a6d29e8||Sequence: R016 ve11e/master r/434b28f1; Aug  7 2019 18:53:46 by eja",
  "dcmmeta_affine": [
    [-2.6826698780059814, 0.036991383880376816, -0.003214639611542225, 106.14373779296875],
    [0.03703406825661659, 2.6823856830596924, -0.039387889206409454, -93.43109130859375],
    [-0.002654033713042736, 0.03917916864156723, 2.6997108459472656, -61.61241912841797],
    [0.0, 0.0, 0.0, 1.0]
],
  "dcmmeta_reorient_transform": [
    [0.0, -1.0, 0.0, 81.0],
    [1.0, 0.0, 0.0, 0.0],
    [0.0, 0.0, 1.0, 0.0],
    [0.0, 0.0, 0.0, 1.0]
],
  "dcmmeta_shape": [82, 82, 56, 914],
  "dcmmeta_slice_dim": 2,
  "dcmmeta_version": 0.6,
  "global": {
    "const": {
      "AccessionNumber": "A003941",
      "AcquisitionMatrix": [82, 0, 0, 82],
      "AngioFlag": "N",
      "BitsAllocated": 16,
      "BitsStored": 16,
      "BodyPartExamined": "BRAIN",
      "Columns": 656,
      "EchoNumbers": 1,
      "EchoTime": 27.2,
      "EchoTrainLength": 82,
      "FlipAngle": 44.0,
      "HighBit": 15,
      "ImageOrientationPatient": [0.99990423634621, -0.0138036067536, -0.0009892307632, 0.01378769709403, 0.99979830344657, -0.0146031446681],
      "ImagePositionPatient": [-889.68284479558, -883.0580909365, -46.43277728646],
      "ImageType": [
        "ORIGINAL",
        "PRIMARY",
        "M",
        "MB",
        "ND",
        "NORM",
        "MOSAIC"
],
      "ImagedNucleus": "1H",
      "ImagingFrequency": 123.252185,
      "InPlanePhaseEncodingDirection": "COL",
      "MRAcquisitionType": "2D",
      "MagneticFieldStrength": 3.0,
      "Manufacturer": "SIEMENS",
      "ManufacturerModelName": "Prisma",
      "Modality": "MR",
      "NumberOfAverages": 1.0,
      "NumberOfPhaseEncodingSteps": 82,
      "PercentPhaseFieldOfView": 100.0,
      "PercentSampling": 100.0,
      "PerformedProcedureStepStartTime": "103330.940000",
      "PhotometricInterpretation": "MONOCHROME2",
      "PixelBandwidth": 3050.0,
      "PixelRepresentation": 0,
      "PixelSpacing": [2.6829268932343, 2.6829268932343],
      "ProtocolName": "func_run-04_task-alignvideo_acq-ap-mb8",
      "RepetitionTime": 460.0,
      "Rows": 656,
      "SAR": 0.10781990359074,
      "SamplesPerPixel": 1,
      "ScanOptions": "FS",
      "ScanningSequence": "EP",
      "SequenceName": "epfid2d1_82",
      "SequenceVariant": [
        "SK",
        "SS"
],
      "SeriesDescription": "func_run-04_task-alignvideo_acq-ap-mb8",
      "SeriesNumber": 36,
      "SeriesTime": "123203.741000",
      "SliceLocation": -60.369212178718,
      "SliceThickness": 2.7000000476837,
      "SmallestImagePixelValue": 0,
      "SoftwareVersions": "syngo MR E11",
      "SpacingBetweenSlices": 2.7000000032017,
      "SpecificCharacterSet": "ISO_IR 100",
      "StudyID": "2",
      "StudyTime": "103330.885000",
      "TransmitCoilName": "Body",
      "VariableFlipAngleFlag": "N",
      "WindowCenterWidthExplanation": "Algo1"
    },
    "slices": {}
  },
  "time": {
    "samples": {
      "AcquisitionNumber": [1, 2, 3, 4, 5, 6, 7, 8, 9, 10, 11, 12, 13, 14, 15, 16, 17, 18, 19, 20, 21, 22, 23, 24, 25, 26, 27, 28, 29, 30, 31, 32, 33, 34, 35, 36, 37, 38, 39, 40, 41, 42, 43, 44, 45, 46, 47, 48, 49, 50, 51, 52, 53, 54, 55, 56, 57, 58, 59, 60, 61, 62, 63, 64, 65, 66, 67, 68, 69, 70, 71, 72, 73, 74, 75, 76, 77, 78, 79, 80, 81, 82, 83, 84, 85, 86, 87, 88, 89, 90, 91, 92, 93, 94, 95, 96, 97, 98, 99, 100, 101, 102, 103, 104, 105, 106, 107, 108, 109, 110, 111, 112, 113, 114, 115, 116, 117, 118, 119, 120, 121, 122, 123, 124, 125, 126, 127, 128, 129, 130, 131, 132, 133, 134, 135, 136, 137, 138, 139, 140, 141, 142, 143, 144, 145, 146, 147, 148, 149, 150, 151, 152, 153, 154, 155, 156, 157, 158, 159, 160, 161, 162, 163, 164, 165, 166, 167, 168, 169, 170, 171, 172, 173, 174, 175, 176, 177, 178, 179, 180, 181, 182, 183, 184, 185, 186, 187, 188, 189, 190, 191, 192, 193, 194, 195, 196, 197, 198, 199, 200, 201, 202, 203, 204, 205, 206, 207, 208, 209, 210, 211, 212, 213, 214, 215, 216, 217, 218, 219, 220, 221, 222, 223, 224, 225, 226, 227, 228, 229, 230, 231, 232, 233, 234, 235, 236, 237, 238, 239, 240, 241, 242, 243, 244, 245, 246, 247, 248, 249, 250, 251, 252, 253, 254, 255, 256, 257, 258, 259, 260, 261, 262, 263, 264, 265, 266, 267, 268, 269, 270, 271, 272, 273, 274, 275, 276, 277, 278, 279, 280, 281, 282, 283, 284, 285, 286, 287, 288, 289, 290, 291, 292, 293, 294, 295, 296, 297, 298, 299, 300, 301, 302, 303, 304, 305, 306, 307, 308, 309, 310, 311, 312, 313, 314, 315, 316, 317, 318, 319, 320, 321, 322, 323, 324, 325, 326, 327, 328, 329, 330, 331, 332, 333, 334, 335, 336, 337, 338, 339, 340, 341, 342, 343, 344, 345, 346, 347, 348, 349, 350, 351, 352, 353, 354, 355, 356, 357, 358, 359, 360, 361, 362, 363, 364, 365, 366, 367, 368, 369, 370, 371, 372, 373, 374, 375, 376, 377, 378, 379, 380, 381, 382, 383, 384, 385, 386, 387, 388, 389, 390, 391, 392, 393, 394, 395, 396, 397, 398, 399, 400, 401, 402, 403, 404, 405, 406, 407, 408, 409, 410, 411, 412, 413, 414, 415, 416, 417, 418, 419, 420, 421, 422, 423, 424, 425, 426, 427, 428, 429, 430, 431, 432, 433, 434, 435, 436, 437, 438, 439, 440, 441, 442, 443, 444, 445, 446, 447, 448, 449, 450, 451, 452, 453, 454, 455, 456, 457, 458, 459, 460, 461, 462, 463, 464, 465, 466, 467, 468, 469, 470, 471, 472, 473, 474, 475, 476, 477, 478, 479, 480, 481, 482, 483, 484, 485, 486, 487, 488, 489, 490, 491, 492, 493, 494, 495, 496, 497, 498, 499, 500, 501, 502, 503, 504, 505, 506, 507, 508, 509, 510, 511, 512, 513, 514, 515, 516, 517, 518, 519, 520, 521, 522, 523, 524, 525, 526, 527, 528, 529, 530, 531, 532, 533, 534, 535, 536, 537, 538, 539, 540, 541, 542, 543, 544, 545, 546, 547, 548, 549, 550, 551, 552, 553, 554, 555, 556, 557, 558, 559, 560, 561, 562, 563, 564, 565, 566, 567, 568, 569, 570, 571, 572, 573, 574, 575, 576, 577, 578, 579, 580, 581, 582, 583, 584, 585, 586, 587, 588, 589, 590, 591, 592, 593, 594, 595, 596, 597, 598, 599, 600, 601, 602, 603, 604, 605, 606, 607, 608, 609, 610, 611, 612, 613, 614, 615, 616, 617, 618, 619, 620, 621, 622, 623, 624, 625, 626, 627, 628, 629, 630, 631, 632, 633, 634, 635, 636, 637, 638, 639, 640, 641, 642, 643, 644, 645, 646, 647, 648, 649, 650, 651, 652, 653, 654, 655, 656, 657, 658, 659, 660, 661, 662, 663, 664, 665, 666, 667, 668, 669, 670, 671, 672, 673, 674, 675, 676, 677, 678, 679, 680, 681, 682, 683, 684, 685, 686, 687, 688, 689, 690, 691, 692, 693, 694, 695, 696, 697, 698, 699, 700, 701, 702, 703, 704, 705, 706, 707, 708, 709, 710, 711, 712, 713, 714, 715, 716, 717, 718, 719, 720, 721, 722, 723, 724, 725, 726, 727, 728, 729, 730, 731, 732, 733, 734, 735, 736, 737, 738, 739, 740, 741, 742, 743, 744, 745, 746, 747, 748, 749, 750, 751, 752, 753, 754, 755, 756, 757, 758, 759, 760, 761, 762, 763, 764, 765, 766, 767, 768, 769, 770, 771, 772, 773, 774, 775, 776, 777, 778, 779, 780, 781, 782, 783, 784, 785, 786, 787, 788, 789, 790, 791, 792, 793, 794, 795, 796, 797, 798, 799, 800, 801, 802, 803, 804, 805, 806, 807, 808, 809, 810, 811, 812, 813, 814, 815, 816, 817, 818, 819, 820, 821, 822, 823, 824, 825, 826, 827, 828, 829, 830, 831, 832, 833, 834, 835, 836, 837, 838, 839, 840, 841, 842, 843, 844, 845, 846, 847, 848, 849, 850, 851, 852, 853, 854, 855, 856, 857, 858, 859, 860, 861, 862, 863, 864, 865, 866, 867, 868, 869, 870, 871, 872, 873, 874, 875, 876, 877, 878, 879, 880, 881, 882, 883, 884, 885, 886, 887, 888, 889, 890, 891, 892, 893, 894, 895, 896, 897, 898, 899, 900, 901, 902, 903, 904, 905, 906, 907, 908, 909, 910, 911, 912, 913, 914],
      "AcquisitionTime": ["123139.957500", "123140.417500", "123140.877500", "123141.337500", "123141.797500", "123142.257500", "123142.717500", "123143.177500", "123143.637500", "123144.097500", "123144.557500", "123145.017500", "123145.477500", "123145.937500", "123146.397500", "123146.857500", "123147.317500", "123147.777500", "123148.237500", "123148.697500", "123149.157500", "123149.617500", "123150.077500", "123150.537500", "123150.997500", "123151.457500", "123151.917500", "123152.377500", "123152.837500", "123153.297500", "123153.757500", "123154.217500", "123154.677500", "123155.137500", "123155.597500", "123156.057500", "123156.517500", "123156.977500", "123157.437500", "123157.897500", "123158.357500", "123158.817500", "123159.277500", "123159.737500", "123200.197500", "123200.657500", "123201.117500", "123201.577500", "123202.037500", "123202.497500", "123202.957500", "123203.417500", "123203.877500", "123204.337500", "123204.797500", "123205.257500", "123205.717500", "123206.177500", "123206.637500", "123207.097500", "123207.557500", "123208.017500", "123208.477500", "123208.937500", "123209.397500", "123209.857500", "123210.317500", "123210.777500", "123211.237500", "123211.697500", "123212.157500", "123212.617500", "123213.077500", "123213.537500", "123213.997500", "123214.457500", "123214.917500", "123215.377500", "123215.837500", "123216.297500", "123216.757500", "123217.217500", "123217.677500", "123218.137500", "123218.597500", "123219.057500", "123219.517500", "123219.977500", "123220.437500", "123220.897500", "123221.357500", "123221.817500", "123222.277500", "123222.737500", "123223.197500", "123223.657500", "123224.117500", "123224.577500", "123225.037500", "123225.497500", "123225.957500", "123226.417500", "123226.877500", "123227.337500", "123227.797500", "123228.257500", "123228.717500", "123229.177500", "123229.637500", "123230.097500", "123230.557500", "123231.017500", "123231.477500", "123231.937500", "123232.397500", "123232.857500", "123233.317500", "123233.777500", "123234.237500", "123234.697500", "123235.157500", "123235.617500", "123236.077500", "123236.537500", "123236.997500", "123237.457500", "123237.917500", "123238.377500", "123238.837500", "123239.297500", "123239.757500", "123240.217500", "123240.677500", "123241.137500", "123241.597500", "123242.057500", "123242.517500", "123242.977500", "123243.437500", "123243.897500", "123244.357500", "123244.817500", "123245.277500", "123245.737500", "123246.197500", "123246.657500", "123247.117500", "123247.577500", "123248.037500", "123248.497500", "123248.957500", "123249.417500", "123249.877500", "123250.337500", "123250.797500", "123251.257500", "123251.717500", "123252.177500", "123252.637500", "123253.097500", "123253.557500", "123254.017500", "123254.477500", "123254.937500", "123255.397500", "123255.857500", "123256.317500", "123256.777500", "123257.237500", "123257.697500", "123258.157500", "123258.617500", "123259.077500", "123259.537500", "123259.997500", "123300.457500", "123300.917500", "123301.377500", "123301.837500", "123302.297500", "123302.757500", "123303.217500", "123303.677500", "123304.137500", "123304.597500", "123305.057500", "123305.517500", "123305.977500", "123306.437500", "123306.897500", "123307.357500", "123307.817500", "123308.277500", "123308.737500", "123309.197500", "123309.657500", "123310.117500", "123310.577500", "123311.037500", "123311.497500", "123311.957500", "123312.417500", "123312.877500", "123313.337500", "123313.797500", "123314.257500", "123314.717500", "123315.177500", "123315.637500", "123316.097500", "123316.557500", "123317.017500", "123317.477500", "123317.937500", "123318.397500", "123318.857500", "123319.317500", "123319.777500", "123320.237500", "123320.697500", "123321.157500", "123321.617500", "123322.077500", "123322.537500", "123322.997500", "123323.457500", "123323.917500", "123324.377500", "123324.837500", "123325.297500", "123325.757500", "123326.217500", "123326.677500", "123327.137500", "123327.597500", "123328.057500", "123328.517500", "123328.977500", "123329.437500", "123329.897500", "123330.357500", "123330.817500", "123331.277500", "123331.737500", "123332.197500", "123332.657500", "123333.117500", "123333.577500", "123334.037500", "123334.497500", "123334.957500", "123335.417500", "123335.877500", "123336.337500", "123336.797500", "123337.257500", "123337.717500", "123338.177500", "123338.637500", "123339.097500", "123339.557500", "123340.017500", "123340.477500", "123340.937500", "123341.397500", "123341.857500", "123342.317500", "123342.777500", "123343.237500", "123343.697500", "123344.157500", "123344.617500", "123345.077500", "123345.537500", "123345.997500", "123346.457500", "123346.917500", "123347.377500", "123347.837500", "123348.297500", "123348.757500", "123349.217500", "123349.677500", "123350.137500", "123350.597500", "123351.057500", "123351.517500", "123351.977500", "123352.437500", "123352.897500", "123353.357500", "123353.817500", "123354.277500", "123354.737500", "123355.197500", "123355.657500", "123356.117500", "123356.577500", "123357.037500", "123357.497500", "123357.957500", "123358.417500", "123358.877500", "123359.337500", "123359.797500", "123400.257500", "123400.717500", "123401.177500", "123401.637500", "123402.097500", "123402.557500", "123403.017500", "123403.477500", "123403.937500", "123404.397500", "123404.857500", "123405.317500", "123405.777500", "123406.237500", "123406.697500", "123407.157500", "123407.617500", "123408.077500", "123408.537500", "123408.997500", "123409.457500", "123409.917500", "123410.377500", "123410.837500", "123411.297500", "123411.757500", "123412.217500", "123412.677500", "123413.137500", "123413.597500", "123414.057500", "123414.517500", "123414.977500", "123415.437500", "123415.897500", "123416.357500", "123416.817500", "123417.277500", "123417.737500", "123418.197500", "123418.657500", "123419.117500", "123419.577500", "123420.037500", "123420.497500", "123420.957500", "123421.417500", "123421.877500", "123422.337500", "123422.797500", "123423.257500", "123423.717500", "123424.177500", "123424.637500", "123425.097500", "123425.557500", "123426.017500", "123426.477500", "123426.937500", "123427.397500", "123427.857500", "123428.317500", "123428.777500", "123429.237500", "123429.697500", "123430.157500", "123430.617500", "123431.077500", "123431.537500", "123431.997500", "123432.457500", "123432.917500", "123433.377500", "123433.837500", "123434.297500", "123434.757500", "123435.217500", "123435.677500", "123436.137500", "123436.597500", "123437.057500", "123437.517500", "123437.977500", "123438.437500", "123438.897500", "123439.357500", "123439.817500", "123440.277500", "123440.737500", "123441.197500", "123441.657500", "123442.117500", "123442.577500", "123443.037500", "123443.497500", "123443.957500", "123444.417500", "123444.877500", "123445.337500", "123445.797500", "123446.257500", "123446.717500", "123447.177500", "123447.637500", "123448.097500", "123448.557500", "123449.017500", "123449.477500", "123449.937500", "123450.397500", "123450.857500", "123451.317500", "123451.777500", "123452.237500", "123452.697500", "123453.157500", "123453.617500", "123454.077500", "123454.537500", "123454.997500", "123455.457500", "123455.917500", "123456.377500", "123456.837500", "123457.297500", "123457.757500", "123458.217500", "123458.677500", "123459.137500", "123459.597500", "123500.057500", "123500.517500", "123500.977500", "123501.437500", "123501.897500", "123502.357500", "123502.817500", "123503.277500", "123503.737500", "123504.197500", "123504.657500", "123505.117500", "123505.577500", "123506.037500", "123506.497500", "123506.957500", "123507.417500", "123507.877500", "123508.337500", "123508.797500", "123509.257500", "123509.717500", "123510.177500", "123510.637500", "123511.097500", "123511.557500", "123512.017500", "123512.477500", "123512.937500", "123513.397500", "123513.857500", "123514.317500", "123514.777500", "123515.237500", "123515.697500", "123516.157500", "123516.617500", "123517.077500", "123517.537500", "123517.997500", "123518.457500", "123518.917500", "123519.377500", "123519.837500", "123520.297500", "123520.757500", "123521.217500", "123521.677500", "123522.137500", "123522.597500", "123523.057500", "123523.517500", "123523.977500", "123524.437500", "123524.897500", "123525.357500", "123525.817500", "123526.277500", "123526.737500", "123527.197500", "123527.657500", "123528.117500", "123528.577500", "123529.037500", "123529.497500", "123529.957500", "123530.417500", "123530.877500", "123531.337500", "123531.797500", "123532.257500", "123532.717500", "123533.177500", "123533.637500", "123534.097500", "123534.557500", "123535.017500", "123535.477500", "123535.937500", "123536.397500", "123536.857500", "123537.317500", "123537.777500", "123538.237500", "123538.697500", "123539.157500", "123539.617500", "123540.077500", "123540.537500", "123540.997500", "123541.457500", "123541.917500", "123542.377500", "123542.837500", "123543.297500", "123543.757500", "123544.217500", "123544.677500", "123545.137500", "123545.597500", "123546.057500", "123546.517500", "123546.977500", "123547.437500", "123547.897500", "123548.357500", "123548.817500", "123549.277500", "123549.737500", "123550.197500", "123550.657500", "123551.117500", "123551.577500", "123552.037500", "123552.497500", "123552.957500", "123553.417500", "123553.877500", "123554.337500", "123554.797500", "123555.257500", "123555.717500", "123556.177500", "123556.637500", "123557.097500", "123557.557500", "123558.017500", "123558.477500", "123558.937500", "123559.397500", "123559.857500", "123600.317500", "123600.777500", "123601.237500", "123601.697500", "123602.157500", "123602.617500", "123603.077500", "123603.537500", "123603.997500", "123604.457500", "123604.917500", "123605.377500", "123605.837500", "123606.297500", "123606.757500", "123607.217500", "123607.677500", "123608.137500", "123608.597500", "123609.057500", "123609.517500", "123609.977500", "123610.437500", "123610.897500", "123611.357500", "123611.817500", "123612.277500", "123612.737500", "123613.197500", "123613.657500", "123614.117500", "123614.577500", "123615.037500", "123615.497500", "123615.957500", "123616.417500", "123616.877500", "123617.337500", "123617.797500", "123618.257500", "123618.717500", "123619.177500", "123619.637500", "123620.097500", "123620.557500", "123621.017500", "123621.477500", "123621.937500", "123622.397500", "123622.857500", "123623.317500", "123623.777500", "123624.237500", "123624.697500", "123625.157500", "123625.617500", "123626.077500", "123626.537500", "123626.997500", "123627.457500", "123627.917500", "123628.377500", "123628.837500", "123629.297500", "123629.757500", "123630.217500", "123630.677500", "123631.137500", "123631.597500", "123632.057500", "123632.517500", "123632.977500", "123633.437500", "123633.897500", "123634.357500", "123634.817500", "123635.277500", "123635.737500", "123636.197500", "123636.657500", "123637.117500", "123637.577500", "123638.037500", "123638.497500", "123638.957500", "123639.417500", "123639.877500", "123640.337500", "123640.797500", "123641.257500", "123641.717500", "123642.177500", "123642.637500", "123643.097500", "123643.557500", "123644.017500", "123644.477500", "123644.937500", "123645.397500", "123645.857500", "123646.317500", "123646.777500", "123647.237500", "123647.697500", "123648.157500", "123648.617500", "123649.077500", "123649.537500", "123649.997500", "123650.457500", "123650.917500", "123651.377500", "123651.837500", "123652.297500", "123652.757500", "123653.217500", "123653.677500", "123654.137500", "123654.597500", "123655.057500", "123655.517500", "123655.977500", "123656.437500", "123656.897500", "123657.357500", "123657.817500", "123658.277500", "123658.737500", "123659.197500", "123659.657500", "123700.117500", "123700.577500", "123701.037500", "123701.497500", "123701.957500", "123702.417500", "123702.877500", "123703.337500", "123703.797500", "123704.257500", "123704.717500", "123705.177500", "123705.637500", "123706.097500", "123706.557500", "123707.017500", "123707.477500", "123707.937500", "123708.397500", "123708.857500", "123709.317500", "123709.777500", "123710.237500", "123710.697500", "123711.157500", "123711.617500", "123712.077500", "123712.537500", "123712.997500", "123713.457500", "123713.917500", "123714.377500", "123714.837500", "123715.297500", "123715.757500", "123716.217500", "123716.677500", "123717.137500", "123717.597500", "123718.057500", "123718.517500", "123718.977500", "123719.437500", "123719.897500", "123720.357500", "123720.817500", "123721.277500", "123721.737500", "123722.197500", "123722.657500", "123723.117500", "123723.577500", "123724.037500", "123724.497500", "123724.957500", "123725.417500", "123725.877500", "123726.337500", "123726.797500", "123727.257500", "123727.717500", "123728.177500", "123728.637500", "123729.097500", "123729.557500", "123730.017500", "123730.477500", "123730.937500", "123731.397500", "123731.857500", "123732.317500", "123732.777500", "123733.237500", "123733.697500", "123734.157500", "123734.617500", "123735.077500", "123735.537500", "123735.997500", "123736.457500", "123736.917500", "123737.377500", "123737.837500", "123738.297500", "123738.757500", "123739.217500", "123739.677500", "123740.137500", "123740.597500", "123741.057500", "123741.517500", "123741.977500", "123742.437500", "123742.897500", "123743.357500", "123743.817500", "123744.277500", "123744.737500", "123745.197500", "123745.657500", "123746.117500", "123746.577500", "123747.037500", "123747.497500", "123747.957500", "123748.417500", "123748.877500", "123749.337500", "123749.797500", "123750.257500", "123750.717500", "123751.177500", "123751.637500", "123752.097500", "123752.557500", "123753.017500", "123753.477500", "123753.937500", "123754.397500", "123754.857500", "123755.317500", "123755.777500", "123756.237500", "123756.697500", "123757.157500", "123757.617500", "123758.077500", "123758.537500", "123758.997500", "123759.457500", "123759.917500", "123800.377500", "123800.837500", "123801.297500", "123801.757500", "123802.217500", "123802.677500", "123803.137500", "123803.597500", "123804.057500", "123804.517500", "123804.977500", "123805.437500", "123805.897500", "123806.357500", "123806.817500", "123807.277500", "123807.737500", "123808.197500", "123808.657500", "123809.117500", "123809.577500", "123810.037500", "123810.497500", "123810.957500", "123811.417500", "123811.877500", "123812.337500", "123812.797500", "123813.257500", "123813.717500", "123814.177500", "123814.637500", "123815.097500", "123815.557500", "123816.017500", "123816.477500", "123816.937500", "123817.397500", "123817.857500", "123818.317500", "123818.777500", "123819.237500", "123819.697500", "123820.157500", "123820.617500", "123821.077500", "123821.537500", "123821.997500", "123822.457500", "123822.917500", "123823.377500", "123823.837500", "123824.297500", "123824.757500", "123825.217500", "123825.677500", "123826.137500", "123826.597500", "123827.057500", "123827.517500", "123827.977500", "123828.437500", "123828.897500", "123829.357500", "123829.817500", "123830.277500", "123830.737500", "123831.197500", "123831.657500", "123832.117500", "123832.577500", "123833.037500", "123833.497500", "123833.957500", "123834.417500", "123834.877500", "123835.337500", "123835.797500", "123836.257500", "123836.717500", "123837.177500", "123837.637500", "123838.097500", "123838.557500", "123839.017500", "123839.477500", "123839.937500"],
