{
  "AcquisitionMatrixPE": 82,
  "AcquisitionNumber": 1,
  "AcquisitionTime": "11:51:38.057500",
  "BandwidthPerPixelPhaseEncode": 24.888,
  "BaseResolution": 82,
  "BodyPartExamined": "BRAIN",
  "ConsistencyInfo": "N4_VE11E_LATEST_20181129",
  "ConversionSoftware": "dcm2niix",
  "ConversionSoftwareVersion": "v1.0.20201102",
  "DerivedVendorReportedEchoSpacing": 0.00049,
  "DeviceSerialNumber": "66112",
  "DwellTime": 2e-06,
  "EchoTime": 0.0272,
  "EchoTrainLength": 82,
  "EffectiveEchoSpacing": 0.00049,
  "FlipAngle": 44,
  "ImageComments": "Unaliased MB8/PE3",
  "ImageOrientationPatientDICOM": [0.999683, -0.0220464, 0.0121714, 0.0225114, 0.998966, -0.0394924],
  "ImageType": [
    "ORIGINAL",
    "PRIMARY",
    "M",
    "MB",
    "ND",
    "NORM",
    "MOSAIC"
],
  "ImagingFrequency": 123.252,
  "InPlanePhaseEncodingDirectionDICOM": "COL",
  "InstitutionAddress": "Maynard 3,Hanover,NH,US,03755",
  "InstitutionName": "Dartmouth College - PBS",
  "InstitutionalDepartmentName": "Department",
  "MRAcquisitionType": "2D",
  "MagneticFieldStrength": 3,
  "Manufacturer": "Siemens",
  "ManufacturersModelName": "Prisma",
  "Modality": "MR",
  "MultibandAccelerationFactor": 8,
  "PartialFourier": 1,
  "PatientPosition": "HFS",
  "PercentPhaseFOV": 100,
  "PercentSampling": 100,
  "PhaseEncodingDirection": "j-",
  "PhaseEncodingSteps": 82,
  "PhaseResolution": 1,
  "PixelBandwidth": 3050,
  "ProcedureStepDescription": "Wager_Wager^1076_spacetop",
  "ProtocolName": "func_run-03_task-faces_acq-ap-mb8",
  "PulseSequenceDetails": "%CustomerSeq%\\cmrr_mbep2d_bold",
  "ReceiveCoilActiveElements": "HEA;HEP",
  "ReceiveCoilName": "Head_32",
  "ReconMatrixPE": 82,
  "RepetitionTime": 0.46,
  "SAR": 0.10782,
  "ScanOptions": "FS",
  "ScanningSequence": "EP",
  "SequenceName": "epfid2d1_82",
  "SequenceVariant": "SK\\SS",
  "SeriesDescription": "func_run-03_task-faces_acq-ap-mb8",
  "SeriesNumber": 22,
  "ShimSetting": [4143, -7719, -7296, 480, -76, -132, -33, 72],
  "SliceThickness": 2.7,
  "SliceTiming": [0, 0.2525, 0.065, 0.315, 0.1275, 0.3775, 0.19, 0, 0.2525, 0.065, 0.315, 0.1275, 0.3775, 0.19, 0, 0.2525, 0.065, 0.315, 0.1275, 0.3775, 0.19, 0, 0.2525, 0.065, 0.315, 0.1275, 0.3775, 0.19, 0, 0.2525, 0.065, 0.315, 0.1275, 0.3775, 0.19, 0, 0.2525, 0.065, 0.315, 0.1275, 0.3775, 0.19, 0, 0.2525, 0.065, 0.315, 0.1275, 0.3775, 0.19, 0, 0.2525, 0.065, 0.315, 0.1275, 0.3775, 0.19],
  "SoftwareVersions": "syngo MR E11",
  "SpacingBetweenSlices": 2.7,
  "StationName": "AWP66112",
  "TaskName": "faces",
  "TotalReadoutTime": 0.03969,
  "TxRefAmp": 273.474,
  "WipMemBlock": "94f09c1b-05fb-443c-910a-4f7c11e40dad||Sequence: R016 ve11e/master r/434b28f1; Aug  7 2019 18:53:46 by eja",
  "dcmmeta_affine": [
    [-2.6820759773254395, 0.060396526008844376, 0.030478093773126602, 105.29087829589844],
    [0.059148889034986496, 2.6801533699035645, -0.10733535140752792, -92.33726501464844],
    [0.032655056565999985, 0.10595512390136719, 2.6976935863494873, -64.97203063964844],
    [0.0, 0.0, 0.0, 1.0]
],
  "dcmmeta_reorient_transform": [
    [0.0, -1.0, 0.0, 81.0],
    [1.0, 0.0, 0.0, 0.0],
    [0.0, 0.0, 1.0, 0.0],
    [0.0, 0.0, 0.0, 1.0]
],
  "dcmmeta_shape": [82, 82, 56, 914],
  "dcmmeta_slice_dim": 2,
  "dcmmeta_version": 0.6,
  "global": {
    "const": {
      "AccessionNumber": "A003941",
      "AcquisitionMatrix": [82, 0, 0, 82],
      "AngioFlag": "N",
      "BitsAllocated": 16,
      "BitsStored": 16,
      "BodyPartExamined": "BRAIN",
      "Columns": 656,
      "EchoNumbers": 1,
      "EchoTime": 27.2,
      "EchoTrainLength": 82,
      "FlipAngle": 44.0,
      "HighBit": 15,
      "ImageOrientationPatient": [0.99968285589601, -0.0220464039463, 0.01217142968737, 0.02251143158156, 0.99896626005932, -0.0394923626951],
      "ImagePositionPatient": [-897.27262021258, -876.98347352079, -35.352548320201],
      "ImageType": [
        "ORIGINAL",
        "PRIMARY",
        "M",
        "MB",
        "ND",
        "NORM",
        "MOSAIC"
],
      "ImagedNucleus": "1H",
      "ImagingFrequency": 123.252179,
      "InPlanePhaseEncodingDirection": "COL",
      "MRAcquisitionType": "2D",
      "MagneticFieldStrength": 3.0,
      "Manufacturer": "SIEMENS",
      "ManufacturerModelName": "Prisma",
      "Modality": "MR",
      "NumberOfAverages": 1.0,
      "NumberOfPhaseEncodingSteps": 82,
      "PercentPhaseFieldOfView": 100.0,
      "PercentSampling": 100.0,
      "PerformedProcedureStepStartTime": "103330.940000",
      "PhotometricInterpretation": "MONOCHROME2",
      "PixelBandwidth": 3050.0,
      "PixelRepresentation": 0,
      "PixelSpacing": [2.6829268932343, 2.6829268932343],
      "ProtocolName": "func_run-03_task-faces_acq-ap-mb8",
      "RepetitionTime": 460.0,
      "Rows": 656,
      "SAR": 0.10781990359074,
      "SamplesPerPixel": 1,
      "ScanOptions": "FS",
      "ScanningSequence": "EP",
      "SequenceName": "epfid2d1_82",
      "SequenceVariant": [
        "SK",
        "SS"
],
      "SeriesDescription": "func_run-03_task-faces_acq-ap-mb8",
      "SeriesNumber": 22,
      "SeriesTime": "115203.656000",
      "SliceLocation": -60.0572261295,
      "SliceThickness": 2.7000000476837,
      "SmallestImagePixelValue": 0,
      "SoftwareVersions": "syngo MR E11",
      "SpacingBetweenSlices": 2.6999999974685,
      "SpecificCharacterSet": "ISO_IR 100",
      "StudyID": "2",
      "StudyTime": "103330.885000",
      "TransmitCoilName": "Body",
      "VariableFlipAngleFlag": "N",
      "WindowCenterWidthExplanation": "Algo1"
    },
    "slices": {}
  },
  "time": {
    "samples": {
      "AcquisitionNumber": [1, 2, 3, 4, 5, 6, 7, 8, 9, 10, 11, 12, 13, 14, 15, 16, 17, 18, 19, 20, 21, 22, 23, 24, 25, 26, 27, 28, 29, 30, 31, 32, 33, 34, 35, 36, 37, 38, 39, 40, 41, 42, 43, 44, 45, 46, 47, 48, 49, 50, 51, 52, 53, 54, 55, 56, 57, 58, 59, 60, 61, 62, 63, 64, 65, 66, 67, 68, 69, 70, 71, 72, 73, 74, 75, 76, 77, 78, 79, 80, 81, 82, 83, 84, 85, 86, 87, 88, 89, 90, 91, 92, 93, 94, 95, 96, 97, 98, 99, 100, 101, 102, 103, 104, 105, 106, 107, 108, 109, 110, 111, 112, 113, 114, 115, 116, 117, 118, 119, 120, 121, 122, 123, 124, 125, 126, 127, 128, 129, 130, 131, 132, 133, 134, 135, 136, 137, 138, 139, 140, 141, 142, 143, 144, 145, 146, 147, 148, 149, 150, 151, 152, 153, 154, 155, 156, 157, 158, 159, 160, 161, 162, 163, 164, 165, 166, 167, 168, 169, 170, 171, 172, 173, 174, 175, 176, 177, 178, 179, 180, 181, 182, 183, 184, 185, 186, 187, 188, 189, 190, 191, 192, 193, 194, 195, 196, 197, 198, 199, 200, 201, 202, 203, 204, 205, 206, 207, 208, 209, 210, 211, 212, 213, 214, 215, 216, 217, 218, 219, 220, 221, 222, 223, 224, 225, 226, 227, 228, 229, 230, 231, 232, 233, 234, 235, 236, 237, 238, 239, 240, 241, 242, 243, 244, 245, 246, 247, 248, 249, 250, 251, 252, 253, 254, 255, 256, 257, 258, 259, 260, 261, 262, 263, 264, 265, 266, 267, 268, 269, 270, 271, 272, 273, 274, 275, 276, 277, 278, 279, 280, 281, 282, 283, 284, 285, 286, 287, 288, 289, 290, 291, 292, 293, 294, 295, 296, 297, 298, 299, 300, 301, 302, 303, 304, 305, 306, 307, 308, 309, 310, 311, 312, 313, 314, 315, 316, 317, 318, 319, 320, 321, 322, 323, 324, 325, 326, 327, 328, 329, 330, 331, 332, 333, 334, 335, 336, 337, 338, 339, 340, 341, 342, 343, 344, 345, 346, 347, 348, 349, 350, 351, 352, 353, 354, 355, 356, 357, 358, 359, 360, 361, 362, 363, 364, 365, 366, 367, 368, 369, 370, 371, 372, 373, 374, 375, 376, 377, 378, 379, 380, 381, 382, 383, 384, 385, 386, 387, 388, 389, 390, 391, 392, 393, 394, 395, 396, 397, 398, 399, 400, 401, 402, 403, 404, 405, 406, 407, 408, 409, 410, 411, 412, 413, 414, 415, 416, 417, 418, 419, 420, 421, 422, 423, 424, 425, 426, 427, 428, 429, 430, 431, 432, 433, 434, 435, 436, 437, 438, 439, 440, 441, 442, 443, 444, 445, 446, 447, 448, 449, 450, 451, 452, 453, 454, 455, 456, 457, 458, 459, 460, 461, 462, 463, 464, 465, 466, 467, 468, 469, 470, 471, 472, 473, 474, 475, 476, 477, 478, 479, 480, 481, 482, 483, 484, 485, 486, 487, 488, 489, 490, 491, 492, 493, 494, 495, 496, 497, 498, 499, 500, 501, 502, 503, 504, 505, 506, 507, 508, 509, 510, 511, 512, 513, 514, 515, 516, 517, 518, 519, 520, 521, 522, 523, 524, 525, 526, 527, 528, 529, 530, 531, 532, 533, 534, 535, 536, 537, 538, 539, 540, 541, 542, 543, 544, 545, 546, 547, 548, 549, 550, 551, 552, 553, 554, 555, 556, 557, 558, 559, 560, 561, 562, 563, 564, 565, 566, 567, 568, 569, 570, 571, 572, 573, 574, 575, 576, 577, 578, 579, 580, 581, 582, 583, 584, 585, 586, 587, 588, 589, 590, 591, 592, 593, 594, 595, 596, 597, 598, 599, 600, 601, 602, 603, 604, 605, 606, 607, 608, 609, 610, 611, 612, 613, 614, 615, 616, 617, 618, 619, 620, 621, 622, 623, 624, 625, 626, 627, 628, 629, 630, 631, 632, 633, 634, 635, 636, 637, 638, 639, 640, 641, 642, 643, 644, 645, 646, 647, 648, 649, 650, 651, 652, 653, 654, 655, 656, 657, 658, 659, 660, 661, 662, 663, 664, 665, 666, 667, 668, 669, 670, 671, 672, 673, 674, 675, 676, 677, 678, 679, 680, 681, 682, 683, 684, 685, 686, 687, 688, 689, 690, 691, 692, 693, 694, 695, 696, 697, 698, 699, 700, 701, 702, 703, 704, 705, 706, 707, 708, 709, 710, 711, 712, 713, 714, 715, 716, 717, 718, 719, 720, 721, 722, 723, 724, 725, 726, 727, 728, 729, 730, 731, 732, 733, 734, 735, 736, 737, 738, 739, 740, 741, 742, 743, 744, 745, 746, 747, 748, 749, 750, 751, 752, 753, 754, 755, 756, 757, 758, 759, 760, 761, 762, 763, 764, 765, 766, 767, 768, 769, 770, 771, 772, 773, 774, 775, 776, 777, 778, 779, 780, 781, 782, 783, 784, 785, 786, 787, 788, 789, 790, 791, 792, 793, 794, 795, 796, 797, 798, 799, 800, 801, 802, 803, 804, 805, 806, 807, 808, 809, 810, 811, 812, 813, 814, 815, 816, 817, 818, 819, 820, 821, 822, 823, 824, 825, 826, 827, 828, 829, 830, 831, 832, 833, 834, 835, 836, 837, 838, 839, 840, 841, 842, 843, 844, 845, 846, 847, 848, 849, 850, 851, 852, 853, 854, 855, 856, 857, 858, 859, 860, 861, 862, 863, 864, 865, 866, 867, 868, 869, 870, 871, 872, 873, 874, 875, 876, 877, 878, 879, 880, 881, 882, 883, 884, 885, 886, 887, 888, 889, 890, 891, 892, 893, 894, 895, 896, 897, 898, 899, 900, 901, 902, 903, 904, 905, 906, 907, 908, 909, 910, 911, 912, 913, 914],
      "AcquisitionTime": ["115138.057500", "115138.517500", "115138.977500", "115139.437500", "115139.897500", "115140.357500", "115140.817500", "115141.277500", "115141.737500", "115142.197500", "115142.657500", "115143.117500", "115143.577500", "115144.037500", "115144.497500", "115144.957500", "115145.417500", "115145.877500", "115146.337500", "115146.797500", "115147.257500", "115147.717500", "115148.177500", "115148.637500", "115149.097500", "115149.557500", "115150.017500", "115150.477500", "115150.937500", "115151.397500", "115151.857500", "115152.317500", "115152.777500", "115153.237500", "115153.697500", "115154.157500", "115154.617500", "115155.077500", "115155.537500", "115155.997500", "115156.457500", "115156.917500", "115157.377500", "115157.837500", "115158.297500", "115158.757500", "115159.217500", "115159.677500", "115200.137500", "115200.597500", "115201.057500", "115201.517500", "115201.977500", "115202.437500", "115202.897500", "115203.357500", "115203.817500", "115204.277500", "115204.737500", "115205.197500", "115205.657500", "115206.117500", "115206.577500", "115207.037500", "115207.497500", "115207.957500", "115208.417500", "115208.877500", "115209.337500", "115209.797500", "115210.257500", "115210.717500", "115211.177500", "115211.637500", "115212.097500", "115212.557500", "115213.017500", "115213.477500", "115213.937500", "115214.397500", "115214.857500", "115215.317500", "115215.777500", "115216.237500", "115216.697500", "115217.157500", "115217.617500", "115218.077500", "115218.537500", "115218.997500", "115219.457500", "115219.917500", "115220.377500", "115220.837500", "115221.297500", "115221.757500", "115222.217500", "115222.677500", "115223.137500", "115223.597500", "115224.057500", "115224.517500", "115224.977500", "115225.437500", "115225.897500", "115226.357500", "115226.817500", "115227.277500", "115227.737500", "115228.197500", "115228.657500", "115229.117500", "115229.577500", "115230.037500", "115230.497500", "115230.957500", "115231.417500", "115231.877500", "115232.337500", "115232.797500", "115233.257500", "115233.717500", "115234.177500", "115234.637500", "115235.097500", "115235.557500", "115236.017500", "115236.477500", "115236.937500", "115237.397500", "115237.857500", "115238.317500", "115238.777500", "115239.237500", "115239.697500", "115240.157500", "115240.617500", "115241.077500", "115241.537500", "115241.997500", "115242.457500", "115242.917500", "115243.377500", "115243.837500", "115244.297500", "115244.757500", "115245.217500", "115245.677500", "115246.137500", "115246.597500", "115247.057500", "115247.517500", "115247.977500", "115248.437500", "115248.897500", "115249.357500", "115249.817500", "115250.277500", "115250.737500", "115251.197500", "115251.657500", "115252.117500", "115252.577500", "115253.037500", "115253.497500", "115253.957500", "115254.417500", "115254.877500", "115255.337500", "115255.797500", "115256.257500", "115256.717500", "115257.177500", "115257.637500", "115258.097500", "115258.557500", "115259.017500", "115259.477500", "115259.937500", "115300.397500", "115300.857500", "115301.317500", "115301.777500", "115302.237500", "115302.697500", "115303.157500", "115303.617500", "115304.077500", "115304.537500", "115304.997500", "115305.457500", "115305.917500", "115306.377500", "115306.837500", "115307.297500", "115307.757500", "115308.217500", "115308.677500", "115309.137500", "115309.597500", "115310.057500", "115310.517500", "115310.977500", "115311.437500", "115311.897500", "115312.357500", "115312.817500", "115313.277500", "115313.737500", "115314.197500", "115314.657500", "115315.117500", "115315.577500", "115316.037500", "115316.497500", "115316.957500", "115317.417500", "115317.877500", "115318.337500", "115318.797500", "115319.257500", "115319.717500", "115320.177500", "115320.637500", "115321.097500", "115321.557500", "115322.017500", "115322.477500", "115322.937500", "115323.397500", "115323.857500", "115324.317500", "115324.777500", "115325.237500", "115325.697500", "115326.157500", "115326.617500", "115327.077500", "115327.537500", "115327.997500", "115328.457500", "115328.917500", "115329.377500", "115329.837500", "115330.297500", "115330.757500", "115331.217500", "115331.677500", "115332.137500", "115332.597500", "115333.057500", "115333.517500", "115333.977500", "115334.437500", "115334.897500", "115335.357500", "115335.817500", "115336.277500", "115336.737500", "115337.197500", "115337.657500", "115338.117500", "115338.577500", "115339.037500", "115339.497500", "115339.957500", "115340.417500", "115340.877500", "115341.337500", "115341.797500", "115342.257500", "115342.717500", "115343.177500", "115343.637500", "115344.097500", "115344.557500", "115345.017500", "115345.477500", "115345.937500", "115346.397500", "115346.857500", "115347.317500", "115347.777500", "115348.237500", "115348.697500", "115349.157500", "115349.617500", "115350.077500", "115350.537500", "115350.997500", "115351.457500", "115351.917500", "115352.377500", "115352.837500", "115353.297500", "115353.757500", "115354.217500", "115354.677500", "115355.137500", "115355.597500", "115356.057500", "115356.517500", "115356.977500", "115357.437500", "115357.897500", "115358.357500", "115358.817500", "115359.277500", "115359.737500", "115400.197500", "115400.657500", "115401.117500", "115401.577500", "115402.037500", "115402.497500", "115402.957500", "115403.417500", "115403.877500", "115404.337500", "115404.797500", "115405.257500", "115405.717500", "115406.177500", "115406.637500", "115407.097500", "115407.557500", "115408.017500", "115408.477500", "115408.937500", "115409.397500", "115409.857500", "115410.317500", "115410.777500", "115411.237500", "115411.697500", "115412.157500", "115412.617500", "115413.077500", "115413.537500", "115413.997500", "115414.457500", "115414.917500", "115415.377500", "115415.837500", "115416.297500", "115416.757500", "115417.217500", "115417.677500", "115418.137500", "115418.597500", "115419.057500", "115419.517500", "115419.977500", "115420.437500", "115420.897500", "115421.357500", "115421.817500", "115422.277500", "115422.737500", "115423.197500", "115423.657500", "115424.117500", "115424.577500", "115425.037500", "115425.497500", "115425.957500", "115426.417500", "115426.877500", "115427.337500", "115427.797500", "115428.257500", "115428.717500", "115429.177500", "115429.637500", "115430.097500", "115430.557500", "115431.017500", "115431.477500", "115431.937500", "115432.397500", "115432.857500", "115433.317500", "115433.777500", "115434.237500", "115434.697500", "115435.157500", "115435.617500", "115436.077500", "115436.537500", "115436.997500", "115437.457500", "115437.917500", "115438.377500", "115438.837500", "115439.297500", "115439.757500", "115440.217500", "115440.677500", "115441.137500", "115441.597500", "115442.057500", "115442.517500", "115442.977500", "115443.437500", "115443.897500", "115444.357500", "115444.817500", "115445.277500", "115445.737500", "115446.197500", "115446.657500", "115447.117500", "115447.577500", "115448.037500", "115448.497500", "115448.957500", "115449.417500", "115449.877500", "115450.337500", "115450.797500", "115451.257500", "115451.717500", "115452.177500", "115452.637500", "115453.097500", "115453.557500", "115454.017500", "115454.477500", "115454.937500", "115455.397500", "115455.857500", "115456.317500", "115456.777500", "115457.237500", "115457.697500", "115458.157500", "115458.617500", "115459.077500", "115459.537500", "115459.997500", "115500.457500", "115500.917500", "115501.377500", "115501.837500", "115502.297500", "115502.757500", "115503.217500", "115503.677500", "115504.137500", "115504.597500", "115505.057500", "115505.517500", "115505.977500", "115506.437500", "115506.897500", "115507.357500", "115507.817500", "115508.277500", "115508.737500", "115509.197500", "115509.657500", "115510.117500", "115510.577500", "115511.037500", "115511.497500", "115511.957500", "115512.417500", "115512.877500", "115513.337500", "115513.797500", "115514.257500", "115514.717500", "115515.177500", "115515.637500", "115516.097500", "115516.557500", "115517.017500", "115517.477500", "115517.937500", "115518.397500", "115518.857500", "115519.317500", "115519.777500", "115520.237500", "115520.697500", "115521.157500", "115521.617500", "115522.077500", "115522.537500", "115522.997500", "115523.457500", "115523.917500", "115524.377500", "115524.837500", "115525.297500", "115525.757500", "115526.217500", "115526.677500", "115527.137500", "115527.597500", "115528.057500", "115528.517500", "115528.977500", "115529.437500", "115529.897500", "115530.357500", "115530.817500", "115531.277500", "115531.737500", "115532.197500", "115532.657500", "115533.117500", "115533.577500", "115534.037500", "115534.497500", "115534.957500", "115535.417500", "115535.877500", "115536.337500", "115536.797500", "115537.257500", "115537.717500", "115538.177500", "115538.637500", "115539.097500", "115539.557500", "115540.017500", "115540.477500", "115540.937500", "115541.397500", "115541.857500", "115542.317500", "115542.777500", "115543.237500", "115543.697500", "115544.157500", "115544.617500", "115545.077500", "115545.537500", "115545.997500", "115546.457500", "115546.917500", "115547.377500", "115547.837500", "115548.297500", "115548.757500", "115549.217500", "115549.677500", "115550.137500", "115550.597500", "115551.057500", "115551.517500", "115551.977500", "115552.437500", "115552.897500", "115553.357500", "115553.817500", "115554.277500", "115554.737500", "115555.197500", "115555.657500", "115556.117500", "115556.577500", "115557.037500", "115557.497500", "115557.957500", "115558.417500", "115558.877500", "115559.337500", "115559.797500", "115600.257500", "115600.717500", "115601.177500", "115601.637500", "115602.097500", "115602.557500", "115603.017500", "115603.477500", "115603.937500", "115604.397500", "115604.857500", "115605.317500", "115605.777500", "115606.237500", "115606.697500", "115607.157500", "115607.617500", "115608.077500", "115608.537500", "115608.997500", "115609.457500", "115609.917500", "115610.377500", "115610.837500", "115611.297500", "115611.757500", "115612.217500", "115612.677500", "115613.137500", "115613.597500", "115614.057500", "115614.517500", "115614.977500", "115615.437500", "115615.897500", "115616.357500", "115616.817500", "115617.277500", "115617.737500", "115618.197500", "115618.657500", "115619.117500", "115619.577500", "115620.037500", "115620.497500", "115620.957500", "115621.417500", "115621.877500", "115622.337500", "115622.797500", "115623.257500", "115623.717500", "115624.177500", "115624.637500", "115625.097500", "115625.557500", "115626.017500", "115626.477500", "115626.937500", "115627.397500", "115627.857500", "115628.317500", "115628.777500", "115629.237500", "115629.697500", "115630.157500", "115630.617500", "115631.077500", "115631.537500", "115631.997500", "115632.457500", "115632.917500", "115633.377500", "115633.837500", "115634.297500", "115634.757500", "115635.217500", "115635.677500", "115636.137500", "115636.597500", "115637.057500", "115637.517500", "115637.977500", "115638.437500", "115638.897500", "115639.357500", "115639.817500", "115640.277500", "115640.737500", "115641.197500", "115641.657500", "115642.117500", "115642.577500", "115643.037500", "115643.497500", "115643.957500", "115644.417500", "115644.877500", "115645.337500", "115645.797500", "115646.257500", "115646.717500", "115647.177500", "115647.637500", "115648.097500", "115648.557500", "115649.017500", "115649.477500", "115649.937500", "115650.397500", "115650.857500", "115651.317500", "115651.777500", "115652.237500", "115652.697500", "115653.157500", "115653.617500", "115654.077500", "115654.537500", "115654.997500", "115655.457500", "115655.917500", "115656.377500", "115656.837500", "115657.297500", "115657.757500", "115658.217500", "115658.677500", "115659.137500", "115659.597500", "115700.057500", "115700.517500", "115700.977500", "115701.437500", "115701.897500", "115702.357500", "115702.817500", "115703.277500", "115703.737500", "115704.197500", "115704.657500", "115705.117500", "115705.577500", "115706.037500", "115706.497500", "115706.957500", "115707.417500", "115707.877500", "115708.337500", "115708.797500", "115709.257500", "115709.717500", "115710.177500", "115710.637500", "115711.097500", "115711.557500", "115712.017500", "115712.477500", "115712.937500", "115713.397500", "115713.857500", "115714.317500", "115714.777500", "115715.237500", "115715.697500", "115716.157500", "115716.617500", "115717.077500", "115717.537500", "115717.997500", "115718.457500", "115718.917500", "115719.377500", "115719.837500", "115720.297500", "115720.757500", "115721.217500", "115721.677500", "115722.137500", "115722.597500", "115723.057500", "115723.517500", "115723.977500", "115724.437500", "115724.897500", "115725.357500", "115725.817500", "115726.277500", "115726.737500", "115727.197500", "115727.657500", "115728.117500", "115728.577500", "115729.037500", "115729.497500", "115729.957500", "115730.417500", "115730.877500", "115731.337500", "115731.797500", "115732.257500", "115732.717500", "115733.177500", "115733.637500", "115734.097500", "115734.557500", "115735.017500", "115735.477500", "115735.937500", "115736.397500", "115736.857500", "115737.317500", "115737.777500", "115738.237500", "115738.697500", "115739.157500", "115739.617500", "115740.077500", "115740.537500", "115740.997500", "115741.457500", "115741.917500", "115742.377500", "115742.837500", "115743.297500", "115743.757500", "115744.217500", "115744.677500", "115745.137500", "115745.597500", "115746.057500", "115746.517500", "115746.977500", "115747.437500", "115747.897500", "115748.357500", "115748.817500", "115749.277500", "115749.737500", "115750.197500", "115750.657500", "115751.117500", "115751.577500", "115752.037500", "115752.497500", "115752.957500", "115753.417500", "115753.877500", "115754.337500", "115754.797500", "115755.257500", "115755.717500", "115756.177500", "115756.637500", "115757.097500", "115757.557500", "115758.017500", "115758.477500", "115758.937500", "115759.397500", "115759.857500", "115800.317500", "115800.777500", "115801.237500", "115801.697500", "115802.157500", "115802.617500", "115803.077500", "115803.537500", "115803.997500", "115804.457500", "115804.917500", "115805.377500", "115805.837500", "115806.297500", "115806.757500", "115807.217500", "115807.677500", "115808.137500", "115808.597500", "115809.057500", "115809.517500", "115809.977500", "115810.437500", "115810.897500", "115811.357500", "115811.817500", "115812.277500", "115812.737500", "115813.197500", "115813.657500", "115814.117500", "115814.577500", "115815.037500", "115815.497500", "115815.957500", "115816.417500", "115816.877500", "115817.337500", "115817.797500", "115818.257500", "115818.717500", "115819.177500", "115819.637500", "115820.097500", "115820.557500", "115821.017500", "115821.477500", "115821.937500", "115822.397500", "115822.857500", "115823.317500", "115823.777500", "115824.237500", "115824.697500", "115825.157500", "115825.617500", "115826.077500", "115826.537500", "115826.997500", "115827.457500", "115827.917500", "115828.377500", "115828.837500", "115829.297500", "115829.757500", "115830.217500", "115830.677500", "115831.137500", "115831.597500", "115832.057500", "115832.517500", "115832.977500", "115833.437500", "115833.897500", "115834.357500", "115834.817500", "115835.277500", "115835.737500", "115836.197500", "115836.657500", "115837.117500", "115837.577500", "115838.037500"],
