{
  "AcquisitionMatrixPE": 82,
  "AcquisitionNumber": 1,
  "AcquisitionTime": "14:56:9.715000",
  "BandwidthPerPixelPhaseEncode": 24.888,
  "BaseResolution": 82,
  "BodyPartExamined": "BRAIN",
  "ConsistencyInfo": "N4_VE11E_LATEST_20181129",
  "ConversionSoftware": "dcm2niix",
  "ConversionSoftwareVersion": "v1.0.20201102",
  "DerivedVendorReportedEchoSpacing": 0.00049,
  "DeviceSerialNumber": "66112",
  "DwellTime": 2e-06,
  "EchoTime": 0.0272,
  "EchoTrainLength": 82,
  "EffectiveEchoSpacing": 0.00049,
  "FlipAngle": 44,
  "ImageComments": "Unaliased MB8/PE3",
  "ImageOrientationPatientDICOM": [0.99829, 0.0499808, 0.0303313, -0.0489992, 0.998277, -0.0322874],
  "ImageType": [
    "ORIGINAL",
    "PRIMARY",
    "M",
    "MB",
    "ND",
    "NORM",
    "MOSAIC"
],
  "ImagingFrequency": 123.252,
  "InPlanePhaseEncodingDirectionDICOM": "COL",
  "InstitutionAddress": "Maynard 3,Hanover,NH,US,03755",
  "InstitutionName": "Dartmouth College - PBS",
  "InstitutionalDepartmentName": "Department",
  "MRAcquisitionType": "2D",
  "MagneticFieldStrength": 3,
  "Manufacturer": "Siemens",
  "ManufacturersModelName": "Prisma",
  "Modality": "MR",
  "MultibandAccelerationFactor": 8,
  "PartialFourier": 1,
  "PatientPosition": "HFS",
  "PercentPhaseFOV": 100,
  "PercentSampling": 100,
  "PhaseEncodingDirection": "j-",
  "PhaseEncodingSteps": 82,
  "PhaseResolution": 1,
  "PixelBandwidth": 3050,
  "ProcedureStepDescription": "Wager_Wager^1076_spacetop",
  "ProtocolName": "func_run-06_task-social_acq-ap-mb8",
  "PulseSequenceDetails": "%CustomerSeq%\\cmrr_mbep2d_bold",
  "ReceiveCoilActiveElements": "HEA;HEP",
  "ReceiveCoilName": "Head_32",
  "ReconMatrixPE": 82,
  "RepetitionTime": 0.46,
  "SAR": 0.10365,
  "ScanOptions": "FS",
  "ScanningSequence": "EP",
  "SequenceName": "epfid2d1_82",
  "SequenceVariant": "SK\\SS",
  "SeriesDescription": "func_run-06_task-social_acq-ap-mb8",
  "SeriesNumber": 22,
  "ShimSetting": [4154, -7805, -7195, 505, -51, -294, -140, 54],
  "SliceThickness": 2.7,
  "SliceTiming": [0, 0.2525, 0.0625, 0.315, 0.125, 0.3775, 0.19, 0, 0.2525, 0.0625, 0.315, 0.125, 0.3775, 0.19, 0, 0.2525, 0.0625, 0.315, 0.125, 0.3775, 0.19, 0, 0.2525, 0.0625, 0.315, 0.125, 0.3775, 0.19, 0, 0.2525, 0.0625, 0.315, 0.125, 0.3775, 0.19, 0, 0.2525, 0.0625, 0.315, 0.125, 0.3775, 0.19, 0, 0.2525, 0.0625, 0.315, 0.125, 0.3775, 0.19, 0, 0.2525, 0.0625, 0.315, 0.125, 0.3775, 0.19],
  "SoftwareVersions": "syngo MR E11",
  "SpacingBetweenSlices": 2.7,
  "StationName": "AWP66112",
  "TaskName": "social",
  "TotalReadoutTime": 0.03969,
  "TxRefAmp": 263.489,
  "WipMemBlock": "8d17ef8e-e274-429e-b452-132084422d2a||Sequence: R016 ve11e/master r/434b28f1; Aug  7 2019 18:53:46 by eja",
  "dcmmeta_affine": [
    [-2.678337812423706, -0.13146118819713593, 0.08611041307449341, 115.68257904052734],
    [-0.13409483432769775, 2.6783037185668945, -0.08301421999931335, -85.75643920898438],
    [0.08137655258178711, 0.08662484586238861, 2.6973493099212646, -63.48495864868164],
    [0.0, 0.0, 0.0, 1.0]
],
  "dcmmeta_reorient_transform": [
    [0.0, -1.0, 0.0, 81.0],
    [1.0, 0.0, 0.0, 0.0],
    [0.0, 0.0, 1.0, 0.0],
    [0.0, 0.0, 0.0, 1.0]
],
  "dcmmeta_shape": [82, 82, 56, 872],
  "dcmmeta_slice_dim": 2,
  "dcmmeta_version": 0.6,
  "global": {
    "const": {
      "AccessionNumber": "A004186",
      "AcquisitionMatrix": [82, 0, 0, 82],
      "AngioFlag": "N",
      "BitsAllocated": 16,
      "BitsStored": 16,
      "BodyPartExamined": "BRAIN",
      "Columns": 656,
      "EchoNumbers": 1,
      "EchoTime": 27.2,
      "EchoTrainLength": 82,
      "FlipAngle": 44.0,
      "HighBit": 15,
      "ImageOrientationPatient": [0.99828950434165, 0.0499807984452, 0.03033125958622, -0.0489991664599, 0.99827681672225, -0.032287441539],
      "ImagePositionPatient": [-835.98780000582, -938.34454526298, -54.962084925974],
      "ImageType": [
        "ORIGINAL",
        "PRIMARY",
        "M",
        "MB",
        "ND",
        "NORM",
        "MOSAIC"
],
      "ImagedNucleus": "1H",
      "ImagingFrequency": 123.252156,
      "InPlanePhaseEncodingDirection": "COL",
      "MRAcquisitionType": "2D",
      "MagneticFieldStrength": 3.0,
      "Manufacturer": "SIEMENS",
      "ManufacturerModelName": "Prisma",
      "Modality": "MR",
      "NumberOfAverages": 1.0,
      "NumberOfPhaseEncodingSteps": 82,
      "PercentPhaseFieldOfView": 100.0,
      "PercentSampling": 100.0,
      "PerformedProcedureStepStartTime": "135301.859000",
      "PhotometricInterpretation": "MONOCHROME2",
      "PixelBandwidth": 3050.0,
      "PixelRepresentation": 0,
      "PixelSpacing": [2.6829268932343, 2.6829268932343],
      "ProtocolName": "func_run-06_task-social_acq-ap-mb8",
      "RepetitionTime": 460.0,
      "Rows": 656,
      "SAR": 0.10365014532941,
      "SamplesPerPixel": 1,
      "ScanOptions": "FS",
      "ScanningSequence": "EP",
      "SequenceName": "epfid2d1_82",
      "SequenceVariant": [
        "SK",
        "SS"
],
      "SeriesDescription": "func_run-06_task-social_acq-ap-mb8",
      "SeriesNumber": 22,
      "SeriesTime": "145627.510000",
      "SliceLocation": -57.096530331804,
      "SliceThickness": 2.7000000476837,
      "SmallestImagePixelValue": 0,
      "SoftwareVersions": "syngo MR E11",
      "SpacingBetweenSlices": 2.7000000369388,
      "SpecificCharacterSet": "ISO_IR 100",
      "StudyID": "1",
      "StudyTime": "135301.796000",
      "TransmitCoilName": "Body",
      "VariableFlipAngleFlag": "N",
      "WindowCenterWidthExplanation": "Algo1"
    },
    "slices": {}
  },
  "time": {
    "samples": {
      "AcquisitionNumber": [1, 2, 3, 4, 5, 6, 7, 8, 9, 10, 11, 12, 13, 14, 15, 16, 17, 18, 19, 20, 21, 22, 23, 24, 25, 26, 27, 28, 29, 30, 31, 32, 33, 34, 35, 36, 37, 38, 39, 40, 41, 42, 43, 44, 45, 46, 47, 48, 49, 50, 51, 52, 53, 54, 55, 56, 57, 58, 59, 60, 61, 62, 63, 64, 65, 66, 67, 68, 69, 70, 71, 72, 73, 74, 75, 76, 77, 78, 79, 80, 81, 82, 83, 84, 85, 86, 87, 88, 89, 90, 91, 92, 93, 94, 95, 96, 97, 98, 99, 100, 101, 102, 103, 104, 105, 106, 107, 108, 109, 110, 111, 112, 113, 114, 115, 116, 117, 118, 119, 120, 121, 122, 123, 124, 125, 126, 127, 128, 129, 130, 131, 132, 133, 134, 135, 136, 137, 138, 139, 140, 141, 142, 143, 144, 145, 146, 147, 148, 149, 150, 151, 152, 153, 154, 155, 156, 157, 158, 159, 160, 161, 162, 163, 164, 165, 166, 167, 168, 169, 170, 171, 172, 173, 174, 175, 176, 177, 178, 179, 180, 181, 182, 183, 184, 185, 186, 187, 188, 189, 190, 191, 192, 193, 194, 195, 196, 197, 198, 199, 200, 201, 202, 203, 204, 205, 206, 207, 208, 209, 210, 211, 212, 213, 214, 215, 216, 217, 218, 219, 220, 221, 222, 223, 224, 225, 226, 227, 228, 229, 230, 231, 232, 233, 234, 235, 236, 237, 238, 239, 240, 241, 242, 243, 244, 245, 246, 247, 248, 249, 250, 251, 252, 253, 254, 255, 256, 257, 258, 259, 260, 261, 262, 263, 264, 265, 266, 267, 268, 269, 270, 271, 272, 273, 274, 275, 276, 277, 278, 279, 280, 281, 282, 283, 284, 285, 286, 287, 288, 289, 290, 291, 292, 293, 294, 295, 296, 297, 298, 299, 300, 301, 302, 303, 304, 305, 306, 307, 308, 309, 310, 311, 312, 313, 314, 315, 316, 317, 318, 319, 320, 321, 322, 323, 324, 325, 326, 327, 328, 329, 330, 331, 332, 333, 334, 335, 336, 337, 338, 339, 340, 341, 342, 343, 344, 345, 346, 347, 348, 349, 350, 351, 352, 353, 354, 355, 356, 357, 358, 359, 360, 361, 362, 363, 364, 365, 366, 367, 368, 369, 370, 371, 372, 373, 374, 375, 376, 377, 378, 379, 380, 381, 382, 383, 384, 385, 386, 387, 388, 389, 390, 391, 392, 393, 394, 395, 396, 397, 398, 399, 400, 401, 402, 403, 404, 405, 406, 407, 408, 409, 410, 411, 412, 413, 414, 415, 416, 417, 418, 419, 420, 421, 422, 423, 424, 425, 426, 427, 428, 429, 430, 431, 432, 433, 434, 435, 436, 437, 438, 439, 440, 441, 442, 443, 444, 445, 446, 447, 448, 449, 450, 451, 452, 453, 454, 455, 456, 457, 458, 459, 460, 461, 462, 463, 464, 465, 466, 467, 468, 469, 470, 471, 472, 473, 474, 475, 476, 477, 478, 479, 480, 481, 482, 483, 484, 485, 486, 487, 488, 489, 490, 491, 492, 493, 494, 495, 496, 497, 498, 499, 500, 501, 502, 503, 504, 505, 506, 507, 508, 509, 510, 511, 512, 513, 514, 515, 516, 517, 518, 519, 520, 521, 522, 523, 524, 525, 526, 527, 528, 529, 530, 531, 532, 533, 534, 535, 536, 537, 538, 539, 540, 541, 542, 543, 544, 545, 546, 547, 548, 549, 550, 551, 552, 553, 554, 555, 556, 557, 558, 559, 560, 561, 562, 563, 564, 565, 566, 567, 568, 569, 570, 571, 572, 573, 574, 575, 576, 577, 578, 579, 580, 581, 582, 583, 584, 585, 586, 587, 588, 589, 590, 591, 592, 593, 594, 595, 596, 597, 598, 599, 600, 601, 602, 603, 604, 605, 606, 607, 608, 609, 610, 611, 612, 613, 614, 615, 616, 617, 618, 619, 620, 621, 622, 623, 624, 625, 626, 627, 628, 629, 630, 631, 632, 633, 634, 635, 636, 637, 638, 639, 640, 641, 642, 643, 644, 645, 646, 647, 648, 649, 650, 651, 652, 653, 654, 655, 656, 657, 658, 659, 660, 661, 662, 663, 664, 665, 666, 667, 668, 669, 670, 671, 672, 673, 674, 675, 676, 677, 678, 679, 680, 681, 682, 683, 684, 685, 686, 687, 688, 689, 690, 691, 692, 693, 694, 695, 696, 697, 698, 699, 700, 701, 702, 703, 704, 705, 706, 707, 708, 709, 710, 711, 712, 713, 714, 715, 716, 717, 718, 719, 720, 721, 722, 723, 724, 725, 726, 727, 728, 729, 730, 731, 732, 733, 734, 735, 736, 737, 738, 739, 740, 741, 742, 743, 744, 745, 746, 747, 748, 749, 750, 751, 752, 753, 754, 755, 756, 757, 758, 759, 760, 761, 762, 763, 764, 765, 766, 767, 768, 769, 770, 771, 772, 773, 774, 775, 776, 777, 778, 779, 780, 781, 782, 783, 784, 785, 786, 787, 788, 789, 790, 791, 792, 793, 794, 795, 796, 797, 798, 799, 800, 801, 802, 803, 804, 805, 806, 807, 808, 809, 810, 811, 812, 813, 814, 815, 816, 817, 818, 819, 820, 821, 822, 823, 824, 825, 826, 827, 828, 829, 830, 831, 832, 833, 834, 835, 836, 837, 838, 839, 840, 841, 842, 843, 844, 845, 846, 847, 848, 849, 850, 851, 852, 853, 854, 855, 856, 857, 858, 859, 860, 861, 862, 863, 864, 865, 866, 867, 868, 869, 870, 871, 872],
      "AcquisitionTime": ["145609.715000", "145610.175000", "145610.635000", "145611.095000", "145611.555000", "145612.015000", "145612.475000", "145612.935000", "145613.395000", "145613.855000", "145614.315000", "145614.775000", "145615.235000", "145615.695000", "145616.155000", "145616.615000", "145617.075000", "145617.535000", "145617.995000", "145618.455000", "145618.915000", "145619.375000", "145619.835000", "145620.295000", "145620.755000", "145621.215000", "145621.675000", "145622.135000", "145622.595000", "145623.055000", "145623.515000", "145623.975000", "145624.435000", "145624.895000", "145625.355000", "145625.815000", "145626.275000", "145626.735000", "145627.195000", "145627.655000", "145628.115000", "145628.575000", "145629.035000", "145629.495000", "145629.955000", "145630.415000", "145630.875000", "145631.335000", "145631.795000", "145632.255000", "145632.715000", "145633.175000", "145633.635000", "145634.095000", "145634.555000", "145635.015000", "145635.475000", "145635.935000", "145636.395000", "145636.855000", "145637.315000", "145637.775000", "145638.235000", "145638.695000", "145639.155000", "145639.615000", "145640.075000", "145640.535000", "145640.995000", "145641.455000", "145641.915000", "145642.375000", "145642.835000", "145643.295000", "145643.755000", "145644.215000", "145644.675000", "145645.135000", "145645.595000", "145646.055000", "145646.515000", "145646.975000", "145647.435000", "145647.895000", "145648.355000", "145648.815000", "145649.275000", "145649.735000", "145650.195000", "145650.655000", "145651.115000", "145651.575000", "145652.035000", "145652.495000", "145652.955000", "145653.415000", "145653.875000", "145654.335000", "145654.795000", "145655.255000", "145655.715000", "145656.175000", "145656.635000", "145657.095000", "145657.555000", "145658.015000", "145658.475000", "145658.935000", "145659.395000", "145659.855000", "145700.315000", "145700.775000", "145701.235000", "145701.695000", "145702.155000", "145702.615000", "145703.075000", "145703.535000", "145703.995000", "145704.455000", "145704.915000", "145705.375000", "145705.835000", "145706.295000", "145706.755000", "145707.215000", "145707.675000", "145708.135000", "145708.595000", "145709.055000", "145709.515000", "145709.975000", "145710.435000", "145710.895000", "145711.355000", "145711.815000", "145712.275000", "145712.735000", "145713.195000", "145713.655000", "145714.115000", "145714.575000", "145715.035000", "145715.495000", "145715.955000", "145716.415000", "145716.875000", "145717.335000", "145717.795000", "145718.255000", "145718.715000", "145719.175000", "145719.635000", "145720.095000", "145720.555000", "145721.015000", "145721.475000", "145721.935000", "145722.395000", "145722.855000", "145723.315000", "145723.775000", "145724.235000", "145724.695000", "145725.155000", "145725.615000", "145726.075000", "145726.535000", "145726.995000", "145727.455000", "145727.915000", "145728.375000", "145728.835000", "145729.295000", "145729.755000", "145730.215000", "145730.675000", "145731.135000", "145731.595000", "145732.055000", "145732.515000", "145732.975000", "145733.435000", "145733.895000", "145734.355000", "145734.815000", "145735.275000", "145735.735000", "145736.195000", "145736.655000", "145737.115000", "145737.575000", "145738.035000", "145738.495000", "145738.955000", "145739.415000", "145739.875000", "145740.335000", "145740.795000", "145741.255000", "145741.715000", "145742.175000", "145742.635000", "145743.095000", "145743.555000", "145744.015000", "145744.475000", "145744.935000", "145745.395000", "145745.855000", "145746.315000", "145746.775000", "145747.235000", "145747.695000", "145748.155000", "145748.615000", "145749.075000", "145749.535000", "145749.995000", "145750.455000", "145750.915000", "145751.375000", "145751.835000", "145752.295000", "145752.755000", "145753.215000", "145753.675000", "145754.135000", "145754.595000", "145755.055000", "145755.515000", "145755.975000", "145756.435000", "145756.895000", "145757.355000", "145757.815000", "145758.275000", "145758.735000", "145759.195000", "145759.655000", "145800.115000", "145800.575000", "145801.035000", "145801.495000", "145801.955000", "145802.415000", "145802.875000", "145803.335000", "145803.795000", "145804.255000", "145804.715000", "145805.175000", "145805.635000", "145806.095000", "145806.555000", "145807.015000", "145807.475000", "145807.935000", "145808.395000", "145808.855000", "145809.315000", "145809.775000", "145810.235000", "145810.695000", "145811.155000", "145811.615000", "145812.075000", "145812.535000", "145812.995000", "145813.455000", "145813.915000", "145814.375000", "145814.835000", "145815.295000", "145815.755000", "145816.215000", "145816.675000", "145817.135000", "145817.595000", "145818.055000", "145818.515000", "145818.975000", "145819.435000", "145819.895000", "145820.355000", "145820.815000", "145821.275000", "145821.735000", "145822.195000", "145822.655000", "145823.115000", "145823.575000", "145824.035000", "145824.495000", "145824.955000", "145825.415000", "145825.875000", "145826.335000", "145826.795000", "145827.255000", "145827.715000", "145828.175000", "145828.635000", "145829.095000", "145829.555000", "145830.015000", "145830.475000", "145830.935000", "145831.395000", "145831.855000", "145832.315000", "145832.775000", "145833.235000", "145833.695000", "145834.155000", "145834.615000", "145835.075000", "145835.535000", "145835.995000", "145836.455000", "145836.915000", "145837.375000", "145837.835000", "145838.295000", "145838.755000", "145839.215000", "145839.675000", "145840.135000", "145840.595000", "145841.055000", "145841.515000", "145841.975000", "145842.435000", "145842.895000", "145843.355000", "145843.815000", "145844.275000", "145844.735000", "145845.195000", "145845.655000", "145846.115000", "145846.575000", "145847.035000", "145847.495000", "145847.955000", "145848.415000", "145848.875000", "145849.335000", "145849.795000", "145850.255000", "145850.715000", "145851.175000", "145851.635000", "145852.095000", "145852.555000", "145853.015000", "145853.475000", "145853.935000", "145854.395000", "145854.855000", "145855.315000", "145855.775000", "145856.235000", "145856.695000", "145857.155000", "145857.615000", "145858.075000", "145858.535000", "145858.995000", "145859.455000", "145859.915000", "145900.375000", "145900.835000", "145901.295000", "145901.755000", "145902.215000", "145902.675000", "145903.135000", "145903.595000", "145904.055000", "145904.515000", "145904.975000", "145905.435000", "145905.895000", "145906.355000", "145906.815000", "145907.275000", "145907.735000", "145908.195000", "145908.655000", "145909.115000", "145909.575000", "145910.035000", "145910.495000", "145910.955000", "145911.415000", "145911.875000", "145912.335000", "145912.795000", "145913.255000", "145913.715000", "145914.175000", "145914.635000", "145915.095000", "145915.555000", "145916.015000", "145916.475000", "145916.935000", "145917.395000", "145917.855000", "145918.315000", "145918.775000", "145919.235000", "145919.695000", "145920.155000", "145920.615000", "145921.075000", "145921.535000", "145921.995000", "145922.455000", "145922.915000", "145923.375000", "145923.835000", "145924.295000", "145924.755000", "145925.215000", "145925.675000", "145926.135000", "145926.595000", "145927.055000", "145927.515000", "145927.975000", "145928.435000", "145928.895000", "145929.355000", "145929.815000", "145930.275000", "145930.735000", "145931.195000", "145931.655000", "145932.115000", "145932.575000", "145933.035000", "145933.495000", "145933.955000", "145934.415000", "145934.875000", "145935.335000", "145935.795000", "145936.255000", "145936.715000", "145937.175000", "145937.635000", "145938.095000", "145938.555000", "145939.015000", "145939.475000", "145939.935000", "145940.395000", "145940.855000", "145941.315000", "145941.775000", "145942.235000", "145942.695000", "145943.155000", "145943.615000", "145944.075000", "145944.535000", "145944.995000", "145945.455000", "145945.915000", "145946.375000", "145946.835000", "145947.295000", "145947.755000", "145948.215000", "145948.675000", "145949.135000", "145949.595000", "145950.055000", "145950.515000", "145950.975000", "145951.435000", "145951.895000", "145952.355000", "145952.815000", "145953.275000", "145953.735000", "145954.195000", "145954.655000", "145955.115000", "145955.575000", "145956.035000", "145956.495000", "145956.955000", "145957.415000", "145957.875000", "145958.335000", "145958.795000", "145959.255000", "145959.715000", "150000.175000", "150000.635000", "150001.095000", "150001.555000", "150002.015000", "150002.475000", "150002.935000", "150003.395000", "150003.855000", "150004.315000", "150004.775000", "150005.235000", "150005.695000", "150006.155000", "150006.615000", "150007.075000", "150007.535000", "150007.995000", "150008.455000", "150008.915000", "150009.375000", "150009.835000", "150010.295000", "150010.755000", "150011.215000", "150011.675000", "150012.135000", "150012.595000", "150013.055000", "150013.515000", "150013.975000", "150014.435000", "150014.895000", "150015.355000", "150015.815000", "150016.275000", "150016.735000", "150017.195000", "150017.655000", "150018.115000", "150018.575000", "150019.035000", "150019.495000", "150019.955000", "150020.415000", "150020.875000", "150021.335000", "150021.795000", "150022.255000", "150022.715000", "150023.175000", "150023.635000", "150024.095000", "150024.555000", "150025.015000", "150025.475000", "150025.935000", "150026.395000", "150026.855000", "150027.315000", "150027.775000", "150028.235000", "150028.695000", "150029.155000", "150029.615000", "150030.075000", "150030.535000", "150030.995000", "150031.455000", "150031.915000", "150032.375000", "150032.835000", "150033.295000", "150033.755000", "150034.215000", "150034.675000", "150035.135000", "150035.595000", "150036.055000", "150036.515000", "150036.975000", "150037.435000", "150037.895000", "150038.355000", "150038.815000", "150039.275000", "150039.735000", "150040.195000", "150040.655000", "150041.115000", "150041.575000", "150042.035000", "150042.495000", "150042.955000", "150043.415000", "150043.875000", "150044.335000", "150044.795000", "150045.255000", "150045.715000", "150046.175000", "150046.635000", "150047.095000", "150047.555000", "150048.015000", "150048.475000", "150048.935000", "150049.395000", "150049.855000", "150050.315000", "150050.775000", "150051.235000", "150051.695000", "150052.155000", "150052.615000", "150053.075000", "150053.535000", "150053.995000", "150054.455000", "150054.915000", "150055.375000", "150055.835000", "150056.295000", "150056.755000", "150057.215000", "150057.675000", "150058.135000", "150058.595000", "150059.055000", "150059.515000", "150059.975000", "150100.435000", "150100.895000", "150101.355000", "150101.815000", "150102.275000", "150102.735000", "150103.195000", "150103.655000", "150104.115000", "150104.575000", "150105.035000", "150105.495000", "150105.955000", "150106.415000", "150106.875000", "150107.335000", "150107.795000", "150108.255000", "150108.715000", "150109.175000", "150109.635000", "150110.095000", "150110.555000", "150111.015000", "150111.475000", "150111.935000", "150112.395000", "150112.855000", "150113.315000", "150113.775000", "150114.235000", "150114.695000", "150115.155000", "150115.615000", "150116.075000", "150116.535000", "150116.995000", "150117.455000", "150117.915000", "150118.375000", "150118.835000", "150119.295000", "150119.755000", "150120.215000", "150120.675000", "150121.135000", "150121.595000", "150122.055000", "150122.515000", "150122.975000", "150123.435000", "150123.895000", "150124.355000", "150124.815000", "150125.275000", "150125.735000", "150126.195000", "150126.655000", "150127.115000", "150127.575000", "150128.035000", "150128.495000", "150128.955000", "150129.415000", "150129.875000", "150130.335000", "150130.795000", "150131.255000", "150131.715000", "150132.175000", "150132.635000", "150133.095000", "150133.555000", "150134.015000", "150134.475000", "150134.935000", "150135.395000", "150135.855000", "150136.315000", "150136.775000", "150137.235000", "150137.695000", "150138.155000", "150138.615000", "150139.075000", "150139.535000", "150139.995000", "150140.455000", "150140.915000", "150141.375000", "150141.835000", "150142.295000", "150142.755000", "150143.215000", "150143.675000", "150144.135000", "150144.595000", "150145.055000", "150145.515000", "150145.975000", "150146.435000", "150146.895000", "150147.355000", "150147.815000", "150148.275000", "150148.735000", "150149.195000", "150149.655000", "150150.115000", "150150.575000", "150151.035000", "150151.495000", "150151.955000", "150152.415000", "150152.875000", "150153.335000", "150153.795000", "150154.255000", "150154.715000", "150155.175000", "150155.635000", "150156.095000", "150156.555000", "150157.015000", "150157.475000", "150157.935000", "150158.395000", "150158.855000", "150159.315000", "150159.775000", "150200.235000", "150200.695000", "150201.155000", "150201.615000", "150202.075000", "150202.535000", "150202.995000", "150203.455000", "150203.915000", "150204.375000", "150204.835000", "150205.295000", "150205.755000", "150206.215000", "150206.675000", "150207.135000", "150207.595000", "150208.055000", "150208.515000", "150208.975000", "150209.435000", "150209.895000", "150210.355000", "150210.815000", "150211.275000", "150211.735000", "150212.195000", "150212.655000", "150213.115000", "150213.575000", "150214.035000", "150214.495000", "150214.955000", "150215.415000", "150215.875000", "150216.335000", "150216.795000", "150217.255000", "150217.715000", "150218.175000", "150218.635000", "150219.095000", "150219.555000", "150220.015000", "150220.475000", "150220.935000", "150221.395000", "150221.855000", "150222.315000", "150222.775000", "150223.235000", "150223.695000", "150224.155000", "150224.615000", "150225.075000", "150225.535000", "150225.995000", "150226.455000", "150226.915000", "150227.375000", "150227.835000", "150228.295000", "150228.755000", "150229.215000", "150229.675000", "150230.135000", "150230.595000", "150231.055000", "150231.515000", "150231.975000", "150232.435000", "150232.895000", "150233.355000", "150233.815000", "150234.275000", "150234.735000", "150235.195000", "150235.655000", "150236.115000", "150236.575000", "150237.035000", "150237.495000", "150237.955000", "150238.415000", "150238.875000", "150239.335000", "150239.795000", "150240.255000", "150240.715000", "150241.175000", "150241.635000", "150242.095000", "150242.555000", "150243.015000", "150243.475000", "150243.935000", "150244.395000", "150244.855000", "150245.315000", "150245.775000", "150246.235000", "150246.695000", "150247.155000", "150247.615000", "150248.075000", "150248.535000", "150248.995000", "150249.455000", "150249.915000", "150250.375000"],
