{
  "AcquisitionMatrixPE": 82,
  "AcquisitionNumber": 1,
  "AcquisitionTime": "15:25:46.980000",
  "BandwidthPerPixelPhaseEncode": 24.888,
  "BaseResolution": 82,
  "BodyPartExamined": "BRAIN",
  "ConsistencyInfo": "N4_VE11E_LATEST_20181129",
  "ConversionSoftware": "dcm2niix",
  "ConversionSoftwareVersion": "v1.0.20201102",
  "DerivedVendorReportedEchoSpacing": 0.00049,
  "DeviceSerialNumber": "66112",
  "DwellTime": 2e-06,
  "EchoTime": 0.0272,
  "EchoTrainLength": 82,
  "EffectiveEchoSpacing": 0.00049,
  "FlipAngle": 44,
  "ImageComments": "Unaliased MB8/PE3",
  "ImageOrientationPatientDICOM": [0.999223, 0.0393673, 0.00184374, -0.0390849, 0.995884, -0.0817709],
  "ImageType": [
    "ORIGINAL",
    "PRIMARY",
    "M",
    "MB",
    "ND",
    "NORM",
    "MOSAIC"
],
  "ImagingFrequency": 123.252,
  "InPlanePhaseEncodingDirectionDICOM": "COL",
  "InstitutionAddress": "Maynard 3,Hanover,NH,US,03755",
  "InstitutionName": "Dartmouth College - PBS",
  "InstitutionalDepartmentName": "Department",
  "MRAcquisitionType": "2D",
  "MagneticFieldStrength": 3,
  "Manufacturer": "Siemens",
  "ManufacturersModelName": "Prisma",
  "Modality": "MR",
  "MultibandAccelerationFactor": 8,
  "PartialFourier": 1,
  "PatientPosition": "HFS",
  "PercentPhaseFOV": 100,
  "PercentSampling": 100,
  "PhaseEncodingDirection": "j-",
  "PhaseEncodingSteps": 82,
  "PhaseResolution": 1,
  "PixelBandwidth": 3050,
  "ProcedureStepDescription": "Wager_Wager^1076_spacetop",
  "ProtocolName": "func_run-03_task-alignvideo_acq-ap-mb8",
  "PulseSequenceDetails": "%CustomerSeq%\\cmrr_mbep2d_bold",
  "ReceiveCoilActiveElements": "HEA;HEP",
  "ReceiveCoilName": "Head_32",
  "ReconMatrixPE": 82,
  "RepetitionTime": 0.46,
  "SAR": 0.103742,
  "ScanOptions": "FS",
  "ScanningSequence": "EP",
  "SequenceName": "epfid2d1_82",
  "SequenceVariant": "SK\\SS",
  "SeriesDescription": "func_run-03_task-alignvideo_acq-ap-mb8",
  "SeriesNumber": 34,
  "ShimSetting": [4154, -7808, -7195, 507, -55, -303, -144, 53],
  "SliceThickness": 2.7,
  "SliceTiming": [0, 0.2525, 0.0625, 0.315, 0.125, 0.3775, 0.1875, 0, 0.2525, 0.0625, 0.315, 0.125, 0.3775, 0.1875, 0, 0.2525, 0.0625, 0.315, 0.125, 0.3775, 0.1875, 0, 0.2525, 0.0625, 0.315, 0.125, 0.3775, 0.1875, 0, 0.2525, 0.0625, 0.315, 0.125, 0.3775, 0.1875, 0, 0.2525, 0.0625, 0.315, 0.125, 0.3775, 0.1875, 0, 0.2525, 0.0625, 0.315, 0.125, 0.3775, 0.1875, 0, 0.2525, 0.0625, 0.315, 0.125, 0.3775, 0.1875],
  "SoftwareVersions": "syngo MR E11",
  "SpacingBetweenSlices": 2.7,
  "StationName": "AWP66112",
  "TaskName": "alignvideo",
  "TotalReadoutTime": 0.03969,
  "TxRefAmp": 263.489,
  "WipMemBlock": "1f63067e-a12d-4759-b637-d5943338c771||Sequence: R016 ve11e/master r/434b28f1; Aug  7 2019 18:53:46 by eja",
  "dcmmeta_affine": [
    [-2.680842638015747, -0.10486200451850891, 0.01364918239414692, 115.76432800292969],
    [-0.10561970621347427, 2.6718852519989014, -0.220415398478508, -84.57376861572266],
    [0.004946610424667597, 0.21938541531562805, 2.690953493118286, -65.77576446533203],
    [0.0, 0.0, 0.0, 1.0]
],
  "dcmmeta_reorient_transform": [
    [0.0, -1.0, 0.0, 81.0],
    [1.0, 0.0, 0.0, 0.0],
    [0.0, 0.0, 1.0, 0.0],
    [0.0, 0.0, 0.0, 1.0]
],
  "dcmmeta_shape": [82, 82, 56, 1016],
  "dcmmeta_slice_dim": 2,
  "dcmmeta_version": 0.6,
  "global": {
    "const": {
      "AccessionNumber": "A004186",
      "AcquisitionMatrix": [82, 0, 0, 82],
      "AngioFlag": "N",
      "BitsAllocated": 16,
      "BitsStored": 16,
      "BodyPartExamined": "BRAIN",
      "Columns": 656,
      "EchoNumbers": 1,
      "EchoTime": 27.2,
      "EchoTrainLength": 82,
      "FlipAngle": 44.0,
      "HighBit": 15,
      "ImageOrientationPatient": [0.99922310462111, 0.03936734467883, 0.00184373649974, -0.039084928189, 0.99588447342728, -0.0817709237744],
      "ImagePositionPatient": [-846.57691924061, -928.99285692909, 13.538391536036],
      "ImageType": [
        "ORIGINAL",
        "PRIMARY",
        "M",
        "MB",
        "ND",
        "NORM",
        "MOSAIC"
],
      "ImagedNucleus": "1H",
      "ImagingFrequency": 123.252158,
      "InPlanePhaseEncodingDirection": "COL",
      "MRAcquisitionType": "2D",
      "MagneticFieldStrength": 3.0,
      "Manufacturer": "SIEMENS",
      "ManufacturerModelName": "Prisma",
      "Modality": "MR",
      "NumberOfAverages": 1.0,
      "NumberOfPhaseEncodingSteps": 82,
      "PercentPhaseFieldOfView": 100.0,
      "PercentSampling": 100.0,
      "PerformedProcedureStepStartTime": "135301.859000",
      "PhotometricInterpretation": "MONOCHROME2",
      "PixelBandwidth": 3050.0,
      "PixelRepresentation": 0,
      "PixelSpacing": [2.6829268932343, 2.6829268932343],
      "ProtocolName": "func_run-03_task-alignvideo_acq-ap-mb8",
      "RepetitionTime": 460.0,
      "Rows": 656,
      "SAR": 0.10374153051727,
      "SamplesPerPixel": 1,
      "ScanOptions": "FS",
      "ScanningSequence": "EP",
      "SequenceName": "epfid2d1_82",
      "SequenceVariant": [
        "SK",
        "SS"
],
      "SeriesDescription": "func_run-03_task-alignvideo_acq-ap-mb8",
      "SeriesNumber": 34,
      "SeriesTime": "152607.510000",
      "SliceLocation": -58.065951505677,
      "SliceThickness": 2.7000000476837,
      "SmallestImagePixelValue": 0,
      "SoftwareVersions": "syngo MR E11",
      "SpacingBetweenSlices": 2.7000000464849,
      "SpecificCharacterSet": "ISO_IR 100",
      "StudyID": "1",
      "StudyTime": "135301.796000",
      "TransmitCoilName": "Body",
      "VariableFlipAngleFlag": "N",
      "WindowCenterWidthExplanation": "Algo1"
    },
    "slices": {}
  },
  "time": {
    "samples": {
      "AcquisitionNumber": [1, 2, 3, 4, 5, 6, 7, 8, 9, 10, 11, 12, 13, 14, 15, 16, 17, 18, 19, 20, 21, 22, 23, 24, 25, 26, 27, 28, 29, 30, 31, 32, 33, 34, 35, 36, 37, 38, 39, 40, 41, 42, 43, 44, 45, 46, 47, 48, 49, 50, 51, 52, 53, 54, 55, 56, 57, 58, 59, 60, 61, 62, 63, 64, 65, 66, 67, 68, 69, 70, 71, 72, 73, 74, 75, 76, 77, 78, 79, 80, 81, 82, 83, 84, 85, 86, 87, 88, 89, 90, 91, 92, 93, 94, 95, 96, 97, 98, 99, 100, 101, 102, 103, 104, 105, 106, 107, 108, 109, 110, 111, 112, 113, 114, 115, 116, 117, 118, 119, 120, 121, 122, 123, 124, 125, 126, 127, 128, 129, 130, 131, 132, 133, 134, 135, 136, 137, 138, 139, 140, 141, 142, 143, 144, 145, 146, 147, 148, 149, 150, 151, 152, 153, 154, 155, 156, 157, 158, 159, 160, 161, 162, 163, 164, 165, 166, 167, 168, 169, 170, 171, 172, 173, 174, 175, 176, 177, 178, 179, 180, 181, 182, 183, 184, 185, 186, 187, 188, 189, 190, 191, 192, 193, 194, 195, 196, 197, 198, 199, 200, 201, 202, 203, 204, 205, 206, 207, 208, 209, 210, 211, 212, 213, 214, 215, 216, 217, 218, 219, 220, 221, 222, 223, 224, 225, 226, 227, 228, 229, 230, 231, 232, 233, 234, 235, 236, 237, 238, 239, 240, 241, 242, 243, 244, 245, 246, 247, 248, 249, 250, 251, 252, 253, 254, 255, 256, 257, 258, 259, 260, 261, 262, 263, 264, 265, 266, 267, 268, 269, 270, 271, 272, 273, 274, 275, 276, 277, 278, 279, 280, 281, 282, 283, 284, 285, 286, 287, 288, 289, 290, 291, 292, 293, 294, 295, 296, 297, 298, 299, 300, 301, 302, 303, 304, 305, 306, 307, 308, 309, 310, 311, 312, 313, 314, 315, 316, 317, 318, 319, 320, 321, 322, 323, 324, 325, 326, 327, 328, 329, 330, 331, 332, 333, 334, 335, 336, 337, 338, 339, 340, 341, 342, 343, 344, 345, 346, 347, 348, 349, 350, 351, 352, 353, 354, 355, 356, 357, 358, 359, 360, 361, 362, 363, 364, 365, 366, 367, 368, 369, 370, 371, 372, 373, 374, 375, 376, 377, 378, 379, 380, 381, 382, 383, 384, 385, 386, 387, 388, 389, 390, 391, 392, 393, 394, 395, 396, 397, 398, 399, 400, 401, 402, 403, 404, 405, 406, 407, 408, 409, 410, 411, 412, 413, 414, 415, 416, 417, 418, 419, 420, 421, 422, 423, 424, 425, 426, 427, 428, 429, 430, 431, 432, 433, 434, 435, 436, 437, 438, 439, 440, 441, 442, 443, 444, 445, 446, 447, 448, 449, 450, 451, 452, 453, 454, 455, 456, 457, 458, 459, 460, 461, 462, 463, 464, 465, 466, 467, 468, 469, 470, 471, 472, 473, 474, 475, 476, 477, 478, 479, 480, 481, 482, 483, 484, 485, 486, 487, 488, 489, 490, 491, 492, 493, 494, 495, 496, 497, 498, 499, 500, 501, 502, 503, 504, 505, 506, 507, 508, 509, 510, 511, 512, 513, 514, 515, 516, 517, 518, 519, 520, 521, 522, 523, 524, 525, 526, 527, 528, 529, 530, 531, 532, 533, 534, 535, 536, 537, 538, 539, 540, 541, 542, 543, 544, 545, 546, 547, 548, 549, 550, 551, 552, 553, 554, 555, 556, 557, 558, 559, 560, 561, 562, 563, 564, 565, 566, 567, 568, 569, 570, 571, 572, 573, 574, 575, 576, 577, 578, 579, 580, 581, 582, 583, 584, 585, 586, 587, 588, 589, 590, 591, 592, 593, 594, 595, 596, 597, 598, 599, 600, 601, 602, 603, 604, 605, 606, 607, 608, 609, 610, 611, 612, 613, 614, 615, 616, 617, 618, 619, 620, 621, 622, 623, 624, 625, 626, 627, 628, 629, 630, 631, 632, 633, 634, 635, 636, 637, 638, 639, 640, 641, 642, 643, 644, 645, 646, 647, 648, 649, 650, 651, 652, 653, 654, 655, 656, 657, 658, 659, 660, 661, 662, 663, 664, 665, 666, 667, 668, 669, 670, 671, 672, 673, 674, 675, 676, 677, 678, 679, 680, 681, 682, 683, 684, 685, 686, 687, 688, 689, 690, 691, 692, 693, 694, 695, 696, 697, 698, 699, 700, 701, 702, 703, 704, 705, 706, 707, 708, 709, 710, 711, 712, 713, 714, 715, 716, 717, 718, 719, 720, 721, 722, 723, 724, 725, 726, 727, 728, 729, 730, 731, 732, 733, 734, 735, 736, 737, 738, 739, 740, 741, 742, 743, 744, 745, 746, 747, 748, 749, 750, 751, 752, 753, 754, 755, 756, 757, 758, 759, 760, 761, 762, 763, 764, 765, 766, 767, 768, 769, 770, 771, 772, 773, 774, 775, 776, 777, 778, 779, 780, 781, 782, 783, 784, 785, 786, 787, 788, 789, 790, 791, 792, 793, 794, 795, 796, 797, 798, 799, 800, 801, 802, 803, 804, 805, 806, 807, 808, 809, 810, 811, 812, 813, 814, 815, 816, 817, 818, 819, 820, 821, 822, 823, 824, 825, 826, 827, 828, 829, 830, 831, 832, 833, 834, 835, 836, 837, 838, 839, 840, 841, 842, 843, 844, 845, 846, 847, 848, 849, 850, 851, 852, 853, 854, 855, 856, 857, 858, 859, 860, 861, 862, 863, 864, 865, 866, 867, 868, 869, 870, 871, 872, 873, 874, 875, 876, 877, 878, 879, 880, 881, 882, 883, 884, 885, 886, 887, 888, 889, 890, 891, 892, 893, 894, 895, 896, 897, 898, 899, 900, 901, 902, 903, 904, 905, 906, 907, 908, 909, 910, 911, 912, 913, 914, 915, 916, 917, 918, 919, 920, 921, 922, 923, 924, 925, 926, 927, 928, 929, 930, 931, 932, 933, 934, 935, 936, 937, 938, 939, 940, 941, 942, 943, 944, 945, 946, 947, 948, 949, 950, 951, 952, 953, 954, 955, 956, 957, 958, 959, 960, 961, 962, 963, 964, 965, 966, 967, 968, 969, 970, 971, 972, 973, 974, 975, 976, 977, 978, 979, 980, 981, 982, 983, 984, 985, 986, 987, 988, 989, 990, 991, 992, 993, 994, 995, 996, 997, 998, 999, 1000, 1001, 1002, 1003, 1004, 1005, 1006, 1007, 1008, 1009, 1010, 1011, 1012, 1013, 1014, 1015, 1016],
      "AcquisitionTime": ["152546.980000", "152547.440000", "152547.900000", "152548.360000", "152548.820000", "152549.280000", "152549.740000", "152550.200000", "152550.660000", "152551.120000", "152551.580000", "152552.040000", "152552.500000", "152552.960000", "152553.420000", "152553.880000", "152554.340000", "152554.800000", "152555.260000", "152555.720000", "152556.180000", "152556.640000", "152557.100000", "152557.560000", "152558.020000", "152558.480000", "152558.940000", "152559.400000", "152559.860000", "152600.320000", "152600.780000", "152601.240000", "152601.700000", "152602.160000", "152602.620000", "152603.080000", "152603.540000", "152604.000000", "152604.460000", "152604.920000", "152605.380000", "152605.840000", "152606.300000", "152606.760000", "152607.220000", "152607.680000", "152608.140000", "152608.600000", "152609.060000", "152609.520000", "152609.980000", "152610.440000", "152610.900000", "152611.360000", "152611.820000", "152612.280000", "152612.740000", "152613.200000", "152613.660000", "152614.120000", "152614.580000", "152615.040000", "152615.500000", "152615.960000", "152616.420000", "152616.880000", "152617.340000", "152617.800000", "152618.260000", "152618.720000", "152619.180000", "152619.640000", "152620.100000", "152620.560000", "152621.020000", "152621.480000", "152621.940000", "152622.400000", "152622.860000", "152623.320000", "152623.780000", "152624.240000", "152624.700000", "152625.160000", "152625.620000", "152626.080000", "152626.540000", "152627.000000", "152627.460000", "152627.920000", "152628.380000", "152628.840000", "152629.300000", "152629.760000", "152630.220000", "152630.680000", "152631.140000", "152631.600000", "152632.060000", "152632.520000", "152632.980000", "152633.440000", "152633.900000", "152634.360000", "152634.820000", "152635.280000", "152635.740000", "152636.200000", "152636.660000", "152637.120000", "152637.580000", "152638.040000", "152638.500000", "152638.960000", "152639.420000", "152639.880000", "152640.340000", "152640.800000", "152641.260000", "152641.720000", "152642.180000", "152642.640000", "152643.100000", "152643.560000", "152644.020000", "152644.480000", "152644.940000", "152645.400000", "152645.860000", "152646.320000", "152646.780000", "152647.240000", "152647.700000", "152648.160000", "152648.620000", "152649.080000", "152649.540000", "152650.000000", "152650.460000", "152650.920000", "152651.380000", "152651.840000", "152652.300000", "152652.760000", "152653.220000", "152653.680000", "152654.140000", "152654.600000", "152655.060000", "152655.520000", "152655.980000", "152656.440000", "152656.900000", "152657.360000", "152657.820000", "152658.280000", "152658.740000", "152659.200000", "152659.660000", "152700.120000", "152700.580000", "152701.040000", "152701.500000", "152701.960000", "152702.420000", "152702.880000", "152703.340000", "152703.800000", "152704.260000", "152704.720000", "152705.180000", "152705.640000", "152706.100000", "152706.560000", "152707.020000", "152707.480000", "152707.940000", "152708.400000", "152708.860000", "152709.320000", "152709.780000", "152710.240000", "152710.700000", "152711.160000", "152711.620000", "152712.080000", "152712.540000", "152713.000000", "152713.460000", "152713.920000", "152714.380000", "152714.840000", "152715.300000", "152715.760000", "152716.220000", "152716.680000", "152717.140000", "152717.600000", "152718.060000", "152718.520000", "152718.980000", "152719.440000", "152719.900000", "152720.360000", "152720.820000", "152721.280000", "152721.740000", "152722.200000", "152722.660000", "152723.120000", "152723.580000", "152724.040000", "152724.500000", "152724.960000", "152725.420000", "152725.880000", "152726.340000", "152726.800000", "152727.260000", "152727.720000", "152728.180000", "152728.640000", "152729.100000", "152729.560000", "152730.020000", "152730.480000", "152730.940000", "152731.400000", "152731.860000", "152732.320000", "152732.780000", "152733.240000", "152733.700000", "152734.160000", "152734.620000", "152735.080000", "152735.540000", "152736.000000", "152736.460000", "152736.920000", "152737.380000", "152737.840000", "152738.300000", "152738.760000", "152739.220000", "152739.680000", "152740.140000", "152740.600000", "152741.060000", "152741.520000", "152741.980000", "152742.440000", "152742.900000", "152743.360000", "152743.820000", "152744.280000", "152744.740000", "152745.200000", "152745.660000", "152746.120000", "152746.580000", "152747.040000", "152747.500000", "152747.960000", "152748.420000", "152748.880000", "152749.340000", "152749.800000", "152750.260000", "152750.720000", "152751.180000", "152751.640000", "152752.100000", "152752.560000", "152753.020000", "152753.480000", "152753.940000", "152754.400000", "152754.860000", "152755.320000", "152755.780000", "152756.240000", "152756.700000", "152757.160000", "152757.620000", "152758.080000", "152758.540000", "152759.000000", "152759.460000", "152759.920000", "152800.380000", "152800.840000", "152801.300000", "152801.760000", "152802.220000", "152802.680000", "152803.140000", "152803.600000", "152804.060000", "152804.520000", "152804.980000", "152805.440000", "152805.900000", "152806.360000", "152806.820000", "152807.280000", "152807.740000", "152808.200000", "152808.660000", "152809.120000", "152809.580000", "152810.040000", "152810.500000", "152810.960000", "152811.420000", "152811.880000", "152812.340000", "152812.800000", "152813.260000", "152813.720000", "152814.180000", "152814.640000", "152815.100000", "152815.560000", "152816.020000", "152816.480000", "152816.940000", "152817.400000", "152817.860000", "152818.320000", "152818.780000", "152819.240000", "152819.700000", "152820.160000", "152820.620000", "152821.080000", "152821.540000", "152822.000000", "152822.460000", "152822.920000", "152823.380000", "152823.840000", "152824.300000", "152824.760000", "152825.220000", "152825.680000", "152826.140000", "152826.600000", "152827.060000", "152827.520000", "152827.980000", "152828.440000", "152828.900000", "152829.360000", "152829.820000", "152830.280000", "152830.740000", "152831.200000", "152831.660000", "152832.120000", "152832.580000", "152833.040000", "152833.500000", "152833.960000", "152834.420000", "152834.880000", "152835.340000", "152835.800000", "152836.260000", "152836.720000", "152837.180000", "152837.640000", "152838.100000", "152838.560000", "152839.020000", "152839.480000", "152839.940000", "152840.400000", "152840.860000", "152841.320000", "152841.780000", "152842.240000", "152842.700000", "152843.160000", "152843.620000", "152844.080000", "152844.540000", "152845.000000", "152845.460000", "152845.920000", "152846.380000", "152846.840000", "152847.300000", "152847.760000", "152848.220000", "152848.680000", "152849.140000", "152849.600000", "152850.060000", "152850.520000", "152850.980000", "152851.440000", "152851.900000", "152852.360000", "152852.820000", "152853.280000", "152853.740000", "152854.200000", "152854.660000", "152855.120000", "152855.580000", "152856.040000", "152856.500000", "152856.960000", "152857.420000", "152857.880000", "152858.340000", "152858.800000", "152859.260000", "152859.720000", "152900.180000", "152900.640000", "152901.100000", "152901.560000", "152902.020000", "152902.480000", "152902.940000", "152903.400000", "152903.860000", "152904.320000", "152904.780000", "152905.240000", "152905.700000", "152906.160000", "152906.620000", "152907.080000", "152907.540000", "152908.000000", "152908.460000", "152908.920000", "152909.380000", "152909.840000", "152910.300000", "152910.760000", "152911.220000", "152911.680000", "152912.140000", "152912.600000", "152913.060000", "152913.520000", "152913.980000", "152914.440000", "152914.900000", "152915.360000", "152915.820000", "152916.280000", "152916.740000", "152917.200000", "152917.660000", "152918.120000", "152918.580000", "152919.040000", "152919.500000", "152919.960000", "152920.420000", "152920.880000", "152921.340000", "152921.800000", "152922.260000", "152922.720000", "152923.180000", "152923.640000", "152924.100000", "152924.560000", "152925.020000", "152925.480000", "152925.940000", "152926.400000", "152926.860000", "152927.320000", "152927.780000", "152928.240000", "152928.700000", "152929.160000", "152929.620000", "152930.080000", "152930.540000", "152931.000000", "152931.460000", "152931.920000", "152932.380000", "152932.840000", "152933.300000", "152933.760000", "152934.220000", "152934.680000", "152935.140000", "152935.600000", "152936.060000", "152936.520000", "152936.980000", "152937.440000", "152937.900000", "152938.360000", "152938.820000", "152939.280000", "152939.740000", "152940.200000", "152940.660000", "152941.120000", "152941.580000", "152942.040000", "152942.500000", "152942.960000", "152943.420000", "152943.880000", "152944.340000", "152944.800000", "152945.260000", "152945.720000", "152946.180000", "152946.640000", "152947.100000", "152947.560000", "152948.020000", "152948.480000", "152948.940000", "152949.400000", "152949.860000", "152950.320000", "152950.780000", "152951.240000", "152951.700000", "152952.160000", "152952.620000", "152953.080000", "152953.540000", "152954.000000", "152954.460000", "152954.920000", "152955.380000", "152955.840000", "152956.300000", "152956.760000", "152957.220000", "152957.680000", "152958.140000", "152958.600000", "152959.060000", "152959.520000", "152959.980000", "153000.440000", "153000.900000", "153001.360000", "153001.820000", "153002.280000", "153002.740000", "153003.200000", "153003.660000", "153004.120000", "153004.580000", "153005.040000", "153005.500000", "153005.960000", "153006.420000", "153006.880000", "153007.340000", "153007.800000", "153008.260000", "153008.720000", "153009.180000", "153009.640000", "153010.100000", "153010.560000", "153011.020000", "153011.480000", "153011.940000", "153012.400000", "153012.860000", "153013.320000", "153013.780000", "153014.240000", "153014.700000", "153015.160000", "153015.620000", "153016.080000", "153016.540000", "153017.000000", "153017.460000", "153017.920000", "153018.380000", "153018.840000", "153019.300000", "153019.760000", "153020.220000", "153020.680000", "153021.140000", "153021.600000", "153022.060000", "153022.520000", "153022.980000", "153023.440000", "153023.900000", "153024.360000", "153024.820000", "153025.280000", "153025.740000", "153026.200000", "153026.660000", "153027.120000", "153027.580000", "153028.040000", "153028.500000", "153028.960000", "153029.420000", "153029.880000", "153030.340000", "153030.800000", "153031.260000", "153031.720000", "153032.180000", "153032.640000", "153033.100000", "153033.560000", "153034.020000", "153034.480000", "153034.940000", "153035.400000", "153035.860000", "153036.320000", "153036.780000", "153037.240000", "153037.700000", "153038.160000", "153038.620000", "153039.080000", "153039.540000", "153040.000000", "153040.460000", "153040.920000", "153041.380000", "153041.840000", "153042.300000", "153042.760000", "153043.220000", "153043.680000", "153044.140000", "153044.600000", "153045.060000", "153045.520000", "153045.980000", "153046.440000", "153046.900000", "153047.360000", "153047.820000", "153048.280000", "153048.740000", "153049.200000", "153049.660000", "153050.120000", "153050.580000", "153051.040000", "153051.500000", "153051.960000", "153052.420000", "153052.880000", "153053.340000", "153053.800000", "153054.260000", "153054.720000", "153055.180000", "153055.640000", "153056.100000", "153056.560000", "153057.020000", "153057.480000", "153057.940000", "153058.400000", "153058.860000", "153059.320000", "153059.780000", "153100.240000", "153100.700000", "153101.160000", "153101.620000", "153102.080000", "153102.540000", "153103.000000", "153103.460000", "153103.920000", "153104.380000", "153104.840000", "153105.300000", "153105.760000", "153106.220000", "153106.680000", "153107.140000", "153107.600000", "153108.060000", "153108.520000", "153108.980000", "153109.440000", "153109.900000", "153110.360000", "153110.820000", "153111.280000", "153111.740000", "153112.200000", "153112.660000", "153113.120000", "153113.580000", "153114.040000", "153114.500000", "153114.960000", "153115.420000", "153115.880000", "153116.340000", "153116.800000", "153117.260000", "153117.720000", "153118.180000", "153118.640000", "153119.100000", "153119.560000", "153120.020000", "153120.480000", "153120.940000", "153121.400000", "153121.860000", "153122.320000", "153122.780000", "153123.240000", "153123.700000", "153124.160000", "153124.620000", "153125.080000", "153125.540000", "153126.000000", "153126.460000", "153126.920000", "153127.380000", "153127.840000", "153128.300000", "153128.760000", "153129.220000", "153129.680000", "153130.140000", "153130.600000", "153131.060000", "153131.520000", "153131.980000", "153132.440000", "153132.900000", "153133.360000", "153133.820000", "153134.280000", "153134.740000", "153135.200000", "153135.660000", "153136.120000", "153136.580000", "153137.040000", "153137.500000", "153137.960000", "153138.420000", "153138.880000", "153139.340000", "153139.800000", "153140.260000", "153140.720000", "153141.180000", "153141.640000", "153142.100000", "153142.560000", "153143.020000", "153143.480000", "153143.940000", "153144.400000", "153144.860000", "153145.320000", "153145.780000", "153146.240000", "153146.700000", "153147.160000", "153147.620000", "153148.080000", "153148.540000", "153149.000000", "153149.460000", "153149.920000", "153150.380000", "153150.840000", "153151.300000", "153151.760000", "153152.220000", "153152.680000", "153153.140000", "153153.600000", "153154.060000", "153154.520000", "153154.980000", "153155.440000", "153155.900000", "153156.360000", "153156.820000", "153157.280000", "153157.740000", "153158.200000", "153158.660000", "153159.120000", "153159.580000", "153200.040000", "153200.500000", "153200.960000", "153201.420000", "153201.880000", "153202.340000", "153202.800000", "153203.260000", "153203.720000", "153204.180000", "153204.640000", "153205.100000", "153205.560000", "153206.020000", "153206.480000", "153206.940000", "153207.400000", "153207.860000", "153208.320000", "153208.780000", "153209.240000", "153209.700000", "153210.160000", "153210.620000", "153211.080000", "153211.540000", "153212.000000", "153212.460000", "153212.920000", "153213.380000", "153213.840000", "153214.300000", "153214.760000", "153215.220000", "153215.680000", "153216.140000", "153216.600000", "153217.060000", "153217.520000", "153217.980000", "153218.440000", "153218.900000", "153219.360000", "153219.820000", "153220.280000", "153220.740000", "153221.200000", "153221.660000", "153222.120000", "153222.580000", "153223.040000", "153223.500000", "153223.960000", "153224.420000", "153224.880000", "153225.340000", "153225.800000", "153226.260000", "153226.720000", "153227.180000", "153227.640000", "153228.100000", "153228.560000", "153229.020000", "153229.480000", "153229.940000", "153230.400000", "153230.860000", "153231.320000", "153231.780000", "153232.240000", "153232.700000", "153233.160000", "153233.620000", "153234.080000", "153234.540000", "153235.000000", "153235.460000", "153235.920000", "153236.380000", "153236.840000", "153237.300000", "153237.760000", "153238.220000", "153238.680000", "153239.140000", "153239.600000", "153240.060000", "153240.520000", "153240.980000", "153241.440000", "153241.900000", "153242.360000", "153242.820000", "153243.280000", "153243.740000", "153244.200000", "153244.660000", "153245.120000", "153245.580000", "153246.040000", "153246.500000", "153246.960000", "153247.420000", "153247.880000", "153248.340000", "153248.800000", "153249.260000", "153249.720000", "153250.180000", "153250.640000", "153251.100000", "153251.560000", "153252.020000", "153252.480000", "153252.940000", "153253.400000", "153253.860000", "153254.320000", "153254.780000", "153255.240000", "153255.700000", "153256.160000", "153256.620000", "153257.080000", "153257.540000", "153258.000000", "153258.460000", "153258.920000", "153259.380000", "153259.840000", "153300.300000", "153300.760000", "153301.220000", "153301.680000", "153302.140000", "153302.600000", "153303.060000", "153303.520000", "153303.980000", "153304.440000", "153304.900000", "153305.360000", "153305.820000", "153306.280000", "153306.740000", "153307.200000", "153307.660000", "153308.120000", "153308.580000", "153309.040000", "153309.500000", "153309.960000", "153310.420000", "153310.880000", "153311.340000", "153311.800000", "153312.260000", "153312.720000", "153313.180000", "153313.640000", "153314.100000", "153314.560000", "153315.020000", "153315.480000", "153315.940000", "153316.400000", "153316.860000", "153317.320000", "153317.780000", "153318.240000", "153318.700000", "153319.160000", "153319.620000", "153320.080000", "153320.540000", "153321.000000", "153321.460000", "153321.920000", "153322.380000", "153322.840000", "153323.300000", "153323.760000", "153324.220000", "153324.680000", "153325.140000", "153325.600000", "153326.060000", "153326.520000", "153326.980000", "153327.440000", "153327.900000", "153328.360000", "153328.820000", "153329.280000", "153329.740000", "153330.200000", "153330.660000", "153331.120000", "153331.580000", "153332.040000", "153332.500000", "153332.960000", "153333.420000", "153333.880000"],
