{
  "AcquisitionMatrixPE": 82,
  "AcquisitionNumber": 1,
  "AcquisitionTime": "14:26:27.185000",
  "BandwidthPerPixelPhaseEncode": 24.888,
  "BaseResolution": 82,
  "BodyPartExamined": "BRAIN",
  "ConsistencyInfo": "N4_VE11E_LATEST_20181129",
  "ConversionSoftware": "dcm2niix",
  "ConversionSoftwareVersion": "v1.0.20201102",
  "DerivedVendorReportedEchoSpacing": 0.00049,
  "DeviceSerialNumber": "66112",
  "DwellTime": 2e-06,
  "EchoTime": 0.0272,
  "EchoTrainLength": 82,
  "EffectiveEchoSpacing": 0.00049,
  "FlipAngle": 44,
  "ImageComments": "Unaliased MB8/PE3",
  "ImageOrientationPatientDICOM": [0.99829, 0.0499808, 0.0303313, -0.0489992, 0.998277, -0.0322874],
  "ImageType": [
    "ORIGINAL",
    "PRIMARY",
    "M",
    "MB",
    "ND",
    "NORM",
    "MOSAIC"
],
  "ImagingFrequency": 123.252,
  "InPlanePhaseEncodingDirectionDICOM": "COL",
  "InstitutionAddress": "Maynard 3,Hanover,NH,US,03755",
  "InstitutionName": "Dartmouth College - PBS",
  "InstitutionalDepartmentName": "Department",
  "MRAcquisitionType": "2D",
  "MagneticFieldStrength": 3,
  "Manufacturer": "Siemens",
  "ManufacturersModelName": "Prisma",
  "Modality": "MR",
  "MultibandAccelerationFactor": 8,
  "PartialFourier": 1,
  "PatientPosition": "HFS",
  "PercentPhaseFOV": 100,
  "PercentSampling": 100,
  "PhaseEncodingDirection": "j-",
  "PhaseEncodingSteps": 82,
  "PhaseResolution": 1,
  "PixelBandwidth": 3050,
  "ProcedureStepDescription": "Wager_Wager^1076_spacetop",
  "ProtocolName": "func_run-02_task-social_acq-ap-mb8",
  "PulseSequenceDetails": "%CustomerSeq%\\cmrr_mbep2d_bold",
  "ReceiveCoilActiveElements": "HEA;HEP",
  "ReceiveCoilName": "Head_32",
  "ReconMatrixPE": 82,
  "RepetitionTime": 0.46,
  "SAR": 0.10365,
  "ScanOptions": "FS",
  "ScanningSequence": "EP",
  "SequenceName": "epfid2d1_82",
  "SequenceVariant": "SK\\SS",
  "SeriesDescription": "func_run-02_task-social_acq-ap-mb8",
  "SeriesNumber": 14,
  "ShimSetting": [4154, -7805, -7195, 505, -51, -294, -140, 54],
  "SliceThickness": 2.7,
  "SliceTiming": [0, 0.25, 0.0625, 0.315, 0.125, 0.3775, 0.1875, 0, 0.25, 0.0625, 0.315, 0.125, 0.3775, 0.1875, 0, 0.25, 0.0625, 0.315, 0.125, 0.3775, 0.1875, 0, 0.25, 0.0625, 0.315, 0.125, 0.3775, 0.1875, 0, 0.25, 0.0625, 0.315, 0.125, 0.3775, 0.1875, 0, 0.25, 0.0625, 0.315, 0.125, 0.3775, 0.1875, 0, 0.25, 0.0625, 0.315, 0.125, 0.3775, 0.1875, 0, 0.25, 0.0625, 0.315, 0.125, 0.3775, 0.1875],
  "SoftwareVersions": "syngo MR E11",
  "SpacingBetweenSlices": 2.7,
  "StationName": "AWP66112",
  "TaskName": "social",
  "TotalReadoutTime": 0.03969,
  "TxRefAmp": 263.489,
  "WipMemBlock": "6b93c1c2-de21-45ad-9363-c92d91f8e6cf||Sequence: R016 ve11e/master r/434b28f1; Aug  7 2019 18:53:46 by eja",
  "dcmmeta_affine": [
    [-2.678337812423706, -0.13146118819713593, 0.08611041307449341, 115.68257904052734],
    [-0.13409483432769775, 2.6783037185668945, -0.08301421999931335, -85.75643920898438],
    [0.08137655258178711, 0.08662484586238861, 2.6973493099212646, -63.48495864868164],
    [0.0, 0.0, 0.0, 1.0]
],
  "dcmmeta_reorient_transform": [
    [0.0, -1.0, 0.0, 81.0],
    [1.0, 0.0, 0.0, 0.0],
    [0.0, 0.0, 1.0, 0.0],
    [0.0, 0.0, 0.0, 1.0]
],
  "dcmmeta_shape": [82, 82, 56, 872],
  "dcmmeta_slice_dim": 2,
  "dcmmeta_version": 0.6,
  "global": {
    "const": {
      "AccessionNumber": "A004186",
      "AcquisitionMatrix": [82, 0, 0, 82],
      "AngioFlag": "N",
      "BitsAllocated": 16,
      "BitsStored": 16,
      "BodyPartExamined": "BRAIN",
      "Columns": 656,
      "EchoNumbers": 1,
      "EchoTime": 27.2,
      "EchoTrainLength": 82,
      "FlipAngle": 44.0,
      "HighBit": 15,
      "ImageOrientationPatient": [0.99828950434165, 0.0499807984452, 0.03033125958622, -0.0489991664599, 0.99827681672225, -0.032287441539],
      "ImagePositionPatient": [-835.98780000582, -938.34454526298, -54.962084925974],
      "ImageType": [
        "ORIGINAL",
        "PRIMARY",
        "M",
        "MB",
        "ND",
        "NORM",
        "MOSAIC"
],
      "ImagedNucleus": "1H",
      "ImagingFrequency": 123.25215,
      "InPlanePhaseEncodingDirection": "COL",
      "MRAcquisitionType": "2D",
      "MagneticFieldStrength": 3.0,
      "Manufacturer": "SIEMENS",
      "ManufacturerModelName": "Prisma",
      "Modality": "MR",
      "NumberOfAverages": 1.0,
      "NumberOfPhaseEncodingSteps": 82,
      "PercentPhaseFieldOfView": 100.0,
      "PercentSampling": 100.0,
      "PerformedProcedureStepStartTime": "135301.859000",
      "PhotometricInterpretation": "MONOCHROME2",
      "PixelBandwidth": 3050.0,
      "PixelRepresentation": 0,
      "PixelSpacing": [2.6829268932343, 2.6829268932343],
      "ProtocolName": "func_run-02_task-social_acq-ap-mb8",
      "RepetitionTime": 460.0,
      "Rows": 656,
      "SAR": 0.10365014532941,
      "SamplesPerPixel": 1,
      "ScanOptions": "FS",
      "ScanningSequence": "EP",
      "SequenceName": "epfid2d1_82",
      "SequenceVariant": [
        "SK",
        "SS"
],
      "SeriesDescription": "func_run-02_task-social_acq-ap-mb8",
      "SeriesNumber": 14,
      "SeriesTime": "142647.674000",
      "SliceLocation": -57.096530331804,
      "SliceThickness": 2.7000000476837,
      "SmallestImagePixelValue": 0,
      "SoftwareVersions": "syngo MR E11",
      "SpacingBetweenSlices": 2.7000000369388,
      "SpecificCharacterSet": "ISO_IR 100",
      "StudyID": "1",
      "StudyTime": "135301.796000",
      "TransmitCoilName": "Body",
      "VariableFlipAngleFlag": "N",
      "WindowCenterWidthExplanation": "Algo1"
    },
    "slices": {}
  },
  "time": {
    "samples": {
      "AcquisitionNumber": [1, 2, 3, 4, 5, 6, 7, 8, 9, 10, 11, 12, 13, 14, 15, 16, 17, 18, 19, 20, 21, 22, 23, 24, 25, 26, 27, 28, 29, 30, 31, 32, 33, 34, 35, 36, 37, 38, 39, 40, 41, 42, 43, 44, 45, 46, 47, 48, 49, 50, 51, 52, 53, 54, 55, 56, 57, 58, 59, 60, 61, 62, 63, 64, 65, 66, 67, 68, 69, 70, 71, 72, 73, 74, 75, 76, 77, 78, 79, 80, 81, 82, 83, 84, 85, 86, 87, 88, 89, 90, 91, 92, 93, 94, 95, 96, 97, 98, 99, 100, 101, 102, 103, 104, 105, 106, 107, 108, 109, 110, 111, 112, 113, 114, 115, 116, 117, 118, 119, 120, 121, 122, 123, 124, 125, 126, 127, 128, 129, 130, 131, 132, 133, 134, 135, 136, 137, 138, 139, 140, 141, 142, 143, 144, 145, 146, 147, 148, 149, 150, 151, 152, 153, 154, 155, 156, 157, 158, 159, 160, 161, 162, 163, 164, 165, 166, 167, 168, 169, 170, 171, 172, 173, 174, 175, 176, 177, 178, 179, 180, 181, 182, 183, 184, 185, 186, 187, 188, 189, 190, 191, 192, 193, 194, 195, 196, 197, 198, 199, 200, 201, 202, 203, 204, 205, 206, 207, 208, 209, 210, 211, 212, 213, 214, 215, 216, 217, 218, 219, 220, 221, 222, 223, 224, 225, 226, 227, 228, 229, 230, 231, 232, 233, 234, 235, 236, 237, 238, 239, 240, 241, 242, 243, 244, 245, 246, 247, 248, 249, 250, 251, 252, 253, 254, 255, 256, 257, 258, 259, 260, 261, 262, 263, 264, 265, 266, 267, 268, 269, 270, 271, 272, 273, 274, 275, 276, 277, 278, 279, 280, 281, 282, 283, 284, 285, 286, 287, 288, 289, 290, 291, 292, 293, 294, 295, 296, 297, 298, 299, 300, 301, 302, 303, 304, 305, 306, 307, 308, 309, 310, 311, 312, 313, 314, 315, 316, 317, 318, 319, 320, 321, 322, 323, 324, 325, 326, 327, 328, 329, 330, 331, 332, 333, 334, 335, 336, 337, 338, 339, 340, 341, 342, 343, 344, 345, 346, 347, 348, 349, 350, 351, 352, 353, 354, 355, 356, 357, 358, 359, 360, 361, 362, 363, 364, 365, 366, 367, 368, 369, 370, 371, 372, 373, 374, 375, 376, 377, 378, 379, 380, 381, 382, 383, 384, 385, 386, 387, 388, 389, 390, 391, 392, 393, 394, 395, 396, 397, 398, 399, 400, 401, 402, 403, 404, 405, 406, 407, 408, 409, 410, 411, 412, 413, 414, 415, 416, 417, 418, 419, 420, 421, 422, 423, 424, 425, 426, 427, 428, 429, 430, 431, 432, 433, 434, 435, 436, 437, 438, 439, 440, 441, 442, 443, 444, 445, 446, 447, 448, 449, 450, 451, 452, 453, 454, 455, 456, 457, 458, 459, 460, 461, 462, 463, 464, 465, 466, 467, 468, 469, 470, 471, 472, 473, 474, 475, 476, 477, 478, 479, 480, 481, 482, 483, 484, 485, 486, 487, 488, 489, 490, 491, 492, 493, 494, 495, 496, 497, 498, 499, 500, 501, 502, 503, 504, 505, 506, 507, 508, 509, 510, 511, 512, 513, 514, 515, 516, 517, 518, 519, 520, 521, 522, 523, 524, 525, 526, 527, 528, 529, 530, 531, 532, 533, 534, 535, 536, 537, 538, 539, 540, 541, 542, 543, 544, 545, 546, 547, 548, 549, 550, 551, 552, 553, 554, 555, 556, 557, 558, 559, 560, 561, 562, 563, 564, 565, 566, 567, 568, 569, 570, 571, 572, 573, 574, 575, 576, 577, 578, 579, 580, 581, 582, 583, 584, 585, 586, 587, 588, 589, 590, 591, 592, 593, 594, 595, 596, 597, 598, 599, 600, 601, 602, 603, 604, 605, 606, 607, 608, 609, 610, 611, 612, 613, 614, 615, 616, 617, 618, 619, 620, 621, 622, 623, 624, 625, 626, 627, 628, 629, 630, 631, 632, 633, 634, 635, 636, 637, 638, 639, 640, 641, 642, 643, 644, 645, 646, 647, 648, 649, 650, 651, 652, 653, 654, 655, 656, 657, 658, 659, 660, 661, 662, 663, 664, 665, 666, 667, 668, 669, 670, 671, 672, 673, 674, 675, 676, 677, 678, 679, 680, 681, 682, 683, 684, 685, 686, 687, 688, 689, 690, 691, 692, 693, 694, 695, 696, 697, 698, 699, 700, 701, 702, 703, 704, 705, 706, 707, 708, 709, 710, 711, 712, 713, 714, 715, 716, 717, 718, 719, 720, 721, 722, 723, 724, 725, 726, 727, 728, 729, 730, 731, 732, 733, 734, 735, 736, 737, 738, 739, 740, 741, 742, 743, 744, 745, 746, 747, 748, 749, 750, 751, 752, 753, 754, 755, 756, 757, 758, 759, 760, 761, 762, 763, 764, 765, 766, 767, 768, 769, 770, 771, 772, 773, 774, 775, 776, 777, 778, 779, 780, 781, 782, 783, 784, 785, 786, 787, 788, 789, 790, 791, 792, 793, 794, 795, 796, 797, 798, 799, 800, 801, 802, 803, 804, 805, 806, 807, 808, 809, 810, 811, 812, 813, 814, 815, 816, 817, 818, 819, 820, 821, 822, 823, 824, 825, 826, 827, 828, 829, 830, 831, 832, 833, 834, 835, 836, 837, 838, 839, 840, 841, 842, 843, 844, 845, 846, 847, 848, 849, 850, 851, 852, 853, 854, 855, 856, 857, 858, 859, 860, 861, 862, 863, 864, 865, 866, 867, 868, 869, 870, 871, 872],
      "AcquisitionTime": ["142627.185000", "142627.645000", "142628.105000", "142628.565000", "142629.025000", "142629.485000", "142629.945000", "142630.405000", "142630.865000", "142631.325000", "142631.785000", "142632.245000", "142632.705000", "142633.165000", "142633.625000", "142634.085000", "142634.545000", "142635.005000", "142635.465000", "142635.925000", "142636.385000", "142636.845000", "142637.305000", "142637.765000", "142638.225000", "142638.685000", "142639.145000", "142639.605000", "142640.065000", "142640.525000", "142640.985000", "142641.445000", "142641.905000", "142642.365000", "142642.825000", "142643.285000", "142643.745000", "142644.205000", "142644.665000", "142645.125000", "142645.585000", "142646.045000", "142646.505000", "142646.965000", "142647.425000", "142647.885000", "142648.345000", "142648.805000", "142649.265000", "142649.725000", "142650.185000", "142650.645000", "142651.105000", "142651.565000", "142652.025000", "142652.485000", "142652.945000", "142653.405000", "142653.865000", "142654.325000", "142654.785000", "142655.245000", "142655.705000", "142656.165000", "142656.625000", "142657.085000", "142657.545000", "142658.005000", "142658.465000", "142658.925000", "142659.385000", "142659.845000", "142700.305000", "142700.765000", "142701.225000", "142701.685000", "142702.145000", "142702.605000", "142703.065000", "142703.525000", "142703.985000", "142704.445000", "142704.905000", "142705.365000", "142705.825000", "142706.285000", "142706.745000", "142707.205000", "142707.665000", "142708.125000", "142708.585000", "142709.045000", "142709.505000", "142709.965000", "142710.425000", "142710.885000", "142711.345000", "142711.805000", "142712.265000", "142712.725000", "142713.185000", "142713.645000", "142714.105000", "142714.565000", "142715.025000", "142715.485000", "142715.945000", "142716.405000", "142716.865000", "142717.325000", "142717.785000", "142718.245000", "142718.705000", "142719.165000", "142719.625000", "142720.085000", "142720.545000", "142721.005000", "142721.465000", "142721.925000", "142722.385000", "142722.845000", "142723.305000", "142723.765000", "142724.225000", "142724.685000", "142725.145000", "142725.605000", "142726.065000", "142726.525000", "142726.985000", "142727.445000", "142727.905000", "142728.365000", "142728.825000", "142729.285000", "142729.745000", "142730.205000", "142730.665000", "142731.125000", "142731.585000", "142732.045000", "142732.505000", "142732.965000", "142733.425000", "142733.885000", "142734.345000", "142734.805000", "142735.265000", "142735.725000", "142736.185000", "142736.645000", "142737.105000", "142737.565000", "142738.025000", "142738.485000", "142738.945000", "142739.405000", "142739.865000", "142740.325000", "142740.785000", "142741.245000", "142741.705000", "142742.165000", "142742.625000", "142743.085000", "142743.545000", "142744.005000", "142744.465000", "142744.925000", "142745.385000", "142745.845000", "142746.305000", "142746.765000", "142747.225000", "142747.685000", "142748.145000", "142748.605000", "142749.065000", "142749.525000", "142749.985000", "142750.445000", "142750.905000", "142751.365000", "142751.825000", "142752.285000", "142752.745000", "142753.205000", "142753.665000", "142754.125000", "142754.585000", "142755.045000", "142755.505000", "142755.965000", "142756.425000", "142756.885000", "142757.345000", "142757.805000", "142758.265000", "142758.725000", "142759.185000", "142759.645000", "142800.105000", "142800.565000", "142801.025000", "142801.485000", "142801.945000", "142802.405000", "142802.865000", "142803.325000", "142803.785000", "142804.245000", "142804.705000", "142805.165000", "142805.625000", "142806.085000", "142806.545000", "142807.005000", "142807.465000", "142807.925000", "142808.385000", "142808.845000", "142809.305000", "142809.765000", "142810.225000", "142810.685000", "142811.145000", "142811.605000", "142812.065000", "142812.525000", "142812.985000", "142813.445000", "142813.905000", "142814.365000", "142814.825000", "142815.285000", "142815.745000", "142816.205000", "142816.665000", "142817.125000", "142817.585000", "142818.045000", "142818.505000", "142818.965000", "142819.425000", "142819.885000", "142820.345000", "142820.805000", "142821.265000", "142821.725000", "142822.185000", "142822.645000", "142823.105000", "142823.565000", "142824.025000", "142824.485000", "142824.945000", "142825.405000", "142825.865000", "142826.325000", "142826.785000", "142827.245000", "142827.705000", "142828.165000", "142828.625000", "142829.085000", "142829.545000", "142830.005000", "142830.465000", "142830.925000", "142831.385000", "142831.845000", "142832.305000", "142832.765000", "142833.225000", "142833.685000", "142834.145000", "142834.605000", "142835.065000", "142835.525000", "142835.985000", "142836.445000", "142836.905000", "142837.365000", "142837.825000", "142838.285000", "142838.745000", "142839.205000", "142839.665000", "142840.125000", "142840.585000", "142841.045000", "142841.505000", "142841.965000", "142842.425000", "142842.885000", "142843.345000", "142843.805000", "142844.265000", "142844.725000", "142845.185000", "142845.645000", "142846.105000", "142846.565000", "142847.025000", "142847.485000", "142847.945000", "142848.405000", "142848.865000", "142849.325000", "142849.785000", "142850.245000", "142850.705000", "142851.165000", "142851.625000", "142852.085000", "142852.545000", "142853.005000", "142853.465000", "142853.925000", "142854.385000", "142854.845000", "142855.305000", "142855.765000", "142856.225000", "142856.685000", "142857.145000", "142857.605000", "142858.065000", "142858.525000", "142858.985000", "142859.445000", "142859.905000", "142900.365000", "142900.825000", "142901.285000", "142901.745000", "142902.205000", "142902.665000", "142903.125000", "142903.585000", "142904.045000", "142904.505000", "142904.965000", "142905.425000", "142905.885000", "142906.345000", "142906.805000", "142907.265000", "142907.725000", "142908.185000", "142908.645000", "142909.105000", "142909.565000", "142910.025000", "142910.485000", "142910.945000", "142911.405000", "142911.865000", "142912.325000", "142912.785000", "142913.245000", "142913.705000", "142914.165000", "142914.625000", "142915.085000", "142915.545000", "142916.005000", "142916.465000", "142916.925000", "142917.385000", "142917.845000", "142918.305000", "142918.765000", "142919.225000", "142919.685000", "142920.145000", "142920.605000", "142921.065000", "142921.525000", "142921.985000", "142922.445000", "142922.905000", "142923.365000", "142923.825000", "142924.285000", "142924.745000", "142925.205000", "142925.665000", "142926.125000", "142926.585000", "142927.045000", "142927.505000", "142927.965000", "142928.425000", "142928.885000", "142929.345000", "142929.805000", "142930.265000", "142930.725000", "142931.185000", "142931.645000", "142932.105000", "142932.565000", "142933.025000", "142933.485000", "142933.945000", "142934.405000", "142934.865000", "142935.325000", "142935.785000", "142936.245000", "142936.705000", "142937.165000", "142937.625000", "142938.085000", "142938.545000", "142939.005000", "142939.465000", "142939.925000", "142940.385000", "142940.845000", "142941.305000", "142941.765000", "142942.225000", "142942.685000", "142943.145000", "142943.605000", "142944.065000", "142944.525000", "142944.985000", "142945.445000", "142945.905000", "142946.365000", "142946.825000", "142947.285000", "142947.745000", "142948.205000", "142948.665000", "142949.125000", "142949.585000", "142950.045000", "142950.505000", "142950.965000", "142951.425000", "142951.885000", "142952.345000", "142952.805000", "142953.265000", "142953.725000", "142954.185000", "142954.645000", "142955.105000", "142955.565000", "142956.025000", "142956.485000", "142956.945000", "142957.405000", "142957.865000", "142958.325000", "142958.785000", "142959.245000", "142959.705000", "143000.165000", "143000.625000", "143001.085000", "143001.545000", "143002.005000", "143002.465000", "143002.925000", "143003.385000", "143003.845000", "143004.305000", "143004.765000", "143005.225000", "143005.685000", "143006.145000", "143006.605000", "143007.065000", "143007.525000", "143007.985000", "143008.445000", "143008.905000", "143009.365000", "143009.825000", "143010.285000", "143010.745000", "143011.205000", "143011.665000", "143012.125000", "143012.585000", "143013.045000", "143013.505000", "143013.965000", "143014.425000", "143014.885000", "143015.345000", "143015.805000", "143016.265000", "143016.725000", "143017.185000", "143017.645000", "143018.105000", "143018.565000", "143019.025000", "143019.485000", "143019.945000", "143020.405000", "143020.865000", "143021.325000", "143021.785000", "143022.245000", "143022.705000", "143023.165000", "143023.625000", "143024.085000", "143024.545000", "143025.005000", "143025.465000", "143025.925000", "143026.385000", "143026.845000", "143027.305000", "143027.765000", "143028.225000", "143028.685000", "143029.145000", "143029.605000", "143030.065000", "143030.525000", "143030.985000", "143031.445000", "143031.905000", "143032.365000", "143032.825000", "143033.285000", "143033.745000", "143034.205000", "143034.665000", "143035.125000", "143035.585000", "143036.045000", "143036.505000", "143036.965000", "143037.425000", "143037.885000", "143038.345000", "143038.805000", "143039.265000", "143039.725000", "143040.185000", "143040.645000", "143041.105000", "143041.565000", "143042.025000", "143042.485000", "143042.945000", "143043.405000", "143043.865000", "143044.325000", "143044.785000", "143045.245000", "143045.705000", "143046.165000", "143046.625000", "143047.085000", "143047.545000", "143048.005000", "143048.465000", "143048.925000", "143049.385000", "143049.845000", "143050.305000", "143050.765000", "143051.225000", "143051.685000", "143052.145000", "143052.605000", "143053.065000", "143053.525000", "143053.985000", "143054.445000", "143054.905000", "143055.365000", "143055.825000", "143056.285000", "143056.745000", "143057.205000", "143057.665000", "143058.125000", "143058.585000", "143059.045000", "143059.505000", "143059.965000", "143100.425000", "143100.885000", "143101.345000", "143101.805000", "143102.265000", "143102.725000", "143103.185000", "143103.645000", "143104.105000", "143104.565000", "143105.025000", "143105.485000", "143105.945000", "143106.405000", "143106.865000", "143107.325000", "143107.785000", "143108.245000", "143108.705000", "143109.165000", "143109.625000", "143110.085000", "143110.545000", "143111.005000", "143111.465000", "143111.925000", "143112.385000", "143112.845000", "143113.305000", "143113.765000", "143114.225000", "143114.685000", "143115.145000", "143115.605000", "143116.065000", "143116.525000", "143116.985000", "143117.445000", "143117.905000", "143118.365000", "143118.825000", "143119.285000", "143119.745000", "143120.205000", "143120.665000", "143121.125000", "143121.585000", "143122.045000", "143122.505000", "143122.965000", "143123.425000", "143123.885000", "143124.345000", "143124.805000", "143125.265000", "143125.725000", "143126.185000", "143126.645000", "143127.105000", "143127.565000", "143128.025000", "143128.485000", "143128.945000", "143129.405000", "143129.865000", "143130.325000", "143130.785000", "143131.245000", "143131.705000", "143132.165000", "143132.625000", "143133.085000", "143133.545000", "143134.005000", "143134.465000", "143134.925000", "143135.385000", "143135.845000", "143136.305000", "143136.765000", "143137.225000", "143137.685000", "143138.145000", "143138.605000", "143139.065000", "143139.525000", "143139.985000", "143140.445000", "143140.905000", "143141.365000", "143141.825000", "143142.285000", "143142.745000", "143143.205000", "143143.665000", "143144.125000", "143144.585000", "143145.045000", "143145.505000", "143145.965000", "143146.425000", "143146.885000", "143147.345000", "143147.805000", "143148.265000", "143148.725000", "143149.185000", "143149.645000", "143150.105000", "143150.565000", "143151.025000", "143151.485000", "143151.945000", "143152.405000", "143152.865000", "143153.325000", "143153.785000", "143154.245000", "143154.705000", "143155.165000", "143155.625000", "143156.085000", "143156.545000", "143157.005000", "143157.465000", "143157.925000", "143158.385000", "143158.845000", "143159.305000", "143159.765000", "143200.225000", "143200.685000", "143201.145000", "143201.605000", "143202.065000", "143202.525000", "143202.985000", "143203.445000", "143203.905000", "143204.365000", "143204.825000", "143205.285000", "143205.745000", "143206.205000", "143206.665000", "143207.125000", "143207.585000", "143208.045000", "143208.505000", "143208.965000", "143209.425000", "143209.885000", "143210.345000", "143210.805000", "143211.265000", "143211.725000", "143212.185000", "143212.645000", "143213.105000", "143213.565000", "143214.025000", "143214.485000", "143214.945000", "143215.405000", "143215.865000", "143216.325000", "143216.785000", "143217.245000", "143217.705000", "143218.165000", "143218.625000", "143219.085000", "143219.545000", "143220.005000", "143220.465000", "143220.925000", "143221.385000", "143221.845000", "143222.305000", "143222.765000", "143223.225000", "143223.685000", "143224.145000", "143224.605000", "143225.065000", "143225.525000", "143225.985000", "143226.445000", "143226.905000", "143227.365000", "143227.825000", "143228.285000", "143228.745000", "143229.205000", "143229.665000", "143230.125000", "143230.585000", "143231.045000", "143231.505000", "143231.965000", "143232.425000", "143232.885000", "143233.345000", "143233.805000", "143234.265000", "143234.725000", "143235.185000", "143235.645000", "143236.105000", "143236.565000", "143237.025000", "143237.485000", "143237.945000", "143238.405000", "143238.865000", "143239.325000", "143239.785000", "143240.245000", "143240.705000", "143241.165000", "143241.625000", "143242.085000", "143242.545000", "143243.005000", "143243.465000", "143243.925000", "143244.385000", "143244.845000", "143245.305000", "143245.765000", "143246.225000", "143246.685000", "143247.145000", "143247.605000", "143248.065000", "143248.525000", "143248.985000", "143249.445000", "143249.905000", "143250.365000", "143250.825000", "143251.285000", "143251.745000", "143252.205000", "143252.665000", "143253.125000", "143253.585000", "143254.045000", "143254.505000", "143254.965000", "143255.425000", "143255.885000", "143256.345000", "143256.805000", "143257.265000", "143257.725000", "143258.185000", "143258.645000", "143259.105000", "143259.565000", "143300.025000", "143300.485000", "143300.945000", "143301.405000", "143301.865000", "143302.325000", "143302.785000", "143303.245000", "143303.705000", "143304.165000", "143304.625000", "143305.085000", "143305.545000", "143306.005000", "143306.465000", "143306.925000", "143307.385000", "143307.845000"],
