{
  "AcquisitionMatrixPE": 82,
  "AcquisitionNumber": 1,
  "AcquisitionTime": "14:40:53.985000",
  "BandwidthPerPixelPhaseEncode": 24.888,
  "BaseResolution": 82,
  "BodyPartExamined": "BRAIN",
  "ConsistencyInfo": "N4_VE11E_LATEST_20181129",
  "ConversionSoftware": "dcm2niix",
  "ConversionSoftwareVersion": "v1.0.20201102",
  "DerivedVendorReportedEchoSpacing": 0.00049,
  "DeviceSerialNumber": "66112",
  "DwellTime": 2e-06,
  "EchoTime": 0.0272,
  "EchoTrainLength": 82,
  "EffectiveEchoSpacing": 0.00049,
  "FlipAngle": 44,
  "ImageComments": "Unaliased MB8/PE3",
  "ImageOrientationPatientDICOM": [0.99829, 0.0499808, 0.0303313, -0.0489992, 0.998277, -0.0322874],
  "ImageType": [
    "ORIGINAL",
    "PRIMARY",
    "M",
    "MB",
    "ND",
    "NORM",
    "MOSAIC"
],
  "ImagingFrequency": 123.252,
  "InPlanePhaseEncodingDirectionDICOM": "COL",
  "InstitutionAddress": "Maynard 3,Hanover,NH,US,03755",
  "InstitutionName": "Dartmouth College - PBS",
  "InstitutionalDepartmentName": "Department",
  "MRAcquisitionType": "2D",
  "MagneticFieldStrength": 3,
  "Manufacturer": "Siemens",
  "ManufacturersModelName": "Prisma",
  "Modality": "MR",
  "MultibandAccelerationFactor": 8,
  "PartialFourier": 1,
  "PatientPosition": "HFS",
  "PercentPhaseFOV": 100,
  "PercentSampling": 100,
  "PhaseEncodingDirection": "j-",
  "PhaseEncodingSteps": 82,
  "PhaseResolution": 1,
  "PixelBandwidth": 3050,
  "ProcedureStepDescription": "Wager_Wager^1076_spacetop",
  "ProtocolName": "func_run-04_task-social_acq-ap-mb8",
  "PulseSequenceDetails": "%CustomerSeq%\\cmrr_mbep2d_bold",
  "ReceiveCoilActiveElements": "HEA;HEP",
  "ReceiveCoilName": "Head_32",
  "ReconMatrixPE": 82,
  "RepetitionTime": 0.46,
  "SAR": 0.10365,
  "ScanOptions": "FS",
  "ScanningSequence": "EP",
  "SequenceName": "epfid2d1_82",
  "SequenceVariant": "SK\\SS",
  "SeriesDescription": "func_run-04_task-social_acq-ap-mb8",
  "SeriesNumber": 18,
  "ShimSetting": [4154, -7805, -7195, 505, -51, -294, -140, 54],
  "SliceThickness": 2.7,
  "SliceTiming": [0, 0.2525, 0.065, 0.315, 0.1275, 0.3775, 0.19, 0, 0.2525, 0.065, 0.315, 0.1275, 0.3775, 0.19, 0, 0.2525, 0.065, 0.315, 0.1275, 0.3775, 0.19, 0, 0.2525, 0.065, 0.315, 0.1275, 0.3775, 0.19, 0, 0.2525, 0.065, 0.315, 0.1275, 0.3775, 0.19, 0, 0.2525, 0.065, 0.315, 0.1275, 0.3775, 0.19, 0, 0.2525, 0.065, 0.315, 0.1275, 0.3775, 0.19, 0, 0.2525, 0.065, 0.315, 0.1275, 0.3775, 0.19],
  "SoftwareVersions": "syngo MR E11",
  "SpacingBetweenSlices": 2.7,
  "StationName": "AWP66112",
  "TaskName": "social",
  "TotalReadoutTime": 0.03969,
  "TxRefAmp": 263.489,
  "WipMemBlock": "579982d6-3089-4af1-92f7-2e2316c8c160||Sequence: R016 ve11e/master r/434b28f1; Aug  7 2019 18:53:46 by eja",
  "dcmmeta_affine": [
    [-2.678337812423706, -0.13146118819713593, 0.08611041307449341, 115.68257904052734],
    [-0.13409483432769775, 2.6783037185668945, -0.08301421999931335, -85.75643920898438],
    [0.08137655258178711, 0.08662484586238861, 2.6973493099212646, -63.48495864868164],
    [0.0, 0.0, 0.0, 1.0]
],
  "dcmmeta_reorient_transform": [
    [0.0, -1.0, 0.0, 81.0],
    [1.0, 0.0, 0.0, 0.0],
    [0.0, 0.0, 1.0, 0.0],
    [0.0, 0.0, 0.0, 1.0]
],
  "dcmmeta_shape": [82, 82, 56, 872],
  "dcmmeta_slice_dim": 2,
  "dcmmeta_version": 0.6,
  "global": {
    "const": {
      "AccessionNumber": "A004186",
      "AcquisitionMatrix": [82, 0, 0, 82],
      "AngioFlag": "N",
      "BitsAllocated": 16,
      "BitsStored": 16,
      "BodyPartExamined": "BRAIN",
      "Columns": 656,
      "EchoNumbers": 1,
      "EchoTime": 27.2,
      "EchoTrainLength": 82,
      "FlipAngle": 44.0,
      "HighBit": 15,
      "ImageOrientationPatient": [0.99828950434165, 0.0499807984452, 0.03033125958622, -0.0489991664599, 0.99827681672225, -0.032287441539],
      "ImagePositionPatient": [-835.98780000582, -938.34454526298, -54.962084925974],
      "ImageType": [
        "ORIGINAL",
        "PRIMARY",
        "M",
        "MB",
        "ND",
        "NORM",
        "MOSAIC"
],
      "ImagedNucleus": "1H",
      "ImagingFrequency": 123.252155,
      "InPlanePhaseEncodingDirection": "COL",
      "MRAcquisitionType": "2D",
      "MagneticFieldStrength": 3.0,
      "Manufacturer": "SIEMENS",
      "ManufacturerModelName": "Prisma",
      "Modality": "MR",
      "NumberOfAverages": 1.0,
      "NumberOfPhaseEncodingSteps": 82,
      "PercentPhaseFieldOfView": 100.0,
      "PercentSampling": 100.0,
      "PerformedProcedureStepStartTime": "135301.859000",
      "PhotometricInterpretation": "MONOCHROME2",
      "PixelBandwidth": 3050.0,
      "PixelRepresentation": 0,
      "PixelSpacing": [2.6829268932343, 2.6829268932343],
      "ProtocolName": "func_run-04_task-social_acq-ap-mb8",
      "RepetitionTime": 460.0,
      "Rows": 656,
      "SAR": 0.10365014532941,
      "SamplesPerPixel": 1,
      "ScanOptions": "FS",
      "ScanningSequence": "EP",
      "SequenceName": "epfid2d1_82",
      "SequenceVariant": [
        "SK",
        "SS"
],
      "SeriesDescription": "func_run-04_task-social_acq-ap-mb8",
      "SeriesNumber": 18,
      "SeriesTime": "144107.577000",
      "SliceLocation": -57.096530331804,
      "SliceThickness": 2.7000000476837,
      "SmallestImagePixelValue": 0,
      "SoftwareVersions": "syngo MR E11",
      "SpacingBetweenSlices": 2.7000000369388,
      "SpecificCharacterSet": "ISO_IR 100",
      "StudyID": "1",
      "StudyTime": "135301.796000",
      "TransmitCoilName": "Body",
      "VariableFlipAngleFlag": "N",
      "WindowCenterWidthExplanation": "Algo1"
    },
    "slices": {}
  },
  "time": {
    "samples": {
      "AcquisitionNumber": [1, 2, 3, 4, 5, 6, 7, 8, 9, 10, 11, 12, 13, 14, 15, 16, 17, 18, 19, 20, 21, 22, 23, 24, 25, 26, 27, 28, 29, 30, 31, 32, 33, 34, 35, 36, 37, 38, 39, 40, 41, 42, 43, 44, 45, 46, 47, 48, 49, 50, 51, 52, 53, 54, 55, 56, 57, 58, 59, 60, 61, 62, 63, 64, 65, 66, 67, 68, 69, 70, 71, 72, 73, 74, 75, 76, 77, 78, 79, 80, 81, 82, 83, 84, 85, 86, 87, 88, 89, 90, 91, 92, 93, 94, 95, 96, 97, 98, 99, 100, 101, 102, 103, 104, 105, 106, 107, 108, 109, 110, 111, 112, 113, 114, 115, 116, 117, 118, 119, 120, 121, 122, 123, 124, 125, 126, 127, 128, 129, 130, 131, 132, 133, 134, 135, 136, 137, 138, 139, 140, 141, 142, 143, 144, 145, 146, 147, 148, 149, 150, 151, 152, 153, 154, 155, 156, 157, 158, 159, 160, 161, 162, 163, 164, 165, 166, 167, 168, 169, 170, 171, 172, 173, 174, 175, 176, 177, 178, 179, 180, 181, 182, 183, 184, 185, 186, 187, 188, 189, 190, 191, 192, 193, 194, 195, 196, 197, 198, 199, 200, 201, 202, 203, 204, 205, 206, 207, 208, 209, 210, 211, 212, 213, 214, 215, 216, 217, 218, 219, 220, 221, 222, 223, 224, 225, 226, 227, 228, 229, 230, 231, 232, 233, 234, 235, 236, 237, 238, 239, 240, 241, 242, 243, 244, 245, 246, 247, 248, 249, 250, 251, 252, 253, 254, 255, 256, 257, 258, 259, 260, 261, 262, 263, 264, 265, 266, 267, 268, 269, 270, 271, 272, 273, 274, 275, 276, 277, 278, 279, 280, 281, 282, 283, 284, 285, 286, 287, 288, 289, 290, 291, 292, 293, 294, 295, 296, 297, 298, 299, 300, 301, 302, 303, 304, 305, 306, 307, 308, 309, 310, 311, 312, 313, 314, 315, 316, 317, 318, 319, 320, 321, 322, 323, 324, 325, 326, 327, 328, 329, 330, 331, 332, 333, 334, 335, 336, 337, 338, 339, 340, 341, 342, 343, 344, 345, 346, 347, 348, 349, 350, 351, 352, 353, 354, 355, 356, 357, 358, 359, 360, 361, 362, 363, 364, 365, 366, 367, 368, 369, 370, 371, 372, 373, 374, 375, 376, 377, 378, 379, 380, 381, 382, 383, 384, 385, 386, 387, 388, 389, 390, 391, 392, 393, 394, 395, 396, 397, 398, 399, 400, 401, 402, 403, 404, 405, 406, 407, 408, 409, 410, 411, 412, 413, 414, 415, 416, 417, 418, 419, 420, 421, 422, 423, 424, 425, 426, 427, 428, 429, 430, 431, 432, 433, 434, 435, 436, 437, 438, 439, 440, 441, 442, 443, 444, 445, 446, 447, 448, 449, 450, 451, 452, 453, 454, 455, 456, 457, 458, 459, 460, 461, 462, 463, 464, 465, 466, 467, 468, 469, 470, 471, 472, 473, 474, 475, 476, 477, 478, 479, 480, 481, 482, 483, 484, 485, 486, 487, 488, 489, 490, 491, 492, 493, 494, 495, 496, 497, 498, 499, 500, 501, 502, 503, 504, 505, 506, 507, 508, 509, 510, 511, 512, 513, 514, 515, 516, 517, 518, 519, 520, 521, 522, 523, 524, 525, 526, 527, 528, 529, 530, 531, 532, 533, 534, 535, 536, 537, 538, 539, 540, 541, 542, 543, 544, 545, 546, 547, 548, 549, 550, 551, 552, 553, 554, 555, 556, 557, 558, 559, 560, 561, 562, 563, 564, 565, 566, 567, 568, 569, 570, 571, 572, 573, 574, 575, 576, 577, 578, 579, 580, 581, 582, 583, 584, 585, 586, 587, 588, 589, 590, 591, 592, 593, 594, 595, 596, 597, 598, 599, 600, 601, 602, 603, 604, 605, 606, 607, 608, 609, 610, 611, 612, 613, 614, 615, 616, 617, 618, 619, 620, 621, 622, 623, 624, 625, 626, 627, 628, 629, 630, 631, 632, 633, 634, 635, 636, 637, 638, 639, 640, 641, 642, 643, 644, 645, 646, 647, 648, 649, 650, 651, 652, 653, 654, 655, 656, 657, 658, 659, 660, 661, 662, 663, 664, 665, 666, 667, 668, 669, 670, 671, 672, 673, 674, 675, 676, 677, 678, 679, 680, 681, 682, 683, 684, 685, 686, 687, 688, 689, 690, 691, 692, 693, 694, 695, 696, 697, 698, 699, 700, 701, 702, 703, 704, 705, 706, 707, 708, 709, 710, 711, 712, 713, 714, 715, 716, 717, 718, 719, 720, 721, 722, 723, 724, 725, 726, 727, 728, 729, 730, 731, 732, 733, 734, 735, 736, 737, 738, 739, 740, 741, 742, 743, 744, 745, 746, 747, 748, 749, 750, 751, 752, 753, 754, 755, 756, 757, 758, 759, 760, 761, 762, 763, 764, 765, 766, 767, 768, 769, 770, 771, 772, 773, 774, 775, 776, 777, 778, 779, 780, 781, 782, 783, 784, 785, 786, 787, 788, 789, 790, 791, 792, 793, 794, 795, 796, 797, 798, 799, 800, 801, 802, 803, 804, 805, 806, 807, 808, 809, 810, 811, 812, 813, 814, 815, 816, 817, 818, 819, 820, 821, 822, 823, 824, 825, 826, 827, 828, 829, 830, 831, 832, 833, 834, 835, 836, 837, 838, 839, 840, 841, 842, 843, 844, 845, 846, 847, 848, 849, 850, 851, 852, 853, 854, 855, 856, 857, 858, 859, 860, 861, 862, 863, 864, 865, 866, 867, 868, 869, 870, 871, 872],
      "AcquisitionTime": ["144053.985000", "144054.445000", "144054.905000", "144055.365000", "144055.825000", "144056.285000", "144056.745000", "144057.205000", "144057.665000", "144058.125000", "144058.585000", "144059.045000", "144059.505000", "144059.965000", "144100.425000", "144100.885000", "144101.345000", "144101.805000", "144102.265000", "144102.725000", "144103.185000", "144103.645000", "144104.105000", "144104.565000", "144105.025000", "144105.485000", "144105.945000", "144106.405000", "144106.865000", "144107.325000", "144107.785000", "144108.245000", "144108.705000", "144109.165000", "144109.625000", "144110.085000", "144110.545000", "144111.005000", "144111.465000", "144111.925000", "144112.385000", "144112.845000", "144113.305000", "144113.765000", "144114.225000", "144114.685000", "144115.145000", "144115.605000", "144116.065000", "144116.525000", "144116.985000", "144117.445000", "144117.905000", "144118.365000", "144118.825000", "144119.285000", "144119.745000", "144120.205000", "144120.665000", "144121.125000", "144121.585000", "144122.045000", "144122.505000", "144122.965000", "144123.425000", "144123.885000", "144124.345000", "144124.805000", "144125.265000", "144125.725000", "144126.185000", "144126.645000", "144127.105000", "144127.565000", "144128.025000", "144128.485000", "144128.945000", "144129.405000", "144129.865000", "144130.325000", "144130.785000", "144131.245000", "144131.705000", "144132.165000", "144132.625000", "144133.085000", "144133.545000", "144134.005000", "144134.465000", "144134.925000", "144135.385000", "144135.845000", "144136.305000", "144136.765000", "144137.225000", "144137.685000", "144138.145000", "144138.605000", "144139.065000", "144139.525000", "144139.985000", "144140.445000", "144140.905000", "144141.365000", "144141.825000", "144142.285000", "144142.745000", "144143.205000", "144143.665000", "144144.125000", "144144.585000", "144145.045000", "144145.505000", "144145.965000", "144146.425000", "144146.885000", "144147.345000", "144147.805000", "144148.265000", "144148.725000", "144149.185000", "144149.645000", "144150.105000", "144150.565000", "144151.025000", "144151.485000", "144151.945000", "144152.405000", "144152.865000", "144153.325000", "144153.785000", "144154.245000", "144154.705000", "144155.165000", "144155.625000", "144156.085000", "144156.545000", "144157.005000", "144157.465000", "144157.925000", "144158.385000", "144158.845000", "144159.305000", "144159.765000", "144200.225000", "144200.685000", "144201.145000", "144201.605000", "144202.065000", "144202.525000", "144202.985000", "144203.445000", "144203.905000", "144204.365000", "144204.825000", "144205.285000", "144205.745000", "144206.205000", "144206.665000", "144207.125000", "144207.585000", "144208.045000", "144208.505000", "144208.965000", "144209.425000", "144209.885000", "144210.345000", "144210.805000", "144211.265000", "144211.725000", "144212.185000", "144212.645000", "144213.105000", "144213.565000", "144214.025000", "144214.485000", "144214.945000", "144215.405000", "144215.865000", "144216.325000", "144216.785000", "144217.245000", "144217.705000", "144218.165000", "144218.625000", "144219.085000", "144219.545000", "144220.005000", "144220.465000", "144220.925000", "144221.385000", "144221.845000", "144222.305000", "144222.765000", "144223.225000", "144223.685000", "144224.145000", "144224.605000", "144225.065000", "144225.525000", "144225.985000", "144226.445000", "144226.905000", "144227.365000", "144227.825000", "144228.285000", "144228.745000", "144229.205000", "144229.665000", "144230.125000", "144230.585000", "144231.045000", "144231.505000", "144231.965000", "144232.425000", "144232.885000", "144233.345000", "144233.805000", "144234.265000", "144234.725000", "144235.185000", "144235.645000", "144236.105000", "144236.565000", "144237.025000", "144237.485000", "144237.945000", "144238.405000", "144238.865000", "144239.325000", "144239.785000", "144240.245000", "144240.705000", "144241.165000", "144241.625000", "144242.085000", "144242.545000", "144243.005000", "144243.465000", "144243.925000", "144244.385000", "144244.845000", "144245.305000", "144245.765000", "144246.225000", "144246.685000", "144247.145000", "144247.605000", "144248.065000", "144248.525000", "144248.985000", "144249.445000", "144249.905000", "144250.365000", "144250.825000", "144251.285000", "144251.745000", "144252.205000", "144252.665000", "144253.125000", "144253.585000", "144254.045000", "144254.505000", "144254.965000", "144255.425000", "144255.885000", "144256.345000", "144256.805000", "144257.265000", "144257.725000", "144258.185000", "144258.645000", "144259.105000", "144259.565000", "144300.025000", "144300.485000", "144300.945000", "144301.405000", "144301.865000", "144302.325000", "144302.785000", "144303.245000", "144303.705000", "144304.165000", "144304.625000", "144305.085000", "144305.545000", "144306.005000", "144306.465000", "144306.925000", "144307.385000", "144307.845000", "144308.305000", "144308.765000", "144309.225000", "144309.685000", "144310.145000", "144310.605000", "144311.065000", "144311.525000", "144311.985000", "144312.445000", "144312.905000", "144313.365000", "144313.825000", "144314.285000", "144314.745000", "144315.205000", "144315.665000", "144316.125000", "144316.585000", "144317.045000", "144317.505000", "144317.965000", "144318.425000", "144318.885000", "144319.345000", "144319.805000", "144320.265000", "144320.725000", "144321.185000", "144321.645000", "144322.105000", "144322.565000", "144323.025000", "144323.485000", "144323.945000", "144324.405000", "144324.865000", "144325.325000", "144325.785000", "144326.245000", "144326.705000", "144327.165000", "144327.625000", "144328.085000", "144328.545000", "144329.005000", "144329.465000", "144329.925000", "144330.385000", "144330.845000", "144331.305000", "144331.765000", "144332.225000", "144332.685000", "144333.145000", "144333.605000", "144334.065000", "144334.525000", "144334.985000", "144335.445000", "144335.905000", "144336.365000", "144336.825000", "144337.285000", "144337.745000", "144338.205000", "144338.665000", "144339.125000", "144339.585000", "144340.045000", "144340.505000", "144340.965000", "144341.425000", "144341.885000", "144342.345000", "144342.805000", "144343.265000", "144343.725000", "144344.185000", "144344.645000", "144345.105000", "144345.565000", "144346.025000", "144346.485000", "144346.945000", "144347.405000", "144347.865000", "144348.325000", "144348.785000", "144349.245000", "144349.705000", "144350.165000", "144350.625000", "144351.085000", "144351.545000", "144352.005000", "144352.465000", "144352.925000", "144353.385000", "144353.845000", "144354.305000", "144354.765000", "144355.225000", "144355.685000", "144356.145000", "144356.605000", "144357.065000", "144357.525000", "144357.985000", "144358.445000", "144358.905000", "144359.365000", "144359.825000", "144400.285000", "144400.745000", "144401.205000", "144401.665000", "144402.125000", "144402.585000", "144403.045000", "144403.505000", "144403.965000", "144404.425000", "144404.885000", "144405.345000", "144405.805000", "144406.265000", "144406.725000", "144407.185000", "144407.645000", "144408.105000", "144408.565000", "144409.025000", "144409.485000", "144409.945000", "144410.405000", "144410.865000", "144411.325000", "144411.785000", "144412.245000", "144412.705000", "144413.165000", "144413.625000", "144414.085000", "144414.545000", "144415.005000", "144415.465000", "144415.925000", "144416.385000", "144416.845000", "144417.305000", "144417.765000", "144418.225000", "144418.685000", "144419.145000", "144419.605000", "144420.065000", "144420.525000", "144420.985000", "144421.445000", "144421.905000", "144422.365000", "144422.825000", "144423.285000", "144423.745000", "144424.205000", "144424.665000", "144425.125000", "144425.585000", "144426.045000", "144426.505000", "144426.965000", "144427.425000", "144427.885000", "144428.345000", "144428.805000", "144429.265000", "144429.725000", "144430.185000", "144430.645000", "144431.105000", "144431.565000", "144432.025000", "144432.485000", "144432.945000", "144433.405000", "144433.865000", "144434.325000", "144434.785000", "144435.245000", "144435.705000", "144436.165000", "144436.625000", "144437.085000", "144437.545000", "144438.005000", "144438.465000", "144438.925000", "144439.385000", "144439.845000", "144440.305000", "144440.765000", "144441.225000", "144441.685000", "144442.145000", "144442.605000", "144443.065000", "144443.525000", "144443.985000", "144444.445000", "144444.905000", "144445.365000", "144445.825000", "144446.285000", "144446.745000", "144447.205000", "144447.665000", "144448.125000", "144448.585000", "144449.045000", "144449.505000", "144449.965000", "144450.425000", "144450.885000", "144451.345000", "144451.805000", "144452.265000", "144452.725000", "144453.185000", "144453.645000", "144454.105000", "144454.565000", "144455.025000", "144455.485000", "144455.945000", "144456.405000", "144456.865000", "144457.325000", "144457.785000", "144458.245000", "144458.705000", "144459.165000", "144459.625000", "144500.085000", "144500.545000", "144501.005000", "144501.465000", "144501.925000", "144502.385000", "144502.845000", "144503.305000", "144503.765000", "144504.225000", "144504.685000", "144505.145000", "144505.605000", "144506.065000", "144506.525000", "144506.985000", "144507.445000", "144507.905000", "144508.365000", "144508.825000", "144509.285000", "144509.745000", "144510.205000", "144510.665000", "144511.125000", "144511.585000", "144512.045000", "144512.505000", "144512.965000", "144513.425000", "144513.885000", "144514.345000", "144514.805000", "144515.265000", "144515.725000", "144516.185000", "144516.645000", "144517.105000", "144517.565000", "144518.025000", "144518.485000", "144518.945000", "144519.405000", "144519.865000", "144520.325000", "144520.785000", "144521.245000", "144521.705000", "144522.165000", "144522.625000", "144523.085000", "144523.545000", "144524.005000", "144524.465000", "144524.925000", "144525.385000", "144525.845000", "144526.305000", "144526.765000", "144527.225000", "144527.685000", "144528.145000", "144528.605000", "144529.065000", "144529.525000", "144529.985000", "144530.445000", "144530.905000", "144531.365000", "144531.825000", "144532.285000", "144532.745000", "144533.205000", "144533.665000", "144534.125000", "144534.585000", "144535.045000", "144535.505000", "144535.965000", "144536.425000", "144536.885000", "144537.345000", "144537.805000", "144538.265000", "144538.725000", "144539.185000", "144539.645000", "144540.105000", "144540.565000", "144541.025000", "144541.485000", "144541.945000", "144542.405000", "144542.865000", "144543.325000", "144543.785000", "144544.245000", "144544.705000", "144545.165000", "144545.625000", "144546.085000", "144546.545000", "144547.005000", "144547.465000", "144547.925000", "144548.385000", "144548.845000", "144549.305000", "144549.765000", "144550.225000", "144550.685000", "144551.145000", "144551.605000", "144552.065000", "144552.525000", "144552.985000", "144553.445000", "144553.905000", "144554.365000", "144554.825000", "144555.285000", "144555.745000", "144556.205000", "144556.665000", "144557.125000", "144557.585000", "144558.045000", "144558.505000", "144558.965000", "144559.425000", "144559.885000", "144600.345000", "144600.805000", "144601.265000", "144601.725000", "144602.185000", "144602.645000", "144603.105000", "144603.565000", "144604.025000", "144604.485000", "144604.945000", "144605.405000", "144605.865000", "144606.325000", "144606.785000", "144607.245000", "144607.705000", "144608.165000", "144608.625000", "144609.085000", "144609.545000", "144610.005000", "144610.465000", "144610.925000", "144611.385000", "144611.845000", "144612.305000", "144612.765000", "144613.225000", "144613.685000", "144614.145000", "144614.605000", "144615.065000", "144615.525000", "144615.985000", "144616.445000", "144616.905000", "144617.365000", "144617.825000", "144618.285000", "144618.745000", "144619.205000", "144619.665000", "144620.125000", "144620.585000", "144621.045000", "144621.505000", "144621.965000", "144622.425000", "144622.885000", "144623.345000", "144623.805000", "144624.265000", "144624.725000", "144625.185000", "144625.645000", "144626.105000", "144626.565000", "144627.025000", "144627.485000", "144627.945000", "144628.405000", "144628.865000", "144629.325000", "144629.785000", "144630.245000", "144630.705000", "144631.165000", "144631.625000", "144632.085000", "144632.545000", "144633.005000", "144633.465000", "144633.925000", "144634.385000", "144634.845000", "144635.305000", "144635.765000", "144636.225000", "144636.685000", "144637.145000", "144637.605000", "144638.065000", "144638.525000", "144638.985000", "144639.445000", "144639.905000", "144640.365000", "144640.825000", "144641.285000", "144641.745000", "144642.205000", "144642.665000", "144643.125000", "144643.585000", "144644.045000", "144644.505000", "144644.965000", "144645.425000", "144645.885000", "144646.345000", "144646.805000", "144647.265000", "144647.725000", "144648.185000", "144648.645000", "144649.105000", "144649.565000", "144650.025000", "144650.485000", "144650.945000", "144651.405000", "144651.865000", "144652.325000", "144652.785000", "144653.245000", "144653.705000", "144654.165000", "144654.625000", "144655.085000", "144655.545000", "144656.005000", "144656.465000", "144656.925000", "144657.385000", "144657.845000", "144658.305000", "144658.765000", "144659.225000", "144659.685000", "144700.145000", "144700.605000", "144701.065000", "144701.525000", "144701.985000", "144702.445000", "144702.905000", "144703.365000", "144703.825000", "144704.285000", "144704.745000", "144705.205000", "144705.665000", "144706.125000", "144706.585000", "144707.045000", "144707.505000", "144707.965000", "144708.425000", "144708.885000", "144709.345000", "144709.805000", "144710.265000", "144710.725000", "144711.185000", "144711.645000", "144712.105000", "144712.565000", "144713.025000", "144713.485000", "144713.945000", "144714.405000", "144714.865000", "144715.325000", "144715.785000", "144716.245000", "144716.705000", "144717.165000", "144717.625000", "144718.085000", "144718.545000", "144719.005000", "144719.465000", "144719.925000", "144720.385000", "144720.845000", "144721.305000", "144721.765000", "144722.225000", "144722.685000", "144723.145000", "144723.605000", "144724.065000", "144724.525000", "144724.985000", "144725.445000", "144725.905000", "144726.365000", "144726.825000", "144727.285000", "144727.745000", "144728.205000", "144728.665000", "144729.125000", "144729.585000", "144730.045000", "144730.505000", "144730.965000", "144731.425000", "144731.885000", "144732.345000", "144732.805000", "144733.265000", "144733.725000", "144734.185000", "144734.645000"],
