{
  "AcquisitionMatrixPE": 82,
  "AcquisitionNumber": 1,
  "AcquisitionTime": "13:16:55.240000",
  "BandwidthPerPixelPhaseEncode": 24.888,
  "BaseResolution": 82,
  "BodyPartExamined": "BRAIN",
  "ConsistencyInfo": "N4_VE11E_LATEST_20181129",
  "ConversionSoftware": "dcm2niix",
  "ConversionSoftwareVersion": "v1.0.20201102",
  "DerivedVendorReportedEchoSpacing": 0.00049,
  "DeviceSerialNumber": "66112",
  "DwellTime": 2e-06,
  "EchoTime": 0.0272,
  "EchoTrainLength": 82,
  "EffectiveEchoSpacing": 0.00049,
  "FlipAngle": 44,
  "ImageComments": "Unaliased MB8/PE3",
  "ImageOrientationPatientDICOM": [0.998038, 0.0274333, 0.056277, -0.0315389, 0.996803, 0.0734117],
  "ImageType": [
    "ORIGINAL",
    "PRIMARY",
    "M",
    "MB",
    "ND",
    "NORM",
    "MOSAIC"
],
  "ImagingFrequency": 123.252,
  "InPlanePhaseEncodingDirectionDICOM": "COL",
  "InstitutionAddress": "Maynard 3,Hanover,NH,US,03755",
  "InstitutionName": "Dartmouth College - PBS",
  "InstitutionalDepartmentName": "Department",
  "MRAcquisitionType": "2D",
  "MagneticFieldStrength": 3,
  "Manufacturer": "Siemens",
  "ManufacturersModelName": "Prisma",
  "Modality": "MR",
  "MultibandAccelerationFactor": 8,
  "PartialFourier": 1,
  "PatientPosition": "HFS",
  "PercentPhaseFOV": 100,
  "PercentSampling": 100,
  "PhaseEncodingDirection": "j-",
  "PhaseEncodingSteps": 82,
  "PhaseResolution": 1,
  "PixelBandwidth": 3050,
  "ProcedureStepDescription": "Wager_Wager^1076_spacetop",
  "ProtocolName": "func_run-03_task-social_acq-ap-mb8",
  "PulseSequenceDetails": "%CustomerSeq%\\cmrr_mbep2d_bold",
  "ReceiveCoilActiveElements": "HEA;HEP",
  "ReceiveCoilName": "Head_32",
  "ReconMatrixPE": 82,
  "RepetitionTime": 0.46,
  "SAR": 0.079509,
  "ScanOptions": "FS",
  "ScanningSequence": "EP",
  "SequenceName": "epfid2d1_82",
  "SequenceVariant": "SK\\SS",
  "SeriesDescription": "func_run-03_task-social_acq-ap-mb8",
  "SeriesNumber": 16,
  "ShimSetting": [4151, -7758, -7225, 567, -77, -153, -72, 103],
  "SliceThickness": 2.7,
  "SliceTiming": [0, 0.2525, 0.0625, 0.315, 0.125, 0.3775, 0.19, 0, 0.2525, 0.0625, 0.315, 0.125, 0.3775, 0.19, 0, 0.2525, 0.0625, 0.315, 0.125, 0.3775, 0.19, 0, 0.2525, 0.0625, 0.315, 0.125, 0.3775, 0.19, 0, 0.2525, 0.0625, 0.315, 0.125, 0.3775, 0.19, 0, 0.2525, 0.0625, 0.315, 0.125, 0.3775, 0.19, 0, 0.2525, 0.0625, 0.315, 0.125, 0.3775, 0.19, 0, 0.2525, 0.0625, 0.315, 0.125, 0.3775, 0.19],
  "SoftwareVersions": "syngo MR E11",
  "SpacingBetweenSlices": 2.7,
  "StationName": "AWP66112",
  "TaskName": "social",
  "TotalReadoutTime": 0.03969,
  "TxRefAmp": 235.481,
  "WipMemBlock": "0c9babb8-1137-4268-893f-45c1f2055f15||Sequence: R016 ve11e/master r/434b28f1; Aug  7 2019 18:53:46 by eja",
  "dcmmeta_affine": [
    [-2.677663564682007, -0.08461656421422958, 0.14602459967136383, 116.06807708740234],
    [-0.07360165566205978, 2.674349308013916, 0.2026149481534958, -96.18214416503906],
    [0.1509871780872345, -0.19695815443992615, 2.6884241104125977, -59.43611145019531],
    [0.0, 0.0, 0.0, 1.0]
],
  "dcmmeta_reorient_transform": [
    [0.0, -1.0, 0.0, 81.0],
    [1.0, 0.0, 0.0, 0.0],
    [0.0, 0.0, 1.0, 0.0],
    [0.0, 0.0, 0.0, 1.0]
],
  "dcmmeta_shape": [82, 82, 56, 872],
  "dcmmeta_slice_dim": 2,
  "dcmmeta_version": 0.6,
  "global": {
    "const": {
      "AccessionNumber": "A003868",
      "AcquisitionMatrix": [82, 0, 0, 82],
      "AngioFlag": "N",
      "BitsAllocated": 16,
      "BitsStored": 16,
      "BodyPartExamined": "BRAIN",
      "Columns": 656,
      "EchoNumbers": 1,
      "EchoTime": 27.2,
      "EchoTrainLength": 82,
      "FlipAngle": 44.0,
      "HighBit": 15,
      "ImageOrientationPatient": [0.99803822906943, 0.02743334466036, 0.0562770372061, -0.0315389011395, 0.99680290121904, 0.07341167370527],
      "ImagePositionPatient": [-853.41863811725, -909.10207824833, -175.25003072533],
      "ImageType": [
        "ORIGINAL",
        "PRIMARY",
        "M",
        "MB",
        "ND",
        "NORM",
        "MOSAIC"
],
      "ImagedNucleus": "1H",
      "ImagingFrequency": 123.252182,
      "InPlanePhaseEncodingDirection": "COL",
      "MRAcquisitionType": "2D",
      "MagneticFieldStrength": 3.0,
      "Manufacturer": "SIEMENS",
      "ManufacturerModelName": "Prisma",
      "Modality": "MR",
      "NumberOfAverages": 1.0,
      "NumberOfPhaseEncodingSteps": 82,
      "PercentPhaseFieldOfView": 100.0,
      "PercentSampling": 100.0,
      "PerformedProcedureStepStartTime": "122249.356000",
      "PhotometricInterpretation": "MONOCHROME2",
      "PixelBandwidth": 3050.0,
      "PixelRepresentation": 0,
      "PixelSpacing": [2.6829268932343, 2.6829268932343],
      "ProtocolName": "func_run-03_task-social_acq-ap-mb8",
      "RepetitionTime": 460.0,
      "Rows": 656,
      "SAR": 0.07950897128192,
      "SamplesPerPixel": 1,
      "ScanOptions": "FS",
      "ScanningSequence": "EP",
      "SequenceName": "epfid2d1_82",
      "SequenceVariant": [
        "SK",
        "SS"
],
      "SeriesDescription": "func_run-03_task-social_acq-ap-mb8",
      "SeriesNumber": 16,
      "SeriesTime": "131721.638000",
      "SliceLocation": -60.121709266301,
      "SliceThickness": 2.7000000476837,
      "SmallestImagePixelValue": 0,
      "SoftwareVersions": "syngo MR E11",
      "SpacingBetweenSlices": 2.7000000557938,
      "SpecificCharacterSet": "ISO_IR 100",
      "StudyID": "1",
      "StudyTime": "122249.300000",
      "TransmitCoilName": "Body",
      "VariableFlipAngleFlag": "N",
      "WindowCenterWidthExplanation": "Algo1"
    },
    "slices": {}
  },
  "time": {
    "samples": {
      "AcquisitionNumber": [1, 2, 3, 4, 5, 6, 7, 8, 9, 10, 11, 12, 13, 14, 15, 16, 17, 18, 19, 20, 21, 22, 23, 24, 25, 26, 27, 28, 29, 30, 31, 32, 33, 34, 35, 36, 37, 38, 39, 40, 41, 42, 43, 44, 45, 46, 47, 48, 49, 50, 51, 52, 53, 54, 55, 56, 57, 58, 59, 60, 61, 62, 63, 64, 65, 66, 67, 68, 69, 70, 71, 72, 73, 74, 75, 76, 77, 78, 79, 80, 81, 82, 83, 84, 85, 86, 87, 88, 89, 90, 91, 92, 93, 94, 95, 96, 97, 98, 99, 100, 101, 102, 103, 104, 105, 106, 107, 108, 109, 110, 111, 112, 113, 114, 115, 116, 117, 118, 119, 120, 121, 122, 123, 124, 125, 126, 127, 128, 129, 130, 131, 132, 133, 134, 135, 136, 137, 138, 139, 140, 141, 142, 143, 144, 145, 146, 147, 148, 149, 150, 151, 152, 153, 154, 155, 156, 157, 158, 159, 160, 161, 162, 163, 164, 165, 166, 167, 168, 169, 170, 171, 172, 173, 174, 175, 176, 177, 178, 179, 180, 181, 182, 183, 184, 185, 186, 187, 188, 189, 190, 191, 192, 193, 194, 195, 196, 197, 198, 199, 200, 201, 202, 203, 204, 205, 206, 207, 208, 209, 210, 211, 212, 213, 214, 215, 216, 217, 218, 219, 220, 221, 222, 223, 224, 225, 226, 227, 228, 229, 230, 231, 232, 233, 234, 235, 236, 237, 238, 239, 240, 241, 242, 243, 244, 245, 246, 247, 248, 249, 250, 251, 252, 253, 254, 255, 256, 257, 258, 259, 260, 261, 262, 263, 264, 265, 266, 267, 268, 269, 270, 271, 272, 273, 274, 275, 276, 277, 278, 279, 280, 281, 282, 283, 284, 285, 286, 287, 288, 289, 290, 291, 292, 293, 294, 295, 296, 297, 298, 299, 300, 301, 302, 303, 304, 305, 306, 307, 308, 309, 310, 311, 312, 313, 314, 315, 316, 317, 318, 319, 320, 321, 322, 323, 324, 325, 326, 327, 328, 329, 330, 331, 332, 333, 334, 335, 336, 337, 338, 339, 340, 341, 342, 343, 344, 345, 346, 347, 348, 349, 350, 351, 352, 353, 354, 355, 356, 357, 358, 359, 360, 361, 362, 363, 364, 365, 366, 367, 368, 369, 370, 371, 372, 373, 374, 375, 376, 377, 378, 379, 380, 381, 382, 383, 384, 385, 386, 387, 388, 389, 390, 391, 392, 393, 394, 395, 396, 397, 398, 399, 400, 401, 402, 403, 404, 405, 406, 407, 408, 409, 410, 411, 412, 413, 414, 415, 416, 417, 418, 419, 420, 421, 422, 423, 424, 425, 426, 427, 428, 429, 430, 431, 432, 433, 434, 435, 436, 437, 438, 439, 440, 441, 442, 443, 444, 445, 446, 447, 448, 449, 450, 451, 452, 453, 454, 455, 456, 457, 458, 459, 460, 461, 462, 463, 464, 465, 466, 467, 468, 469, 470, 471, 472, 473, 474, 475, 476, 477, 478, 479, 480, 481, 482, 483, 484, 485, 486, 487, 488, 489, 490, 491, 492, 493, 494, 495, 496, 497, 498, 499, 500, 501, 502, 503, 504, 505, 506, 507, 508, 509, 510, 511, 512, 513, 514, 515, 516, 517, 518, 519, 520, 521, 522, 523, 524, 525, 526, 527, 528, 529, 530, 531, 532, 533, 534, 535, 536, 537, 538, 539, 540, 541, 542, 543, 544, 545, 546, 547, 548, 549, 550, 551, 552, 553, 554, 555, 556, 557, 558, 559, 560, 561, 562, 563, 564, 565, 566, 567, 568, 569, 570, 571, 572, 573, 574, 575, 576, 577, 578, 579, 580, 581, 582, 583, 584, 585, 586, 587, 588, 589, 590, 591, 592, 593, 594, 595, 596, 597, 598, 599, 600, 601, 602, 603, 604, 605, 606, 607, 608, 609, 610, 611, 612, 613, 614, 615, 616, 617, 618, 619, 620, 621, 622, 623, 624, 625, 626, 627, 628, 629, 630, 631, 632, 633, 634, 635, 636, 637, 638, 639, 640, 641, 642, 643, 644, 645, 646, 647, 648, 649, 650, 651, 652, 653, 654, 655, 656, 657, 658, 659, 660, 661, 662, 663, 664, 665, 666, 667, 668, 669, 670, 671, 672, 673, 674, 675, 676, 677, 678, 679, 680, 681, 682, 683, 684, 685, 686, 687, 688, 689, 690, 691, 692, 693, 694, 695, 696, 697, 698, 699, 700, 701, 702, 703, 704, 705, 706, 707, 708, 709, 710, 711, 712, 713, 714, 715, 716, 717, 718, 719, 720, 721, 722, 723, 724, 725, 726, 727, 728, 729, 730, 731, 732, 733, 734, 735, 736, 737, 738, 739, 740, 741, 742, 743, 744, 745, 746, 747, 748, 749, 750, 751, 752, 753, 754, 755, 756, 757, 758, 759, 760, 761, 762, 763, 764, 765, 766, 767, 768, 769, 770, 771, 772, 773, 774, 775, 776, 777, 778, 779, 780, 781, 782, 783, 784, 785, 786, 787, 788, 789, 790, 791, 792, 793, 794, 795, 796, 797, 798, 799, 800, 801, 802, 803, 804, 805, 806, 807, 808, 809, 810, 811, 812, 813, 814, 815, 816, 817, 818, 819, 820, 821, 822, 823, 824, 825, 826, 827, 828, 829, 830, 831, 832, 833, 834, 835, 836, 837, 838, 839, 840, 841, 842, 843, 844, 845, 846, 847, 848, 849, 850, 851, 852, 853, 854, 855, 856, 857, 858, 859, 860, 861, 862, 863, 864, 865, 866, 867, 868, 869, 870, 871, 872],
      "AcquisitionTime": ["131655.240000", "131655.700000", "131656.160000", "131656.620000", "131657.080000", "131657.540000", "131658.000000", "131658.460000", "131658.920000", "131659.380000", "131659.840000", "131700.300000", "131700.760000", "131701.220000", "131701.680000", "131702.140000", "131702.600000", "131703.060000", "131703.520000", "131703.980000", "131704.440000", "131704.900000", "131705.360000", "131705.820000", "131706.280000", "131706.740000", "131707.200000", "131707.660000", "131708.120000", "131708.580000", "131709.040000", "131709.500000", "131709.960000", "131710.420000", "131710.880000", "131711.340000", "131711.800000", "131712.260000", "131712.720000", "131713.180000", "131713.640000", "131714.100000", "131714.560000", "131715.020000", "131715.480000", "131715.940000", "131716.400000", "131716.860000", "131717.320000", "131717.780000", "131718.240000", "131718.700000", "131719.160000", "131719.620000", "131720.080000", "131720.540000", "131721.000000", "131721.460000", "131721.920000", "131722.380000", "131722.840000", "131723.300000", "131723.760000", "131724.220000", "131724.680000", "131725.140000", "131725.600000", "131726.060000", "131726.520000", "131726.980000", "131727.440000", "131727.900000", "131728.360000", "131728.820000", "131729.280000", "131729.740000", "131730.200000", "131730.660000", "131731.120000", "131731.580000", "131732.040000", "131732.500000", "131732.960000", "131733.420000", "131733.880000", "131734.340000", "131734.800000", "131735.260000", "131735.720000", "131736.180000", "131736.640000", "131737.100000", "131737.560000", "131738.020000", "131738.480000", "131738.940000", "131739.400000", "131739.860000", "131740.320000", "131740.780000", "131741.240000", "131741.700000", "131742.160000", "131742.620000", "131743.080000", "131743.540000", "131744.000000", "131744.460000", "131744.920000", "131745.380000", "131745.840000", "131746.300000", "131746.760000", "131747.220000", "131747.680000", "131748.140000", "131748.600000", "131749.060000", "131749.520000", "131749.980000", "131750.440000", "131750.900000", "131751.360000", "131751.820000", "131752.280000", "131752.740000", "131753.200000", "131753.660000", "131754.120000", "131754.580000", "131755.040000", "131755.500000", "131755.960000", "131756.420000", "131756.880000", "131757.340000", "131757.800000", "131758.260000", "131758.720000", "131759.180000", "131759.640000", "131800.100000", "131800.560000", "131801.020000", "131801.480000", "131801.940000", "131802.400000", "131802.860000", "131803.320000", "131803.780000", "131804.240000", "131804.700000", "131805.160000", "131805.620000", "131806.080000", "131806.540000", "131807.000000", "131807.460000", "131807.920000", "131808.380000", "131808.840000", "131809.300000", "131809.760000", "131810.220000", "131810.680000", "131811.140000", "131811.600000", "131812.060000", "131812.520000", "131812.980000", "131813.440000", "131813.900000", "131814.360000", "131814.820000", "131815.280000", "131815.740000", "131816.200000", "131816.660000", "131817.120000", "131817.580000", "131818.040000", "131818.500000", "131818.960000", "131819.420000", "131819.880000", "131820.340000", "131820.800000", "131821.260000", "131821.720000", "131822.180000", "131822.640000", "131823.100000", "131823.560000", "131824.020000", "131824.480000", "131824.940000", "131825.400000", "131825.860000", "131826.320000", "131826.780000", "131827.240000", "131827.700000", "131828.160000", "131828.620000", "131829.080000", "131829.540000", "131830.000000", "131830.460000", "131830.920000", "131831.380000", "131831.840000", "131832.300000", "131832.760000", "131833.220000", "131833.680000", "131834.140000", "131834.600000", "131835.060000", "131835.520000", "131835.980000", "131836.440000", "131836.900000", "131837.360000", "131837.820000", "131838.280000", "131838.740000", "131839.200000", "131839.660000", "131840.120000", "131840.580000", "131841.040000", "131841.500000", "131841.960000", "131842.420000", "131842.880000", "131843.340000", "131843.800000", "131844.260000", "131844.720000", "131845.180000", "131845.640000", "131846.100000", "131846.560000", "131847.020000", "131847.480000", "131847.940000", "131848.400000", "131848.860000", "131849.320000", "131849.780000", "131850.240000", "131850.700000", "131851.160000", "131851.620000", "131852.080000", "131852.540000", "131853.000000", "131853.460000", "131853.920000", "131854.380000", "131854.840000", "131855.300000", "131855.760000", "131856.220000", "131856.680000", "131857.140000", "131857.600000", "131858.060000", "131858.520000", "131858.980000", "131859.440000", "131859.900000", "131900.360000", "131900.820000", "131901.280000", "131901.740000", "131902.200000", "131902.660000", "131903.120000", "131903.580000", "131904.040000", "131904.500000", "131904.960000", "131905.420000", "131905.880000", "131906.340000", "131906.800000", "131907.260000", "131907.720000", "131908.180000", "131908.640000", "131909.100000", "131909.560000", "131910.020000", "131910.480000", "131910.940000", "131911.400000", "131911.860000", "131912.320000", "131912.780000", "131913.240000", "131913.700000", "131914.160000", "131914.620000", "131915.080000", "131915.540000", "131916.000000", "131916.460000", "131916.920000", "131917.380000", "131917.840000", "131918.300000", "131918.760000", "131919.220000", "131919.680000", "131920.140000", "131920.600000", "131921.060000", "131921.520000", "131921.980000", "131922.440000", "131922.900000", "131923.360000", "131923.820000", "131924.280000", "131924.740000", "131925.200000", "131925.660000", "131926.120000", "131926.580000", "131927.040000", "131927.500000", "131927.960000", "131928.420000", "131928.880000", "131929.340000", "131929.800000", "131930.260000", "131930.720000", "131931.180000", "131931.640000", "131932.100000", "131932.560000", "131933.020000", "131933.480000", "131933.940000", "131934.400000", "131934.860000", "131935.320000", "131935.780000", "131936.240000", "131936.700000", "131937.160000", "131937.620000", "131938.080000", "131938.540000", "131939.000000", "131939.460000", "131939.920000", "131940.380000", "131940.840000", "131941.300000", "131941.760000", "131942.220000", "131942.680000", "131943.140000", "131943.600000", "131944.060000", "131944.520000", "131944.980000", "131945.440000", "131945.900000", "131946.360000", "131946.820000", "131947.280000", "131947.740000", "131948.200000", "131948.660000", "131949.120000", "131949.580000", "131950.040000", "131950.500000", "131950.960000", "131951.420000", "131951.880000", "131952.340000", "131952.800000", "131953.260000", "131953.720000", "131954.180000", "131954.640000", "131955.100000", "131955.560000", "131956.020000", "131956.480000", "131956.940000", "131957.400000", "131957.860000", "131958.320000", "131958.780000", "131959.240000", "131959.700000", "132000.160000", "132000.620000", "132001.080000", "132001.540000", "132002.000000", "132002.460000", "132002.920000", "132003.380000", "132003.840000", "132004.300000", "132004.760000", "132005.220000", "132005.680000", "132006.140000", "132006.600000", "132007.060000", "132007.520000", "132007.980000", "132008.440000", "132008.900000", "132009.360000", "132009.820000", "132010.280000", "132010.740000", "132011.200000", "132011.660000", "132012.120000", "132012.580000", "132013.040000", "132013.500000", "132013.960000", "132014.420000", "132014.880000", "132015.340000", "132015.800000", "132016.260000", "132016.720000", "132017.180000", "132017.640000", "132018.100000", "132018.560000", "132019.020000", "132019.480000", "132019.940000", "132020.400000", "132020.860000", "132021.320000", "132021.780000", "132022.240000", "132022.700000", "132023.160000", "132023.620000", "132024.080000", "132024.540000", "132025.000000", "132025.460000", "132025.920000", "132026.380000", "132026.840000", "132027.300000", "132027.760000", "132028.220000", "132028.680000", "132029.140000", "132029.600000", "132030.060000", "132030.520000", "132030.980000", "132031.440000", "132031.900000", "132032.360000", "132032.820000", "132033.280000", "132033.740000", "132034.200000", "132034.660000", "132035.120000", "132035.580000", "132036.040000", "132036.500000", "132036.960000", "132037.420000", "132037.880000", "132038.340000", "132038.800000", "132039.260000", "132039.720000", "132040.180000", "132040.640000", "132041.100000", "132041.560000", "132042.020000", "132042.480000", "132042.940000", "132043.400000", "132043.860000", "132044.320000", "132044.780000", "132045.240000", "132045.700000", "132046.160000", "132046.620000", "132047.080000", "132047.540000", "132048.000000", "132048.460000", "132048.920000", "132049.380000", "132049.840000", "132050.300000", "132050.760000", "132051.220000", "132051.680000", "132052.140000", "132052.600000", "132053.060000", "132053.520000", "132053.980000", "132054.440000", "132054.900000", "132055.360000", "132055.820000", "132056.280000", "132056.740000", "132057.200000", "132057.660000", "132058.120000", "132058.580000", "132059.040000", "132059.500000", "132059.960000", "132100.420000", "132100.880000", "132101.340000", "132101.800000", "132102.260000", "132102.720000", "132103.180000", "132103.640000", "132104.100000", "132104.560000", "132105.020000", "132105.480000", "132105.940000", "132106.400000", "132106.860000", "132107.320000", "132107.780000", "132108.240000", "132108.700000", "132109.160000", "132109.620000", "132110.080000", "132110.540000", "132111.000000", "132111.460000", "132111.920000", "132112.380000", "132112.840000", "132113.300000", "132113.760000", "132114.220000", "132114.680000", "132115.140000", "132115.600000", "132116.060000", "132116.520000", "132116.980000", "132117.440000", "132117.900000", "132118.360000", "132118.820000", "132119.280000", "132119.740000", "132120.200000", "132120.660000", "132121.120000", "132121.580000", "132122.040000", "132122.500000", "132122.960000", "132123.420000", "132123.880000", "132124.340000", "132124.800000", "132125.260000", "132125.720000", "132126.180000", "132126.640000", "132127.100000", "132127.560000", "132128.020000", "132128.480000", "132128.940000", "132129.400000", "132129.860000", "132130.320000", "132130.780000", "132131.240000", "132131.700000", "132132.160000", "132132.620000", "132133.080000", "132133.540000", "132134.000000", "132134.460000", "132134.920000", "132135.380000", "132135.840000", "132136.300000", "132136.760000", "132137.220000", "132137.680000", "132138.140000", "132138.600000", "132139.060000", "132139.520000", "132139.980000", "132140.440000", "132140.900000", "132141.360000", "132141.820000", "132142.280000", "132142.740000", "132143.200000", "132143.660000", "132144.120000", "132144.580000", "132145.040000", "132145.500000", "132145.960000", "132146.420000", "132146.880000", "132147.340000", "132147.800000", "132148.260000", "132148.720000", "132149.180000", "132149.640000", "132150.100000", "132150.560000", "132151.020000", "132151.480000", "132151.940000", "132152.400000", "132152.860000", "132153.320000", "132153.780000", "132154.240000", "132154.700000", "132155.160000", "132155.620000", "132156.080000", "132156.540000", "132157.000000", "132157.460000", "132157.920000", "132158.380000", "132158.840000", "132159.300000", "132159.760000", "132200.220000", "132200.680000", "132201.140000", "132201.600000", "132202.060000", "132202.520000", "132202.980000", "132203.440000", "132203.900000", "132204.360000", "132204.820000", "132205.280000", "132205.740000", "132206.200000", "132206.660000", "132207.120000", "132207.580000", "132208.040000", "132208.500000", "132208.960000", "132209.420000", "132209.880000", "132210.340000", "132210.800000", "132211.260000", "132211.720000", "132212.180000", "132212.640000", "132213.100000", "132213.560000", "132214.020000", "132214.480000", "132214.940000", "132215.400000", "132215.860000", "132216.320000", "132216.780000", "132217.240000", "132217.700000", "132218.160000", "132218.620000", "132219.080000", "132219.540000", "132220.000000", "132220.460000", "132220.920000", "132221.380000", "132221.840000", "132222.300000", "132222.760000", "132223.220000", "132223.680000", "132224.140000", "132224.600000", "132225.060000", "132225.520000", "132225.980000", "132226.440000", "132226.900000", "132227.360000", "132227.820000", "132228.280000", "132228.740000", "132229.200000", "132229.660000", "132230.120000", "132230.580000", "132231.040000", "132231.500000", "132231.960000", "132232.420000", "132232.880000", "132233.340000", "132233.800000", "132234.260000", "132234.720000", "132235.180000", "132235.640000", "132236.100000", "132236.560000", "132237.020000", "132237.480000", "132237.940000", "132238.400000", "132238.860000", "132239.320000", "132239.780000", "132240.240000", "132240.700000", "132241.160000", "132241.620000", "132242.080000", "132242.540000", "132243.000000", "132243.460000", "132243.920000", "132244.380000", "132244.840000", "132245.300000", "132245.760000", "132246.220000", "132246.680000", "132247.140000", "132247.600000", "132248.060000", "132248.520000", "132248.980000", "132249.440000", "132249.900000", "132250.360000", "132250.820000", "132251.280000", "132251.740000", "132252.200000", "132252.660000", "132253.120000", "132253.580000", "132254.040000", "132254.500000", "132254.960000", "132255.420000", "132255.880000", "132256.340000", "132256.800000", "132257.260000", "132257.720000", "132258.180000", "132258.640000", "132259.100000", "132259.560000", "132300.020000", "132300.480000", "132300.940000", "132301.400000", "132301.860000", "132302.320000", "132302.780000", "132303.240000", "132303.700000", "132304.160000", "132304.620000", "132305.080000", "132305.540000", "132306.000000", "132306.460000", "132306.920000", "132307.380000", "132307.840000", "132308.300000", "132308.760000", "132309.220000", "132309.680000", "132310.140000", "132310.600000", "132311.060000", "132311.520000", "132311.980000", "132312.440000", "132312.900000", "132313.360000", "132313.820000", "132314.280000", "132314.740000", "132315.200000", "132315.660000", "132316.120000", "132316.580000", "132317.040000", "132317.500000", "132317.960000", "132318.420000", "132318.880000", "132319.340000", "132319.800000", "132320.260000", "132320.720000", "132321.180000", "132321.640000", "132322.100000", "132322.560000", "132323.020000", "132323.480000", "132323.940000", "132324.400000", "132324.860000", "132325.320000", "132325.780000", "132326.240000", "132326.700000", "132327.160000", "132327.620000", "132328.080000", "132328.540000", "132329.000000", "132329.460000", "132329.920000", "132330.380000", "132330.840000", "132331.300000", "132331.760000", "132332.220000", "132332.680000", "132333.140000", "132333.600000", "132334.060000", "132334.520000", "132334.980000", "132335.440000", "132335.900000"],
