{
  "AcquisitionMatrixPE": 82,
  "AcquisitionNumber": 1,
  "AcquisitionTime": "13:59:16.820000",
  "BandwidthPerPixelPhaseEncode": 24.888,
  "BaseResolution": 82,
  "BodyPartExamined": "BRAIN",
  "ConsistencyInfo": "N4_VE11E_LATEST_20181129",
  "ConversionSoftware": "dcm2niix",
  "ConversionSoftwareVersion": "v1.0.20201102",
  "DerivedVendorReportedEchoSpacing": 0.00049,
  "DeviceSerialNumber": "66112",
  "DwellTime": 2e-06,
  "EchoTime": 0.0272,
  "EchoTrainLength": 82,
  "EffectiveEchoSpacing": 0.00049,
  "FlipAngle": 44,
  "ImageComments": "Unaliased MB8/PE3",
  "ImageOrientationPatientDICOM": [0.99585, 0.0421144, 0.0806839, -0.0474857, 0.996699, 0.0658518],
  "ImageType": [
    "ORIGINAL",
    "PRIMARY",
    "M",
    "MB",
    "ND",
    "NORM",
    "MOSAIC"
],
  "ImagingFrequency": 123.252,
  "InPlanePhaseEncodingDirectionDICOM": "COL",
  "InstitutionAddress": "Maynard 3,Hanover,NH,US,03755",
  "InstitutionName": "Dartmouth College - PBS",
  "InstitutionalDepartmentName": "Department",
  "MRAcquisitionType": "2D",
  "MagneticFieldStrength": 3,
  "Manufacturer": "Siemens",
  "ManufacturersModelName": "Prisma",
  "Modality": "MR",
  "MultibandAccelerationFactor": 8,
  "PartialFourier": 1,
  "PatientPosition": "HFS",
  "PercentPhaseFOV": 100,
  "PercentSampling": 100,
  "PhaseEncodingDirection": "j-",
  "PhaseEncodingSteps": 82,
  "PhaseResolution": 1,
  "PixelBandwidth": 3050,
  "ProcedureStepDescription": "Wager_Wager^1076_spacetop",
  "ProtocolName": "func_run-02_task-alignvideo_acq-ap-mb8",
  "PulseSequenceDetails": "%CustomerSeq%\\cmrr_mbep2d_bold",
  "ReceiveCoilActiveElements": "HEA;HEP",
  "ReceiveCoilName": "Head_32",
  "ReconMatrixPE": 82,
  "RepetitionTime": 0.46,
  "SAR": 0.0795378,
  "ScanOptions": "FS",
  "ScanningSequence": "EP",
  "SequenceName": "epfid2d1_82",
  "SequenceVariant": "SK\\SS",
  "SeriesDescription": "func_run-02_task-alignvideo_acq-ap-mb8",
  "SeriesNumber": 32,
  "ShimSetting": [4151, -7755, -7223, 571, -76, -131, -72, 105],
  "SliceThickness": 2.7,
  "SliceTiming": [0, 0.25, 0.0625, 0.3125, 0.125, 0.3775, 0.1875, 0, 0.25, 0.0625, 0.3125, 0.125, 0.3775, 0.1875, 0, 0.25, 0.0625, 0.3125, 0.125, 0.3775, 0.1875, 0, 0.25, 0.0625, 0.3125, 0.125, 0.3775, 0.1875, 0, 0.25, 0.0625, 0.3125, 0.125, 0.3775, 0.1875, 0, 0.25, 0.0625, 0.3125, 0.125, 0.3775, 0.1875, 0, 0.25, 0.0625, 0.3125, 0.125, 0.3775, 0.1875, 0, 0.25, 0.0625, 0.3125, 0.125, 0.3775, 0.1875],
  "SoftwareVersions": "syngo MR E11",
  "SpacingBetweenSlices": 2.7,
  "StationName": "AWP66112",
  "TaskName": "alignvideo",
  "TotalReadoutTime": 0.03969,
  "TxRefAmp": 235.481,
  "WipMemBlock": "cb30b0d3-5132-4dd9-999e-5bf5be72c4da||Sequence: R016 ve11e/master r/434b28f1; Aug  7 2019 18:53:46 by eja",
  "dcmmeta_affine": [
    [-2.6717917919158936, -0.12740056216716766, 0.20963935554027557, 115.94265747070312],
    [-0.11298992484807968, 2.674070119857788, 0.1874065101146698, -98.7882308959961],
    [0.2164689153432846, -0.17667557299137115, 2.6853175163269043, -59.38397216796875],
    [0.0, 0.0, 0.0, 1.0]
],
  "dcmmeta_reorient_transform": [
    [0.0, -1.0, 0.0, 81.0],
    [1.0, 0.0, 0.0, 0.0],
    [0.0, 0.0, 1.0, 0.0],
    [0.0, 0.0, 0.0, 1.0]
],
  "dcmmeta_shape": [82, 82, 56, 926],
  "dcmmeta_slice_dim": 2,
  "dcmmeta_version": 0.6,
  "global": {
    "const": {
      "AccessionNumber": "A003868",
      "AcquisitionMatrix": [82, 0, 0, 82],
      "AngioFlag": "N",
      "BitsAllocated": 16,
      "BitsStored": 16,
      "BodyPartExamined": "BRAIN",
      "Columns": 656,
      "EchoNumbers": 1,
      "EchoTime": 27.2,
      "EchoTrainLength": 82,
      "FlipAngle": 44.0,
      "HighBit": 15,
      "ImageOrientationPatient": [0.99584963171963, 0.04211442647808, 0.08068386509273, -0.0474856626288, 0.99669887718207, 0.06585180383788],
      "ImagePositionPatient": [-835.86348528576, -917.69772072677, -186.52716306517],
      "ImageType": [
        "ORIGINAL",
        "PRIMARY",
        "M",
        "MB",
        "ND",
        "NORM",
        "MOSAIC"
],
      "ImagedNucleus": "1H",
      "ImagingFrequency": 123.252186,
      "InPlanePhaseEncodingDirection": "COL",
      "MRAcquisitionType": "2D",
      "MagneticFieldStrength": 3.0,
      "Manufacturer": "SIEMENS",
      "ManufacturerModelName": "Prisma",
      "Modality": "MR",
      "NumberOfAverages": 1.0,
      "NumberOfPhaseEncodingSteps": 82,
      "PercentPhaseFieldOfView": 100.0,
      "PercentSampling": 100.0,
      "PerformedProcedureStepStartTime": "122249.356000",
      "PhotometricInterpretation": "MONOCHROME2",
      "PixelBandwidth": 3050.0,
      "PixelRepresentation": 0,
      "PixelSpacing": [2.6829268932343, 2.6829268932343],
      "ProtocolName": "func_run-02_task-alignvideo_acq-ap-mb8",
      "RepetitionTime": 460.0,
      "Rows": 656,
      "SAR": 0.07953777529634,
      "SamplesPerPixel": 1,
      "ScanOptions": "FS",
      "ScanningSequence": "EP",
      "SequenceName": "epfid2d1_82",
      "SequenceVariant": [
        "SK",
        "SS"
],
      "SeriesDescription": "func_run-02_task-alignvideo_acq-ap-mb8",
      "SeriesNumber": 32,
      "SeriesTime": "135941.555000",
      "SliceLocation": -56.915643846862,
      "SliceThickness": 2.7000000476837,
      "SmallestImagePixelValue": 0,
      "SoftwareVersions": "syngo MR E11",
      "SpacingBetweenSlices": 2.6999999954427,
      "SpecificCharacterSet": "ISO_IR 100",
      "StudyID": "1",
      "StudyTime": "122249.300000",
      "TransmitCoilName": "Body",
      "VariableFlipAngleFlag": "N",
      "WindowCenterWidthExplanation": "Algo1"
    },
    "slices": {}
  },
  "time": {
    "samples": {
      "AcquisitionNumber": [1, 2, 3, 4, 5, 6, 7, 8, 9, 10, 11, 12, 13, 14, 15, 16, 17, 18, 19, 20, 21, 22, 23, 24, 25, 26, 27, 28, 29, 30, 31, 32, 33, 34, 35, 36, 37, 38, 39, 40, 41, 42, 43, 44, 45, 46, 47, 48, 49, 50, 51, 52, 53, 54, 55, 56, 57, 58, 59, 60, 61, 62, 63, 64, 65, 66, 67, 68, 69, 70, 71, 72, 73, 74, 75, 76, 77, 78, 79, 80, 81, 82, 83, 84, 85, 86, 87, 88, 89, 90, 91, 92, 93, 94, 95, 96, 97, 98, 99, 100, 101, 102, 103, 104, 105, 106, 107, 108, 109, 110, 111, 112, 113, 114, 115, 116, 117, 118, 119, 120, 121, 122, 123, 124, 125, 126, 127, 128, 129, 130, 131, 132, 133, 134, 135, 136, 137, 138, 139, 140, 141, 142, 143, 144, 145, 146, 147, 148, 149, 150, 151, 152, 153, 154, 155, 156, 157, 158, 159, 160, 161, 162, 163, 164, 165, 166, 167, 168, 169, 170, 171, 172, 173, 174, 175, 176, 177, 178, 179, 180, 181, 182, 183, 184, 185, 186, 187, 188, 189, 190, 191, 192, 193, 194, 195, 196, 197, 198, 199, 200, 201, 202, 203, 204, 205, 206, 207, 208, 209, 210, 211, 212, 213, 214, 215, 216, 217, 218, 219, 220, 221, 222, 223, 224, 225, 226, 227, 228, 229, 230, 231, 232, 233, 234, 235, 236, 237, 238, 239, 240, 241, 242, 243, 244, 245, 246, 247, 248, 249, 250, 251, 252, 253, 254, 255, 256, 257, 258, 259, 260, 261, 262, 263, 264, 265, 266, 267, 268, 269, 270, 271, 272, 273, 274, 275, 276, 277, 278, 279, 280, 281, 282, 283, 284, 285, 286, 287, 288, 289, 290, 291, 292, 293, 294, 295, 296, 297, 298, 299, 300, 301, 302, 303, 304, 305, 306, 307, 308, 309, 310, 311, 312, 313, 314, 315, 316, 317, 318, 319, 320, 321, 322, 323, 324, 325, 326, 327, 328, 329, 330, 331, 332, 333, 334, 335, 336, 337, 338, 339, 340, 341, 342, 343, 344, 345, 346, 347, 348, 349, 350, 351, 352, 353, 354, 355, 356, 357, 358, 359, 360, 361, 362, 363, 364, 365, 366, 367, 368, 369, 370, 371, 372, 373, 374, 375, 376, 377, 378, 379, 380, 381, 382, 383, 384, 385, 386, 387, 388, 389, 390, 391, 392, 393, 394, 395, 396, 397, 398, 399, 400, 401, 402, 403, 404, 405, 406, 407, 408, 409, 410, 411, 412, 413, 414, 415, 416, 417, 418, 419, 420, 421, 422, 423, 424, 425, 426, 427, 428, 429, 430, 431, 432, 433, 434, 435, 436, 437, 438, 439, 440, 441, 442, 443, 444, 445, 446, 447, 448, 449, 450, 451, 452, 453, 454, 455, 456, 457, 458, 459, 460, 461, 462, 463, 464, 465, 466, 467, 468, 469, 470, 471, 472, 473, 474, 475, 476, 477, 478, 479, 480, 481, 482, 483, 484, 485, 486, 487, 488, 489, 490, 491, 492, 493, 494, 495, 496, 497, 498, 499, 500, 501, 502, 503, 504, 505, 506, 507, 508, 509, 510, 511, 512, 513, 514, 515, 516, 517, 518, 519, 520, 521, 522, 523, 524, 525, 526, 527, 528, 529, 530, 531, 532, 533, 534, 535, 536, 537, 538, 539, 540, 541, 542, 543, 544, 545, 546, 547, 548, 549, 550, 551, 552, 553, 554, 555, 556, 557, 558, 559, 560, 561, 562, 563, 564, 565, 566, 567, 568, 569, 570, 571, 572, 573, 574, 575, 576, 577, 578, 579, 580, 581, 582, 583, 584, 585, 586, 587, 588, 589, 590, 591, 592, 593, 594, 595, 596, 597, 598, 599, 600, 601, 602, 603, 604, 605, 606, 607, 608, 609, 610, 611, 612, 613, 614, 615, 616, 617, 618, 619, 620, 621, 622, 623, 624, 625, 626, 627, 628, 629, 630, 631, 632, 633, 634, 635, 636, 637, 638, 639, 640, 641, 642, 643, 644, 645, 646, 647, 648, 649, 650, 651, 652, 653, 654, 655, 656, 657, 658, 659, 660, 661, 662, 663, 664, 665, 666, 667, 668, 669, 670, 671, 672, 673, 674, 675, 676, 677, 678, 679, 680, 681, 682, 683, 684, 685, 686, 687, 688, 689, 690, 691, 692, 693, 694, 695, 696, 697, 698, 699, 700, 701, 702, 703, 704, 705, 706, 707, 708, 709, 710, 711, 712, 713, 714, 715, 716, 717, 718, 719, 720, 721, 722, 723, 724, 725, 726, 727, 728, 729, 730, 731, 732, 733, 734, 735, 736, 737, 738, 739, 740, 741, 742, 743, 744, 745, 746, 747, 748, 749, 750, 751, 752, 753, 754, 755, 756, 757, 758, 759, 760, 761, 762, 763, 764, 765, 766, 767, 768, 769, 770, 771, 772, 773, 774, 775, 776, 777, 778, 779, 780, 781, 782, 783, 784, 785, 786, 787, 788, 789, 790, 791, 792, 793, 794, 795, 796, 797, 798, 799, 800, 801, 802, 803, 804, 805, 806, 807, 808, 809, 810, 811, 812, 813, 814, 815, 816, 817, 818, 819, 820, 821, 822, 823, 824, 825, 826, 827, 828, 829, 830, 831, 832, 833, 834, 835, 836, 837, 838, 839, 840, 841, 842, 843, 844, 845, 846, 847, 848, 849, 850, 851, 852, 853, 854, 855, 856, 857, 858, 859, 860, 861, 862, 863, 864, 865, 866, 867, 868, 869, 870, 871, 872, 873, 874, 875, 876, 877, 878, 879, 880, 881, 882, 883, 884, 885, 886, 887, 888, 889, 890, 891, 892, 893, 894, 895, 896, 897, 898, 899, 900, 901, 902, 903, 904, 905, 906, 907, 908, 909, 910, 911, 912, 913, 914, 915, 916, 917, 918, 919, 920, 921, 922, 923, 924, 925, 926],
      "AcquisitionTime": ["135916.820000", "135917.280000", "135917.740000", "135918.200000", "135918.660000", "135919.120000", "135919.580000", "135920.040000", "135920.500000", "135920.960000", "135921.420000", "135921.880000", "135922.340000", "135922.800000", "135923.260000", "135923.720000", "135924.180000", "135924.640000", "135925.100000", "135925.560000", "135926.020000", "135926.480000", "135926.940000", "135927.400000", "135927.860000", "135928.320000", "135928.780000", "135929.240000", "135929.700000", "135930.160000", "135930.620000", "135931.080000", "135931.540000", "135932.000000", "135932.460000", "135932.920000", "135933.380000", "135933.840000", "135934.300000", "135934.760000", "135935.220000", "135935.680000", "135936.140000", "135936.600000", "135937.060000", "135937.520000", "135937.980000", "135938.440000", "135938.900000", "135939.360000", "135939.820000", "135940.280000", "135940.740000", "135941.200000", "135941.660000", "135942.120000", "135942.580000", "135943.040000", "135943.500000", "135943.960000", "135944.420000", "135944.880000", "135945.340000", "135945.800000", "135946.260000", "135946.720000", "135947.180000", "135947.640000", "135948.100000", "135948.560000", "135949.020000", "135949.480000", "135949.940000", "135950.400000", "135950.860000", "135951.320000", "135951.780000", "135952.240000", "135952.700000", "135953.160000", "135953.620000", "135954.080000", "135954.540000", "135955.000000", "135955.460000", "135955.920000", "135956.380000", "135956.840000", "135957.300000", "135957.760000", "135958.220000", "135958.680000", "135959.140000", "135959.600000", "140000.060000", "140000.520000", "140000.980000", "140001.440000", "140001.900000", "140002.360000", "140002.820000", "140003.280000", "140003.740000", "140004.200000", "140004.660000", "140005.120000", "140005.580000", "140006.040000", "140006.500000", "140006.960000", "140007.420000", "140007.880000", "140008.340000", "140008.800000", "140009.260000", "140009.720000", "140010.180000", "140010.640000", "140011.100000", "140011.560000", "140012.020000", "140012.480000", "140012.940000", "140013.400000", "140013.860000", "140014.320000", "140014.780000", "140015.240000", "140015.700000", "140016.160000", "140016.620000", "140017.080000", "140017.540000", "140018.000000", "140018.460000", "140018.920000", "140019.380000", "140019.840000", "140020.300000", "140020.760000", "140021.220000", "140021.680000", "140022.140000", "140022.600000", "140023.060000", "140023.520000", "140023.980000", "140024.440000", "140024.900000", "140025.360000", "140025.820000", "140026.280000", "140026.740000", "140027.200000", "140027.660000", "140028.120000", "140028.580000", "140029.040000", "140029.500000", "140029.960000", "140030.420000", "140030.880000", "140031.340000", "140031.800000", "140032.260000", "140032.720000", "140033.180000", "140033.640000", "140034.100000", "140034.560000", "140035.020000", "140035.480000", "140035.940000", "140036.400000", "140036.860000", "140037.320000", "140037.780000", "140038.240000", "140038.700000", "140039.160000", "140039.620000", "140040.080000", "140040.540000", "140041.000000", "140041.460000", "140041.920000", "140042.380000", "140042.840000", "140043.300000", "140043.760000", "140044.220000", "140044.680000", "140045.140000", "140045.600000", "140046.060000", "140046.520000", "140046.980000", "140047.440000", "140047.900000", "140048.360000", "140048.820000", "140049.280000", "140049.740000", "140050.200000", "140050.660000", "140051.120000", "140051.580000", "140052.040000", "140052.500000", "140052.960000", "140053.420000", "140053.880000", "140054.340000", "140054.800000", "140055.260000", "140055.720000", "140056.180000", "140056.640000", "140057.100000", "140057.560000", "140058.020000", "140058.480000", "140058.940000", "140059.400000", "140059.860000", "140100.320000", "140100.780000", "140101.240000", "140101.700000", "140102.160000", "140102.620000", "140103.080000", "140103.540000", "140104.000000", "140104.460000", "140104.920000", "140105.380000", "140105.840000", "140106.300000", "140106.760000", "140107.220000", "140107.680000", "140108.140000", "140108.600000", "140109.060000", "140109.520000", "140109.980000", "140110.440000", "140110.900000", "140111.360000", "140111.820000", "140112.280000", "140112.740000", "140113.200000", "140113.660000", "140114.120000", "140114.580000", "140115.040000", "140115.500000", "140115.960000", "140116.420000", "140116.880000", "140117.340000", "140117.800000", "140118.260000", "140118.720000", "140119.180000", "140119.640000", "140120.100000", "140120.560000", "140121.020000", "140121.480000", "140121.940000", "140122.400000", "140122.860000", "140123.320000", "140123.780000", "140124.240000", "140124.700000", "140125.160000", "140125.620000", "140126.080000", "140126.540000", "140127.000000", "140127.460000", "140127.920000", "140128.380000", "140128.840000", "140129.300000", "140129.760000", "140130.220000", "140130.680000", "140131.140000", "140131.600000", "140132.060000", "140132.520000", "140132.980000", "140133.440000", "140133.900000", "140134.360000", "140134.820000", "140135.280000", "140135.740000", "140136.200000", "140136.660000", "140137.120000", "140137.580000", "140138.040000", "140138.500000", "140138.960000", "140139.420000", "140139.880000", "140140.340000", "140140.800000", "140141.260000", "140141.720000", "140142.180000", "140142.640000", "140143.100000", "140143.560000", "140144.020000", "140144.480000", "140144.940000", "140145.400000", "140145.860000", "140146.320000", "140146.780000", "140147.240000", "140147.700000", "140148.160000", "140148.620000", "140149.080000", "140149.540000", "140150.000000", "140150.460000", "140150.920000", "140151.380000", "140151.840000", "140152.300000", "140152.760000", "140153.220000", "140153.680000", "140154.140000", "140154.600000", "140155.060000", "140155.520000", "140155.980000", "140156.440000", "140156.900000", "140157.360000", "140157.820000", "140158.280000", "140158.740000", "140159.200000", "140159.660000", "140200.120000", "140200.580000", "140201.040000", "140201.500000", "140201.960000", "140202.420000", "140202.880000", "140203.340000", "140203.800000", "140204.260000", "140204.720000", "140205.180000", "140205.640000", "140206.100000", "140206.560000", "140207.020000", "140207.480000", "140207.940000", "140208.400000", "140208.860000", "140209.320000", "140209.780000", "140210.240000", "140210.700000", "140211.160000", "140211.620000", "140212.080000", "140212.540000", "140213.000000", "140213.460000", "140213.920000", "140214.380000", "140214.840000", "140215.300000", "140215.760000", "140216.220000", "140216.680000", "140217.140000", "140217.600000", "140218.060000", "140218.520000", "140218.980000", "140219.440000", "140219.900000", "140220.360000", "140220.820000", "140221.280000", "140221.740000", "140222.200000", "140222.660000", "140223.120000", "140223.580000", "140224.040000", "140224.500000", "140224.960000", "140225.420000", "140225.880000", "140226.340000", "140226.800000", "140227.260000", "140227.720000", "140228.180000", "140228.640000", "140229.100000", "140229.560000", "140230.020000", "140230.480000", "140230.940000", "140231.400000", "140231.860000", "140232.320000", "140232.780000", "140233.240000", "140233.700000", "140234.160000", "140234.620000", "140235.080000", "140235.540000", "140236.000000", "140236.460000", "140236.920000", "140237.380000", "140237.840000", "140238.300000", "140238.760000", "140239.220000", "140239.680000", "140240.140000", "140240.600000", "140241.060000", "140241.520000", "140241.980000", "140242.440000", "140242.900000", "140243.360000", "140243.820000", "140244.280000", "140244.740000", "140245.200000", "140245.660000", "140246.120000", "140246.580000", "140247.040000", "140247.500000", "140247.960000", "140248.420000", "140248.880000", "140249.340000", "140249.800000", "140250.260000", "140250.720000", "140251.180000", "140251.640000", "140252.100000", "140252.560000", "140253.020000", "140253.480000", "140253.940000", "140254.400000", "140254.860000", "140255.320000", "140255.780000", "140256.240000", "140256.700000", "140257.160000", "140257.620000", "140258.080000", "140258.540000", "140259.000000", "140259.460000", "140259.920000", "140300.380000", "140300.840000", "140301.300000", "140301.760000", "140302.220000", "140302.680000", "140303.140000", "140303.600000", "140304.060000", "140304.520000", "140304.980000", "140305.440000", "140305.900000", "140306.360000", "140306.820000", "140307.280000", "140307.740000", "140308.200000", "140308.660000", "140309.120000", "140309.580000", "140310.040000", "140310.500000", "140310.960000", "140311.420000", "140311.880000", "140312.340000", "140312.800000", "140313.260000", "140313.720000", "140314.180000", "140314.640000", "140315.100000", "140315.560000", "140316.020000", "140316.480000", "140316.940000", "140317.400000", "140317.860000", "140318.320000", "140318.780000", "140319.240000", "140319.700000", "140320.160000", "140320.620000", "140321.080000", "140321.540000", "140322.000000", "140322.460000", "140322.920000", "140323.380000", "140323.840000", "140324.300000", "140324.760000", "140325.220000", "140325.680000", "140326.140000", "140326.600000", "140327.060000", "140327.520000", "140327.980000", "140328.440000", "140328.900000", "140329.360000", "140329.820000", "140330.280000", "140330.740000", "140331.200000", "140331.660000", "140332.120000", "140332.580000", "140333.040000", "140333.500000", "140333.960000", "140334.420000", "140334.880000", "140335.340000", "140335.800000", "140336.260000", "140336.720000", "140337.180000", "140337.640000", "140338.100000", "140338.560000", "140339.020000", "140339.480000", "140339.940000", "140340.400000", "140340.860000", "140341.320000", "140341.780000", "140342.240000", "140342.700000", "140343.160000", "140343.620000", "140344.080000", "140344.540000", "140345.000000", "140345.460000", "140345.920000", "140346.380000", "140346.840000", "140347.300000", "140347.760000", "140348.220000", "140348.680000", "140349.140000", "140349.600000", "140350.060000", "140350.520000", "140350.980000", "140351.440000", "140351.900000", "140352.360000", "140352.820000", "140353.280000", "140353.740000", "140354.200000", "140354.660000", "140355.120000", "140355.580000", "140356.040000", "140356.500000", "140356.960000", "140357.420000", "140357.880000", "140358.340000", "140358.800000", "140359.260000", "140359.720000", "140400.180000", "140400.640000", "140401.100000", "140401.560000", "140402.020000", "140402.480000", "140402.940000", "140403.400000", "140403.860000", "140404.320000", "140404.780000", "140405.240000", "140405.700000", "140406.160000", "140406.620000", "140407.080000", "140407.540000", "140408.000000", "140408.460000", "140408.920000", "140409.380000", "140409.840000", "140410.300000", "140410.760000", "140411.220000", "140411.680000", "140412.140000", "140412.600000", "140413.060000", "140413.520000", "140413.980000", "140414.440000", "140414.900000", "140415.360000", "140415.820000", "140416.280000", "140416.740000", "140417.200000", "140417.660000", "140418.120000", "140418.580000", "140419.040000", "140419.500000", "140419.960000", "140420.420000", "140420.880000", "140421.340000", "140421.800000", "140422.260000", "140422.720000", "140423.180000", "140423.640000", "140424.100000", "140424.560000", "140425.020000", "140425.480000", "140425.940000", "140426.400000", "140426.860000", "140427.320000", "140427.780000", "140428.240000", "140428.700000", "140429.160000", "140429.620000", "140430.080000", "140430.540000", "140431.000000", "140431.460000", "140431.920000", "140432.380000", "140432.840000", "140433.300000", "140433.760000", "140434.220000", "140434.680000", "140435.140000", "140435.600000", "140436.060000", "140436.520000", "140436.980000", "140437.440000", "140437.900000", "140438.360000", "140438.820000", "140439.280000", "140439.740000", "140440.200000", "140440.660000", "140441.120000", "140441.580000", "140442.040000", "140442.500000", "140442.960000", "140443.420000", "140443.880000", "140444.340000", "140444.800000", "140445.260000", "140445.720000", "140446.180000", "140446.640000", "140447.100000", "140447.560000", "140448.020000", "140448.480000", "140448.940000", "140449.400000", "140449.860000", "140450.320000", "140450.780000", "140451.240000", "140451.700000", "140452.160000", "140452.620000", "140453.080000", "140453.540000", "140454.000000", "140454.460000", "140454.920000", "140455.380000", "140455.840000", "140456.300000", "140456.760000", "140457.220000", "140457.680000", "140458.140000", "140458.600000", "140459.060000", "140459.520000", "140459.980000", "140500.440000", "140500.900000", "140501.360000", "140501.820000", "140502.280000", "140502.740000", "140503.200000", "140503.660000", "140504.120000", "140504.580000", "140505.040000", "140505.500000", "140505.960000", "140506.420000", "140506.880000", "140507.340000", "140507.800000", "140508.260000", "140508.720000", "140509.180000", "140509.640000", "140510.100000", "140510.560000", "140511.020000", "140511.480000", "140511.940000", "140512.400000", "140512.860000", "140513.320000", "140513.780000", "140514.240000", "140514.700000", "140515.160000", "140515.620000", "140516.080000", "140516.540000", "140517.000000", "140517.460000", "140517.920000", "140518.380000", "140518.840000", "140519.300000", "140519.760000", "140520.220000", "140520.680000", "140521.140000", "140521.600000", "140522.060000", "140522.520000", "140522.980000", "140523.440000", "140523.900000", "140524.360000", "140524.820000", "140525.280000", "140525.740000", "140526.200000", "140526.660000", "140527.120000", "140527.580000", "140528.040000", "140528.500000", "140528.960000", "140529.420000", "140529.880000", "140530.340000", "140530.800000", "140531.260000", "140531.720000", "140532.180000", "140532.640000", "140533.100000", "140533.560000", "140534.020000", "140534.480000", "140534.940000", "140535.400000", "140535.860000", "140536.320000", "140536.780000", "140537.240000", "140537.700000", "140538.160000", "140538.620000", "140539.080000", "140539.540000", "140540.000000", "140540.460000", "140540.920000", "140541.380000", "140541.840000", "140542.300000", "140542.760000", "140543.220000", "140543.680000", "140544.140000", "140544.600000", "140545.060000", "140545.520000", "140545.980000", "140546.440000", "140546.900000", "140547.360000", "140547.820000", "140548.280000", "140548.740000", "140549.200000", "140549.660000", "140550.120000", "140550.580000", "140551.040000", "140551.500000", "140551.960000", "140552.420000", "140552.880000", "140553.340000", "140553.800000", "140554.260000", "140554.720000", "140555.180000", "140555.640000", "140556.100000", "140556.560000", "140557.020000", "140557.480000", "140557.940000", "140558.400000", "140558.860000", "140559.320000", "140559.780000", "140600.240000", "140600.700000", "140601.160000", "140601.620000", "140602.080000", "140602.540000", "140603.000000", "140603.460000", "140603.920000", "140604.380000", "140604.840000", "140605.300000", "140605.760000", "140606.220000", "140606.680000", "140607.140000", "140607.600000", "140608.060000", "140608.520000", "140608.980000", "140609.440000", "140609.900000", "140610.360000", "140610.820000", "140611.280000", "140611.740000", "140612.200000", "140612.660000", "140613.120000", "140613.580000", "140614.040000", "140614.500000", "140614.960000", "140615.420000", "140615.880000", "140616.340000", "140616.800000", "140617.260000", "140617.720000", "140618.180000", "140618.640000", "140619.100000", "140619.560000", "140620.020000", "140620.480000", "140620.940000", "140621.400000", "140621.860000", "140622.320000"],
