{
  "AcquisitionMatrixPE": 82,
  "AcquisitionNumber": 1,
  "AcquisitionTime": "13:02:44.147500",
  "BandwidthPerPixelPhaseEncode": 24.888,
  "BaseResolution": 82,
  "BodyPartExamined": "BRAIN",
  "ConsistencyInfo": "N4_VE11E_LATEST_20181129",
  "ConversionSoftware": "dcm2niix",
  "ConversionSoftwareVersion": "v1.0.20201102",
  "DerivedVendorReportedEchoSpacing": 0.00049,
  "DeviceSerialNumber": "66112",
  "DwellTime": 2e-06,
  "EchoTime": 0.0272,
  "EchoTrainLength": 82,
  "EffectiveEchoSpacing": 0.00049,
  "FlipAngle": 44,
  "ImageComments": "Unaliased MB8/PE3",
  "ImageOrientationPatientDICOM": [0.998038, 0.0274333, 0.056277, -0.0315389, 0.996803, 0.0734117],
  "ImageType": [
    "ORIGINAL",
    "PRIMARY",
    "M",
    "MB",
    "ND",
    "NORM",
    "MOSAIC"
],
  "ImagingFrequency": 123.252,
  "InPlanePhaseEncodingDirectionDICOM": "COL",
  "InstitutionAddress": "Maynard 3,Hanover,NH,US,03755",
  "InstitutionName": "Dartmouth College - PBS",
  "InstitutionalDepartmentName": "Department",
  "MRAcquisitionType": "2D",
  "MagneticFieldStrength": 3,
  "Manufacturer": "Siemens",
  "ManufacturersModelName": "Prisma",
  "Modality": "MR",
  "MultibandAccelerationFactor": 8,
  "PartialFourier": 1,
  "PatientPosition": "HFS",
  "PercentPhaseFOV": 100,
  "PercentSampling": 100,
  "PhaseEncodingDirection": "j-",
  "PhaseEncodingSteps": 82,
  "PhaseResolution": 1,
  "PixelBandwidth": 3050,
  "ProcedureStepDescription": "Wager_Wager^1076_spacetop",
  "ProtocolName": "func_run-01_task-social_acq-ap-mb8",
  "PulseSequenceDetails": "%CustomerSeq%\\cmrr_mbep2d_bold",
  "ReceiveCoilActiveElements": "HEA;HEP",
  "ReceiveCoilName": "Head_32",
  "ReconMatrixPE": 82,
  "RepetitionTime": 0.46,
  "SAR": 0.079509,
  "ScanOptions": "FS",
  "ScanningSequence": "EP",
  "SequenceName": "epfid2d1_82",
  "SequenceVariant": "SK\\SS",
  "SeriesDescription": "func_run-01_task-social_acq-ap-mb8",
  "SeriesNumber": 12,
  "ShimSetting": [4151, -7758, -7225, 567, -77, -153, -72, 103],
  "SliceThickness": 2.7,
  "SliceTiming": [0, 0.2525, 0.0625, 0.315, 0.125, 0.3775, 0.1875, 0, 0.2525, 0.0625, 0.315, 0.125, 0.3775, 0.1875, 0, 0.2525, 0.0625, 0.315, 0.125, 0.3775, 0.1875, 0, 0.2525, 0.0625, 0.315, 0.125, 0.3775, 0.1875, 0, 0.2525, 0.0625, 0.315, 0.125, 0.3775, 0.1875, 0, 0.2525, 0.0625, 0.315, 0.125, 0.3775, 0.1875, 0, 0.2525, 0.0625, 0.315, 0.125, 0.3775, 0.1875, 0, 0.2525, 0.0625, 0.315, 0.125, 0.3775, 0.1875],
  "SoftwareVersions": "syngo MR E11",
  "SpacingBetweenSlices": 2.7,
  "StationName": "AWP66112",
  "TaskName": "social",
  "TotalReadoutTime": 0.03969,
  "TxRefAmp": 235.481,
  "WipMemBlock": "fb0d2408-6d42-41b3-a290-37a9e1881eb9||Sequence: R016 ve11e/master r/434b28f1; Aug  7 2019 18:53:46 by eja",
  "dcmmeta_affine": [
    [-2.677663564682007, -0.08461656421422958, 0.14602459967136383, 116.06807708740234],
    [-0.07360165566205978, 2.674349308013916, 0.2026149481534958, -96.18214416503906],
    [0.1509871780872345, -0.19695815443992615, 2.6884241104125977, -59.43611145019531],
    [0.0, 0.0, 0.0, 1.0]
],
  "dcmmeta_reorient_transform": [
    [0.0, -1.0, 0.0, 81.0],
    [1.0, 0.0, 0.0, 0.0],
    [0.0, 0.0, 1.0, 0.0],
    [0.0, 0.0, 0.0, 1.0]
],
  "dcmmeta_shape": [82, 82, 56, 872],
  "dcmmeta_slice_dim": 2,
  "dcmmeta_version": 0.6,
  "global": {
    "const": {
      "AccessionNumber": "A003868",
      "AcquisitionMatrix": [82, 0, 0, 82],
      "AngioFlag": "N",
      "BitsAllocated": 16,
      "BitsStored": 16,
      "BodyPartExamined": "BRAIN",
      "Columns": 656,
      "EchoNumbers": 1,
      "EchoTime": 27.2,
      "EchoTrainLength": 82,
      "FlipAngle": 44.0,
      "HighBit": 15,
      "ImageOrientationPatient": [0.99803822906943, 0.02743334466036, 0.0562770372061, -0.0315389011395, 0.99680290121904, 0.07341167370527],
      "ImagePositionPatient": [-853.41863811725, -909.10207824833, -175.25003072533],
      "ImageType": [
        "ORIGINAL",
        "PRIMARY",
        "M",
        "MB",
        "ND",
        "NORM",
        "MOSAIC"
],
      "ImagedNucleus": "1H",
      "ImagingFrequency": 123.252175,
      "InPlanePhaseEncodingDirection": "COL",
      "MRAcquisitionType": "2D",
      "MagneticFieldStrength": 3.0,
      "Manufacturer": "SIEMENS",
      "ManufacturerModelName": "Prisma",
      "Modality": "MR",
      "NumberOfAverages": 1.0,
      "NumberOfPhaseEncodingSteps": 82,
      "PercentPhaseFieldOfView": 100.0,
      "PercentSampling": 100.0,
      "PerformedProcedureStepStartTime": "122249.356000",
      "PhotometricInterpretation": "MONOCHROME2",
      "PixelBandwidth": 3050.0,
      "PixelRepresentation": 0,
      "PixelSpacing": [2.6829268932343, 2.6829268932343],
      "ProtocolName": "func_run-01_task-social_acq-ap-mb8",
      "RepetitionTime": 460.0,
      "Rows": 656,
      "SAR": 0.07950897128192,
      "SamplesPerPixel": 1,
      "ScanOptions": "FS",
      "ScanningSequence": "EP",
      "SequenceName": "epfid2d1_82",
      "SequenceVariant": [
        "SK",
        "SS"
],
      "SeriesDescription": "func_run-01_task-social_acq-ap-mb8",
      "SeriesNumber": 12,
      "SeriesTime": "130301.723000",
      "SliceLocation": -60.121709266301,
      "SliceThickness": 2.7000000476837,
      "SmallestImagePixelValue": 0,
      "SoftwareVersions": "syngo MR E11",
      "SpacingBetweenSlices": 2.7000000557938,
      "SpecificCharacterSet": "ISO_IR 100",
      "StudyID": "1",
      "StudyTime": "122249.300000",
      "TransmitCoilName": "Body",
      "VariableFlipAngleFlag": "N",
      "WindowCenterWidthExplanation": "Algo1"
    },
    "slices": {}
  },
  "time": {
    "samples": {
      "AcquisitionNumber": [1, 2, 3, 4, 5, 6, 7, 8, 9, 10, 11, 12, 13, 14, 15, 16, 17, 18, 19, 20, 21, 22, 23, 24, 25, 26, 27, 28, 29, 30, 31, 32, 33, 34, 35, 36, 37, 38, 39, 40, 41, 42, 43, 44, 45, 46, 47, 48, 49, 50, 51, 52, 53, 54, 55, 56, 57, 58, 59, 60, 61, 62, 63, 64, 65, 66, 67, 68, 69, 70, 71, 72, 73, 74, 75, 76, 77, 78, 79, 80, 81, 82, 83, 84, 85, 86, 87, 88, 89, 90, 91, 92, 93, 94, 95, 96, 97, 98, 99, 100, 101, 102, 103, 104, 105, 106, 107, 108, 109, 110, 111, 112, 113, 114, 115, 116, 117, 118, 119, 120, 121, 122, 123, 124, 125, 126, 127, 128, 129, 130, 131, 132, 133, 134, 135, 136, 137, 138, 139, 140, 141, 142, 143, 144, 145, 146, 147, 148, 149, 150, 151, 152, 153, 154, 155, 156, 157, 158, 159, 160, 161, 162, 163, 164, 165, 166, 167, 168, 169, 170, 171, 172, 173, 174, 175, 176, 177, 178, 179, 180, 181, 182, 183, 184, 185, 186, 187, 188, 189, 190, 191, 192, 193, 194, 195, 196, 197, 198, 199, 200, 201, 202, 203, 204, 205, 206, 207, 208, 209, 210, 211, 212, 213, 214, 215, 216, 217, 218, 219, 220, 221, 222, 223, 224, 225, 226, 227, 228, 229, 230, 231, 232, 233, 234, 235, 236, 237, 238, 239, 240, 241, 242, 243, 244, 245, 246, 247, 248, 249, 250, 251, 252, 253, 254, 255, 256, 257, 258, 259, 260, 261, 262, 263, 264, 265, 266, 267, 268, 269, 270, 271, 272, 273, 274, 275, 276, 277, 278, 279, 280, 281, 282, 283, 284, 285, 286, 287, 288, 289, 290, 291, 292, 293, 294, 295, 296, 297, 298, 299, 300, 301, 302, 303, 304, 305, 306, 307, 308, 309, 310, 311, 312, 313, 314, 315, 316, 317, 318, 319, 320, 321, 322, 323, 324, 325, 326, 327, 328, 329, 330, 331, 332, 333, 334, 335, 336, 337, 338, 339, 340, 341, 342, 343, 344, 345, 346, 347, 348, 349, 350, 351, 352, 353, 354, 355, 356, 357, 358, 359, 360, 361, 362, 363, 364, 365, 366, 367, 368, 369, 370, 371, 372, 373, 374, 375, 376, 377, 378, 379, 380, 381, 382, 383, 384, 385, 386, 387, 388, 389, 390, 391, 392, 393, 394, 395, 396, 397, 398, 399, 400, 401, 402, 403, 404, 405, 406, 407, 408, 409, 410, 411, 412, 413, 414, 415, 416, 417, 418, 419, 420, 421, 422, 423, 424, 425, 426, 427, 428, 429, 430, 431, 432, 433, 434, 435, 436, 437, 438, 439, 440, 441, 442, 443, 444, 445, 446, 447, 448, 449, 450, 451, 452, 453, 454, 455, 456, 457, 458, 459, 460, 461, 462, 463, 464, 465, 466, 467, 468, 469, 470, 471, 472, 473, 474, 475, 476, 477, 478, 479, 480, 481, 482, 483, 484, 485, 486, 487, 488, 489, 490, 491, 492, 493, 494, 495, 496, 497, 498, 499, 500, 501, 502, 503, 504, 505, 506, 507, 508, 509, 510, 511, 512, 513, 514, 515, 516, 517, 518, 519, 520, 521, 522, 523, 524, 525, 526, 527, 528, 529, 530, 531, 532, 533, 534, 535, 536, 537, 538, 539, 540, 541, 542, 543, 544, 545, 546, 547, 548, 549, 550, 551, 552, 553, 554, 555, 556, 557, 558, 559, 560, 561, 562, 563, 564, 565, 566, 567, 568, 569, 570, 571, 572, 573, 574, 575, 576, 577, 578, 579, 580, 581, 582, 583, 584, 585, 586, 587, 588, 589, 590, 591, 592, 593, 594, 595, 596, 597, 598, 599, 600, 601, 602, 603, 604, 605, 606, 607, 608, 609, 610, 611, 612, 613, 614, 615, 616, 617, 618, 619, 620, 621, 622, 623, 624, 625, 626, 627, 628, 629, 630, 631, 632, 633, 634, 635, 636, 637, 638, 639, 640, 641, 642, 643, 644, 645, 646, 647, 648, 649, 650, 651, 652, 653, 654, 655, 656, 657, 658, 659, 660, 661, 662, 663, 664, 665, 666, 667, 668, 669, 670, 671, 672, 673, 674, 675, 676, 677, 678, 679, 680, 681, 682, 683, 684, 685, 686, 687, 688, 689, 690, 691, 692, 693, 694, 695, 696, 697, 698, 699, 700, 701, 702, 703, 704, 705, 706, 707, 708, 709, 710, 711, 712, 713, 714, 715, 716, 717, 718, 719, 720, 721, 722, 723, 724, 725, 726, 727, 728, 729, 730, 731, 732, 733, 734, 735, 736, 737, 738, 739, 740, 741, 742, 743, 744, 745, 746, 747, 748, 749, 750, 751, 752, 753, 754, 755, 756, 757, 758, 759, 760, 761, 762, 763, 764, 765, 766, 767, 768, 769, 770, 771, 772, 773, 774, 775, 776, 777, 778, 779, 780, 781, 782, 783, 784, 785, 786, 787, 788, 789, 790, 791, 792, 793, 794, 795, 796, 797, 798, 799, 800, 801, 802, 803, 804, 805, 806, 807, 808, 809, 810, 811, 812, 813, 814, 815, 816, 817, 818, 819, 820, 821, 822, 823, 824, 825, 826, 827, 828, 829, 830, 831, 832, 833, 834, 835, 836, 837, 838, 839, 840, 841, 842, 843, 844, 845, 846, 847, 848, 849, 850, 851, 852, 853, 854, 855, 856, 857, 858, 859, 860, 861, 862, 863, 864, 865, 866, 867, 868, 869, 870, 871, 872],
      "AcquisitionTime": ["130244.147500", "130244.607500", "130245.067500", "130245.527500", "130245.987500", "130246.447500", "130246.907500", "130247.367500", "130247.827500", "130248.287500", "130248.747500", "130249.207500", "130249.667500", "130250.127500", "130250.587500", "130251.047500", "130251.507500", "130251.967500", "130252.427500", "130252.887500", "130253.347500", "130253.807500", "130254.267500", "130254.727500", "130255.187500", "130255.647500", "130256.107500", "130256.567500", "130257.027500", "130257.487500", "130257.947500", "130258.407500", "130258.867500", "130259.327500", "130259.787500", "130300.247500", "130300.707500", "130301.167500", "130301.627500", "130302.087500", "130302.547500", "130303.007500", "130303.467500", "130303.927500", "130304.387500", "130304.847500", "130305.307500", "130305.767500", "130306.227500", "130306.687500", "130307.147500", "130307.607500", "130308.067500", "130308.527500", "130308.987500", "130309.447500", "130309.907500", "130310.367500", "130310.827500", "130311.287500", "130311.747500", "130312.207500", "130312.667500", "130313.127500", "130313.587500", "130314.047500", "130314.507500", "130314.967500", "130315.427500", "130315.887500", "130316.347500", "130316.807500", "130317.267500", "130317.727500", "130318.187500", "130318.647500", "130319.107500", "130319.567500", "130320.027500", "130320.487500", "130320.947500", "130321.407500", "130321.867500", "130322.327500", "130322.787500", "130323.247500", "130323.707500", "130324.167500", "130324.627500", "130325.087500", "130325.547500", "130326.007500", "130326.467500", "130326.927500", "130327.387500", "130327.847500", "130328.307500", "130328.767500", "130329.227500", "130329.687500", "130330.147500", "130330.607500", "130331.067500", "130331.527500", "130331.987500", "130332.447500", "130332.907500", "130333.367500", "130333.827500", "130334.287500", "130334.747500", "130335.207500", "130335.667500", "130336.127500", "130336.587500", "130337.047500", "130337.507500", "130337.967500", "130338.427500", "130338.887500", "130339.347500", "130339.807500", "130340.267500", "130340.727500", "130341.187500", "130341.647500", "130342.107500", "130342.567500", "130343.027500", "130343.487500", "130343.947500", "130344.407500", "130344.867500", "130345.327500", "130345.787500", "130346.247500", "130346.707500", "130347.167500", "130347.627500", "130348.087500", "130348.547500", "130349.007500", "130349.467500", "130349.927500", "130350.387500", "130350.847500", "130351.307500", "130351.767500", "130352.227500", "130352.687500", "130353.147500", "130353.607500", "130354.067500", "130354.527500", "130354.987500", "130355.447500", "130355.907500", "130356.367500", "130356.827500", "130357.287500", "130357.747500", "130358.207500", "130358.667500", "130359.127500", "130359.587500", "130400.047500", "130400.507500", "130400.967500", "130401.427500", "130401.887500", "130402.347500", "130402.807500", "130403.267500", "130403.727500", "130404.187500", "130404.647500", "130405.107500", "130405.567500", "130406.027500", "130406.487500", "130406.947500", "130407.407500", "130407.867500", "130408.327500", "130408.787500", "130409.247500", "130409.707500", "130410.167500", "130410.627500", "130411.087500", "130411.547500", "130412.007500", "130412.467500", "130412.927500", "130413.387500", "130413.847500", "130414.307500", "130414.767500", "130415.227500", "130415.687500", "130416.147500", "130416.607500", "130417.067500", "130417.527500", "130417.987500", "130418.447500", "130418.907500", "130419.367500", "130419.827500", "130420.287500", "130420.747500", "130421.207500", "130421.667500", "130422.127500", "130422.587500", "130423.047500", "130423.507500", "130423.967500", "130424.427500", "130424.887500", "130425.347500", "130425.807500", "130426.267500", "130426.727500", "130427.187500", "130427.647500", "130428.107500", "130428.567500", "130429.027500", "130429.487500", "130429.947500", "130430.407500", "130430.867500", "130431.327500", "130431.787500", "130432.247500", "130432.707500", "130433.167500", "130433.627500", "130434.087500", "130434.547500", "130435.007500", "130435.467500", "130435.927500", "130436.387500", "130436.847500", "130437.307500", "130437.767500", "130438.227500", "130438.687500", "130439.147500", "130439.607500", "130440.067500", "130440.527500", "130440.987500", "130441.447500", "130441.907500", "130442.367500", "130442.827500", "130443.287500", "130443.747500", "130444.207500", "130444.667500", "130445.127500", "130445.587500", "130446.047500", "130446.507500", "130446.967500", "130447.427500", "130447.887500", "130448.347500", "130448.807500", "130449.267500", "130449.727500", "130450.187500", "130450.647500", "130451.107500", "130451.567500", "130452.027500", "130452.487500", "130452.947500", "130453.407500", "130453.867500", "130454.327500", "130454.787500", "130455.247500", "130455.707500", "130456.167500", "130456.627500", "130457.087500", "130457.547500", "130458.007500", "130458.467500", "130458.927500", "130459.387500", "130459.847500", "130500.307500", "130500.767500", "130501.227500", "130501.687500", "130502.147500", "130502.607500", "130503.067500", "130503.527500", "130503.987500", "130504.447500", "130504.907500", "130505.367500", "130505.827500", "130506.287500", "130506.747500", "130507.207500", "130507.667500", "130508.127500", "130508.587500", "130509.047500", "130509.507500", "130509.967500", "130510.427500", "130510.887500", "130511.347500", "130511.807500", "130512.267500", "130512.727500", "130513.187500", "130513.647500", "130514.107500", "130514.567500", "130515.027500", "130515.487500", "130515.947500", "130516.407500", "130516.867500", "130517.327500", "130517.787500", "130518.247500", "130518.707500", "130519.167500", "130519.627500", "130520.087500", "130520.547500", "130521.007500", "130521.467500", "130521.927500", "130522.387500", "130522.847500", "130523.307500", "130523.767500", "130524.227500", "130524.687500", "130525.147500", "130525.607500", "130526.067500", "130526.527500", "130526.987500", "130527.447500", "130527.907500", "130528.367500", "130528.827500", "130529.287500", "130529.747500", "130530.207500", "130530.667500", "130531.127500", "130531.587500", "130532.047500", "130532.507500", "130532.967500", "130533.427500", "130533.887500", "130534.347500", "130534.807500", "130535.267500", "130535.727500", "130536.187500", "130536.647500", "130537.107500", "130537.567500", "130538.027500", "130538.487500", "130538.947500", "130539.407500", "130539.867500", "130540.327500", "130540.787500", "130541.247500", "130541.707500", "130542.167500", "130542.627500", "130543.087500", "130543.547500", "130544.007500", "130544.467500", "130544.927500", "130545.387500", "130545.847500", "130546.307500", "130546.767500", "130547.227500", "130547.687500", "130548.147500", "130548.607500", "130549.067500", "130549.527500", "130549.987500", "130550.447500", "130550.907500", "130551.367500", "130551.827500", "130552.287500", "130552.747500", "130553.207500", "130553.667500", "130554.127500", "130554.587500", "130555.047500", "130555.507500", "130555.967500", "130556.427500", "130556.887500", "130557.347500", "130557.807500", "130558.267500", "130558.727500", "130559.187500", "130559.647500", "130600.107500", "130600.567500", "130601.027500", "130601.487500", "130601.947500", "130602.407500", "130602.867500", "130603.327500", "130603.787500", "130604.247500", "130604.707500", "130605.167500", "130605.627500", "130606.087500", "130606.547500", "130607.007500", "130607.467500", "130607.927500", "130608.387500", "130608.847500", "130609.307500", "130609.767500", "130610.227500", "130610.687500", "130611.147500", "130611.607500", "130612.067500", "130612.527500", "130612.987500", "130613.447500", "130613.907500", "130614.367500", "130614.827500", "130615.287500", "130615.747500", "130616.207500", "130616.667500", "130617.127500", "130617.587500", "130618.047500", "130618.507500", "130618.967500", "130619.427500", "130619.887500", "130620.347500", "130620.807500", "130621.267500", "130621.727500", "130622.187500", "130622.647500", "130623.107500", "130623.567500", "130624.027500", "130624.487500", "130624.947500", "130625.407500", "130625.867500", "130626.327500", "130626.787500", "130627.247500", "130627.707500", "130628.167500", "130628.627500", "130629.087500", "130629.547500", "130630.007500", "130630.467500", "130630.927500", "130631.387500", "130631.847500", "130632.307500", "130632.767500", "130633.227500", "130633.687500", "130634.147500", "130634.607500", "130635.067500", "130635.527500", "130635.987500", "130636.447500", "130636.907500", "130637.367500", "130637.827500", "130638.287500", "130638.747500", "130639.207500", "130639.667500", "130640.127500", "130640.587500", "130641.047500", "130641.507500", "130641.967500", "130642.427500", "130642.887500", "130643.347500", "130643.807500", "130644.267500", "130644.727500", "130645.187500", "130645.647500", "130646.107500", "130646.567500", "130647.027500", "130647.487500", "130647.947500", "130648.407500", "130648.867500", "130649.327500", "130649.787500", "130650.247500", "130650.707500", "130651.167500", "130651.627500", "130652.087500", "130652.547500", "130653.007500", "130653.467500", "130653.927500", "130654.387500", "130654.847500", "130655.307500", "130655.767500", "130656.227500", "130656.687500", "130657.147500", "130657.607500", "130658.067500", "130658.527500", "130658.987500", "130659.447500", "130659.907500", "130700.367500", "130700.827500", "130701.287500", "130701.747500", "130702.207500", "130702.667500", "130703.127500", "130703.587500", "130704.047500", "130704.507500", "130704.967500", "130705.427500", "130705.887500", "130706.347500", "130706.807500", "130707.267500", "130707.727500", "130708.187500", "130708.647500", "130709.107500", "130709.567500", "130710.027500", "130710.487500", "130710.947500", "130711.407500", "130711.867500", "130712.327500", "130712.787500", "130713.247500", "130713.707500", "130714.167500", "130714.627500", "130715.087500", "130715.547500", "130716.007500", "130716.467500", "130716.927500", "130717.387500", "130717.847500", "130718.307500", "130718.767500", "130719.227500", "130719.687500", "130720.147500", "130720.607500", "130721.067500", "130721.527500", "130721.987500", "130722.447500", "130722.907500", "130723.367500", "130723.827500", "130724.287500", "130724.747500", "130725.207500", "130725.667500", "130726.127500", "130726.587500", "130727.047500", "130727.507500", "130727.967500", "130728.427500", "130728.887500", "130729.347500", "130729.807500", "130730.267500", "130730.727500", "130731.187500", "130731.647500", "130732.107500", "130732.567500", "130733.027500", "130733.487500", "130733.947500", "130734.407500", "130734.867500", "130735.327500", "130735.787500", "130736.247500", "130736.707500", "130737.167500", "130737.627500", "130738.087500", "130738.547500", "130739.007500", "130739.467500", "130739.927500", "130740.387500", "130740.847500", "130741.307500", "130741.767500", "130742.227500", "130742.687500", "130743.147500", "130743.607500", "130744.067500", "130744.527500", "130744.987500", "130745.447500", "130745.907500", "130746.367500", "130746.827500", "130747.287500", "130747.747500", "130748.207500", "130748.667500", "130749.127500", "130749.587500", "130750.047500", "130750.507500", "130750.967500", "130751.427500", "130751.887500", "130752.347500", "130752.807500", "130753.267500", "130753.727500", "130754.187500", "130754.647500", "130755.107500", "130755.567500", "130756.027500", "130756.487500", "130756.947500", "130757.407500", "130757.867500", "130758.327500", "130758.787500", "130759.247500", "130759.707500", "130800.167500", "130800.627500", "130801.087500", "130801.547500", "130802.007500", "130802.467500", "130802.927500", "130803.387500", "130803.847500", "130804.307500", "130804.767500", "130805.227500", "130805.687500", "130806.147500", "130806.607500", "130807.067500", "130807.527500", "130807.987500", "130808.447500", "130808.907500", "130809.367500", "130809.827500", "130810.287500", "130810.747500", "130811.207500", "130811.667500", "130812.127500", "130812.587500", "130813.047500", "130813.507500", "130813.967500", "130814.427500", "130814.887500", "130815.347500", "130815.807500", "130816.267500", "130816.727500", "130817.187500", "130817.647500", "130818.107500", "130818.567500", "130819.027500", "130819.487500", "130819.947500", "130820.407500", "130820.867500", "130821.327500", "130821.787500", "130822.247500", "130822.707500", "130823.167500", "130823.627500", "130824.087500", "130824.547500", "130825.007500", "130825.467500", "130825.927500", "130826.387500", "130826.847500", "130827.307500", "130827.767500", "130828.227500", "130828.687500", "130829.147500", "130829.607500", "130830.067500", "130830.527500", "130830.987500", "130831.447500", "130831.907500", "130832.367500", "130832.827500", "130833.287500", "130833.747500", "130834.207500", "130834.667500", "130835.127500", "130835.587500", "130836.047500", "130836.507500", "130836.967500", "130837.427500", "130837.887500", "130838.347500", "130838.807500", "130839.267500", "130839.727500", "130840.187500", "130840.647500", "130841.107500", "130841.567500", "130842.027500", "130842.487500", "130842.947500", "130843.407500", "130843.867500", "130844.327500", "130844.787500", "130845.247500", "130845.707500", "130846.167500", "130846.627500", "130847.087500", "130847.547500", "130848.007500", "130848.467500", "130848.927500", "130849.387500", "130849.847500", "130850.307500", "130850.767500", "130851.227500", "130851.687500", "130852.147500", "130852.607500", "130853.067500", "130853.527500", "130853.987500", "130854.447500", "130854.907500", "130855.367500", "130855.827500", "130856.287500", "130856.747500", "130857.207500", "130857.667500", "130858.127500", "130858.587500", "130859.047500", "130859.507500", "130859.967500", "130900.427500", "130900.887500", "130901.347500", "130901.807500", "130902.267500", "130902.727500", "130903.187500", "130903.647500", "130904.107500", "130904.567500", "130905.027500", "130905.487500", "130905.947500", "130906.407500", "130906.867500", "130907.327500", "130907.787500", "130908.247500", "130908.707500", "130909.167500", "130909.627500", "130910.087500", "130910.547500", "130911.007500", "130911.467500", "130911.927500", "130912.387500", "130912.847500", "130913.307500", "130913.767500", "130914.227500", "130914.687500", "130915.147500", "130915.607500", "130916.067500", "130916.527500", "130916.987500", "130917.447500", "130917.907500", "130918.367500", "130918.827500", "130919.287500", "130919.747500", "130920.207500", "130920.667500", "130921.127500", "130921.587500", "130922.047500", "130922.507500", "130922.967500", "130923.427500", "130923.887500", "130924.347500", "130924.807500"],
