{
  "AcquisitionMatrixPE": 82,
  "AcquisitionNumber": 1,
  "AcquisitionTime": "13:09:47.610000",
  "BandwidthPerPixelPhaseEncode": 24.888,
  "BaseResolution": 82,
  "BodyPartExamined": "BRAIN",
  "ConsistencyInfo": "N4_VE11E_LATEST_20181129",
  "ConversionSoftware": "dcm2niix",
  "ConversionSoftwareVersion": "v1.0.20201102",
  "DerivedVendorReportedEchoSpacing": 0.00049,
  "DeviceSerialNumber": "66112",
  "DwellTime": 2e-06,
  "EchoTime": 0.0272,
  "EchoTrainLength": 82,
  "EffectiveEchoSpacing": 0.00049,
  "FlipAngle": 44,
  "ImageComments": "Unaliased MB8/PE3",
  "ImageOrientationPatientDICOM": [0.998038, 0.0274333, 0.056277, -0.0315389, 0.996803, 0.0734117],
  "ImageType": [
    "ORIGINAL",
    "PRIMARY",
    "M",
    "MB",
    "ND",
    "NORM",
    "MOSAIC"
],
  "ImagingFrequency": 123.252,
  "InPlanePhaseEncodingDirectionDICOM": "COL",
  "InstitutionAddress": "Maynard 3,Hanover,NH,US,03755",
  "InstitutionName": "Dartmouth College - PBS",
  "InstitutionalDepartmentName": "Department",
  "MRAcquisitionType": "2D",
  "MagneticFieldStrength": 3,
  "Manufacturer": "Siemens",
  "ManufacturersModelName": "Prisma",
  "Modality": "MR",
  "MultibandAccelerationFactor": 8,
  "PartialFourier": 1,
  "PatientPosition": "HFS",
  "PercentPhaseFOV": 100,
  "PercentSampling": 100,
  "PhaseEncodingDirection": "j-",
  "PhaseEncodingSteps": 82,
  "PhaseResolution": 1,
  "PixelBandwidth": 3050,
  "ProcedureStepDescription": "Wager_Wager^1076_spacetop",
  "ProtocolName": "func_run-02_task-social_acq-ap-mb8",
  "PulseSequenceDetails": "%CustomerSeq%\\cmrr_mbep2d_bold",
  "ReceiveCoilActiveElements": "HEA;HEP",
  "ReceiveCoilName": "Head_32",
  "ReconMatrixPE": 82,
  "RepetitionTime": 0.46,
  "SAR": 0.079509,
  "ScanOptions": "FS",
  "ScanningSequence": "EP",
  "SequenceName": "epfid2d1_82",
  "SequenceVariant": "SK\\SS",
  "SeriesDescription": "func_run-02_task-social_acq-ap-mb8",
  "SeriesNumber": 14,
  "ShimSetting": [4151, -7758, -7225, 567, -77, -153, -72, 103],
  "SliceThickness": 2.7,
  "SliceTiming": [0, 0.2525, 0.065, 0.315, 0.1275, 0.3775, 0.19, 0, 0.2525, 0.065, 0.315, 0.1275, 0.3775, 0.19, 0, 0.2525, 0.065, 0.315, 0.1275, 0.3775, 0.19, 0, 0.2525, 0.065, 0.315, 0.1275, 0.3775, 0.19, 0, 0.2525, 0.065, 0.315, 0.1275, 0.3775, 0.19, 0, 0.2525, 0.065, 0.315, 0.1275, 0.3775, 0.19, 0, 0.2525, 0.065, 0.315, 0.1275, 0.3775, 0.19, 0, 0.2525, 0.065, 0.315, 0.1275, 0.3775, 0.19],
  "SoftwareVersions": "syngo MR E11",
  "SpacingBetweenSlices": 2.7,
  "StationName": "AWP66112",
  "TaskName": "social",
  "TotalReadoutTime": 0.03969,
  "TxRefAmp": 235.481,
  "WipMemBlock": "8833bad6-a1ab-46b8-8e0c-a1220fc74993||Sequence: R016 ve11e/master r/434b28f1; Aug  7 2019 18:53:46 by eja",
  "dcmmeta_affine": [
    [-2.677663564682007, -0.08461656421422958, 0.14602459967136383, 116.06807708740234],
    [-0.07360165566205978, 2.674349308013916, 0.2026149481534958, -96.18214416503906],
    [0.1509871780872345, -0.19695815443992615, 2.6884241104125977, -59.43611145019531],
    [0.0, 0.0, 0.0, 1.0]
],
  "dcmmeta_reorient_transform": [
    [0.0, -1.0, 0.0, 81.0],
    [1.0, 0.0, 0.0, 0.0],
    [0.0, 0.0, 1.0, 0.0],
    [0.0, 0.0, 0.0, 1.0]
],
  "dcmmeta_shape": [82, 82, 56, 872],
  "dcmmeta_slice_dim": 2,
  "dcmmeta_version": 0.6,
  "global": {
    "const": {
      "AccessionNumber": "A003868",
      "AcquisitionMatrix": [82, 0, 0, 82],
      "AngioFlag": "N",
      "BitsAllocated": 16,
      "BitsStored": 16,
      "BodyPartExamined": "BRAIN",
      "Columns": 656,
      "EchoNumbers": 1,
      "EchoTime": 27.2,
      "EchoTrainLength": 82,
      "FlipAngle": 44.0,
      "HighBit": 15,
      "ImageOrientationPatient": [0.99803822906943, 0.02743334466036, 0.0562770372061, -0.0315389011395, 0.99680290121904, 0.07341167370527],
      "ImagePositionPatient": [-853.41863811725, -909.10207824833, -175.25003072533],
      "ImageType": [
        "ORIGINAL",
        "PRIMARY",
        "M",
        "MB",
        "ND",
        "NORM",
        "MOSAIC"
],
      "ImagedNucleus": "1H",
      "ImagingFrequency": 123.252181,
      "InPlanePhaseEncodingDirection": "COL",
      "MRAcquisitionType": "2D",
      "MagneticFieldStrength": 3.0,
      "Manufacturer": "SIEMENS",
      "ManufacturerModelName": "Prisma",
      "Modality": "MR",
      "NumberOfAverages": 1.0,
      "NumberOfPhaseEncodingSteps": 82,
      "PercentPhaseFieldOfView": 100.0,
      "PercentSampling": 100.0,
      "PerformedProcedureStepStartTime": "122249.356000",
      "PhotometricInterpretation": "MONOCHROME2",
      "PixelBandwidth": 3050.0,
      "PixelRepresentation": 0,
      "PixelSpacing": [2.6829268932343, 2.6829268932343],
      "ProtocolName": "func_run-02_task-social_acq-ap-mb8",
      "RepetitionTime": 460.0,
      "Rows": 656,
      "SAR": 0.07950897128192,
      "SamplesPerPixel": 1,
      "ScanOptions": "FS",
      "ScanningSequence": "EP",
      "SequenceName": "epfid2d1_82",
      "SequenceVariant": [
        "SK",
        "SS"
],
      "SeriesDescription": "func_run-02_task-social_acq-ap-mb8",
      "SeriesNumber": 14,
      "SeriesTime": "131001.552000",
      "SliceLocation": -60.121709266301,
      "SliceThickness": 2.7000000476837,
      "SmallestImagePixelValue": 0,
      "SoftwareVersions": "syngo MR E11",
      "SpacingBetweenSlices": 2.7000000557938,
      "SpecificCharacterSet": "ISO_IR 100",
      "StudyID": "1",
      "StudyTime": "122249.300000",
      "TransmitCoilName": "Body",
      "VariableFlipAngleFlag": "N",
      "WindowCenterWidthExplanation": "Algo1"
    },
    "slices": {}
  },
  "time": {
    "samples": {
      "AcquisitionNumber": [1, 2, 3, 4, 5, 6, 7, 8, 9, 10, 11, 12, 13, 14, 15, 16, 17, 18, 19, 20, 21, 22, 23, 24, 25, 26, 27, 28, 29, 30, 31, 32, 33, 34, 35, 36, 37, 38, 39, 40, 41, 42, 43, 44, 45, 46, 47, 48, 49, 50, 51, 52, 53, 54, 55, 56, 57, 58, 59, 60, 61, 62, 63, 64, 65, 66, 67, 68, 69, 70, 71, 72, 73, 74, 75, 76, 77, 78, 79, 80, 81, 82, 83, 84, 85, 86, 87, 88, 89, 90, 91, 92, 93, 94, 95, 96, 97, 98, 99, 100, 101, 102, 103, 104, 105, 106, 107, 108, 109, 110, 111, 112, 113, 114, 115, 116, 117, 118, 119, 120, 121, 122, 123, 124, 125, 126, 127, 128, 129, 130, 131, 132, 133, 134, 135, 136, 137, 138, 139, 140, 141, 142, 143, 144, 145, 146, 147, 148, 149, 150, 151, 152, 153, 154, 155, 156, 157, 158, 159, 160, 161, 162, 163, 164, 165, 166, 167, 168, 169, 170, 171, 172, 173, 174, 175, 176, 177, 178, 179, 180, 181, 182, 183, 184, 185, 186, 187, 188, 189, 190, 191, 192, 193, 194, 195, 196, 197, 198, 199, 200, 201, 202, 203, 204, 205, 206, 207, 208, 209, 210, 211, 212, 213, 214, 215, 216, 217, 218, 219, 220, 221, 222, 223, 224, 225, 226, 227, 228, 229, 230, 231, 232, 233, 234, 235, 236, 237, 238, 239, 240, 241, 242, 243, 244, 245, 246, 247, 248, 249, 250, 251, 252, 253, 254, 255, 256, 257, 258, 259, 260, 261, 262, 263, 264, 265, 266, 267, 268, 269, 270, 271, 272, 273, 274, 275, 276, 277, 278, 279, 280, 281, 282, 283, 284, 285, 286, 287, 288, 289, 290, 291, 292, 293, 294, 295, 296, 297, 298, 299, 300, 301, 302, 303, 304, 305, 306, 307, 308, 309, 310, 311, 312, 313, 314, 315, 316, 317, 318, 319, 320, 321, 322, 323, 324, 325, 326, 327, 328, 329, 330, 331, 332, 333, 334, 335, 336, 337, 338, 339, 340, 341, 342, 343, 344, 345, 346, 347, 348, 349, 350, 351, 352, 353, 354, 355, 356, 357, 358, 359, 360, 361, 362, 363, 364, 365, 366, 367, 368, 369, 370, 371, 372, 373, 374, 375, 376, 377, 378, 379, 380, 381, 382, 383, 384, 385, 386, 387, 388, 389, 390, 391, 392, 393, 394, 395, 396, 397, 398, 399, 400, 401, 402, 403, 404, 405, 406, 407, 408, 409, 410, 411, 412, 413, 414, 415, 416, 417, 418, 419, 420, 421, 422, 423, 424, 425, 426, 427, 428, 429, 430, 431, 432, 433, 434, 435, 436, 437, 438, 439, 440, 441, 442, 443, 444, 445, 446, 447, 448, 449, 450, 451, 452, 453, 454, 455, 456, 457, 458, 459, 460, 461, 462, 463, 464, 465, 466, 467, 468, 469, 470, 471, 472, 473, 474, 475, 476, 477, 478, 479, 480, 481, 482, 483, 484, 485, 486, 487, 488, 489, 490, 491, 492, 493, 494, 495, 496, 497, 498, 499, 500, 501, 502, 503, 504, 505, 506, 507, 508, 509, 510, 511, 512, 513, 514, 515, 516, 517, 518, 519, 520, 521, 522, 523, 524, 525, 526, 527, 528, 529, 530, 531, 532, 533, 534, 535, 536, 537, 538, 539, 540, 541, 542, 543, 544, 545, 546, 547, 548, 549, 550, 551, 552, 553, 554, 555, 556, 557, 558, 559, 560, 561, 562, 563, 564, 565, 566, 567, 568, 569, 570, 571, 572, 573, 574, 575, 576, 577, 578, 579, 580, 581, 582, 583, 584, 585, 586, 587, 588, 589, 590, 591, 592, 593, 594, 595, 596, 597, 598, 599, 600, 601, 602, 603, 604, 605, 606, 607, 608, 609, 610, 611, 612, 613, 614, 615, 616, 617, 618, 619, 620, 621, 622, 623, 624, 625, 626, 627, 628, 629, 630, 631, 632, 633, 634, 635, 636, 637, 638, 639, 640, 641, 642, 643, 644, 645, 646, 647, 648, 649, 650, 651, 652, 653, 654, 655, 656, 657, 658, 659, 660, 661, 662, 663, 664, 665, 666, 667, 668, 669, 670, 671, 672, 673, 674, 675, 676, 677, 678, 679, 680, 681, 682, 683, 684, 685, 686, 687, 688, 689, 690, 691, 692, 693, 694, 695, 696, 697, 698, 699, 700, 701, 702, 703, 704, 705, 706, 707, 708, 709, 710, 711, 712, 713, 714, 715, 716, 717, 718, 719, 720, 721, 722, 723, 724, 725, 726, 727, 728, 729, 730, 731, 732, 733, 734, 735, 736, 737, 738, 739, 740, 741, 742, 743, 744, 745, 746, 747, 748, 749, 750, 751, 752, 753, 754, 755, 756, 757, 758, 759, 760, 761, 762, 763, 764, 765, 766, 767, 768, 769, 770, 771, 772, 773, 774, 775, 776, 777, 778, 779, 780, 781, 782, 783, 784, 785, 786, 787, 788, 789, 790, 791, 792, 793, 794, 795, 796, 797, 798, 799, 800, 801, 802, 803, 804, 805, 806, 807, 808, 809, 810, 811, 812, 813, 814, 815, 816, 817, 818, 819, 820, 821, 822, 823, 824, 825, 826, 827, 828, 829, 830, 831, 832, 833, 834, 835, 836, 837, 838, 839, 840, 841, 842, 843, 844, 845, 846, 847, 848, 849, 850, 851, 852, 853, 854, 855, 856, 857, 858, 859, 860, 861, 862, 863, 864, 865, 866, 867, 868, 869, 870, 871, 872],
      "AcquisitionTime": ["130947.610000", "130948.070000", "130948.530000", "130948.990000", "130949.450000", "130949.910000", "130950.370000", "130950.830000", "130951.290000", "130951.750000", "130952.210000", "130952.670000", "130953.130000", "130953.590000", "130954.050000", "130954.510000", "130954.970000", "130955.430000", "130955.890000", "130956.350000", "130956.810000", "130957.270000", "130957.730000", "130958.190000", "130958.650000", "130959.110000", "130959.570000", "131000.030000", "131000.490000", "131000.950000", "131001.410000", "131001.870000", "131002.330000", "131002.790000", "131003.250000", "131003.710000", "131004.170000", "131004.630000", "131005.090000", "131005.550000", "131006.010000", "131006.470000", "131006.930000", "131007.390000", "131007.850000", "131008.310000", "131008.770000", "131009.230000", "131009.690000", "131010.150000", "131010.610000", "131011.070000", "131011.530000", "131011.990000", "131012.450000", "131012.910000", "131013.370000", "131013.830000", "131014.290000", "131014.750000", "131015.210000", "131015.670000", "131016.130000", "131016.590000", "131017.050000", "131017.510000", "131017.970000", "131018.430000", "131018.890000", "131019.350000", "131019.810000", "131020.270000", "131020.730000", "131021.190000", "131021.650000", "131022.110000", "131022.570000", "131023.030000", "131023.490000", "131023.950000", "131024.410000", "131024.870000", "131025.330000", "131025.790000", "131026.250000", "131026.710000", "131027.170000", "131027.630000", "131028.090000", "131028.550000", "131029.010000", "131029.470000", "131029.930000", "131030.390000", "131030.850000", "131031.310000", "131031.770000", "131032.230000", "131032.690000", "131033.150000", "131033.610000", "131034.070000", "131034.530000", "131034.990000", "131035.450000", "131035.910000", "131036.370000", "131036.830000", "131037.290000", "131037.750000", "131038.210000", "131038.670000", "131039.130000", "131039.590000", "131040.050000", "131040.510000", "131040.970000", "131041.430000", "131041.890000", "131042.350000", "131042.810000", "131043.270000", "131043.730000", "131044.190000", "131044.650000", "131045.110000", "131045.570000", "131046.030000", "131046.490000", "131046.950000", "131047.410000", "131047.870000", "131048.330000", "131048.790000", "131049.250000", "131049.710000", "131050.170000", "131050.630000", "131051.090000", "131051.550000", "131052.010000", "131052.470000", "131052.930000", "131053.390000", "131053.850000", "131054.310000", "131054.770000", "131055.230000", "131055.690000", "131056.150000", "131056.610000", "131057.070000", "131057.530000", "131057.990000", "131058.450000", "131058.910000", "131059.370000", "131059.830000", "131100.290000", "131100.750000", "131101.210000", "131101.670000", "131102.130000", "131102.590000", "131103.050000", "131103.510000", "131103.970000", "131104.430000", "131104.890000", "131105.350000", "131105.810000", "131106.270000", "131106.730000", "131107.190000", "131107.650000", "131108.110000", "131108.570000", "131109.030000", "131109.490000", "131109.950000", "131110.410000", "131110.870000", "131111.330000", "131111.790000", "131112.250000", "131112.710000", "131113.170000", "131113.630000", "131114.090000", "131114.550000", "131115.010000", "131115.470000", "131115.930000", "131116.390000", "131116.850000", "131117.310000", "131117.770000", "131118.230000", "131118.690000", "131119.150000", "131119.610000", "131120.070000", "131120.530000", "131120.990000", "131121.450000", "131121.910000", "131122.370000", "131122.830000", "131123.290000", "131123.750000", "131124.210000", "131124.670000", "131125.130000", "131125.590000", "131126.050000", "131126.510000", "131126.970000", "131127.430000", "131127.890000", "131128.350000", "131128.810000", "131129.270000", "131129.730000", "131130.190000", "131130.650000", "131131.110000", "131131.570000", "131132.030000", "131132.490000", "131132.950000", "131133.410000", "131133.870000", "131134.330000", "131134.790000", "131135.250000", "131135.710000", "131136.170000", "131136.630000", "131137.090000", "131137.550000", "131138.010000", "131138.470000", "131138.930000", "131139.390000", "131139.850000", "131140.310000", "131140.770000", "131141.230000", "131141.690000", "131142.150000", "131142.610000", "131143.070000", "131143.530000", "131143.990000", "131144.450000", "131144.910000", "131145.370000", "131145.830000", "131146.290000", "131146.750000", "131147.210000", "131147.670000", "131148.130000", "131148.590000", "131149.050000", "131149.510000", "131149.970000", "131150.430000", "131150.890000", "131151.350000", "131151.810000", "131152.270000", "131152.730000", "131153.190000", "131153.650000", "131154.110000", "131154.570000", "131155.030000", "131155.490000", "131155.950000", "131156.410000", "131156.870000", "131157.330000", "131157.790000", "131158.250000", "131158.710000", "131159.170000", "131159.630000", "131200.090000", "131200.550000", "131201.010000", "131201.470000", "131201.930000", "131202.390000", "131202.850000", "131203.310000", "131203.770000", "131204.230000", "131204.690000", "131205.150000", "131205.610000", "131206.070000", "131206.530000", "131206.990000", "131207.450000", "131207.910000", "131208.370000", "131208.830000", "131209.290000", "131209.750000", "131210.210000", "131210.670000", "131211.130000", "131211.590000", "131212.050000", "131212.510000", "131212.970000", "131213.430000", "131213.890000", "131214.350000", "131214.810000", "131215.270000", "131215.730000", "131216.190000", "131216.650000", "131217.110000", "131217.570000", "131218.030000", "131218.490000", "131218.950000", "131219.410000", "131219.870000", "131220.330000", "131220.790000", "131221.250000", "131221.710000", "131222.170000", "131222.630000", "131223.090000", "131223.550000", "131224.010000", "131224.470000", "131224.930000", "131225.390000", "131225.850000", "131226.310000", "131226.770000", "131227.230000", "131227.690000", "131228.150000", "131228.610000", "131229.070000", "131229.530000", "131229.990000", "131230.450000", "131230.910000", "131231.370000", "131231.830000", "131232.290000", "131232.750000", "131233.210000", "131233.670000", "131234.130000", "131234.590000", "131235.050000", "131235.510000", "131235.970000", "131236.430000", "131236.890000", "131237.350000", "131237.810000", "131238.270000", "131238.730000", "131239.190000", "131239.650000", "131240.110000", "131240.570000", "131241.030000", "131241.490000", "131241.950000", "131242.410000", "131242.870000", "131243.330000", "131243.790000", "131244.250000", "131244.710000", "131245.170000", "131245.630000", "131246.090000", "131246.550000", "131247.010000", "131247.470000", "131247.930000", "131248.390000", "131248.850000", "131249.310000", "131249.770000", "131250.230000", "131250.690000", "131251.150000", "131251.610000", "131252.070000", "131252.530000", "131252.990000", "131253.450000", "131253.910000", "131254.370000", "131254.830000", "131255.290000", "131255.750000", "131256.210000", "131256.670000", "131257.130000", "131257.590000", "131258.050000", "131258.510000", "131258.970000", "131259.430000", "131259.890000", "131300.350000", "131300.810000", "131301.270000", "131301.730000", "131302.190000", "131302.650000", "131303.110000", "131303.570000", "131304.030000", "131304.490000", "131304.950000", "131305.410000", "131305.870000", "131306.330000", "131306.790000", "131307.250000", "131307.710000", "131308.170000", "131308.630000", "131309.090000", "131309.550000", "131310.010000", "131310.470000", "131310.930000", "131311.390000", "131311.850000", "131312.310000", "131312.770000", "131313.230000", "131313.690000", "131314.150000", "131314.610000", "131315.070000", "131315.530000", "131315.990000", "131316.450000", "131316.910000", "131317.370000", "131317.830000", "131318.290000", "131318.750000", "131319.210000", "131319.670000", "131320.130000", "131320.590000", "131321.050000", "131321.510000", "131321.970000", "131322.430000", "131322.890000", "131323.350000", "131323.810000", "131324.270000", "131324.730000", "131325.190000", "131325.650000", "131326.110000", "131326.570000", "131327.030000", "131327.490000", "131327.950000", "131328.410000", "131328.870000", "131329.330000", "131329.790000", "131330.250000", "131330.710000", "131331.170000", "131331.630000", "131332.090000", "131332.550000", "131333.010000", "131333.470000", "131333.930000", "131334.390000", "131334.850000", "131335.310000", "131335.770000", "131336.230000", "131336.690000", "131337.150000", "131337.610000", "131338.070000", "131338.530000", "131338.990000", "131339.450000", "131339.910000", "131340.370000", "131340.830000", "131341.290000", "131341.750000", "131342.210000", "131342.670000", "131343.130000", "131343.590000", "131344.050000", "131344.510000", "131344.970000", "131345.430000", "131345.890000", "131346.350000", "131346.810000", "131347.270000", "131347.730000", "131348.190000", "131348.650000", "131349.110000", "131349.570000", "131350.030000", "131350.490000", "131350.950000", "131351.410000", "131351.870000", "131352.330000", "131352.790000", "131353.250000", "131353.710000", "131354.170000", "131354.630000", "131355.090000", "131355.550000", "131356.010000", "131356.470000", "131356.930000", "131357.390000", "131357.850000", "131358.310000", "131358.770000", "131359.230000", "131359.690000", "131400.150000", "131400.610000", "131401.070000", "131401.530000", "131401.990000", "131402.450000", "131402.910000", "131403.370000", "131403.830000", "131404.290000", "131404.750000", "131405.210000", "131405.670000", "131406.130000", "131406.590000", "131407.050000", "131407.510000", "131407.970000", "131408.430000", "131408.890000", "131409.350000", "131409.810000", "131410.270000", "131410.730000", "131411.190000", "131411.650000", "131412.110000", "131412.570000", "131413.030000", "131413.490000", "131413.950000", "131414.410000", "131414.870000", "131415.330000", "131415.790000", "131416.250000", "131416.710000", "131417.170000", "131417.630000", "131418.090000", "131418.550000", "131419.010000", "131419.470000", "131419.930000", "131420.390000", "131420.850000", "131421.310000", "131421.770000", "131422.230000", "131422.690000", "131423.150000", "131423.610000", "131424.070000", "131424.530000", "131424.990000", "131425.450000", "131425.910000", "131426.370000", "131426.830000", "131427.290000", "131427.750000", "131428.210000", "131428.670000", "131429.130000", "131429.590000", "131430.050000", "131430.510000", "131430.970000", "131431.430000", "131431.890000", "131432.350000", "131432.810000", "131433.270000", "131433.730000", "131434.190000", "131434.650000", "131435.110000", "131435.570000", "131436.030000", "131436.490000", "131436.950000", "131437.410000", "131437.870000", "131438.330000", "131438.790000", "131439.250000", "131439.710000", "131440.170000", "131440.630000", "131441.090000", "131441.550000", "131442.010000", "131442.470000", "131442.930000", "131443.390000", "131443.850000", "131444.310000", "131444.770000", "131445.230000", "131445.690000", "131446.150000", "131446.610000", "131447.070000", "131447.530000", "131447.990000", "131448.450000", "131448.910000", "131449.370000", "131449.830000", "131450.290000", "131450.750000", "131451.210000", "131451.670000", "131452.130000", "131452.590000", "131453.050000", "131453.510000", "131453.970000", "131454.430000", "131454.890000", "131455.350000", "131455.810000", "131456.270000", "131456.730000", "131457.190000", "131457.650000", "131458.110000", "131458.570000", "131459.030000", "131459.490000", "131459.950000", "131500.410000", "131500.870000", "131501.330000", "131501.790000", "131502.250000", "131502.710000", "131503.170000", "131503.630000", "131504.090000", "131504.550000", "131505.010000", "131505.470000", "131505.930000", "131506.390000", "131506.850000", "131507.310000", "131507.770000", "131508.230000", "131508.690000", "131509.150000", "131509.610000", "131510.070000", "131510.530000", "131510.990000", "131511.450000", "131511.910000", "131512.370000", "131512.830000", "131513.290000", "131513.750000", "131514.210000", "131514.670000", "131515.130000", "131515.590000", "131516.050000", "131516.510000", "131516.970000", "131517.430000", "131517.890000", "131518.350000", "131518.810000", "131519.270000", "131519.730000", "131520.190000", "131520.650000", "131521.110000", "131521.570000", "131522.030000", "131522.490000", "131522.950000", "131523.410000", "131523.870000", "131524.330000", "131524.790000", "131525.250000", "131525.710000", "131526.170000", "131526.630000", "131527.090000", "131527.550000", "131528.010000", "131528.470000", "131528.930000", "131529.390000", "131529.850000", "131530.310000", "131530.770000", "131531.230000", "131531.690000", "131532.150000", "131532.610000", "131533.070000", "131533.530000", "131533.990000", "131534.450000", "131534.910000", "131535.370000", "131535.830000", "131536.290000", "131536.750000", "131537.210000", "131537.670000", "131538.130000", "131538.590000", "131539.050000", "131539.510000", "131539.970000", "131540.430000", "131540.890000", "131541.350000", "131541.810000", "131542.270000", "131542.730000", "131543.190000", "131543.650000", "131544.110000", "131544.570000", "131545.030000", "131545.490000", "131545.950000", "131546.410000", "131546.870000", "131547.330000", "131547.790000", "131548.250000", "131548.710000", "131549.170000", "131549.630000", "131550.090000", "131550.550000", "131551.010000", "131551.470000", "131551.930000", "131552.390000", "131552.850000", "131553.310000", "131553.770000", "131554.230000", "131554.690000", "131555.150000", "131555.610000", "131556.070000", "131556.530000", "131556.990000", "131557.450000", "131557.910000", "131558.370000", "131558.830000", "131559.290000", "131559.750000", "131600.210000", "131600.670000", "131601.130000", "131601.590000", "131602.050000", "131602.510000", "131602.970000", "131603.430000", "131603.890000", "131604.350000", "131604.810000", "131605.270000", "131605.730000", "131606.190000", "131606.650000", "131607.110000", "131607.570000", "131608.030000", "131608.490000", "131608.950000", "131609.410000", "131609.870000", "131610.330000", "131610.790000", "131611.250000", "131611.710000", "131612.170000", "131612.630000", "131613.090000", "131613.550000", "131614.010000", "131614.470000", "131614.930000", "131615.390000", "131615.850000", "131616.310000", "131616.770000", "131617.230000", "131617.690000", "131618.150000", "131618.610000", "131619.070000", "131619.530000", "131619.990000", "131620.450000", "131620.910000", "131621.370000", "131621.830000", "131622.290000", "131622.750000", "131623.210000", "131623.670000", "131624.130000", "131624.590000", "131625.050000", "131625.510000", "131625.970000", "131626.430000", "131626.890000", "131627.350000", "131627.810000", "131628.270000"],
