{
  "AcquisitionMatrixPE": 140,
  "AcquisitionNumber": 1,
  "AcquisitionTime": "18:57:25.002500",
  "BandwidthPerPixelPhaseEncode": 10.352,
  "BaseResolution": 140,
  "BodyPartExamined": "BRAIN",
  "ConsistencyInfo": "N4_VE11E_LATEST_20181129",
  "ConversionSoftware": "dcm2niix",
  "ConversionSoftwareVersion": "v1.0.20201102",
  "DerivedVendorReportedEchoSpacing": 0.000689998,
  "DeviceSerialNumber": "66112",
  "DiffusionScheme": "Monopolar",
  "DwellTime": 2.1e-06,
  "EchoTime": 0.088,
  "EchoTrainLength": 105,
  "EffectiveEchoSpacing": 0.000689998,
  "FlipAngle": 90,
  "ImageComments": "Unaliased MB3/PE3",
  "ImageOrientationPatientDICOM": [0.998207, 0.0085328, -0.0592388, 0.0167267, 0.910571, 0.413014],
  "ImageType": [
    "ORIGINAL",
    "PRIMARY",
    "DIFFUSION",
    "NONE",
    "MB",
    "ND"
],
  "ImagingFrequency": 123.252,
  "InPlanePhaseEncodingDirectionDICOM": "COL",
  "InstitutionAddress": "Maynard 3,Hanover,NH,US,03755",
  "InstitutionName": "Dartmouth College - PBS",
  "InstitutionalDepartmentName": "Department",
  "IntendedFor": [
    "ses-01/dwi/sub-0073_ses-01_acq-96dirX6b0Xmb_dwi.nii.gz"
],
  "MRAcquisitionType": "2D",
  "MagneticFieldStrength": 3,
  "Manufacturer": "Siemens",
  "ManufacturersModelName": "Prisma",
  "Modality": "MR",
  "MultibandAccelerationFactor": 3,
  "PartialFourier": 0.75,
  "PatientPosition": "HFS",
  "PercentPhaseFOV": 100,
  "PercentSampling": 100,
  "PhaseEncodingDirection": "j-",
  "PhaseEncodingSteps": 105,
  "PhaseResolution": 1,
  "PixelBandwidth": 1700,
  "ProcedureStepDescription": "Wager_Wager^1076_spacetop",
  "ProtocolName": "dwi_acq-discorr-AP",
  "PulseSequenceDetails": "%CustomerSeq%\\cmrr_mbep2d_diff",
  "ReceiveCoilActiveElements": "HEA;HEP",
  "ReceiveCoilName": "Head_32",
  "ReconMatrixPE": 140,
  "RepetitionTime": 4.1,
  "SAR": 0.155426,
  "ScanOptions": "PFP\\FS",
  "ScanningSequence": "EP",
  "SequenceName": "ep_b0",
  "SequenceVariant": "SK\\SS",
  "SeriesDescription": "dwi_acq-discorr-AP",
  "SeriesNumber": 7,
  "ShimSetting": [4138, -7780, -7293, 572, -70, -294, 87, 101],
  "SliceThickness": 1.7,
  "SliceTiming": [0, 2.125, 0.15625, 2.26562, 0.3125, 2.42188, 0.45312, 2.5625, 0.60938, 2.71875, 0.75, 2.875, 0.90625, 3.03125, 1.0625, 3.17188, 1.20312, 3.32812, 1.35938, 3.48438, 1.51562, 3.625, 1.67188, 3.78125, 1.8125, 3.9375, 1.96875, 0, 2.125, 0.15625, 2.26562, 0.3125, 2.42188, 0.45312, 2.5625, 0.60938, 2.71875, 0.75, 2.875, 0.90625, 3.03125, 1.0625, 3.17188, 1.20312, 3.32812, 1.35938, 3.48438, 1.51562, 3.625, 1.67188, 3.78125, 1.8125, 3.9375, 1.96875, 0, 2.125, 0.15625, 2.26562, 0.3125, 2.42188, 0.45312, 2.5625, 0.60938, 2.71875, 0.75, 2.875, 0.90625, 3.03125, 1.0625, 3.17188, 1.20312, 3.32812, 1.35938, 3.48438, 1.51562, 3.625, 1.67188, 3.78125, 1.8125, 3.9375, 1.96875],
  "SoftwareVersions": "syngo MR E11",
  "SpacingBetweenSlices": 1.7,
  "StationName": "AWP66112",
  "TotalReadoutTime": 0.0959097,
  "TxRefAmp": 236.026,
  "WipMemBlock": "1159c436-bab1-4af6-97ff-d7bf626278e3||Sequence: R016 ve11e/master r/434b28f1; Aug  7 2019 19:06:17 by eja",
  "dcmmeta_affine": [
    [-1.7112126350402832, 0.028674351051449776, -0.09769105911254883, 121.76322174072266],
    [-0.014627664349973202, 1.560978889465332, 0.7025527954101562, -96.03002166748047],
    [-0.10155216604471207, -0.7080241441726685, 1.544952392578125, -2.7212226390838623],
    [0.0, 0.0, 0.0, 1.0]
],
  "dcmmeta_reorient_transform": [
    [0.0, -1.0, 0.0, 139.0],
    [1.0, 0.0, 0.0, 0.0],
    [0.0, 0.0, -1.0, 80.0],
    [0.0, 0.0, 0.0, 1.0]
],
  "dcmmeta_shape": [140, 140, 81],
  "dcmmeta_slice_dim": 2,
  "dcmmeta_version": 0.6,
  "global": {
    "const": {
      "AccessionNumber": "A004034",
      "AcquisitionMatrix": [140, 0, 0, 140],
      "AcquisitionNumber": 1,
      "AngioFlag": "N",
      "BitsAllocated": 16,
      "BitsStored": 16,
      "BodyPartExamined": "BRAIN",
      "Columns": 140,
      "EchoNumbers": 1,
      "EchoTime": 88.0,
      "EchoTrainLength": 105,
      "FlipAngle": 90.0,
      "HighBit": 15,
      "ImageOrientationPatient": [0.99820737328629, 0.00853280407005, -0.0592387640956, 0.01672670432289, 0.91057102210763, 0.41301408094683],
      "ImageType": [
        "ORIGINAL",
        "PRIMARY",
        "DIFFUSION",
        "NONE",
        "MB",
        "ND"
],
      "ImagedNucleus": "1H",
      "ImagingFrequency": 123.252324,
      "InPlanePhaseEncodingDirection": "COL",
      "MRAcquisitionType": "2D",
      "MagneticFieldStrength": 3.0,
      "Manufacturer": "SIEMENS",
      "ManufacturerModelName": "Prisma",
      "Modality": "MR",
      "NumberOfAverages": 1.0,
      "NumberOfPhaseEncodingSteps": 105,
      "PercentPhaseFieldOfView": 100.0,
      "PercentSampling": 100.0,
      "PerformedProcedureStepStartTime": "182438.845000",
      "PhotometricInterpretation": "MONOCHROME2",
      "PixelBandwidth": 1700.0,
      "PixelRepresentation": 0,
      "PixelSpacing": [1.7142857313156, 1.7142857313156],
      "ProtocolName": "dwi_acq-discorr-AP",
      "RepetitionTime": 4100.0,
      "Rows": 140,
      "SAR": 0.15542592518512,
      "SamplesPerPixel": 1,
      "ScanOptions": [
        "PFP",
        "FS"
],
      "ScanningSequence": "EP",
      "SequenceName": "ep_b0",
      "SequenceVariant": [
        "SK",
        "SS"
],
      "SeriesDescription": "dwi_acq-discorr-AP",
      "SeriesNumber": 7,
      "SeriesTime": "185730.217000",
      "SliceThickness": 1.7000000476837,
      "SmallestImagePixelValue": 0,
      "SoftwareVersions": "syngo MR E11",
      "SpacingBetweenSlices": 1.7,
      "SpecificCharacterSet": "ISO_IR 100",
      "StudyID": "1",
      "StudyTime": "182438.701000",
      "TransmitCoilName": "Body",
      "VariableFlipAngleFlag": "N",
      "WindowCenterWidthExplanation": "Algo1"
    },
    "slices": {
      "AcquisitionTime": ["185725.002500", "185727.117500", "185725.152500", "185727.270000", "185725.305000", "185727.420000", "185725.455000", "185727.570000", "185725.607500", "185727.722500", "185725.757500", "185727.872500", "185725.910000", "185728.025000", "185726.060000", "185728.175000", "185726.210000", "185728.327500", "185726.362500", "185728.477500", "185726.512500", "185728.630000", "185726.665000", "185728.780000", "185726.815000", "185728.930000", "185726.967500", "185725.002500", "185727.117500", "185725.152500", "185727.270000", "185725.305000", "185727.420000", "185725.455000", "185727.570000", "185725.607500", "185727.722500", "185725.757500", "185727.872500", "185725.910000", "185728.025000", "185726.060000", "185728.175000", "185726.210000", "185728.327500", "185726.362500", "185728.477500", "185726.512500", "185728.630000", "185726.665000", "185728.780000", "185726.815000", "185728.930000", "185726.967500", "185725.002500", "185727.117500", "185725.152500", "185727.270000", "185725.305000", "185727.420000", "185725.455000", "185727.570000", "185725.607500", "185727.722500", "185725.757500", "185727.872500", "185725.910000", "185728.025000", "185726.060000", "185728.175000", "185726.210000", "185728.327500", "185726.362500", "185728.477500", "185726.512500", "185728.630000", "185726.665000", "185728.780000", "185726.815000", "185728.930000", "185726.967500"],
      "ContentTime": ["185730.220000", "185730.325000", "185730.239000", "185730.332000", "185730.245000", "185730.338000", "185730.252000", "185730.345000", "185730.259000", "185730.351000", "185730.265000", "185730.358000", "185730.271000", "185730.365000", "185730.277000", "185730.371000", "185730.283000", "185730.385000", "185730.289000", "185730.391000", "185730.301000", "185730.397000", "185730.307000", "185730.403000", "185730.313000", "185730.410000", "185730.319000", "185730.223000", "185730.327000", "185730.241000", "185730.334000", "185730.247000", "185730.340000", "185730.254000", "185730.347000", "185730.261000", "185730.353000", "185730.267000", "185730.360000", "185730.273000", "185730.367000", "185730.279000", "185730.380000", "185730.285000", "185730.387000", "185730.291000", "185730.393000", "185730.303000", "185730.399000", "185730.309000", "185730.405000", "185730.315000", "185730.412000", "185730.321000", "185730.237000", "185730.329000", "185730.243000", "185730.336000", "185730.249000", "185730.343000", "185730.256000", "185730.349000", "185730.263000", "185730.355000", "185730.269000", "185730.363000", "185730.275000", "185730.369000", "185730.281000", "185730.383000", "185730.287000", "185730.389000", "185730.299000", "185730.395000", "185730.305000", "185730.401000", "185730.311000", "185730.407000", "185730.317000", "185730.414000", "185730.323000"],
      "CsaImage.GSWDDataType": [
        "predicted",
        "predicted",
        "predicted",
        "predicted",
        "predicted",
        "predicted",
        "predicted",
        "predicted",
        "predicted",
        "predicted",
        "predicted",
        "predicted",
        "predicted",
        "predicted",
        "predicted",
        "predicted",
        "predicted",
        "predicted",
        "predicted",
        "predicted",
        "predicted",
        "predicted",
        "predicted",
        "measured",
        "predicted",
        "measured",
        "predicted",
        "predicted",
        "predicted",
        "predicted",
        "predicted",
        "predicted",
        "predicted",
        "predicted",
        "predicted",
        "predicted",
        "predicted",
        "predicted",
        "predicted",
        "predicted",
        "predicted",
        "predicted",
        "predicted",
        "predicted",
        "predicted",
        "predicted",
        "predicted",
        "predicted",
        "predicted",
        "predicted",
        "measured",
        "predicted",
        "measured",
        "predicted",
        "predicted",
        "predicted",
        "predicted",
        "predicted",
        "predicted",
        "predicted",
        "predicted",
        "predicted",
        "predicted",
        "predicted",
        "predicted",
        "predicted",
        "predicted",
        "predicted",
        "predicted",
        "predicted",
        "predicted",
        "predicted",
        "predicted",
        "predicted",
        "predicted",
        "predicted",
        "predicted",
        "measured",
        "predicted",
        "measured",
        "predicted"
],
      "CsaImage.ICE_Dims": [
        "X_1_1_1_1_1_1_1_1_1_1_1_25",
        "X_1_1_1_1_1_1_42_1_1_2_1_25",
        "X_1_1_1_1_1_1_2_1_1_3_1_25",
        "X_1_1_1_1_1_1_43_1_1_4_1_25",
        "X_1_1_1_1_1_1_3_1_1_5_1_25",
        "X_1_1_1_1_1_1_44_1_1_6_1_25",
        "X_1_1_1_1_1_1_4_1_1_7_1_25",
        "X_1_1_1_1_1_1_45_1_1_8_1_25",
        "X_1_1_1_1_1_1_5_1_1_9_1_25",
        "X_1_1_1_1_1_1_46_1_1_10_1_25",
        "X_1_1_1_1_1_1_6_1_1_11_1_25",
        "X_1_1_1_1_1_1_47_1_1_12_1_25",
        "X_1_1_1_1_1_1_7_1_1_13_1_25",
        "X_1_1_1_1_1_1_48_1_1_14_1_25",
        "X_1_1_1_1_1_1_8_1_1_15_1_25",
        "X_1_1_1_1_1_1_49_1_1_16_1_25",
        "X_1_1_1_1_1_1_9_1_1_17_1_25",
        "X_1_1_1_1_1_1_50_1_1_18_1_25",
        "X_1_1_1_1_1_1_10_1_1_19_1_25",
        "X_1_1_1_1_1_1_51_1_1_20_1_25",
        "X_1_1_1_1_1_1_11_1_1_21_1_25",
        "X_1_1_1_1_1_1_52_1_1_22_1_25",
        "X_1_1_1_1_1_1_12_1_1_23_1_25",
        "X_1_1_1_1_1_1_53_1_1_24_1_25",
        "X_1_1_1_1_1_1_13_1_1_25_1_25",
        "X_1_1_1_1_1_1_54_1_1_26_1_25",
        "X_1_1_1_1_1_1_14_1_1_27_1_25",
        "X_1_1_1_1_1_1_55_1_1_28_1_25",
        "X_1_1_1_1_1_1_15_1_1_29_1_25",
        "X_1_1_1_1_1_1_56_1_1_30_1_25",
        "X_1_1_1_1_1_1_16_1_1_31_1_25",
        "X_1_1_1_1_1_1_57_1_1_32_1_25",
        "X_1_1_1_1_1_1_17_1_1_33_1_25",
        "X_1_1_1_1_1_1_58_1_1_34_1_25",
        "X_1_1_1_1_1_1_18_1_1_35_1_25",
        "X_1_1_1_1_1_1_59_1_1_36_1_25",
        "X_1_1_1_1_1_1_19_1_1_37_1_25",
        "X_1_1_1_1_1_1_60_1_1_38_1_25",
        "X_1_1_1_1_1_1_20_1_1_39_1_25",
        "X_1_1_1_1_1_1_61_1_1_40_1_25",
        "X_1_1_1_1_1_1_21_1_1_41_1_25",
        "X_1_1_1_1_1_1_62_1_1_42_1_25",
        "X_1_1_1_1_1_1_22_1_1_43_1_25",
        "X_1_1_1_1_1_1_63_1_1_44_1_25",
        "X_1_1_1_1_1_1_23_1_1_45_1_25",
        "X_1_1_1_1_1_1_64_1_1_46_1_25",
        "X_1_1_1_1_1_1_24_1_1_47_1_25",
        "X_1_1_1_1_1_1_65_1_1_48_1_25",
        "X_1_1_1_1_1_1_25_1_1_49_1_25",
        "X_1_1_1_1_1_1_66_1_1_50_1_25",
        "X_1_1_1_1_1_1_26_1_1_51_1_25",
        "X_1_1_1_1_1_1_67_1_1_52_1_25",
        "X_1_1_1_1_1_1_27_1_1_53_1_25",
        "X_1_1_1_1_1_1_68_1_1_54_1_25",
        "X_1_1_1_1_1_1_28_1_1_55_1_25",
        "X_1_1_1_1_1_1_69_1_1_56_1_25",
        "X_1_1_1_1_1_1_29_1_1_57_1_25",
        "X_1_1_1_1_1_1_70_1_1_58_1_25",
        "X_1_1_1_1_1_1_30_1_1_59_1_25",
        "X_1_1_1_1_1_1_71_1_1_60_1_25",
        "X_1_1_1_1_1_1_31_1_1_61_1_25",
        "X_1_1_1_1_1_1_72_1_1_62_1_25",
        "X_1_1_1_1_1_1_32_1_1_63_1_25",
        "X_1_1_1_1_1_1_73_1_1_64_1_25",
        "X_1_1_1_1_1_1_33_1_1_65_1_25",
        "X_1_1_1_1_1_1_74_1_1_66_1_25",
        "X_1_1_1_1_1_1_34_1_1_67_1_25",
        "X_1_1_1_1_1_1_75_1_1_68_1_25",
        "X_1_1_1_1_1_1_35_1_1_69_1_25",
        "X_1_1_1_1_1_1_76_1_1_70_1_25",
        "X_1_1_1_1_1_1_36_1_1_71_1_25",
        "X_1_1_1_1_1_1_77_1_1_72_1_25",
        "X_1_1_1_1_1_1_37_1_1_73_1_25",
        "X_1_1_1_1_1_1_78_1_1_74_1_25",
        "X_1_1_1_1_1_1_38_1_1_75_1_25",
        "X_1_1_1_1_1_1_79_1_1_76_1_25",
        "X_1_1_1_1_1_1_39_1_1_77_1_25",
        "X_1_1_1_1_1_1_80_1_1_78_1_25",
        "X_1_1_1_1_1_1_40_1_1_79_1_25",
        "X_1_1_1_1_1_1_81_1_1_80_1_25",
        "X_1_1_1_1_1_1_41_1_1_81_1_25"
],
      "CsaImage.ProtocolSliceNumber": [0, 1, 2, 3, 4, 5, 6, 7, 8, 9, 10, 11, 12, 13, 14, 15, 16, 17, 18, 19, 20, 21, 22, 23, 24, 25, 26, 27, 28, 29, 30, 31, 32, 33, 34, 35, 36, 37, 38, 39, 40, 41, 42, 43, 44, 45, 46, 47, 48, 49, 50, 51, 52, 53, 54, 55, 56, 57, 58, 59, 60, 61, 62, 63, 64, 65, 66, 67, 68, 69, 70, 71, 72, 73, 74, 75, 76, 77, 78, 79, 80],
      "CsaImage.RFSWDDataType": [
        "predicted",
        "predicted",
        "predicted",
        "predicted",
        "predicted",
        "predicted",
        "predicted",
        "predicted",
        "predicted",
        "predicted",
        "predicted",
        "predicted",
        "predicted",
        "predicted",
        "predicted",
        "predicted",
        "predicted",
        "predicted",
        "predicted",
        "predicted",
        "predicted",
        "predicted",
        "predicted",
        "measured",
        "predicted",
        "measured",
        "predicted",
        "predicted",
        "predicted",
        "predicted",
        "predicted",
        "predicted",
        "predicted",
        "predicted",
        "predicted",
        "predicted",
        "predicted",
        "predicted",
        "predicted",
        "predicted",
        "predicted",
        "predicted",
        "predicted",
        "predicted",
        "predicted",
        "predicted",
        "predicted",
        "predicted",
        "predicted",
        "predicted",
        "measured",
        "predicted",
        "measured",
        "predicted",
        "predicted",
        "predicted",
        "predicted",
        "predicted",
        "predicted",
        "predicted",
        "predicted",
        "predicted",
        "predicted",
        "predicted",
        "predicted",
        "predicted",
        "predicted",
        "predicted",
        "predicted",
        "predicted",
        "predicted",
        "predicted",
        "predicted",
        "predicted",
        "predicted",
        "predicted",
        "predicted",
        "measured",
        "predicted",
        "measured",
        "predicted"
],
      "CsaImage.SlicePosition_PCS": [
        [-125.74894987, -120.9462879, -101.13664364],
        [-125.65125881, -121.64883784, -99.59168743],
        [-125.55356799, -122.35138777, -98.04673504],
        [-125.45587693, -123.05393771, -96.50178265],
        [-125.35818611, -123.75648669, -94.95683025],
        [-125.26049505, -124.45903662, -93.41187786],
        [-125.16280423, -125.16158656, -91.86692165],
        [-125.06511317, -125.86413649, -90.32196926],
        [-124.96742235, -126.56668547, -88.77701687],
        [-124.86973129, -127.26923636, -87.23206448],
        [-124.77204024, -127.97178534, -85.68711208],
        [-124.67434942, -128.67433623, -84.14215588],
        [-124.57665836, -129.37688521, -82.59720348],
        [-124.47896754, -130.07943419, -81.05225109],
        [-124.38127648, -130.78198508, -79.5072987],
        [-124.28358566, -131.48453406, -77.96234631],
        [-124.1858946, -132.18708495, -76.4173901],
        [-124.08820378, -132.88963393, -74.87243771],
        [-123.99051272, -133.59218291, -73.32748531],
        [-123.89282166, -134.2947338, -71.78253292],
        [-123.79513084, -134.99728278, -70.23757862],
        [-123.6974399, -135.69983367, -68.69262623],
        [-123.59974896, -136.40238265, -67.14767193],
        [-123.50205802, -137.10493163, -65.60271954],
        [-123.40436708, -137.80748251, -64.05776714],
        [-123.30667602, -138.5100315, -62.51281284],
        [-123.20898508, -139.21258238, -60.96786045],
        [-123.11129414, -139.91513136, -59.42290615],
        [-123.0136032, -140.61768225, -57.87795376],
        [-122.91591226, -141.32023123, -56.33300041],
        [-122.81822132, -142.02278021, -54.78804707],
        [-122.72053038, -142.72532919, -53.24309372],
        [-122.62283944, -143.42788199, -51.69814037],
        [-122.52514844, -144.13043097, -50.1531875],
        [-122.4274575, -144.83297995, -48.60823463],
        [-122.32976656, -145.53552893, -47.06328129],
        [-122.23207562, -146.23807791, -45.51832818],
        [-122.13438465, -146.94063071, -43.97337495],
        [-122.03669371, -147.64317969, -42.42842179],
        [-121.93900276, -148.34572867, -40.88346862],
        [-121.8413118, -149.04827765, -39.33851551],
        [-121.74362085, -149.75082663, -37.79356216],
        [-121.64592991, -150.45337943, -36.24860929],
        [-121.54823895, -151.15592841, -34.70365595],
        [-121.45054798, -151.85847739, -33.15870308],
        [-121.35285704, -152.56102637, -31.61374973],
        [-121.2551661, -153.26357535, -30.06879639],
        [-121.15747516, -153.96612814, -28.52384304],
        [-121.05978416, -154.66867713, -26.97888969],
        [-120.96209322, -155.37122611, -25.43393635],
        [-120.86440228, -156.07377509, -23.88898395],
        [-120.76671134, -156.77632407, -22.34402965],
        [-120.6690204, -157.47887686, -20.79907726],
        [-120.57132946, -158.18142584, -19.25412487],
        [-120.47363852, -158.88397482, -17.70917057],
        [-120.37594758, -159.58652381, -16.16421818],
        [-120.27825652, -160.28907279, -14.61926388],
        [-120.18056558, -160.99162558, -13.07431148],
        [-120.08287464, -161.69417456, -11.52935909],
        [-119.9851837, -162.39672354, -9.9844067],
        [-119.88749276, -163.09927252, -8.43945049],
        [-119.78980194, -163.80182532, -6.8944981],
        [-119.69211088, -164.5043743, -5.34954571],
        [-119.59441982, -165.20692328, -3.80459331],
        [-119.496729, -165.90947226, -2.25964092],
        [-119.39903795, -166.61202124, -0.71468471],
        [-119.30134712, -167.31457404, 0.83026768],
        [-119.20365607, -168.01712302, 2.37522007],
        [-119.10596524, -168.719672, 3.92017246],
        [-119.00827419, -169.42222098, 5.46512486],
        [-118.91058336, -170.12476996, 7.01008106],
        [-118.81289231, -170.82732276, 8.55503346],
        [-118.71520125, -171.52987174, 10.09998585],
        [-118.61751043, -172.23242072, 11.64493824],
        [-118.51981937, -172.9349697, 13.18989063],
        [-118.42212855, -173.63751868, 14.73484684],
        [-118.32443749, -174.34006766, 16.27979923],
        [-118.22674667, -175.04262045, 17.82475163],
        [-118.12905561, -175.74516562, 19.36970402],
        [-118.03136479, -176.44771842, 20.91466023],
        [-117.93367373, -177.15027121, 22.45961262]
],
      "CsaImage.TimeAfterStart": [16.4, 18.515, 16.55, 18.665, 16.7025, 18.8175, 16.8525, 18.9675, 17.005, 19.12, 17.155, 19.27, 17.305, 19.4225, 17.4575, 19.5725, 17.6075, 19.7225, 17.76, 19.875, 17.91, 20.025, 18.0625, 20.1775, 18.2125, 20.3275, 18.365, 16.4, 18.515, 16.55, 18.665, 16.7025, 18.8175, 16.8525, 18.9675, 17.005, 19.12, 17.155, 19.27, 17.305, 19.4225, 17.4575, 19.5725, 17.6075, 19.7225, 17.76, 19.875, 17.91, 20.025, 18.0625, 20.1775, 18.2125, 20.3275, 18.365, 16.4, 18.515, 16.55, 18.665, 16.7025, 18.8175, 16.8525, 18.9675, 17.005, 19.12, 17.155, 19.27, 17.305, 19.4225, 17.4575, 19.5725, 17.6075, 19.7225, 17.76, 19.875, 17.91, 20.025, 18.0625, 20.1775, 18.2125, 20.3275, 18.365],
      "ImagePositionPatient": [
        [-125.7489498732, -120.94628790421, -101.13664363797],
        [-125.65125881409, -121.6488378386, -99.591687430692],
        [-125.55356799339, -122.35138777299, -98.046735038114],
        [-125.45587693428, -123.05393770738, -96.501782645535],
        [-125.35818611359, -123.75648668809, -94.956830252957],
        [-125.26049505448, -124.45903662248, -93.411877860379],
        [-125.16280423378, -125.16158655686, -91.866921653104],
        [-125.06511317467, -125.86413649125, -90.321969260526],
        [-124.96742235398, -126.56668547196, -88.777016867948],
        [-124.86973129486, -127.26923636003, -87.232064475369],
        [-124.77204023575, -127.97178534074, -85.687112082791],
        [-124.67434941506, -128.6743362288, -84.142155875516],
        [-124.57665835594, -129.37688520951, -82.597203482938],
        [-124.47896753525, -130.07943419023, -81.05225109036],
        [-124.38127647614, -130.78198507829, -79.507298697781],
        [-124.28358565544, -131.484534059, -77.962346305203],
        [-124.18589459633, -132.18708494706, -76.417390097928],
        [-124.08820377564, -132.88963392777, -74.87243770535],
        [-123.99051271652, -133.59218290849, -73.327485312772],
        [-123.89282165741, -134.29473379655, -71.782532920194],
        [-123.79513083672, -134.99728277726, -70.237578620267],
        [-123.69743989681, -135.69983366532, -68.692626227689],
        [-123.59974895691, -136.40238264604, -67.147671927762],
        [-123.50205801701, -137.10493162675, -65.602719535184],
        [-123.4043670771, -137.80748251481, -64.057767142606],
        [-123.30667601799, -138.51003149552, -62.512812842679],
        [-123.20898507809, -139.21258238358, -60.967860450101],
        [-123.11129413819, -139.9151313643, -59.422906150174],
        [-123.01360319828, -140.61768225236, -57.877953757596],
        [-122.91591225838, -141.32023123307, -56.333000411344],
        [-122.81822131848, -142.02278021378, -54.788047065091],
        [-122.72053037857, -142.7253291945, -53.243093718839],
        [-122.62283943867, -143.42788198991, -51.698140372586],
        [-122.52514843916, -144.13043097062, -50.153187503171],
        [-122.42745749926, -144.83297995133, -48.608234633756],
        [-122.32976655935, -145.53552893205, -47.063281287503],
        [-122.23207561945, -146.23807791276, -45.518328179669],
        [-122.13438464975, -146.94063070817, -43.973374952626],
        [-122.03669370984, -147.64317968888, -42.428421790776],
        [-121.93900275504, -148.3457286696, -40.883468617749],
        [-121.84131180023, -149.04827765031, -39.338515509915],
        [-121.74362084915, -149.75082663102, -37.793562163663],
        [-121.64592990553, -150.45337942643, -36.248609294248],
        [-121.54823895072, -151.15592840714, -34.703655947995],
        [-121.45054798102, -151.85847738786, -33.15870307858],
        [-121.35285704111, -152.56102636857, -31.613749732327],
        [-121.25516610121, -153.26357534928, -30.068796386075],
        [-121.15747516131, -153.96612814469, -28.523843039823],
        [-121.0597841618, -154.66867712541, -26.97888969357],
        [-120.9620932219, -155.37122610612, -25.433936347318],
        [-120.86440228199, -156.07377508683, -23.88898395474],
        [-120.76671134209, -156.77632406754, -22.344029654813],
        [-120.66902040219, -157.47887686295, -20.799077262235],
        [-120.57132946228, -158.18142584367, -19.254124869656],
        [-120.47363852238, -158.88397482438, -17.70917056973],
        [-120.37594758248, -159.58652380509, -16.164218177152],
        [-120.27825652336, -160.28907278581, -14.619263877225],
        [-120.18056558346, -160.99162558122, -13.074311484647],
        [-120.08287464356, -161.69417456193, -11.529359092069],
        [-119.98518370365, -162.39672354264, -9.9844066994905],
        [-119.88749276375, -163.09927252336, -8.4394504922151],
        [-119.78980194306, -163.80182531877, -6.894498099637],
        [-119.69211088394, -164.50437429948, -5.3495457070588],
        [-119.59441982483, -165.20692328019, -3.8045933144807],
        [-119.49672900414, -165.9094722609, -2.2596409219026],
        [-119.39903794502, -166.61202124162, -0.7146847146272],
        [-119.30134712433, -167.31457403703, 0.83026767795093],
        [-119.20365606522, -168.01712301774, 2.3752200705291],
        [-119.10596524452, -168.71967199845, 3.9201724631072],
        [-119.00827418541, -169.42222097917, 5.4651248556853],
        [-118.91058336472, -170.12476995988, 7.0100810629607],
        [-118.8128923056, -170.82732275529, 8.5550334555388],
        [-118.71520124649, -171.529871736, 10.099985848117],
        [-118.6175104258, -172.23242071671, 11.644938240695],
        [-118.51981936669, -172.93496969743, 13.189890633273],
        [-118.42212854599, -173.63751867814, 14.734846840549],
        [-118.32443748688, -174.34006765885, 16.279799233127],
        [-118.22674666619, -175.04262045426, 17.824751625705],
        [-118.12905560707, -175.74516562028, 19.369704018283],
        [-118.03136478638, -176.44771841569, 20.914660225558],
        [-117.93367372727, -177.1502712111, 22.459612618136]
],
      "InstanceCreationTime": ["185730.220000", "185730.325000", "185730.239000", "185730.332000", "185730.245000", "185730.338000", "185730.252000", "185730.345000", "185730.259000", "185730.351000", "185730.265000", "185730.358000", "185730.271000", "185730.365000", "185730.277000", "185730.371000", "185730.283000", "185730.385000", "185730.289000", "185730.391000", "185730.301000", "185730.397000", "185730.307000", "185730.403000", "185730.313000", "185730.410000", "185730.319000", "185730.223000", "185730.327000", "185730.241000", "185730.334000", "185730.247000", "185730.340000", "185730.254000", "185730.347000", "185730.261000", "185730.353000", "185730.267000", "185730.360000", "185730.273000", "185730.367000", "185730.279000", "185730.380000", "185730.285000", "185730.387000", "185730.291000", "185730.393000", "185730.303000", "185730.399000", "185730.309000", "185730.405000", "185730.315000", "185730.412000", "185730.321000", "185730.237000", "185730.329000", "185730.243000", "185730.336000", "185730.249000", "185730.343000", "185730.256000", "185730.349000", "185730.263000", "185730.355000", "185730.269000", "185730.363000", "185730.275000", "185730.369000", "185730.281000", "185730.383000", "185730.287000", "185730.389000", "185730.299000", "185730.395000", "185730.305000", "185730.401000", "185730.311000", "185730.407000", "185730.317000", "185730.414000", "185730.323000"],
      "InstanceNumber": [1, 2, 3, 4, 5, 6, 7, 8, 9, 10, 11, 12, 13, 14, 15, 16, 17, 18, 19, 20, 21, 22, 23, 24, 25, 26, 27, 28, 29, 30, 31, 32, 33, 34, 35, 36, 37, 38, 39, 40, 41, 42, 43, 44, 45, 46, 47, 48, 49, 50, 51, 52, 53, 54, 55, 56, 57, 58, 59, 60, 61, 62, 63, 64, 65, 66, 67, 68, 69, 70, 71, 72, 73, 74, 75, 76, 77, 78, 79, 80, 81],
      "LargestImagePixelValue": [48062, 26601, 15964, 16720, 18343, 25532, 29474, 24144, 23413, 22308, 24808, 25065, 45865, 54826, 39005, 36240, 39377, 44339, 44564, 32758, 38065, 47171, 47534, 39950, 43670, 46635, 50961, 48441, 48771, 48612, 49940, 50142, 43167, 40740, 34150, 29600, 35094, 27447, 50216, 40871, 47224, 40083, 42776, 40181, 37799, 41595, 43425, 51458, 47485, 55162, 58760, 55172, 52913, 53240, 55351, 64752, 51496, 44789, 65535, 60387, 47395, 44179, 46871, 51716, 46983, 39268, 50545, 47229, 47424, 52073, 49198, 47040, 65535, 63393, 65535, 59086, 23317, 23352, 11081, 11955, 17494],
      "SliceLocation": [-49.155957117925, -47.455954283887, -45.755954930332, -44.055955563076, -42.355956603641, -40.655957236385, -38.955954416048, -37.255955048792, -35.555956089357, -33.855956327981, -32.155957354845, -30.455954140389, -28.755955167252, -27.055956207817, -25.355956446441, -23.655957487006, -21.955954258849, -20.255955299413, -18.555956326277, -16.855956564901, -15.155955872075, -13.45595611755, -11.755955417873, -10.055956451588, -8.3559566970622, -6.6559559905353, -4.9559562360099, -3.2559555363334, -1.5559557818081, 0.14404405117308, 1.8440438841542, 3.5440437171354, 5.2440451265957, 6.9440445296544, 8.6440439292878, 10.344043762269, 12.044043378576, 13.744044681412, 15.44404434681, 17.14404402322, 18.844043640384, 20.544043474007, 22.244044450334, 23.944044284171, 25.644043685517, 27.344043518498, 29.04404335148, 30.74404476094, 32.444044597346, 34.144044430327, 35.844043396613, 37.54404409629, 39.244044639055, 40.94404360534, 42.644044305017, 44.344043271303, 46.04404397783, 47.744044520595, 49.44404348688, 51.144042453166, 52.844044886233, 54.544045422148, 56.244044395284, 57.94404336842, 59.644042327856, 61.344044767773, 63.044045303688, 64.744044276824, 66.444043236259, 68.144042209395, 69.844044635612, 71.544045185228, 73.244044158364, 74.944043117799, 76.644042090935, 78.344044517152, 80.044043490288, 81.744044026203, 83.44404142286, 85.144045425556, 86.844045975171],
