{
  "AcquisitionMatrixPE": 82,
  "AcquisitionNumber": 1,
  "AcquisitionTime": "10:49:22.802500",
  "BandwidthPerPixelPhaseEncode": 24.888,
  "BaseResolution": 82,
  "BodyPartExamined": "BRAIN",
  "ConsistencyInfo": "N4_VE11C_LATEST_20160120",
  "ConversionSoftware": "dcm2niix",
  "ConversionSoftwareVersion": "v1.0.20201102",
  "DerivedVendorReportedEchoSpacing": 0.00049,
  "DeviceSerialNumber": "66112",
  "DwellTime": 2e-06,
  "EchoTime": 0.0272,
  "EchoTrainLength": 82,
  "EffectiveEchoSpacing": 0.00049,
  "FlipAngle": 44,
  "ImageComments": "Unaliased MB8/PE3",
  "ImageOrientationPatientDICOM": [0.997447, 0.024286, 0.0671486, -0.0151468, 0.990946, -0.133405],
  "ImageType": [
    "ORIGINAL",
    "PRIMARY",
    "M",
    "MB",
    "ND",
    "NORM",
    "MOSAIC"
],
  "ImagingFrequency": 123.252,
  "InPlanePhaseEncodingDirectionDICOM": "COL",
  "InstitutionAddress": "Maynard 3,Hanover,NH,US,03755",
  "InstitutionName": "Dartmouth College - PBS",
  "InstitutionalDepartmentName": "Department",
  "MRAcquisitionType": "2D",
  "MagneticFieldStrength": 3,
  "Manufacturer": "Siemens",
  "ManufacturersModelName": "Prisma",
  "Modality": "MR",
  "MultibandAccelerationFactor": 8,
  "PartialFourier": 1,
  "PatientPosition": "HFS",
  "PercentPhaseFOV": 100,
  "PercentSampling": 100,
  "PhaseEncodingDirection": "j-",
  "PhaseEncodingSteps": 82,
  "PhaseResolution": 1,
  "PixelBandwidth": 3050,
  "ProcedureStepDescription": "Wager_Wager^1076_spacetop",
  "ProtocolName": "func_run-06_task-social_acq-ap-mb8",
  "PulseSequenceDetails": "%CustomerSeq%\\cmrr_mbep2d_bold",
  "ReceiveCoilActiveElements": "HEA;HEP",
  "ReceiveCoilName": "Head_32",
  "ReconMatrixPE": 82,
  "RepetitionTime": 0.46,
  "SAR": 0.0992963,
  "ScanOptions": "FS",
  "ScanningSequence": "EP",
  "SequenceName": "epfid2d1_82",
  "SequenceVariant": "SK\\SS",
  "SeriesDescription": "func_run-06_task-social_acq-ap-mb8",
  "SeriesNumber": 22,
  "ShimSetting": [4155, -7675, -7264, 550, 2, 0, -88, 57],
  "SliceThickness": 2.7,
  "SliceTiming": [0, 0.2525, 0.0625, 0.315, 0.1275, 0.3775, 0.19, 0, 0.2525, 0.0625, 0.315, 0.1275, 0.3775, 0.19, 0, 0.2525, 0.0625, 0.315, 0.1275, 0.3775, 0.19, 0, 0.2525, 0.0625, 0.315, 0.1275, 0.3775, 0.19, 0, 0.2525, 0.0625, 0.315, 0.1275, 0.3775, 0.19, 0, 0.2525, 0.0625, 0.315, 0.1275, 0.3775, 0.19, 0, 0.2525, 0.0625, 0.315, 0.1275, 0.3775, 0.19, 0, 0.2525, 0.0625, 0.315, 0.1275, 0.3775, 0.19],
  "SoftwareVersions": "syngo MR E11",
  "SpacingBetweenSlices": 2.7,
  "StationName": "AWP66112",
  "TaskName": "social",
  "TotalReadoutTime": 0.03969,
  "TxRefAmp": 242.545,
  "WipMemBlock": "bc3219e1-0e6f-4d3d-927a-81db11a5d1b1||Sequence: R016 ve11c/master r/e634e98; Dec 19 2017 11:00:25 by eja",
  "dcmmeta_affine": [
    [-2.6760783195495605, -0.040637675672769547, 0.1884072870016098, 113.90576934814453],
    [-0.06515747308731079, 2.658635139465332, -0.35652849078178406, -80.09992980957031],
    [0.1801547259092331, 0.3579164147377014, 2.669717311859131, -76.44572448730469],
    [0.0, 0.0, 0.0, 1.0]
],
  "dcmmeta_reorient_transform": [
    [0.0, -1.0, 0.0, 81.0],
    [1.0, 0.0, 0.0, 0.0],
    [0.0, 0.0, 1.0, 0.0],
    [0.0, 0.0, 0.0, 1.0]
],
  "dcmmeta_shape": [82, 82, 56, 872],
  "dcmmeta_slice_dim": 2,
  "dcmmeta_version": 0.6,
  "global": {
    "const": {
      "AccessionNumber": "A003464",
      "AcquisitionMatrix": [82, 0, 0, 82],
      "AngioFlag": "N",
      "BitsAllocated": 16,
      "BitsStored": 16,
      "BodyPartExamined": "BRAIN",
      "Columns": 656,
      "EchoNumbers": 1,
      "EchoTime": 27.2,
      "EchoTrainLength": 82,
      "FlipAngle": 44.0,
      "HighBit": 15,
      "ImageOrientationPatient": [0.99744737205083, 0.02428596589306, 0.06714858039844, -0.0151467703101, 0.99094582404402, -0.1334052066409],
      "ImagePositionPatient": [-866.98559912583, -916.97801873813, 3.5631071111406],
      "ImageType": [
        "ORIGINAL",
        "PRIMARY",
        "M",
        "MB",
        "ND",
        "NORM",
        "MOSAIC"
],
      "ImagedNucleus": "1H",
      "ImagingFrequency": 123.252142,
      "InPlanePhaseEncodingDirection": "COL",
      "MRAcquisitionType": "2D",
      "MagneticFieldStrength": 3.0,
      "Manufacturer": "SIEMENS",
      "ManufacturerModelName": "Prisma",
      "Modality": "MR",
      "NumberOfAverages": 1.0,
      "NumberOfPhaseEncodingSteps": 82,
      "PercentPhaseFieldOfView": 100.0,
      "PercentSampling": 100.0,
      "PerformedProcedureStepStartTime": "091710.408000",
      "PhotometricInterpretation": "MONOCHROME2",
      "PixelBandwidth": 3050.0,
      "PixelRepresentation": 0,
      "PixelSpacing": [2.6829268932343, 2.6829268932343],
      "ProtocolName": "func_run-06_task-social_acq-ap-mb8",
      "RepetitionTime": 460.0,
      "Rows": 656,
      "SAR": 0.09929634245144,
      "SamplesPerPixel": 1,
      "ScanOptions": "FS",
      "ScanningSequence": "EP",
      "SequenceName": "epfid2d1_82",
      "SequenceVariant": [
        "SK",
        "SS"
],
      "SeriesDescription": "func_run-06_task-social_acq-ap-mb8",
      "SeriesNumber": 22,
      "SeriesTime": "104952.034000",
      "SliceLocation": -57.062921404278,
      "SliceThickness": 2.7000000476837,
      "SmallestImagePixelValue": 0,
      "SoftwareVersions": "syngo MR E11",
      "SpacingBetweenSlices": 2.6999999626658,
      "SpecificCharacterSet": "ISO_IR 100",
      "StudyID": "1",
      "StudyTime": "091710.308000",
      "TransmitCoilName": "Body",
      "VariableFlipAngleFlag": "N",
      "WindowCenterWidthExplanation": "Algo1",
      "dBdt": 0.0},
    "slices": {}
  },
  "time": {
    "samples": {
      "AcquisitionNumber": [1, 2, 3, 4, 5, 6, 7, 8, 9, 10, 11, 12, 13, 14, 15, 16, 17, 18, 19, 20, 21, 22, 23, 24, 25, 26, 27, 28, 29, 30, 31, 32, 33, 34, 35, 36, 37, 38, 39, 40, 41, 42, 43, 44, 45, 46, 47, 48, 49, 50, 51, 52, 53, 54, 55, 56, 57, 58, 59, 60, 61, 62, 63, 64, 65, 66, 67, 68, 69, 70, 71, 72, 73, 74, 75, 76, 77, 78, 79, 80, 81, 82, 83, 84, 85, 86, 87, 88, 89, 90, 91, 92, 93, 94, 95, 96, 97, 98, 99, 100, 101, 102, 103, 104, 105, 106, 107, 108, 109, 110, 111, 112, 113, 114, 115, 116, 117, 118, 119, 120, 121, 122, 123, 124, 125, 126, 127, 128, 129, 130, 131, 132, 133, 134, 135, 136, 137, 138, 139, 140, 141, 142, 143, 144, 145, 146, 147, 148, 149, 150, 151, 152, 153, 154, 155, 156, 157, 158, 159, 160, 161, 162, 163, 164, 165, 166, 167, 168, 169, 170, 171, 172, 173, 174, 175, 176, 177, 178, 179, 180, 181, 182, 183, 184, 185, 186, 187, 188, 189, 190, 191, 192, 193, 194, 195, 196, 197, 198, 199, 200, 201, 202, 203, 204, 205, 206, 207, 208, 209, 210, 211, 212, 213, 214, 215, 216, 217, 218, 219, 220, 221, 222, 223, 224, 225, 226, 227, 228, 229, 230, 231, 232, 233, 234, 235, 236, 237, 238, 239, 240, 241, 242, 243, 244, 245, 246, 247, 248, 249, 250, 251, 252, 253, 254, 255, 256, 257, 258, 259, 260, 261, 262, 263, 264, 265, 266, 267, 268, 269, 270, 271, 272, 273, 274, 275, 276, 277, 278, 279, 280, 281, 282, 283, 284, 285, 286, 287, 288, 289, 290, 291, 292, 293, 294, 295, 296, 297, 298, 299, 300, 301, 302, 303, 304, 305, 306, 307, 308, 309, 310, 311, 312, 313, 314, 315, 316, 317, 318, 319, 320, 321, 322, 323, 324, 325, 326, 327, 328, 329, 330, 331, 332, 333, 334, 335, 336, 337, 338, 339, 340, 341, 342, 343, 344, 345, 346, 347, 348, 349, 350, 351, 352, 353, 354, 355, 356, 357, 358, 359, 360, 361, 362, 363, 364, 365, 366, 367, 368, 369, 370, 371, 372, 373, 374, 375, 376, 377, 378, 379, 380, 381, 382, 383, 384, 385, 386, 387, 388, 389, 390, 391, 392, 393, 394, 395, 396, 397, 398, 399, 400, 401, 402, 403, 404, 405, 406, 407, 408, 409, 410, 411, 412, 413, 414, 415, 416, 417, 418, 419, 420, 421, 422, 423, 424, 425, 426, 427, 428, 429, 430, 431, 432, 433, 434, 435, 436, 437, 438, 439, 440, 441, 442, 443, 444, 445, 446, 447, 448, 449, 450, 451, 452, 453, 454, 455, 456, 457, 458, 459, 460, 461, 462, 463, 464, 465, 466, 467, 468, 469, 470, 471, 472, 473, 474, 475, 476, 477, 478, 479, 480, 481, 482, 483, 484, 485, 486, 487, 488, 489, 490, 491, 492, 493, 494, 495, 496, 497, 498, 499, 500, 501, 502, 503, 504, 505, 506, 507, 508, 509, 510, 511, 512, 513, 514, 515, 516, 517, 518, 519, 520, 521, 522, 523, 524, 525, 526, 527, 528, 529, 530, 531, 532, 533, 534, 535, 536, 537, 538, 539, 540, 541, 542, 543, 544, 545, 546, 547, 548, 549, 550, 551, 552, 553, 554, 555, 556, 557, 558, 559, 560, 561, 562, 563, 564, 565, 566, 567, 568, 569, 570, 571, 572, 573, 574, 575, 576, 577, 578, 579, 580, 581, 582, 583, 584, 585, 586, 587, 588, 589, 590, 591, 592, 593, 594, 595, 596, 597, 598, 599, 600, 601, 602, 603, 604, 605, 606, 607, 608, 609, 610, 611, 612, 613, 614, 615, 616, 617, 618, 619, 620, 621, 622, 623, 624, 625, 626, 627, 628, 629, 630, 631, 632, 633, 634, 635, 636, 637, 638, 639, 640, 641, 642, 643, 644, 645, 646, 647, 648, 649, 650, 651, 652, 653, 654, 655, 656, 657, 658, 659, 660, 661, 662, 663, 664, 665, 666, 667, 668, 669, 670, 671, 672, 673, 674, 675, 676, 677, 678, 679, 680, 681, 682, 683, 684, 685, 686, 687, 688, 689, 690, 691, 692, 693, 694, 695, 696, 697, 698, 699, 700, 701, 702, 703, 704, 705, 706, 707, 708, 709, 710, 711, 712, 713, 714, 715, 716, 717, 718, 719, 720, 721, 722, 723, 724, 725, 726, 727, 728, 729, 730, 731, 732, 733, 734, 735, 736, 737, 738, 739, 740, 741, 742, 743, 744, 745, 746, 747, 748, 749, 750, 751, 752, 753, 754, 755, 756, 757, 758, 759, 760, 761, 762, 763, 764, 765, 766, 767, 768, 769, 770, 771, 772, 773, 774, 775, 776, 777, 778, 779, 780, 781, 782, 783, 784, 785, 786, 787, 788, 789, 790, 791, 792, 793, 794, 795, 796, 797, 798, 799, 800, 801, 802, 803, 804, 805, 806, 807, 808, 809, 810, 811, 812, 813, 814, 815, 816, 817, 818, 819, 820, 821, 822, 823, 824, 825, 826, 827, 828, 829, 830, 831, 832, 833, 834, 835, 836, 837, 838, 839, 840, 841, 842, 843, 844, 845, 846, 847, 848, 849, 850, 851, 852, 853, 854, 855, 856, 857, 858, 859, 860, 861, 862, 863, 864, 865, 866, 867, 868, 869, 870, 871, 872],
      "AcquisitionTime": ["104922.802500", "104923.262500", "104923.722500", "104924.182500", "104924.642500", "104925.102500", "104925.562500", "104926.022500", "104926.482500", "104926.942500", "104927.402500", "104927.862500", "104928.322500", "104928.782500", "104929.242500", "104929.702500", "104930.162500", "104930.622500", "104931.082500", "104931.542500", "104932.002500", "104932.462500", "104932.922500", "104933.382500", "104933.842500", "104934.302500", "104934.762500", "104935.222500", "104935.682500", "104936.142500", "104936.602500", "104937.062500", "104937.522500", "104937.982500", "104938.442500", "104938.902500", "104939.362500", "104939.822500", "104940.282500", "104940.742500", "104941.202500", "104941.662500", "104942.122500", "104942.582500", "104943.042500", "104943.502500", "104943.962500", "104944.422500", "104944.882500", "104945.342500", "104945.802500", "104946.262500", "104946.722500", "104947.182500", "104947.642500", "104948.102500", "104948.562500", "104949.022500", "104949.482500", "104949.942500", "104950.402500", "104950.862500", "104951.322500", "104951.782500", "104952.242500", "104952.702500", "104953.162500", "104953.622500", "104954.082500", "104954.542500", "104955.002500", "104955.462500", "104955.922500", "104956.382500", "104956.842500", "104957.302500", "104957.762500", "104958.222500", "104958.682500", "104959.142500", "104959.602500", "105000.062500", "105000.522500", "105000.982500", "105001.442500", "105001.902500", "105002.362500", "105002.822500", "105003.282500", "105003.742500", "105004.202500", "105004.662500", "105005.122500", "105005.582500", "105006.042500", "105006.502500", "105006.962500", "105007.422500", "105007.882500", "105008.342500", "105008.802500", "105009.262500", "105009.722500", "105010.182500", "105010.642500", "105011.102500", "105011.562500", "105012.022500", "105012.482500", "105012.942500", "105013.402500", "105013.862500", "105014.322500", "105014.782500", "105015.242500", "105015.702500", "105016.162500", "105016.622500", "105017.082500", "105017.542500", "105018.002500", "105018.462500", "105018.922500", "105019.382500", "105019.842500", "105020.302500", "105020.762500", "105021.222500", "105021.682500", "105022.142500", "105022.602500", "105023.062500", "105023.522500", "105023.982500", "105024.442500", "105024.902500", "105025.362500", "105025.822500", "105026.282500", "105026.742500", "105027.202500", "105027.662500", "105028.122500", "105028.582500", "105029.042500", "105029.502500", "105029.962500", "105030.422500", "105030.882500", "105031.342500", "105031.802500", "105032.262500", "105032.722500", "105033.182500", "105033.642500", "105034.102500", "105034.562500", "105035.022500", "105035.482500", "105035.942500", "105036.402500", "105036.862500", "105037.322500", "105037.782500", "105038.242500", "105038.702500", "105039.162500", "105039.622500", "105040.082500", "105040.542500", "105041.002500", "105041.462500", "105041.922500", "105042.382500", "105042.842500", "105043.302500", "105043.762500", "105044.222500", "105044.682500", "105045.142500", "105045.602500", "105046.062500", "105046.522500", "105046.982500", "105047.442500", "105047.902500", "105048.362500", "105048.822500", "105049.282500", "105049.742500", "105050.202500", "105050.662500", "105051.122500", "105051.582500", "105052.042500", "105052.502500", "105052.962500", "105053.422500", "105053.882500", "105054.342500", "105054.802500", "105055.262500", "105055.722500", "105056.182500", "105056.642500", "105057.102500", "105057.562500", "105058.022500", "105058.482500", "105058.942500", "105059.402500", "105059.862500", "105100.322500", "105100.782500", "105101.242500", "105101.702500", "105102.162500", "105102.622500", "105103.082500", "105103.542500", "105104.002500", "105104.462500", "105104.922500", "105105.382500", "105105.842500", "105106.302500", "105106.762500", "105107.222500", "105107.682500", "105108.142500", "105108.602500", "105109.062500", "105109.522500", "105109.982500", "105110.442500", "105110.902500", "105111.362500", "105111.822500", "105112.282500", "105112.742500", "105113.202500", "105113.662500", "105114.122500", "105114.582500", "105115.042500", "105115.502500", "105115.962500", "105116.422500", "105116.882500", "105117.342500", "105117.802500", "105118.262500", "105118.722500", "105119.182500", "105119.642500", "105120.102500", "105120.562500", "105121.022500", "105121.482500", "105121.942500", "105122.402500", "105122.862500", "105123.322500", "105123.782500", "105124.242500", "105124.702500", "105125.162500", "105125.622500", "105126.082500", "105126.542500", "105127.002500", "105127.462500", "105127.922500", "105128.382500", "105128.842500", "105129.302500", "105129.762500", "105130.222500", "105130.682500", "105131.142500", "105131.602500", "105132.062500", "105132.522500", "105132.982500", "105133.442500", "105133.902500", "105134.362500", "105134.822500", "105135.282500", "105135.742500", "105136.202500", "105136.662500", "105137.122500", "105137.582500", "105138.042500", "105138.502500", "105138.962500", "105139.422500", "105139.882500", "105140.342500", "105140.802500", "105141.262500", "105141.722500", "105142.182500", "105142.642500", "105143.102500", "105143.562500", "105144.022500", "105144.482500", "105144.942500", "105145.402500", "105145.862500", "105146.322500", "105146.782500", "105147.242500", "105147.702500", "105148.162500", "105148.622500", "105149.082500", "105149.542500", "105150.002500", "105150.462500", "105150.922500", "105151.382500", "105151.842500", "105152.302500", "105152.762500", "105153.222500", "105153.682500", "105154.142500", "105154.602500", "105155.062500", "105155.522500", "105155.982500", "105156.442500", "105156.902500", "105157.362500", "105157.822500", "105158.282500", "105158.742500", "105159.202500", "105159.662500", "105200.122500", "105200.582500", "105201.042500", "105201.502500", "105201.962500", "105202.422500", "105202.882500", "105203.342500", "105203.802500", "105204.262500", "105204.722500", "105205.182500", "105205.642500", "105206.102500", "105206.562500", "105207.022500", "105207.482500", "105207.942500", "105208.402500", "105208.862500", "105209.322500", "105209.782500", "105210.242500", "105210.702500", "105211.162500", "105211.622500", "105212.082500", "105212.542500", "105213.002500", "105213.462500", "105213.922500", "105214.382500", "105214.842500", "105215.302500", "105215.762500", "105216.222500", "105216.682500", "105217.142500", "105217.602500", "105218.062500", "105218.522500", "105218.982500", "105219.442500", "105219.902500", "105220.362500", "105220.822500", "105221.282500", "105221.742500", "105222.202500", "105222.662500", "105223.122500", "105223.582500", "105224.042500", "105224.502500", "105224.962500", "105225.422500", "105225.882500", "105226.342500", "105226.802500", "105227.262500", "105227.722500", "105228.182500", "105228.642500", "105229.102500", "105229.562500", "105230.022500", "105230.482500", "105230.942500", "105231.402500", "105231.862500", "105232.322500", "105232.782500", "105233.242500", "105233.702500", "105234.162500", "105234.622500", "105235.082500", "105235.542500", "105236.002500", "105236.462500", "105236.922500", "105237.382500", "105237.842500", "105238.302500", "105238.762500", "105239.222500", "105239.682500", "105240.142500", "105240.602500", "105241.062500", "105241.522500", "105241.982500", "105242.442500", "105242.902500", "105243.362500", "105243.822500", "105244.282500", "105244.742500", "105245.202500", "105245.662500", "105246.122500", "105246.582500", "105247.042500", "105247.502500", "105247.962500", "105248.422500", "105248.882500", "105249.342500", "105249.802500", "105250.262500", "105250.722500", "105251.182500", "105251.642500", "105252.102500", "105252.562500", "105253.022500", "105253.482500", "105253.942500", "105254.402500", "105254.862500", "105255.322500", "105255.782500", "105256.242500", "105256.702500", "105257.162500", "105257.622500", "105258.082500", "105258.542500", "105259.002500", "105259.462500", "105259.922500", "105300.382500", "105300.842500", "105301.302500", "105301.762500", "105302.222500", "105302.682500", "105303.142500", "105303.602500", "105304.062500", "105304.522500", "105304.982500", "105305.442500", "105305.902500", "105306.362500", "105306.822500", "105307.282500", "105307.742500", "105308.202500", "105308.662500", "105309.122500", "105309.582500", "105310.042500", "105310.502500", "105310.962500", "105311.422500", "105311.882500", "105312.342500", "105312.802500", "105313.262500", "105313.722500", "105314.182500", "105314.642500", "105315.102500", "105315.562500", "105316.022500", "105316.482500", "105316.942500", "105317.402500", "105317.862500", "105318.322500", "105318.782500", "105319.242500", "105319.702500", "105320.162500", "105320.622500", "105321.082500", "105321.542500", "105322.002500", "105322.462500", "105322.922500", "105323.382500", "105323.842500", "105324.302500", "105324.762500", "105325.222500", "105325.682500", "105326.142500", "105326.602500", "105327.062500", "105327.522500", "105327.982500", "105328.442500", "105328.902500", "105329.362500", "105329.822500", "105330.282500", "105330.742500", "105331.202500", "105331.662500", "105332.122500", "105332.582500", "105333.042500", "105333.502500", "105333.962500", "105334.422500", "105334.882500", "105335.342500", "105335.802500", "105336.262500", "105336.722500", "105337.182500", "105337.642500", "105338.102500", "105338.562500", "105339.022500", "105339.482500", "105339.942500", "105340.402500", "105340.862500", "105341.322500", "105341.782500", "105342.242500", "105342.702500", "105343.162500", "105343.622500", "105344.082500", "105344.542500", "105345.002500", "105345.462500", "105345.922500", "105346.382500", "105346.842500", "105347.302500", "105347.762500", "105348.222500", "105348.682500", "105349.142500", "105349.602500", "105350.062500", "105350.522500", "105350.982500", "105351.442500", "105351.902500", "105352.362500", "105352.822500", "105353.282500", "105353.742500", "105354.202500", "105354.662500", "105355.122500", "105355.582500", "105356.042500", "105356.502500", "105356.962500", "105357.422500", "105357.882500", "105358.342500", "105358.802500", "105359.262500", "105359.722500", "105400.182500", "105400.642500", "105401.102500", "105401.562500", "105402.022500", "105402.482500", "105402.942500", "105403.402500", "105403.862500", "105404.322500", "105404.782500", "105405.242500", "105405.702500", "105406.162500", "105406.622500", "105407.082500", "105407.542500", "105408.002500", "105408.462500", "105408.922500", "105409.382500", "105409.842500", "105410.302500", "105410.762500", "105411.222500", "105411.682500", "105412.142500", "105412.602500", "105413.062500", "105413.522500", "105413.982500", "105414.442500", "105414.902500", "105415.362500", "105415.822500", "105416.282500", "105416.742500", "105417.202500", "105417.662500", "105418.122500", "105418.582500", "105419.042500", "105419.502500", "105419.962500", "105420.422500", "105420.882500", "105421.342500", "105421.802500", "105422.262500", "105422.722500", "105423.182500", "105423.642500", "105424.102500", "105424.562500", "105425.022500", "105425.482500", "105425.942500", "105426.402500", "105426.862500", "105427.322500", "105427.782500", "105428.242500", "105428.702500", "105429.162500", "105429.622500", "105430.082500", "105430.542500", "105431.002500", "105431.462500", "105431.922500", "105432.382500", "105432.842500", "105433.302500", "105433.762500", "105434.222500", "105434.682500", "105435.142500", "105435.602500", "105436.062500", "105436.522500", "105436.982500", "105437.442500", "105437.902500", "105438.362500", "105438.822500", "105439.282500", "105439.742500", "105440.202500", "105440.662500", "105441.122500", "105441.582500", "105442.042500", "105442.502500", "105442.962500", "105443.422500", "105443.882500", "105444.342500", "105444.802500", "105445.262500", "105445.722500", "105446.182500", "105446.642500", "105447.102500", "105447.562500", "105448.022500", "105448.482500", "105448.942500", "105449.402500", "105449.862500", "105450.322500", "105450.782500", "105451.242500", "105451.702500", "105452.162500", "105452.622500", "105453.082500", "105453.542500", "105454.002500", "105454.462500", "105454.922500", "105455.382500", "105455.842500", "105456.302500", "105456.762500", "105457.222500", "105457.682500", "105458.142500", "105458.602500", "105459.062500", "105459.522500", "105459.982500", "105500.442500", "105500.902500", "105501.362500", "105501.822500", "105502.282500", "105502.742500", "105503.202500", "105503.662500", "105504.122500", "105504.582500", "105505.042500", "105505.502500", "105505.962500", "105506.422500", "105506.882500", "105507.342500", "105507.802500", "105508.262500", "105508.722500", "105509.182500", "105509.642500", "105510.102500", "105510.562500", "105511.022500", "105511.482500", "105511.942500", "105512.402500", "105512.862500", "105513.322500", "105513.782500", "105514.242500", "105514.702500", "105515.162500", "105515.622500", "105516.082500", "105516.542500", "105517.002500", "105517.462500", "105517.922500", "105518.382500", "105518.842500", "105519.302500", "105519.762500", "105520.222500", "105520.682500", "105521.142500", "105521.602500", "105522.062500", "105522.522500", "105522.982500", "105523.442500", "105523.902500", "105524.362500", "105524.822500", "105525.282500", "105525.742500", "105526.202500", "105526.662500", "105527.122500", "105527.582500", "105528.042500", "105528.502500", "105528.962500", "105529.422500", "105529.882500", "105530.342500", "105530.802500", "105531.262500", "105531.722500", "105532.182500", "105532.642500", "105533.102500", "105533.562500", "105534.022500", "105534.482500", "105534.942500", "105535.402500", "105535.862500", "105536.322500", "105536.782500", "105537.242500", "105537.702500", "105538.162500", "105538.622500", "105539.082500", "105539.542500", "105540.002500", "105540.462500", "105540.922500", "105541.382500", "105541.842500", "105542.302500", "105542.762500", "105543.222500", "105543.682500", "105544.142500", "105544.602500", "105545.062500", "105545.522500", "105545.982500", "105546.442500", "105546.902500", "105547.362500", "105547.822500", "105548.282500", "105548.742500", "105549.202500", "105549.662500", "105550.122500", "105550.582500", "105551.042500", "105551.502500", "105551.962500", "105552.422500", "105552.882500", "105553.342500", "105553.802500", "105554.262500", "105554.722500", "105555.182500", "105555.642500", "105556.102500", "105556.562500", "105557.022500", "105557.482500", "105557.942500", "105558.402500", "105558.862500", "105559.322500", "105559.782500", "105600.242500", "105600.702500", "105601.162500", "105601.622500", "105602.082500", "105602.542500", "105603.002500", "105603.462500"],
