{
  "AcquisitionMatrixPE": 82,
  "AcquisitionNumber": 1,
  "AcquisitionTime": "10:26:29.992500",
  "BandwidthPerPixelPhaseEncode": 24.888,
  "BaseResolution": 82,
  "BodyPartExamined": "BRAIN",
  "ConsistencyInfo": "N4_VE11C_LATEST_20160120",
  "ConversionSoftware": "dcm2niix",
  "ConversionSoftwareVersion": "v1.0.20201102",
  "DerivedVendorReportedEchoSpacing": 0.00049,
  "DeviceSerialNumber": "66112",
  "DwellTime": 2e-06,
  "EchoTime": 0.0272,
  "EchoTrainLength": 82,
  "EffectiveEchoSpacing": 0.00049,
  "FlipAngle": 44,
  "ImageComments": "Unaliased MB8/PE3",
  "ImageOrientationPatientDICOM": [0.997447, 0.024286, 0.0671486, -0.0151468, 0.990946, -0.133405],
  "ImageType": [
    "ORIGINAL",
    "PRIMARY",
    "M",
    "MB",
    "ND",
    "NORM",
    "MOSAIC"
],
  "ImagingFrequency": 123.252,
  "InPlanePhaseEncodingDirectionDICOM": "COL",
  "InstitutionAddress": "Maynard 3,Hanover,NH,US,03755",
  "InstitutionName": "Dartmouth College - PBS",
  "InstitutionalDepartmentName": "Department",
  "MRAcquisitionType": "2D",
  "MagneticFieldStrength": 3,
  "Manufacturer": "Siemens",
  "ManufacturersModelName": "Prisma",
  "Modality": "MR",
  "MultibandAccelerationFactor": 8,
  "PartialFourier": 1,
  "PatientPosition": "HFS",
  "PercentPhaseFOV": 100,
  "PercentSampling": 100,
  "PhaseEncodingDirection": "j-",
  "PhaseEncodingSteps": 82,
  "PhaseResolution": 1,
  "PixelBandwidth": 3050,
  "ProcedureStepDescription": "Wager_Wager^1076_spacetop",
  "ProtocolName": "func_run-03_task-social_acq-ap-mb8",
  "PulseSequenceDetails": "%CustomerSeq%\\cmrr_mbep2d_bold",
  "ReceiveCoilActiveElements": "HEA;HEP",
  "ReceiveCoilName": "Head_32",
  "ReconMatrixPE": 82,
  "RepetitionTime": 0.46,
  "SAR": 0.0992963,
  "ScanOptions": "FS",
  "ScanningSequence": "EP",
  "SequenceName": "epfid2d1_82",
  "SequenceVariant": "SK\\SS",
  "SeriesDescription": "func_run-03_task-social_acq-ap-mb8",
  "SeriesNumber": 16,
  "ShimSetting": [4155, -7675, -7264, 550, 2, 0, -88, 57],
  "SliceThickness": 2.7,
  "SliceTiming": [0, 0.2525, 0.0625, 0.315, 0.125, 0.3775, 0.1875, 0, 0.2525, 0.0625, 0.315, 0.125, 0.3775, 0.1875, 0, 0.2525, 0.0625, 0.315, 0.125, 0.3775, 0.1875, 0, 0.2525, 0.0625, 0.315, 0.125, 0.3775, 0.1875, 0, 0.2525, 0.0625, 0.315, 0.125, 0.3775, 0.1875, 0, 0.2525, 0.0625, 0.315, 0.125, 0.3775, 0.1875, 0, 0.2525, 0.0625, 0.315, 0.125, 0.3775, 0.1875, 0, 0.2525, 0.0625, 0.315, 0.125, 0.3775, 0.1875],
  "SoftwareVersions": "syngo MR E11",
  "SpacingBetweenSlices": 2.7,
  "StationName": "AWP66112",
  "TaskName": "social",
  "TotalReadoutTime": 0.03969,
  "TxRefAmp": 242.545,
  "WipMemBlock": "1713a24e-410f-41cf-8606-0cb34ec48b9f||Sequence: R016 ve11c/master r/e634e98; Dec 19 2017 11:00:25 by eja",
  "dcmmeta_affine": [
    [-2.6760783195495605, -0.040637675672769547, 0.1884072870016098, 113.90576934814453],
    [-0.06515747308731079, 2.658635139465332, -0.35652849078178406, -80.09992980957031],
    [0.1801547259092331, 0.3579164147377014, 2.669717311859131, -76.44572448730469],
    [0.0, 0.0, 0.0, 1.0]
],
  "dcmmeta_reorient_transform": [
    [0.0, -1.0, 0.0, 81.0],
    [1.0, 0.0, 0.0, 0.0],
    [0.0, 0.0, 1.0, 0.0],
    [0.0, 0.0, 0.0, 1.0]
],
  "dcmmeta_shape": [82, 82, 56, 872],
  "dcmmeta_slice_dim": 2,
  "dcmmeta_version": 0.6,
  "global": {
    "const": {
      "AccessionNumber": "A003464",
      "AcquisitionMatrix": [82, 0, 0, 82],
      "AngioFlag": "N",
      "BitsAllocated": 16,
      "BitsStored": 16,
      "BodyPartExamined": "BRAIN",
      "Columns": 656,
      "EchoNumbers": 1,
      "EchoTime": 27.2,
      "EchoTrainLength": 82,
      "FlipAngle": 44.0,
      "HighBit": 15,
      "ImageOrientationPatient": [0.99744737205083, 0.02428596589306, 0.06714858039844, -0.0151467703101, 0.99094582404402, -0.1334052066409],
      "ImagePositionPatient": [-866.98559912583, -916.97801873813, 3.5631071111406],
      "ImageType": [
        "ORIGINAL",
        "PRIMARY",
        "M",
        "MB",
        "ND",
        "NORM",
        "MOSAIC"
],
      "ImagedNucleus": "1H",
      "ImagingFrequency": 123.252148,
      "InPlanePhaseEncodingDirection": "COL",
      "MRAcquisitionType": "2D",
      "MagneticFieldStrength": 3.0,
      "Manufacturer": "SIEMENS",
      "ManufacturerModelName": "Prisma",
      "Modality": "MR",
      "NumberOfAverages": 1.0,
      "NumberOfPhaseEncodingSteps": 82,
      "PercentPhaseFieldOfView": 100.0,
      "PercentSampling": 100.0,
      "PerformedProcedureStepStartTime": "091710.408000",
      "PhotometricInterpretation": "MONOCHROME2",
      "PixelBandwidth": 3050.0,
      "PixelRepresentation": 0,
      "PixelSpacing": [2.6829268932343, 2.6829268932343],
      "ProtocolName": "func_run-03_task-social_acq-ap-mb8",
      "RepetitionTime": 460.0,
      "Rows": 656,
      "SAR": 0.09929634245144,
      "SamplesPerPixel": 1,
      "ScanOptions": "FS",
      "ScanningSequence": "EP",
      "SequenceName": "epfid2d1_82",
      "SequenceVariant": [
        "SK",
        "SS"
],
      "SeriesDescription": "func_run-03_task-social_acq-ap-mb8",
      "SeriesNumber": 16,
      "SeriesTime": "102652.031000",
      "SliceLocation": -57.062921404278,
      "SliceThickness": 2.7000000476837,
      "SmallestImagePixelValue": 0,
      "SoftwareVersions": "syngo MR E11",
      "SpacingBetweenSlices": 2.6999999626658,
      "SpecificCharacterSet": "ISO_IR 100",
      "StudyID": "1",
      "StudyTime": "091710.308000",
      "TransmitCoilName": "Body",
      "VariableFlipAngleFlag": "N",
      "WindowCenterWidthExplanation": "Algo1",
      "dBdt": 0.0},
    "slices": {}
  },
  "time": {
    "samples": {
      "AcquisitionNumber": [1, 2, 3, 4, 5, 6, 7, 8, 9, 10, 11, 12, 13, 14, 15, 16, 17, 18, 19, 20, 21, 22, 23, 24, 25, 26, 27, 28, 29, 30, 31, 32, 33, 34, 35, 36, 37, 38, 39, 40, 41, 42, 43, 44, 45, 46, 47, 48, 49, 50, 51, 52, 53, 54, 55, 56, 57, 58, 59, 60, 61, 62, 63, 64, 65, 66, 67, 68, 69, 70, 71, 72, 73, 74, 75, 76, 77, 78, 79, 80, 81, 82, 83, 84, 85, 86, 87, 88, 89, 90, 91, 92, 93, 94, 95, 96, 97, 98, 99, 100, 101, 102, 103, 104, 105, 106, 107, 108, 109, 110, 111, 112, 113, 114, 115, 116, 117, 118, 119, 120, 121, 122, 123, 124, 125, 126, 127, 128, 129, 130, 131, 132, 133, 134, 135, 136, 137, 138, 139, 140, 141, 142, 143, 144, 145, 146, 147, 148, 149, 150, 151, 152, 153, 154, 155, 156, 157, 158, 159, 160, 161, 162, 163, 164, 165, 166, 167, 168, 169, 170, 171, 172, 173, 174, 175, 176, 177, 178, 179, 180, 181, 182, 183, 184, 185, 186, 187, 188, 189, 190, 191, 192, 193, 194, 195, 196, 197, 198, 199, 200, 201, 202, 203, 204, 205, 206, 207, 208, 209, 210, 211, 212, 213, 214, 215, 216, 217, 218, 219, 220, 221, 222, 223, 224, 225, 226, 227, 228, 229, 230, 231, 232, 233, 234, 235, 236, 237, 238, 239, 240, 241, 242, 243, 244, 245, 246, 247, 248, 249, 250, 251, 252, 253, 254, 255, 256, 257, 258, 259, 260, 261, 262, 263, 264, 265, 266, 267, 268, 269, 270, 271, 272, 273, 274, 275, 276, 277, 278, 279, 280, 281, 282, 283, 284, 285, 286, 287, 288, 289, 290, 291, 292, 293, 294, 295, 296, 297, 298, 299, 300, 301, 302, 303, 304, 305, 306, 307, 308, 309, 310, 311, 312, 313, 314, 315, 316, 317, 318, 319, 320, 321, 322, 323, 324, 325, 326, 327, 328, 329, 330, 331, 332, 333, 334, 335, 336, 337, 338, 339, 340, 341, 342, 343, 344, 345, 346, 347, 348, 349, 350, 351, 352, 353, 354, 355, 356, 357, 358, 359, 360, 361, 362, 363, 364, 365, 366, 367, 368, 369, 370, 371, 372, 373, 374, 375, 376, 377, 378, 379, 380, 381, 382, 383, 384, 385, 386, 387, 388, 389, 390, 391, 392, 393, 394, 395, 396, 397, 398, 399, 400, 401, 402, 403, 404, 405, 406, 407, 408, 409, 410, 411, 412, 413, 414, 415, 416, 417, 418, 419, 420, 421, 422, 423, 424, 425, 426, 427, 428, 429, 430, 431, 432, 433, 434, 435, 436, 437, 438, 439, 440, 441, 442, 443, 444, 445, 446, 447, 448, 449, 450, 451, 452, 453, 454, 455, 456, 457, 458, 459, 460, 461, 462, 463, 464, 465, 466, 467, 468, 469, 470, 471, 472, 473, 474, 475, 476, 477, 478, 479, 480, 481, 482, 483, 484, 485, 486, 487, 488, 489, 490, 491, 492, 493, 494, 495, 496, 497, 498, 499, 500, 501, 502, 503, 504, 505, 506, 507, 508, 509, 510, 511, 512, 513, 514, 515, 516, 517, 518, 519, 520, 521, 522, 523, 524, 525, 526, 527, 528, 529, 530, 531, 532, 533, 534, 535, 536, 537, 538, 539, 540, 541, 542, 543, 544, 545, 546, 547, 548, 549, 550, 551, 552, 553, 554, 555, 556, 557, 558, 559, 560, 561, 562, 563, 564, 565, 566, 567, 568, 569, 570, 571, 572, 573, 574, 575, 576, 577, 578, 579, 580, 581, 582, 583, 584, 585, 586, 587, 588, 589, 590, 591, 592, 593, 594, 595, 596, 597, 598, 599, 600, 601, 602, 603, 604, 605, 606, 607, 608, 609, 610, 611, 612, 613, 614, 615, 616, 617, 618, 619, 620, 621, 622, 623, 624, 625, 626, 627, 628, 629, 630, 631, 632, 633, 634, 635, 636, 637, 638, 639, 640, 641, 642, 643, 644, 645, 646, 647, 648, 649, 650, 651, 652, 653, 654, 655, 656, 657, 658, 659, 660, 661, 662, 663, 664, 665, 666, 667, 668, 669, 670, 671, 672, 673, 674, 675, 676, 677, 678, 679, 680, 681, 682, 683, 684, 685, 686, 687, 688, 689, 690, 691, 692, 693, 694, 695, 696, 697, 698, 699, 700, 701, 702, 703, 704, 705, 706, 707, 708, 709, 710, 711, 712, 713, 714, 715, 716, 717, 718, 719, 720, 721, 722, 723, 724, 725, 726, 727, 728, 729, 730, 731, 732, 733, 734, 735, 736, 737, 738, 739, 740, 741, 742, 743, 744, 745, 746, 747, 748, 749, 750, 751, 752, 753, 754, 755, 756, 757, 758, 759, 760, 761, 762, 763, 764, 765, 766, 767, 768, 769, 770, 771, 772, 773, 774, 775, 776, 777, 778, 779, 780, 781, 782, 783, 784, 785, 786, 787, 788, 789, 790, 791, 792, 793, 794, 795, 796, 797, 798, 799, 800, 801, 802, 803, 804, 805, 806, 807, 808, 809, 810, 811, 812, 813, 814, 815, 816, 817, 818, 819, 820, 821, 822, 823, 824, 825, 826, 827, 828, 829, 830, 831, 832, 833, 834, 835, 836, 837, 838, 839, 840, 841, 842, 843, 844, 845, 846, 847, 848, 849, 850, 851, 852, 853, 854, 855, 856, 857, 858, 859, 860, 861, 862, 863, 864, 865, 866, 867, 868, 869, 870, 871, 872],
      "AcquisitionTime": ["102629.992500", "102630.452500", "102630.912500", "102631.372500", "102631.832500", "102632.292500", "102632.752500", "102633.212500", "102633.672500", "102634.132500", "102634.592500", "102635.052500", "102635.512500", "102635.972500", "102636.432500", "102636.892500", "102637.352500", "102637.812500", "102638.272500", "102638.732500", "102639.192500", "102639.652500", "102640.112500", "102640.572500", "102641.032500", "102641.492500", "102641.952500", "102642.412500", "102642.872500", "102643.332500", "102643.792500", "102644.252500", "102644.712500", "102645.172500", "102645.632500", "102646.092500", "102646.552500", "102647.012500", "102647.472500", "102647.932500", "102648.392500", "102648.852500", "102649.312500", "102649.772500", "102650.232500", "102650.692500", "102651.152500", "102651.612500", "102652.072500", "102652.532500", "102652.992500", "102653.452500", "102653.912500", "102654.372500", "102654.832500", "102655.292500", "102655.752500", "102656.212500", "102656.672500", "102657.132500", "102657.592500", "102658.052500", "102658.512500", "102658.972500", "102659.432500", "102659.892500", "102700.352500", "102700.812500", "102701.272500", "102701.732500", "102702.192500", "102702.652500", "102703.112500", "102703.572500", "102704.032500", "102704.492500", "102704.952500", "102705.412500", "102705.872500", "102706.332500", "102706.792500", "102707.252500", "102707.712500", "102708.172500", "102708.632500", "102709.092500", "102709.552500", "102710.012500", "102710.472500", "102710.932500", "102711.392500", "102711.852500", "102712.312500", "102712.772500", "102713.232500", "102713.692500", "102714.152500", "102714.612500", "102715.072500", "102715.532500", "102715.992500", "102716.452500", "102716.912500", "102717.372500", "102717.832500", "102718.292500", "102718.752500", "102719.212500", "102719.672500", "102720.132500", "102720.592500", "102721.052500", "102721.512500", "102721.972500", "102722.432500", "102722.892500", "102723.352500", "102723.812500", "102724.272500", "102724.732500", "102725.192500", "102725.652500", "102726.112500", "102726.572500", "102727.032500", "102727.492500", "102727.952500", "102728.412500", "102728.872500", "102729.332500", "102729.792500", "102730.252500", "102730.712500", "102731.172500", "102731.632500", "102732.092500", "102732.552500", "102733.012500", "102733.472500", "102733.932500", "102734.392500", "102734.852500", "102735.312500", "102735.772500", "102736.232500", "102736.692500", "102737.152500", "102737.612500", "102738.072500", "102738.532500", "102738.992500", "102739.452500", "102739.912500", "102740.372500", "102740.832500", "102741.292500", "102741.752500", "102742.212500", "102742.672500", "102743.132500", "102743.592500", "102744.052500", "102744.512500", "102744.972500", "102745.432500", "102745.892500", "102746.352500", "102746.812500", "102747.272500", "102747.732500", "102748.192500", "102748.652500", "102749.112500", "102749.572500", "102750.032500", "102750.492500", "102750.952500", "102751.412500", "102751.872500", "102752.332500", "102752.792500", "102753.252500", "102753.712500", "102754.172500", "102754.632500", "102755.092500", "102755.552500", "102756.012500", "102756.472500", "102756.932500", "102757.392500", "102757.852500", "102758.312500", "102758.772500", "102759.232500", "102759.692500", "102800.152500", "102800.612500", "102801.072500", "102801.532500", "102801.992500", "102802.452500", "102802.912500", "102803.372500", "102803.832500", "102804.292500", "102804.752500", "102805.212500", "102805.672500", "102806.132500", "102806.592500", "102807.052500", "102807.512500", "102807.972500", "102808.432500", "102808.892500", "102809.352500", "102809.812500", "102810.272500", "102810.732500", "102811.192500", "102811.652500", "102812.112500", "102812.572500", "102813.032500", "102813.492500", "102813.952500", "102814.412500", "102814.872500", "102815.332500", "102815.792500", "102816.252500", "102816.712500", "102817.172500", "102817.632500", "102818.092500", "102818.552500", "102819.012500", "102819.472500", "102819.932500", "102820.392500", "102820.852500", "102821.312500", "102821.772500", "102822.232500", "102822.692500", "102823.152500", "102823.612500", "102824.072500", "102824.532500", "102824.992500", "102825.452500", "102825.912500", "102826.372500", "102826.832500", "102827.292500", "102827.752500", "102828.212500", "102828.672500", "102829.132500", "102829.592500", "102830.052500", "102830.512500", "102830.972500", "102831.432500", "102831.892500", "102832.352500", "102832.812500", "102833.272500", "102833.732500", "102834.192500", "102834.652500", "102835.112500", "102835.572500", "102836.032500", "102836.492500", "102836.952500", "102837.412500", "102837.872500", "102838.332500", "102838.792500", "102839.252500", "102839.712500", "102840.172500", "102840.632500", "102841.092500", "102841.552500", "102842.012500", "102842.472500", "102842.932500", "102843.392500", "102843.852500", "102844.312500", "102844.772500", "102845.232500", "102845.692500", "102846.152500", "102846.612500", "102847.072500", "102847.532500", "102847.992500", "102848.452500", "102848.912500", "102849.372500", "102849.832500", "102850.292500", "102850.752500", "102851.212500", "102851.672500", "102852.132500", "102852.592500", "102853.052500", "102853.512500", "102853.972500", "102854.432500", "102854.892500", "102855.352500", "102855.812500", "102856.272500", "102856.732500", "102857.192500", "102857.652500", "102858.112500", "102858.572500", "102859.032500", "102859.492500", "102859.952500", "102900.412500", "102900.872500", "102901.332500", "102901.792500", "102902.252500", "102902.712500", "102903.172500", "102903.632500", "102904.092500", "102904.552500", "102905.012500", "102905.472500", "102905.932500", "102906.392500", "102906.852500", "102907.312500", "102907.772500", "102908.232500", "102908.692500", "102909.152500", "102909.612500", "102910.072500", "102910.532500", "102910.992500", "102911.452500", "102911.912500", "102912.372500", "102912.832500", "102913.292500", "102913.752500", "102914.212500", "102914.672500", "102915.132500", "102915.592500", "102916.052500", "102916.512500", "102916.972500", "102917.432500", "102917.892500", "102918.352500", "102918.812500", "102919.272500", "102919.732500", "102920.192500", "102920.652500", "102921.112500", "102921.572500", "102922.032500", "102922.492500", "102922.952500", "102923.412500", "102923.872500", "102924.332500", "102924.792500", "102925.252500", "102925.712500", "102926.172500", "102926.632500", "102927.092500", "102927.552500", "102928.012500", "102928.472500", "102928.932500", "102929.392500", "102929.852500", "102930.312500", "102930.772500", "102931.232500", "102931.692500", "102932.152500", "102932.612500", "102933.072500", "102933.532500", "102933.992500", "102934.452500", "102934.912500", "102935.372500", "102935.832500", "102936.292500", "102936.752500", "102937.212500", "102937.672500", "102938.132500", "102938.592500", "102939.052500", "102939.512500", "102939.972500", "102940.432500", "102940.892500", "102941.352500", "102941.812500", "102942.272500", "102942.732500", "102943.192500", "102943.652500", "102944.112500", "102944.572500", "102945.032500", "102945.492500", "102945.952500", "102946.412500", "102946.872500", "102947.332500", "102947.792500", "102948.252500", "102948.712500", "102949.172500", "102949.632500", "102950.092500", "102950.552500", "102951.012500", "102951.472500", "102951.932500", "102952.392500", "102952.852500", "102953.312500", "102953.772500", "102954.232500", "102954.692500", "102955.152500", "102955.612500", "102956.072500", "102956.532500", "102956.992500", "102957.452500", "102957.912500", "102958.372500", "102958.832500", "102959.292500", "102959.752500", "103000.212500", "103000.672500", "103001.132500", "103001.592500", "103002.052500", "103002.512500", "103002.972500", "103003.432500", "103003.892500", "103004.352500", "103004.812500", "103005.272500", "103005.732500", "103006.192500", "103006.652500", "103007.112500", "103007.572500", "103008.032500", "103008.492500", "103008.952500", "103009.412500", "103009.872500", "103010.332500", "103010.792500", "103011.252500", "103011.712500", "103012.172500", "103012.632500", "103013.092500", "103013.552500", "103014.012500", "103014.472500", "103014.932500", "103015.392500", "103015.852500", "103016.312500", "103016.772500", "103017.232500", "103017.692500", "103018.152500", "103018.612500", "103019.072500", "103019.532500", "103019.992500", "103020.452500", "103020.912500", "103021.372500", "103021.832500", "103022.292500", "103022.752500", "103023.212500", "103023.672500", "103024.132500", "103024.592500", "103025.052500", "103025.512500", "103025.972500", "103026.432500", "103026.892500", "103027.352500", "103027.812500", "103028.272500", "103028.732500", "103029.192500", "103029.652500", "103030.112500", "103030.572500", "103031.032500", "103031.492500", "103031.952500", "103032.412500", "103032.872500", "103033.332500", "103033.792500", "103034.252500", "103034.712500", "103035.172500", "103035.632500", "103036.092500", "103036.552500", "103037.012500", "103037.472500", "103037.932500", "103038.392500", "103038.852500", "103039.312500", "103039.772500", "103040.232500", "103040.692500", "103041.152500", "103041.612500", "103042.072500", "103042.532500", "103042.992500", "103043.452500", "103043.912500", "103044.372500", "103044.832500", "103045.292500", "103045.752500", "103046.212500", "103046.672500", "103047.132500", "103047.592500", "103048.052500", "103048.512500", "103048.972500", "103049.432500", "103049.892500", "103050.352500", "103050.812500", "103051.272500", "103051.732500", "103052.192500", "103052.652500", "103053.112500", "103053.572500", "103054.032500", "103054.492500", "103054.952500", "103055.412500", "103055.872500", "103056.332500", "103056.792500", "103057.252500", "103057.712500", "103058.172500", "103058.632500", "103059.092500", "103059.552500", "103100.012500", "103100.472500", "103100.932500", "103101.392500", "103101.852500", "103102.312500", "103102.772500", "103103.232500", "103103.692500", "103104.152500", "103104.612500", "103105.072500", "103105.532500", "103105.992500", "103106.452500", "103106.912500", "103107.372500", "103107.832500", "103108.292500", "103108.752500", "103109.212500", "103109.672500", "103110.132500", "103110.592500", "103111.052500", "103111.512500", "103111.972500", "103112.432500", "103112.892500", "103113.352500", "103113.812500", "103114.272500", "103114.732500", "103115.192500", "103115.652500", "103116.112500", "103116.572500", "103117.032500", "103117.492500", "103117.952500", "103118.412500", "103118.872500", "103119.332500", "103119.792500", "103120.252500", "103120.712500", "103121.172500", "103121.632500", "103122.092500", "103122.552500", "103123.012500", "103123.472500", "103123.932500", "103124.392500", "103124.852500", "103125.312500", "103125.772500", "103126.232500", "103126.692500", "103127.152500", "103127.612500", "103128.072500", "103128.532500", "103128.992500", "103129.452500", "103129.912500", "103130.372500", "103130.832500", "103131.292500", "103131.752500", "103132.212500", "103132.672500", "103133.132500", "103133.592500", "103134.052500", "103134.512500", "103134.972500", "103135.432500", "103135.892500", "103136.352500", "103136.812500", "103137.272500", "103137.732500", "103138.192500", "103138.652500", "103139.112500", "103139.572500", "103140.032500", "103140.492500", "103140.952500", "103141.412500", "103141.872500", "103142.332500", "103142.792500", "103143.252500", "103143.712500", "103144.172500", "103144.632500", "103145.092500", "103145.552500", "103146.012500", "103146.472500", "103146.932500", "103147.392500", "103147.852500", "103148.312500", "103148.772500", "103149.232500", "103149.692500", "103150.152500", "103150.612500", "103151.072500", "103151.532500", "103151.992500", "103152.452500", "103152.912500", "103153.372500", "103153.832500", "103154.292500", "103154.752500", "103155.212500", "103155.672500", "103156.132500", "103156.592500", "103157.052500", "103157.512500", "103157.972500", "103158.432500", "103158.892500", "103159.352500", "103159.812500", "103200.272500", "103200.732500", "103201.192500", "103201.652500", "103202.112500", "103202.572500", "103203.032500", "103203.492500", "103203.952500", "103204.412500", "103204.872500", "103205.332500", "103205.792500", "103206.252500", "103206.712500", "103207.172500", "103207.632500", "103208.092500", "103208.552500", "103209.012500", "103209.472500", "103209.932500", "103210.392500", "103210.852500", "103211.312500", "103211.772500", "103212.232500", "103212.692500", "103213.152500", "103213.612500", "103214.072500", "103214.532500", "103214.992500", "103215.452500", "103215.912500", "103216.372500", "103216.832500", "103217.292500", "103217.752500", "103218.212500", "103218.672500", "103219.132500", "103219.592500", "103220.052500", "103220.512500", "103220.972500", "103221.432500", "103221.892500", "103222.352500", "103222.812500", "103223.272500", "103223.732500", "103224.192500", "103224.652500", "103225.112500", "103225.572500", "103226.032500", "103226.492500", "103226.952500", "103227.412500", "103227.872500", "103228.332500", "103228.792500", "103229.252500", "103229.712500", "103230.172500", "103230.632500", "103231.092500", "103231.552500", "103232.012500", "103232.472500", "103232.932500", "103233.392500", "103233.852500", "103234.312500", "103234.772500", "103235.232500", "103235.692500", "103236.152500", "103236.612500", "103237.072500", "103237.532500", "103237.992500", "103238.452500", "103238.912500", "103239.372500", "103239.832500", "103240.292500", "103240.752500", "103241.212500", "103241.672500", "103242.132500", "103242.592500", "103243.052500", "103243.512500", "103243.972500", "103244.432500", "103244.892500", "103245.352500", "103245.812500", "103246.272500", "103246.732500", "103247.192500", "103247.652500", "103248.112500", "103248.572500", "103249.032500", "103249.492500", "103249.952500", "103250.412500", "103250.872500", "103251.332500", "103251.792500", "103252.252500", "103252.712500", "103253.172500", "103253.632500", "103254.092500", "103254.552500", "103255.012500", "103255.472500", "103255.932500", "103256.392500", "103256.852500", "103257.312500", "103257.772500", "103258.232500", "103258.692500", "103259.152500", "103259.612500", "103300.072500", "103300.532500", "103300.992500", "103301.452500", "103301.912500", "103302.372500", "103302.832500", "103303.292500", "103303.752500", "103304.212500", "103304.672500", "103305.132500", "103305.592500", "103306.052500", "103306.512500", "103306.972500", "103307.432500", "103307.892500", "103308.352500", "103308.812500", "103309.272500", "103309.732500", "103310.192500", "103310.652500"],
