{
  "AcquisitionMatrixPE": 82,
  "AcquisitionNumber": 1,
  "AcquisitionTime": "10:35:30.610000",
  "BandwidthPerPixelPhaseEncode": 24.888,
  "BaseResolution": 82,
  "BodyPartExamined": "BRAIN",
  "ConsistencyInfo": "N4_VE11C_LATEST_20160120",
  "ConversionSoftware": "dcm2niix",
  "ConversionSoftwareVersion": "v1.0.20201102",
  "DerivedVendorReportedEchoSpacing": 0.00049,
  "DeviceSerialNumber": "66112",
  "DwellTime": 2e-06,
  "EchoTime": 0.0272,
  "EchoTrainLength": 82,
  "EffectiveEchoSpacing": 0.00049,
  "FlipAngle": 44,
  "ImageComments": "Unaliased MB8/PE3",
  "ImageOrientationPatientDICOM": [0.997447, 0.024286, 0.0671486, -0.0151468, 0.990946, -0.133405],
  "ImageType": [
    "ORIGINAL",
    "PRIMARY",
    "M",
    "MB",
    "ND",
    "NORM",
    "MOSAIC"
],
  "ImagingFrequency": 123.252,
  "InPlanePhaseEncodingDirectionDICOM": "COL",
  "InstitutionAddress": "Maynard 3,Hanover,NH,US,03755",
  "InstitutionName": "Dartmouth College - PBS",
  "InstitutionalDepartmentName": "Department",
  "MRAcquisitionType": "2D",
  "MagneticFieldStrength": 3,
  "Manufacturer": "Siemens",
  "ManufacturersModelName": "Prisma",
  "Modality": "MR",
  "MultibandAccelerationFactor": 8,
  "PartialFourier": 1,
  "PatientPosition": "HFS",
  "PercentPhaseFOV": 100,
  "PercentSampling": 100,
  "PhaseEncodingDirection": "j-",
  "PhaseEncodingSteps": 82,
  "PhaseResolution": 1,
  "PixelBandwidth": 3050,
  "ProcedureStepDescription": "Wager_Wager^1076_spacetop",
  "ProtocolName": "func_run-04_task-social_acq-ap-mb8",
  "PulseSequenceDetails": "%CustomerSeq%\\cmrr_mbep2d_bold",
  "ReceiveCoilActiveElements": "HEA;HEP",
  "ReceiveCoilName": "Head_32",
  "ReconMatrixPE": 82,
  "RepetitionTime": 0.46,
  "SAR": 0.0992963,
  "ScanOptions": "FS",
  "ScanningSequence": "EP",
  "SequenceName": "epfid2d1_82",
  "SequenceVariant": "SK\\SS",
  "SeriesDescription": "func_run-04_task-social_acq-ap-mb8",
  "SeriesNumber": 18,
  "ShimSetting": [4155, -7675, -7264, 550, 2, 0, -88, 57],
  "SliceThickness": 2.7,
  "SliceTiming": [0, 0.25, 0.0625, 0.3125, 0.125, 0.3775, 0.1875, 0, 0.25, 0.0625, 0.3125, 0.125, 0.3775, 0.1875, 0, 0.25, 0.0625, 0.3125, 0.125, 0.3775, 0.1875, 0, 0.25, 0.0625, 0.3125, 0.125, 0.3775, 0.1875, 0, 0.25, 0.0625, 0.3125, 0.125, 0.3775, 0.1875, 0, 0.25, 0.0625, 0.3125, 0.125, 0.3775, 0.1875, 0, 0.25, 0.0625, 0.3125, 0.125, 0.3775, 0.1875, 0, 0.25, 0.0625, 0.3125, 0.125, 0.3775, 0.1875],
  "SoftwareVersions": "syngo MR E11",
  "SpacingBetweenSlices": 2.7,
  "StationName": "AWP66112",
  "TaskName": "social",
  "TotalReadoutTime": 0.03969,
  "TxRefAmp": 242.545,
  "WipMemBlock": "e6a366f8-9a0a-4dac-97b2-8b4f3916e815||Sequence: R016 ve11c/master r/e634e98; Dec 19 2017 11:00:25 by eja",
  "dcmmeta_affine": [
    [-2.6760783195495605, -0.040637675672769547, 0.1884072870016098, 113.90576934814453],
    [-0.06515747308731079, 2.658635139465332, -0.35652849078178406, -80.09992980957031],
    [0.1801547259092331, 0.3579164147377014, 2.669717311859131, -76.44572448730469],
    [0.0, 0.0, 0.0, 1.0]
],
  "dcmmeta_reorient_transform": [
    [0.0, -1.0, 0.0, 81.0],
    [1.0, 0.0, 0.0, 0.0],
    [0.0, 0.0, 1.0, 0.0],
    [0.0, 0.0, 0.0, 1.0]
],
  "dcmmeta_shape": [82, 82, 56, 872],
  "dcmmeta_slice_dim": 2,
  "dcmmeta_version": 0.6,
  "global": {
    "const": {
      "AccessionNumber": "A003464",
      "AcquisitionMatrix": [82, 0, 0, 82],
      "AngioFlag": "N",
      "BitsAllocated": 16,
      "BitsStored": 16,
      "BodyPartExamined": "BRAIN",
      "Columns": 656,
      "EchoNumbers": 1,
      "EchoTime": 27.2,
      "EchoTrainLength": 82,
      "FlipAngle": 44.0,
      "HighBit": 15,
      "ImageOrientationPatient": [0.99744737205083, 0.02428596589306, 0.06714858039844, -0.0151467703101, 0.99094582404402, -0.1334052066409],
      "ImagePositionPatient": [-866.98559912583, -916.97801873813, 3.5631071111406],
      "ImageType": [
        "ORIGINAL",
        "PRIMARY",
        "M",
        "MB",
        "ND",
        "NORM",
        "MOSAIC"
],
      "ImagedNucleus": "1H",
      "ImagingFrequency": 123.252144,
      "InPlanePhaseEncodingDirection": "COL",
      "MRAcquisitionType": "2D",
      "MagneticFieldStrength": 3.0,
      "Manufacturer": "SIEMENS",
      "ManufacturerModelName": "Prisma",
      "Modality": "MR",
      "NumberOfAverages": 1.0,
      "NumberOfPhaseEncodingSteps": 82,
      "PercentPhaseFieldOfView": 100.0,
      "PercentSampling": 100.0,
      "PerformedProcedureStepStartTime": "091710.408000",
      "PhotometricInterpretation": "MONOCHROME2",
      "PixelBandwidth": 3050.0,
      "PixelRepresentation": 0,
      "PixelSpacing": [2.6829268932343, 2.6829268932343],
      "ProtocolName": "func_run-04_task-social_acq-ap-mb8",
      "RepetitionTime": 460.0,
      "Rows": 656,
      "SAR": 0.09929634245144,
      "SamplesPerPixel": 1,
      "ScanOptions": "FS",
      "ScanningSequence": "EP",
      "SequenceName": "epfid2d1_82",
      "SequenceVariant": [
        "SK",
        "SS"
],
      "SeriesDescription": "func_run-04_task-social_acq-ap-mb8",
      "SeriesNumber": 18,
      "SeriesTime": "103552.101000",
      "SliceLocation": -57.062921404278,
      "SliceThickness": 2.7000000476837,
      "SmallestImagePixelValue": 0,
      "SoftwareVersions": "syngo MR E11",
      "SpacingBetweenSlices": 2.6999999626658,
      "SpecificCharacterSet": "ISO_IR 100",
      "StudyID": "1",
      "StudyTime": "091710.308000",
      "TransmitCoilName": "Body",
      "VariableFlipAngleFlag": "N",
      "WindowCenterWidthExplanation": "Algo1",
      "dBdt": 0.0},
    "slices": {}
  },
  "time": {
    "samples": {
      "AcquisitionNumber": [1, 2, 3, 4, 5, 6, 7, 8, 9, 10, 11, 12, 13, 14, 15, 16, 17, 18, 19, 20, 21, 22, 23, 24, 25, 26, 27, 28, 29, 30, 31, 32, 33, 34, 35, 36, 37, 38, 39, 40, 41, 42, 43, 44, 45, 46, 47, 48, 49, 50, 51, 52, 53, 54, 55, 56, 57, 58, 59, 60, 61, 62, 63, 64, 65, 66, 67, 68, 69, 70, 71, 72, 73, 74, 75, 76, 77, 78, 79, 80, 81, 82, 83, 84, 85, 86, 87, 88, 89, 90, 91, 92, 93, 94, 95, 96, 97, 98, 99, 100, 101, 102, 103, 104, 105, 106, 107, 108, 109, 110, 111, 112, 113, 114, 115, 116, 117, 118, 119, 120, 121, 122, 123, 124, 125, 126, 127, 128, 129, 130, 131, 132, 133, 134, 135, 136, 137, 138, 139, 140, 141, 142, 143, 144, 145, 146, 147, 148, 149, 150, 151, 152, 153, 154, 155, 156, 157, 158, 159, 160, 161, 162, 163, 164, 165, 166, 167, 168, 169, 170, 171, 172, 173, 174, 175, 176, 177, 178, 179, 180, 181, 182, 183, 184, 185, 186, 187, 188, 189, 190, 191, 192, 193, 194, 195, 196, 197, 198, 199, 200, 201, 202, 203, 204, 205, 206, 207, 208, 209, 210, 211, 212, 213, 214, 215, 216, 217, 218, 219, 220, 221, 222, 223, 224, 225, 226, 227, 228, 229, 230, 231, 232, 233, 234, 235, 236, 237, 238, 239, 240, 241, 242, 243, 244, 245, 246, 247, 248, 249, 250, 251, 252, 253, 254, 255, 256, 257, 258, 259, 260, 261, 262, 263, 264, 265, 266, 267, 268, 269, 270, 271, 272, 273, 274, 275, 276, 277, 278, 279, 280, 281, 282, 283, 284, 285, 286, 287, 288, 289, 290, 291, 292, 293, 294, 295, 296, 297, 298, 299, 300, 301, 302, 303, 304, 305, 306, 307, 308, 309, 310, 311, 312, 313, 314, 315, 316, 317, 318, 319, 320, 321, 322, 323, 324, 325, 326, 327, 328, 329, 330, 331, 332, 333, 334, 335, 336, 337, 338, 339, 340, 341, 342, 343, 344, 345, 346, 347, 348, 349, 350, 351, 352, 353, 354, 355, 356, 357, 358, 359, 360, 361, 362, 363, 364, 365, 366, 367, 368, 369, 370, 371, 372, 373, 374, 375, 376, 377, 378, 379, 380, 381, 382, 383, 384, 385, 386, 387, 388, 389, 390, 391, 392, 393, 394, 395, 396, 397, 398, 399, 400, 401, 402, 403, 404, 405, 406, 407, 408, 409, 410, 411, 412, 413, 414, 415, 416, 417, 418, 419, 420, 421, 422, 423, 424, 425, 426, 427, 428, 429, 430, 431, 432, 433, 434, 435, 436, 437, 438, 439, 440, 441, 442, 443, 444, 445, 446, 447, 448, 449, 450, 451, 452, 453, 454, 455, 456, 457, 458, 459, 460, 461, 462, 463, 464, 465, 466, 467, 468, 469, 470, 471, 472, 473, 474, 475, 476, 477, 478, 479, 480, 481, 482, 483, 484, 485, 486, 487, 488, 489, 490, 491, 492, 493, 494, 495, 496, 497, 498, 499, 500, 501, 502, 503, 504, 505, 506, 507, 508, 509, 510, 511, 512, 513, 514, 515, 516, 517, 518, 519, 520, 521, 522, 523, 524, 525, 526, 527, 528, 529, 530, 531, 532, 533, 534, 535, 536, 537, 538, 539, 540, 541, 542, 543, 544, 545, 546, 547, 548, 549, 550, 551, 552, 553, 554, 555, 556, 557, 558, 559, 560, 561, 562, 563, 564, 565, 566, 567, 568, 569, 570, 571, 572, 573, 574, 575, 576, 577, 578, 579, 580, 581, 582, 583, 584, 585, 586, 587, 588, 589, 590, 591, 592, 593, 594, 595, 596, 597, 598, 599, 600, 601, 602, 603, 604, 605, 606, 607, 608, 609, 610, 611, 612, 613, 614, 615, 616, 617, 618, 619, 620, 621, 622, 623, 624, 625, 626, 627, 628, 629, 630, 631, 632, 633, 634, 635, 636, 637, 638, 639, 640, 641, 642, 643, 644, 645, 646, 647, 648, 649, 650, 651, 652, 653, 654, 655, 656, 657, 658, 659, 660, 661, 662, 663, 664, 665, 666, 667, 668, 669, 670, 671, 672, 673, 674, 675, 676, 677, 678, 679, 680, 681, 682, 683, 684, 685, 686, 687, 688, 689, 690, 691, 692, 693, 694, 695, 696, 697, 698, 699, 700, 701, 702, 703, 704, 705, 706, 707, 708, 709, 710, 711, 712, 713, 714, 715, 716, 717, 718, 719, 720, 721, 722, 723, 724, 725, 726, 727, 728, 729, 730, 731, 732, 733, 734, 735, 736, 737, 738, 739, 740, 741, 742, 743, 744, 745, 746, 747, 748, 749, 750, 751, 752, 753, 754, 755, 756, 757, 758, 759, 760, 761, 762, 763, 764, 765, 766, 767, 768, 769, 770, 771, 772, 773, 774, 775, 776, 777, 778, 779, 780, 781, 782, 783, 784, 785, 786, 787, 788, 789, 790, 791, 792, 793, 794, 795, 796, 797, 798, 799, 800, 801, 802, 803, 804, 805, 806, 807, 808, 809, 810, 811, 812, 813, 814, 815, 816, 817, 818, 819, 820, 821, 822, 823, 824, 825, 826, 827, 828, 829, 830, 831, 832, 833, 834, 835, 836, 837, 838, 839, 840, 841, 842, 843, 844, 845, 846, 847, 848, 849, 850, 851, 852, 853, 854, 855, 856, 857, 858, 859, 860, 861, 862, 863, 864, 865, 866, 867, 868, 869, 870, 871, 872],
      "AcquisitionTime": ["103530.610000", "103531.070000", "103531.530000", "103531.990000", "103532.450000", "103532.910000", "103533.370000", "103533.830000", "103534.290000", "103534.750000", "103535.210000", "103535.670000", "103536.130000", "103536.590000", "103537.050000", "103537.510000", "103537.970000", "103538.430000", "103538.890000", "103539.350000", "103539.810000", "103540.270000", "103540.730000", "103541.190000", "103541.650000", "103542.110000", "103542.570000", "103543.030000", "103543.490000", "103543.950000", "103544.410000", "103544.870000", "103545.330000", "103545.790000", "103546.250000", "103546.710000", "103547.170000", "103547.630000", "103548.090000", "103548.550000", "103549.010000", "103549.470000", "103549.930000", "103550.390000", "103550.850000", "103551.310000", "103551.770000", "103552.230000", "103552.690000", "103553.150000", "103553.610000", "103554.070000", "103554.530000", "103554.990000", "103555.450000", "103555.910000", "103556.370000", "103556.830000", "103557.290000", "103557.750000", "103558.210000", "103558.670000", "103559.130000", "103559.590000", "103600.050000", "103600.510000", "103600.970000", "103601.430000", "103601.890000", "103602.350000", "103602.810000", "103603.270000", "103603.730000", "103604.190000", "103604.650000", "103605.110000", "103605.570000", "103606.030000", "103606.490000", "103606.950000", "103607.410000", "103607.870000", "103608.330000", "103608.790000", "103609.250000", "103609.710000", "103610.170000", "103610.630000", "103611.090000", "103611.550000", "103612.010000", "103612.470000", "103612.930000", "103613.390000", "103613.850000", "103614.310000", "103614.770000", "103615.230000", "103615.690000", "103616.150000", "103616.610000", "103617.070000", "103617.530000", "103617.990000", "103618.450000", "103618.910000", "103619.370000", "103619.830000", "103620.290000", "103620.750000", "103621.210000", "103621.670000", "103622.130000", "103622.590000", "103623.050000", "103623.510000", "103623.970000", "103624.430000", "103624.890000", "103625.350000", "103625.810000", "103626.270000", "103626.730000", "103627.190000", "103627.650000", "103628.110000", "103628.570000", "103629.030000", "103629.490000", "103629.950000", "103630.410000", "103630.870000", "103631.330000", "103631.790000", "103632.250000", "103632.710000", "103633.170000", "103633.630000", "103634.090000", "103634.550000", "103635.010000", "103635.470000", "103635.930000", "103636.390000", "103636.850000", "103637.310000", "103637.770000", "103638.230000", "103638.690000", "103639.150000", "103639.610000", "103640.070000", "103640.530000", "103640.990000", "103641.450000", "103641.910000", "103642.370000", "103642.830000", "103643.290000", "103643.750000", "103644.210000", "103644.670000", "103645.130000", "103645.590000", "103646.050000", "103646.510000", "103646.970000", "103647.430000", "103647.890000", "103648.350000", "103648.810000", "103649.270000", "103649.730000", "103650.190000", "103650.650000", "103651.110000", "103651.570000", "103652.030000", "103652.490000", "103652.950000", "103653.410000", "103653.870000", "103654.330000", "103654.790000", "103655.250000", "103655.710000", "103656.170000", "103656.630000", "103657.090000", "103657.550000", "103658.010000", "103658.470000", "103658.930000", "103659.390000", "103659.850000", "103700.310000", "103700.770000", "103701.230000", "103701.690000", "103702.150000", "103702.610000", "103703.070000", "103703.530000", "103703.990000", "103704.450000", "103704.910000", "103705.370000", "103705.830000", "103706.290000", "103706.750000", "103707.210000", "103707.670000", "103708.130000", "103708.590000", "103709.050000", "103709.510000", "103709.970000", "103710.430000", "103710.890000", "103711.350000", "103711.810000", "103712.270000", "103712.730000", "103713.190000", "103713.650000", "103714.110000", "103714.570000", "103715.030000", "103715.490000", "103715.950000", "103716.410000", "103716.870000", "103717.330000", "103717.790000", "103718.250000", "103718.710000", "103719.170000", "103719.630000", "103720.090000", "103720.550000", "103721.010000", "103721.470000", "103721.930000", "103722.390000", "103722.850000", "103723.310000", "103723.770000", "103724.230000", "103724.690000", "103725.150000", "103725.610000", "103726.070000", "103726.530000", "103726.990000", "103727.450000", "103727.910000", "103728.370000", "103728.830000", "103729.290000", "103729.750000", "103730.210000", "103730.670000", "103731.130000", "103731.590000", "103732.050000", "103732.510000", "103732.970000", "103733.430000", "103733.890000", "103734.350000", "103734.810000", "103735.270000", "103735.730000", "103736.190000", "103736.650000", "103737.110000", "103737.570000", "103738.030000", "103738.490000", "103738.950000", "103739.410000", "103739.870000", "103740.330000", "103740.790000", "103741.250000", "103741.710000", "103742.170000", "103742.630000", "103743.090000", "103743.550000", "103744.010000", "103744.470000", "103744.930000", "103745.390000", "103745.850000", "103746.310000", "103746.770000", "103747.230000", "103747.690000", "103748.150000", "103748.610000", "103749.070000", "103749.530000", "103749.990000", "103750.450000", "103750.910000", "103751.370000", "103751.830000", "103752.290000", "103752.750000", "103753.210000", "103753.670000", "103754.130000", "103754.590000", "103755.050000", "103755.510000", "103755.970000", "103756.430000", "103756.890000", "103757.350000", "103757.810000", "103758.270000", "103758.730000", "103759.190000", "103759.650000", "103800.110000", "103800.570000", "103801.030000", "103801.490000", "103801.950000", "103802.410000", "103802.870000", "103803.330000", "103803.790000", "103804.250000", "103804.710000", "103805.170000", "103805.630000", "103806.090000", "103806.550000", "103807.010000", "103807.470000", "103807.930000", "103808.390000", "103808.850000", "103809.310000", "103809.770000", "103810.230000", "103810.690000", "103811.150000", "103811.610000", "103812.070000", "103812.530000", "103812.990000", "103813.450000", "103813.910000", "103814.370000", "103814.830000", "103815.290000", "103815.750000", "103816.210000", "103816.670000", "103817.130000", "103817.590000", "103818.050000", "103818.510000", "103818.970000", "103819.430000", "103819.890000", "103820.350000", "103820.810000", "103821.270000", "103821.730000", "103822.190000", "103822.650000", "103823.110000", "103823.570000", "103824.030000", "103824.490000", "103824.950000", "103825.410000", "103825.870000", "103826.330000", "103826.790000", "103827.250000", "103827.710000", "103828.170000", "103828.630000", "103829.090000", "103829.550000", "103830.010000", "103830.470000", "103830.930000", "103831.390000", "103831.850000", "103832.310000", "103832.770000", "103833.230000", "103833.690000", "103834.150000", "103834.610000", "103835.070000", "103835.530000", "103835.990000", "103836.450000", "103836.910000", "103837.370000", "103837.830000", "103838.290000", "103838.750000", "103839.210000", "103839.670000", "103840.130000", "103840.590000", "103841.050000", "103841.510000", "103841.970000", "103842.430000", "103842.890000", "103843.350000", "103843.810000", "103844.270000", "103844.730000", "103845.190000", "103845.650000", "103846.110000", "103846.570000", "103847.030000", "103847.490000", "103847.950000", "103848.410000", "103848.870000", "103849.330000", "103849.790000", "103850.250000", "103850.710000", "103851.170000", "103851.630000", "103852.090000", "103852.550000", "103853.010000", "103853.470000", "103853.930000", "103854.390000", "103854.850000", "103855.310000", "103855.770000", "103856.230000", "103856.690000", "103857.150000", "103857.610000", "103858.070000", "103858.530000", "103858.990000", "103859.450000", "103859.910000", "103900.370000", "103900.830000", "103901.290000", "103901.750000", "103902.210000", "103902.670000", "103903.130000", "103903.590000", "103904.050000", "103904.510000", "103904.970000", "103905.430000", "103905.890000", "103906.350000", "103906.810000", "103907.270000", "103907.730000", "103908.190000", "103908.650000", "103909.110000", "103909.570000", "103910.030000", "103910.490000", "103910.950000", "103911.410000", "103911.870000", "103912.330000", "103912.790000", "103913.250000", "103913.710000", "103914.170000", "103914.630000", "103915.090000", "103915.550000", "103916.010000", "103916.470000", "103916.930000", "103917.390000", "103917.850000", "103918.310000", "103918.770000", "103919.230000", "103919.690000", "103920.150000", "103920.610000", "103921.070000", "103921.530000", "103921.990000", "103922.450000", "103922.910000", "103923.370000", "103923.830000", "103924.290000", "103924.750000", "103925.210000", "103925.670000", "103926.130000", "103926.590000", "103927.050000", "103927.510000", "103927.970000", "103928.430000", "103928.890000", "103929.350000", "103929.810000", "103930.270000", "103930.730000", "103931.190000", "103931.650000", "103932.110000", "103932.570000", "103933.030000", "103933.490000", "103933.950000", "103934.410000", "103934.870000", "103935.330000", "103935.790000", "103936.250000", "103936.710000", "103937.170000", "103937.630000", "103938.090000", "103938.550000", "103939.010000", "103939.470000", "103939.930000", "103940.390000", "103940.850000", "103941.310000", "103941.770000", "103942.230000", "103942.690000", "103943.150000", "103943.610000", "103944.070000", "103944.530000", "103944.990000", "103945.450000", "103945.910000", "103946.370000", "103946.830000", "103947.290000", "103947.750000", "103948.210000", "103948.670000", "103949.130000", "103949.590000", "103950.050000", "103950.510000", "103950.970000", "103951.430000", "103951.890000", "103952.350000", "103952.810000", "103953.270000", "103953.730000", "103954.190000", "103954.650000", "103955.110000", "103955.570000", "103956.030000", "103956.490000", "103956.950000", "103957.410000", "103957.870000", "103958.330000", "103958.790000", "103959.250000", "103959.710000", "104000.170000", "104000.630000", "104001.090000", "104001.550000", "104002.010000", "104002.470000", "104002.930000", "104003.390000", "104003.850000", "104004.310000", "104004.770000", "104005.230000", "104005.690000", "104006.150000", "104006.610000", "104007.070000", "104007.530000", "104007.990000", "104008.450000", "104008.910000", "104009.370000", "104009.830000", "104010.290000", "104010.750000", "104011.210000", "104011.670000", "104012.130000", "104012.590000", "104013.050000", "104013.510000", "104013.970000", "104014.430000", "104014.890000", "104015.350000", "104015.810000", "104016.270000", "104016.730000", "104017.190000", "104017.650000", "104018.110000", "104018.570000", "104019.030000", "104019.490000", "104019.950000", "104020.410000", "104020.870000", "104021.330000", "104021.790000", "104022.250000", "104022.710000", "104023.170000", "104023.630000", "104024.090000", "104024.550000", "104025.010000", "104025.470000", "104025.930000", "104026.390000", "104026.850000", "104027.310000", "104027.770000", "104028.230000", "104028.690000", "104029.150000", "104029.610000", "104030.070000", "104030.530000", "104030.990000", "104031.450000", "104031.910000", "104032.370000", "104032.830000", "104033.290000", "104033.750000", "104034.210000", "104034.670000", "104035.130000", "104035.590000", "104036.050000", "104036.510000", "104036.970000", "104037.430000", "104037.890000", "104038.350000", "104038.810000", "104039.270000", "104039.730000", "104040.190000", "104040.650000", "104041.110000", "104041.570000", "104042.030000", "104042.490000", "104042.950000", "104043.410000", "104043.870000", "104044.330000", "104044.790000", "104045.250000", "104045.710000", "104046.170000", "104046.630000", "104047.090000", "104047.550000", "104048.010000", "104048.470000", "104048.930000", "104049.390000", "104049.850000", "104050.310000", "104050.770000", "104051.230000", "104051.690000", "104052.150000", "104052.610000", "104053.070000", "104053.530000", "104053.990000", "104054.450000", "104054.910000", "104055.370000", "104055.830000", "104056.290000", "104056.750000", "104057.210000", "104057.670000", "104058.130000", "104058.590000", "104059.050000", "104059.510000", "104059.970000", "104100.430000", "104100.890000", "104101.350000", "104101.810000", "104102.270000", "104102.730000", "104103.190000", "104103.650000", "104104.110000", "104104.570000", "104105.030000", "104105.490000", "104105.950000", "104106.410000", "104106.870000", "104107.330000", "104107.790000", "104108.250000", "104108.710000", "104109.170000", "104109.630000", "104110.090000", "104110.550000", "104111.010000", "104111.470000", "104111.930000", "104112.390000", "104112.850000", "104113.310000", "104113.770000", "104114.230000", "104114.690000", "104115.150000", "104115.610000", "104116.070000", "104116.530000", "104116.990000", "104117.450000", "104117.910000", "104118.370000", "104118.830000", "104119.290000", "104119.750000", "104120.210000", "104120.670000", "104121.130000", "104121.590000", "104122.050000", "104122.510000", "104122.970000", "104123.430000", "104123.890000", "104124.350000", "104124.810000", "104125.270000", "104125.730000", "104126.190000", "104126.650000", "104127.110000", "104127.570000", "104128.030000", "104128.490000", "104128.950000", "104129.410000", "104129.870000", "104130.330000", "104130.790000", "104131.250000", "104131.710000", "104132.170000", "104132.630000", "104133.090000", "104133.550000", "104134.010000", "104134.470000", "104134.930000", "104135.390000", "104135.850000", "104136.310000", "104136.770000", "104137.230000", "104137.690000", "104138.150000", "104138.610000", "104139.070000", "104139.530000", "104139.990000", "104140.450000", "104140.910000", "104141.370000", "104141.830000", "104142.290000", "104142.750000", "104143.210000", "104143.670000", "104144.130000", "104144.590000", "104145.050000", "104145.510000", "104145.970000", "104146.430000", "104146.890000", "104147.350000", "104147.810000", "104148.270000", "104148.730000", "104149.190000", "104149.650000", "104150.110000", "104150.570000", "104151.030000", "104151.490000", "104151.950000", "104152.410000", "104152.870000", "104153.330000", "104153.790000", "104154.250000", "104154.710000", "104155.170000", "104155.630000", "104156.090000", "104156.550000", "104157.010000", "104157.470000", "104157.930000", "104158.390000", "104158.850000", "104159.310000", "104159.770000", "104200.230000", "104200.690000", "104201.150000", "104201.610000", "104202.070000", "104202.530000", "104202.990000", "104203.450000", "104203.910000", "104204.370000", "104204.830000", "104205.290000", "104205.750000", "104206.210000", "104206.670000", "104207.130000", "104207.590000", "104208.050000", "104208.510000", "104208.970000", "104209.430000", "104209.890000", "104210.350000", "104210.810000", "104211.270000"],
