{
  "AcquisitionMatrixPE": 82,
  "AcquisitionNumber": 1,
  "AcquisitionTime": "20:20:13.327500",
  "BandwidthPerPixelPhaseEncode": 24.888,
  "BaseResolution": 82,
  "BodyPartExamined": "BRAIN",
  "ConsistencyInfo": "N4_VE11E_LATEST_20181129",
  "ConversionSoftware": "dcm2niix",
  "ConversionSoftwareVersion": "v1.0.20201102",
  "DerivedVendorReportedEchoSpacing": 0.00049,
  "DeviceSerialNumber": "66112",
  "DwellTime": 2e-06,
  "EchoTime": 0.0272,
  "EchoTrainLength": 82,
  "EffectiveEchoSpacing": 0.00049,
  "FlipAngle": 44,
  "ImageComments": "Unaliased MB8/PE3",
  "ImageOrientationPatientDICOM": [0.997473, -0.0194454, -0.0683349, 0.00940126, 0.989484, -0.144339],
  "ImageType": [
    "ORIGINAL",
    "PRIMARY",
    "M",
    "MB",
    "ND",
    "NORM",
    "MOSAIC"
],
  "ImagingFrequency": 123.259,
  "InPlanePhaseEncodingDirectionDICOM": "COL",
  "InstitutionAddress": "Maynard 3,Hanover,NH,US,03755",
  "InstitutionName": "Dartmouth College - PBS",
  "InstitutionalDepartmentName": "Department",
  "MRAcquisitionType": "2D",
  "MagneticFieldStrength": 3,
  "Manufacturer": "Siemens",
  "ManufacturersModelName": "Prisma",
  "Modality": "MR",
  "MultibandAccelerationFactor": 8,
  "PartialFourier": 1,
  "PatientPosition": "HFS",
  "PercentPhaseFOV": 100,
  "PercentSampling": 100,
  "PhaseEncodingDirection": "j-",
  "PhaseEncodingSteps": 82,
  "PhaseResolution": 1,
  "PixelBandwidth": 3050,
  "ProcedureStepDescription": "Wager_Wager^1076_spacetop",
  "ProtocolName": "func_run-03_task-social_acq-ap-mb8",
  "PulseSequenceDetails": "%CustomerSeq%\\cmrr_mbep2d_bold",
  "ReceiveCoilActiveElements": "HEA;HEP",
  "ReceiveCoilName": "Head_32",
  "ReconMatrixPE": 82,
  "RepetitionTime": 0.46,
  "SAR": 0.0808722,
  "ScanOptions": "FS",
  "ScanningSequence": "EP",
  "SequenceName": "epfid2d1_82",
  "SequenceVariant": "SK\\SS",
  "SeriesDescription": "func_run-03_task-social_acq-ap-mb8",
  "SeriesNumber": 12,
  "ShimSetting": [4226, -7694, -7314, 192, -144, -79, -115, 101],
  "SliceThickness": 2.7,
  "SliceTiming": [0, 0.25, 0.0625, 0.3125, 0.125, 0.375, 0.1875, 0, 0.25, 0.0625, 0.3125, 0.125, 0.375, 0.1875, 0, 0.25, 0.0625, 0.3125, 0.125, 0.375, 0.1875, 0, 0.25, 0.0625, 0.3125, 0.125, 0.375, 0.1875, 0, 0.25, 0.0625, 0.3125, 0.125, 0.375, 0.1875, 0, 0.25, 0.0625, 0.3125, 0.125, 0.375, 0.1875, 0, 0.25, 0.0625, 0.3125, 0.125, 0.375, 0.1875, 0, 0.25, 0.0625, 0.3125, 0.125, 0.375, 0.1875],
  "SoftwareVersions": "syngo MR E11",
  "SpacingBetweenSlices": 2.7,
  "StationName": "AWP66112",
  "TaskName": "social",
  "TotalReadoutTime": 0.03969,
  "TxRefAmp": 234.828,
  "WipMemBlock": "281f51d2-1147-4edc-a12d-40ec1eb7c9cb||Sequence: R016 ve11e/master r/434b28f1; Aug  7 2019 18:53:46 by eja",
  "dcmmeta_affine": [
    [-2.676146984100342, 0.025222893804311752, -0.1901421695947647, 111.4565200805664],
    [0.05217048525810242, 2.654712438583374, -0.3869946300983429, -97.7342758178711],
    [-0.18333765864372253, 0.38724976778030396, 2.6653480529785156, -99.50725555419922],
    [0.0, 0.0, 0.0, 1.0]
],
  "dcmmeta_reorient_transform": [
    [0.0, -1.0, 0.0, 81.0],
    [1.0, 0.0, 0.0, 0.0],
    [0.0, 0.0, 1.0, 0.0],
    [0.0, 0.0, 0.0, 1.0]
],
  "dcmmeta_shape": [82, 82, 56, 872],
  "dcmmeta_slice_dim": 2,
  "dcmmeta_version": 0.6,
  "global": {
    "const": {
      "AccessionNumber": "A004671",
      "AcquisitionMatrix": [82, 0, 0, 82],
      "AngioFlag": "N",
      "BitsAllocated": 16,
      "BitsStored": 16,
      "BodyPartExamined": "BRAIN",
      "Columns": 656,
      "EchoNumbers": 1,
      "EchoTime": 27.2,
      "EchoTrainLength": 82,
      "FlipAngle": 44.0,
      "HighBit": 15,
      "ImageOrientationPatient": [0.99747291362032, -0.0194453618227, -0.0683349434577, 0.00940126028979, 0.98948370445443, -0.1443385427532],
      "ImagePositionPatient": [-888.79270308434, -864.22697494951, 95.618561304719],
      "ImageType": [
        "ORIGINAL",
        "PRIMARY",
        "M",
        "MB",
        "ND",
        "NORM",
        "MOSAIC"
],
      "ImagedNucleus": "1H",
      "ImagingFrequency": 123.259148,
      "InPlanePhaseEncodingDirection": "COL",
      "MRAcquisitionType": "2D",
      "MagneticFieldStrength": 3.0,
      "Manufacturer": "SIEMENS",
      "ManufacturerModelName": "Prisma",
      "Modality": "MR",
      "NumberOfAverages": 1.0,
      "NumberOfPhaseEncodingSteps": 82,
      "PercentPhaseFieldOfView": 100.0,
      "PercentSampling": 100.0,
      "PerformedProcedureStepStartTime": "190638.610000",
      "PhotometricInterpretation": "MONOCHROME2",
      "PixelBandwidth": 3050.0,
      "PixelRepresentation": 0,
      "PixelSpacing": [2.6829268932343, 2.6829268932343],
      "ProtocolName": "func_run-03_task-social_acq-ap-mb8",
      "RepetitionTime": 460.0,
      "Rows": 656,
      "SAR": 0.08087223613208,
      "SamplesPerPixel": 1,
      "ScanOptions": "FS",
      "ScanningSequence": "EP",
      "SequenceName": "epfid2d1_82",
      "SequenceVariant": [
        "SK",
        "SS"
],
      "SeriesDescription": "func_run-03_task-social_acq-ap-mb8",
      "SeriesNumber": 12,
      "SeriesTime": "202039.838000",
      "SliceLocation": -92.070901379032,
      "SliceThickness": 2.7000000476837,
      "SmallestImagePixelValue": 0,
      "SoftwareVersions": "syngo MR E11",
      "SpacingBetweenSlices": 2.6999999119912,
      "SpecificCharacterSet": "ISO_IR 100",
      "StudyID": "1",
      "StudyTime": "190638.509000",
      "TransmitCoilName": "Body",
      "VariableFlipAngleFlag": "N",
      "WindowCenterWidthExplanation": "Algo1"
    },
    "slices": {}
  },
  "time": {
    "samples": {
      "AcquisitionNumber": [1, 2, 3, 4, 5, 6, 7, 8, 9, 10, 11, 12, 13, 14, 15, 16, 17, 18, 19, 20, 21, 22, 23, 24, 25, 26, 27, 28, 29, 30, 31, 32, 33, 34, 35, 36, 37, 38, 39, 40, 41, 42, 43, 44, 45, 46, 47, 48, 49, 50, 51, 52, 53, 54, 55, 56, 57, 58, 59, 60, 61, 62, 63, 64, 65, 66, 67, 68, 69, 70, 71, 72, 73, 74, 75, 76, 77, 78, 79, 80, 81, 82, 83, 84, 85, 86, 87, 88, 89, 90, 91, 92, 93, 94, 95, 96, 97, 98, 99, 100, 101, 102, 103, 104, 105, 106, 107, 108, 109, 110, 111, 112, 113, 114, 115, 116, 117, 118, 119, 120, 121, 122, 123, 124, 125, 126, 127, 128, 129, 130, 131, 132, 133, 134, 135, 136, 137, 138, 139, 140, 141, 142, 143, 144, 145, 146, 147, 148, 149, 150, 151, 152, 153, 154, 155, 156, 157, 158, 159, 160, 161, 162, 163, 164, 165, 166, 167, 168, 169, 170, 171, 172, 173, 174, 175, 176, 177, 178, 179, 180, 181, 182, 183, 184, 185, 186, 187, 188, 189, 190, 191, 192, 193, 194, 195, 196, 197, 198, 199, 200, 201, 202, 203, 204, 205, 206, 207, 208, 209, 210, 211, 212, 213, 214, 215, 216, 217, 218, 219, 220, 221, 222, 223, 224, 225, 226, 227, 228, 229, 230, 231, 232, 233, 234, 235, 236, 237, 238, 239, 240, 241, 242, 243, 244, 245, 246, 247, 248, 249, 250, 251, 252, 253, 254, 255, 256, 257, 258, 259, 260, 261, 262, 263, 264, 265, 266, 267, 268, 269, 270, 271, 272, 273, 274, 275, 276, 277, 278, 279, 280, 281, 282, 283, 284, 285, 286, 287, 288, 289, 290, 291, 292, 293, 294, 295, 296, 297, 298, 299, 300, 301, 302, 303, 304, 305, 306, 307, 308, 309, 310, 311, 312, 313, 314, 315, 316, 317, 318, 319, 320, 321, 322, 323, 324, 325, 326, 327, 328, 329, 330, 331, 332, 333, 334, 335, 336, 337, 338, 339, 340, 341, 342, 343, 344, 345, 346, 347, 348, 349, 350, 351, 352, 353, 354, 355, 356, 357, 358, 359, 360, 361, 362, 363, 364, 365, 366, 367, 368, 369, 370, 371, 372, 373, 374, 375, 376, 377, 378, 379, 380, 381, 382, 383, 384, 385, 386, 387, 388, 389, 390, 391, 392, 393, 394, 395, 396, 397, 398, 399, 400, 401, 402, 403, 404, 405, 406, 407, 408, 409, 410, 411, 412, 413, 414, 415, 416, 417, 418, 419, 420, 421, 422, 423, 424, 425, 426, 427, 428, 429, 430, 431, 432, 433, 434, 435, 436, 437, 438, 439, 440, 441, 442, 443, 444, 445, 446, 447, 448, 449, 450, 451, 452, 453, 454, 455, 456, 457, 458, 459, 460, 461, 462, 463, 464, 465, 466, 467, 468, 469, 470, 471, 472, 473, 474, 475, 476, 477, 478, 479, 480, 481, 482, 483, 484, 485, 486, 487, 488, 489, 490, 491, 492, 493, 494, 495, 496, 497, 498, 499, 500, 501, 502, 503, 504, 505, 506, 507, 508, 509, 510, 511, 512, 513, 514, 515, 516, 517, 518, 519, 520, 521, 522, 523, 524, 525, 526, 527, 528, 529, 530, 531, 532, 533, 534, 535, 536, 537, 538, 539, 540, 541, 542, 543, 544, 545, 546, 547, 548, 549, 550, 551, 552, 553, 554, 555, 556, 557, 558, 559, 560, 561, 562, 563, 564, 565, 566, 567, 568, 569, 570, 571, 572, 573, 574, 575, 576, 577, 578, 579, 580, 581, 582, 583, 584, 585, 586, 587, 588, 589, 590, 591, 592, 593, 594, 595, 596, 597, 598, 599, 600, 601, 602, 603, 604, 605, 606, 607, 608, 609, 610, 611, 612, 613, 614, 615, 616, 617, 618, 619, 620, 621, 622, 623, 624, 625, 626, 627, 628, 629, 630, 631, 632, 633, 634, 635, 636, 637, 638, 639, 640, 641, 642, 643, 644, 645, 646, 647, 648, 649, 650, 651, 652, 653, 654, 655, 656, 657, 658, 659, 660, 661, 662, 663, 664, 665, 666, 667, 668, 669, 670, 671, 672, 673, 674, 675, 676, 677, 678, 679, 680, 681, 682, 683, 684, 685, 686, 687, 688, 689, 690, 691, 692, 693, 694, 695, 696, 697, 698, 699, 700, 701, 702, 703, 704, 705, 706, 707, 708, 709, 710, 711, 712, 713, 714, 715, 716, 717, 718, 719, 720, 721, 722, 723, 724, 725, 726, 727, 728, 729, 730, 731, 732, 733, 734, 735, 736, 737, 738, 739, 740, 741, 742, 743, 744, 745, 746, 747, 748, 749, 750, 751, 752, 753, 754, 755, 756, 757, 758, 759, 760, 761, 762, 763, 764, 765, 766, 767, 768, 769, 770, 771, 772, 773, 774, 775, 776, 777, 778, 779, 780, 781, 782, 783, 784, 785, 786, 787, 788, 789, 790, 791, 792, 793, 794, 795, 796, 797, 798, 799, 800, 801, 802, 803, 804, 805, 806, 807, 808, 809, 810, 811, 812, 813, 814, 815, 816, 817, 818, 819, 820, 821, 822, 823, 824, 825, 826, 827, 828, 829, 830, 831, 832, 833, 834, 835, 836, 837, 838, 839, 840, 841, 842, 843, 844, 845, 846, 847, 848, 849, 850, 851, 852, 853, 854, 855, 856, 857, 858, 859, 860, 861, 862, 863, 864, 865, 866, 867, 868, 869, 870, 871, 872],
      "AcquisitionTime": ["202013.327500", "202013.787500", "202014.247500", "202014.707500", "202015.167500", "202015.627500", "202016.087500", "202016.547500", "202017.007500", "202017.467500", "202017.927500", "202018.387500", "202018.847500", "202019.307500", "202019.767500", "202020.227500", "202020.687500", "202021.147500", "202021.607500", "202022.067500", "202022.527500", "202022.987500", "202023.447500", "202023.907500", "202024.367500", "202024.827500", "202025.287500", "202025.747500", "202026.207500", "202026.667500", "202027.127500", "202027.587500", "202028.047500", "202028.507500", "202028.967500", "202029.427500", "202029.887500", "202030.347500", "202030.807500", "202031.267500", "202031.727500", "202032.187500", "202032.647500", "202033.107500", "202033.567500", "202034.027500", "202034.487500", "202034.947500", "202035.407500", "202035.867500", "202036.327500", "202036.787500", "202037.247500", "202037.707500", "202038.167500", "202038.627500", "202039.087500", "202039.547500", "202040.007500", "202040.467500", "202040.927500", "202041.387500", "202041.847500", "202042.307500", "202042.767500", "202043.227500", "202043.687500", "202044.147500", "202044.607500", "202045.067500", "202045.527500", "202045.987500", "202046.447500", "202046.907500", "202047.367500", "202047.827500", "202048.287500", "202048.747500", "202049.207500", "202049.667500", "202050.127500", "202050.587500", "202051.047500", "202051.507500", "202051.967500", "202052.427500", "202052.887500", "202053.347500", "202053.807500", "202054.267500", "202054.727500", "202055.187500", "202055.647500", "202056.107500", "202056.567500", "202057.027500", "202057.487500", "202057.947500", "202058.407500", "202058.867500", "202059.327500", "202059.787500", "202100.247500", "202100.707500", "202101.167500", "202101.627500", "202102.087500", "202102.547500", "202103.007500", "202103.467500", "202103.927500", "202104.387500", "202104.847500", "202105.307500", "202105.767500", "202106.227500", "202106.687500", "202107.147500", "202107.607500", "202108.067500", "202108.527500", "202108.987500", "202109.447500", "202109.907500", "202110.367500", "202110.827500", "202111.287500", "202111.747500", "202112.207500", "202112.667500", "202113.127500", "202113.587500", "202114.047500", "202114.507500", "202114.967500", "202115.427500", "202115.887500", "202116.347500", "202116.807500", "202117.267500", "202117.727500", "202118.187500", "202118.647500", "202119.107500", "202119.567500", "202120.027500", "202120.487500", "202120.947500", "202121.407500", "202121.867500", "202122.327500", "202122.787500", "202123.247500", "202123.707500", "202124.167500", "202124.627500", "202125.087500", "202125.547500", "202126.007500", "202126.467500", "202126.927500", "202127.387500", "202127.847500", "202128.307500", "202128.767500", "202129.227500", "202129.687500", "202130.147500", "202130.607500", "202131.067500", "202131.527500", "202131.987500", "202132.447500", "202132.907500", "202133.367500", "202133.827500", "202134.287500", "202134.747500", "202135.207500", "202135.667500", "202136.127500", "202136.587500", "202137.047500", "202137.507500", "202137.967500", "202138.427500", "202138.887500", "202139.347500", "202139.807500", "202140.267500", "202140.727500", "202141.187500", "202141.647500", "202142.107500", "202142.567500", "202143.027500", "202143.487500", "202143.947500", "202144.407500", "202144.867500", "202145.327500", "202145.787500", "202146.247500", "202146.707500", "202147.167500", "202147.627500", "202148.087500", "202148.547500", "202149.007500", "202149.467500", "202149.927500", "202150.387500", "202150.847500", "202151.307500", "202151.767500", "202152.227500", "202152.687500", "202153.147500", "202153.607500", "202154.067500", "202154.527500", "202154.987500", "202155.447500", "202155.907500", "202156.367500", "202156.827500", "202157.287500", "202157.747500", "202158.207500", "202158.667500", "202159.127500", "202159.587500", "202200.047500", "202200.507500", "202200.967500", "202201.427500", "202201.887500", "202202.347500", "202202.807500", "202203.267500", "202203.727500", "202204.187500", "202204.647500", "202205.107500", "202205.567500", "202206.027500", "202206.487500", "202206.947500", "202207.407500", "202207.867500", "202208.327500", "202208.787500", "202209.247500", "202209.707500", "202210.167500", "202210.627500", "202211.087500", "202211.547500", "202212.007500", "202212.467500", "202212.927500", "202213.387500", "202213.847500", "202214.307500", "202214.767500", "202215.227500", "202215.687500", "202216.147500", "202216.607500", "202217.067500", "202217.527500", "202217.987500", "202218.447500", "202218.907500", "202219.367500", "202219.827500", "202220.287500", "202220.747500", "202221.207500", "202221.667500", "202222.127500", "202222.587500", "202223.047500", "202223.507500", "202223.967500", "202224.427500", "202224.887500", "202225.347500", "202225.807500", "202226.267500", "202226.727500", "202227.187500", "202227.647500", "202228.107500", "202228.567500", "202229.027500", "202229.487500", "202229.947500", "202230.407500", "202230.867500", "202231.327500", "202231.787500", "202232.247500", "202232.707500", "202233.167500", "202233.627500", "202234.087500", "202234.547500", "202235.007500", "202235.467500", "202235.927500", "202236.387500", "202236.847500", "202237.307500", "202237.767500", "202238.227500", "202238.687500", "202239.147500", "202239.607500", "202240.067500", "202240.527500", "202240.987500", "202241.447500", "202241.907500", "202242.367500", "202242.827500", "202243.287500", "202243.747500", "202244.207500", "202244.667500", "202245.127500", "202245.587500", "202246.047500", "202246.507500", "202246.967500", "202247.427500", "202247.887500", "202248.347500", "202248.807500", "202249.267500", "202249.727500", "202250.187500", "202250.647500", "202251.107500", "202251.567500", "202252.027500", "202252.487500", "202252.947500", "202253.407500", "202253.867500", "202254.327500", "202254.787500", "202255.247500", "202255.707500", "202256.167500", "202256.627500", "202257.087500", "202257.547500", "202258.007500", "202258.467500", "202258.927500", "202259.387500", "202259.847500", "202300.307500", "202300.767500", "202301.227500", "202301.687500", "202302.147500", "202302.607500", "202303.067500", "202303.527500", "202303.987500", "202304.447500", "202304.907500", "202305.367500", "202305.827500", "202306.287500", "202306.747500", "202307.207500", "202307.667500", "202308.127500", "202308.587500", "202309.047500", "202309.507500", "202309.967500", "202310.427500", "202310.887500", "202311.347500", "202311.807500", "202312.267500", "202312.727500", "202313.187500", "202313.647500", "202314.107500", "202314.567500", "202315.027500", "202315.487500", "202315.947500", "202316.407500", "202316.867500", "202317.327500", "202317.787500", "202318.247500", "202318.707500", "202319.167500", "202319.627500", "202320.087500", "202320.547500", "202321.007500", "202321.467500", "202321.927500", "202322.387500", "202322.847500", "202323.307500", "202323.767500", "202324.227500", "202324.687500", "202325.147500", "202325.607500", "202326.067500", "202326.527500", "202326.987500", "202327.447500", "202327.907500", "202328.367500", "202328.827500", "202329.287500", "202329.747500", "202330.207500", "202330.667500", "202331.127500", "202331.587500", "202332.047500", "202332.507500", "202332.967500", "202333.427500", "202333.887500", "202334.347500", "202334.807500", "202335.267500", "202335.727500", "202336.187500", "202336.647500", "202337.107500", "202337.567500", "202338.027500", "202338.487500", "202338.947500", "202339.407500", "202339.867500", "202340.327500", "202340.787500", "202341.247500", "202341.707500", "202342.167500", "202342.627500", "202343.087500", "202343.547500", "202344.007500", "202344.467500", "202344.927500", "202345.387500", "202345.847500", "202346.307500", "202346.767500", "202347.227500", "202347.687500", "202348.147500", "202348.607500", "202349.067500", "202349.527500", "202349.987500", "202350.447500", "202350.907500", "202351.367500", "202351.827500", "202352.287500", "202352.747500", "202353.207500", "202353.667500", "202354.127500", "202354.587500", "202355.047500", "202355.507500", "202355.967500", "202356.427500", "202356.887500", "202357.347500", "202357.807500", "202358.267500", "202358.727500", "202359.187500", "202359.647500", "202400.107500", "202400.567500", "202401.027500", "202401.487500", "202401.947500", "202402.407500", "202402.867500", "202403.327500", "202403.787500", "202404.247500", "202404.707500", "202405.167500", "202405.627500", "202406.087500", "202406.547500", "202407.007500", "202407.467500", "202407.927500", "202408.387500", "202408.847500", "202409.307500", "202409.767500", "202410.227500", "202410.687500", "202411.147500", "202411.607500", "202412.067500", "202412.527500", "202412.987500", "202413.447500", "202413.907500", "202414.367500", "202414.827500", "202415.287500", "202415.747500", "202416.207500", "202416.667500", "202417.127500", "202417.587500", "202418.047500", "202418.507500", "202418.967500", "202419.427500", "202419.887500", "202420.347500", "202420.807500", "202421.267500", "202421.727500", "202422.187500", "202422.647500", "202423.107500", "202423.567500", "202424.027500", "202424.487500", "202424.947500", "202425.407500", "202425.867500", "202426.327500", "202426.787500", "202427.247500", "202427.707500", "202428.167500", "202428.627500", "202429.087500", "202429.547500", "202430.007500", "202430.467500", "202430.927500", "202431.387500", "202431.847500", "202432.307500", "202432.767500", "202433.227500", "202433.687500", "202434.147500", "202434.607500", "202435.067500", "202435.527500", "202435.987500", "202436.447500", "202436.907500", "202437.367500", "202437.827500", "202438.287500", "202438.747500", "202439.207500", "202439.667500", "202440.127500", "202440.587500", "202441.047500", "202441.507500", "202441.967500", "202442.427500", "202442.887500", "202443.347500", "202443.807500", "202444.267500", "202444.727500", "202445.187500", "202445.647500", "202446.107500", "202446.567500", "202447.027500", "202447.487500", "202447.947500", "202448.407500", "202448.867500", "202449.327500", "202449.787500", "202450.247500", "202450.707500", "202451.167500", "202451.627500", "202452.087500", "202452.547500", "202453.007500", "202453.467500", "202453.927500", "202454.387500", "202454.847500", "202455.307500", "202455.767500", "202456.227500", "202456.687500", "202457.147500", "202457.607500", "202458.067500", "202458.527500", "202458.987500", "202459.447500", "202459.907500", "202500.367500", "202500.827500", "202501.287500", "202501.747500", "202502.207500", "202502.667500", "202503.127500", "202503.587500", "202504.047500", "202504.507500", "202504.967500", "202505.427500", "202505.887500", "202506.347500", "202506.807500", "202507.267500", "202507.727500", "202508.187500", "202508.647500", "202509.107500", "202509.567500", "202510.027500", "202510.487500", "202510.947500", "202511.407500", "202511.867500", "202512.327500", "202512.787500", "202513.247500", "202513.707500", "202514.167500", "202514.627500", "202515.087500", "202515.547500", "202516.007500", "202516.467500", "202516.927500", "202517.387500", "202517.847500", "202518.307500", "202518.767500", "202519.227500", "202519.687500", "202520.147500", "202520.607500", "202521.067500", "202521.527500", "202521.987500", "202522.447500", "202522.907500", "202523.367500", "202523.827500", "202524.287500", "202524.747500", "202525.207500", "202525.667500", "202526.127500", "202526.587500", "202527.047500", "202527.507500", "202527.967500", "202528.427500", "202528.887500", "202529.347500", "202529.807500", "202530.267500", "202530.727500", "202531.187500", "202531.647500", "202532.107500", "202532.567500", "202533.027500", "202533.487500", "202533.947500", "202534.407500", "202534.867500", "202535.327500", "202535.787500", "202536.247500", "202536.707500", "202537.167500", "202537.627500", "202538.087500", "202538.547500", "202539.007500", "202539.467500", "202539.927500", "202540.387500", "202540.847500", "202541.307500", "202541.767500", "202542.227500", "202542.687500", "202543.147500", "202543.607500", "202544.067500", "202544.527500", "202544.987500", "202545.447500", "202545.907500", "202546.367500", "202546.827500", "202547.287500", "202547.747500", "202548.207500", "202548.667500", "202549.127500", "202549.587500", "202550.047500", "202550.507500", "202550.967500", "202551.427500", "202551.887500", "202552.347500", "202552.807500", "202553.267500", "202553.727500", "202554.187500", "202554.647500", "202555.107500", "202555.567500", "202556.027500", "202556.487500", "202556.947500", "202557.407500", "202557.867500", "202558.327500", "202558.787500", "202559.247500", "202559.707500", "202600.167500", "202600.627500", "202601.087500", "202601.547500", "202602.007500", "202602.467500", "202602.927500", "202603.387500", "202603.847500", "202604.307500", "202604.767500", "202605.227500", "202605.687500", "202606.147500", "202606.607500", "202607.067500", "202607.527500", "202607.987500", "202608.447500", "202608.907500", "202609.367500", "202609.827500", "202610.287500", "202610.747500", "202611.207500", "202611.667500", "202612.127500", "202612.587500", "202613.047500", "202613.507500", "202613.967500", "202614.427500", "202614.887500", "202615.347500", "202615.807500", "202616.267500", "202616.727500", "202617.187500", "202617.647500", "202618.107500", "202618.567500", "202619.027500", "202619.487500", "202619.947500", "202620.407500", "202620.867500", "202621.327500", "202621.787500", "202622.247500", "202622.707500", "202623.167500", "202623.627500", "202624.087500", "202624.547500", "202625.007500", "202625.467500", "202625.927500", "202626.387500", "202626.847500", "202627.307500", "202627.767500", "202628.227500", "202628.687500", "202629.147500", "202629.607500", "202630.067500", "202630.527500", "202630.987500", "202631.447500", "202631.907500", "202632.367500", "202632.827500", "202633.287500", "202633.747500", "202634.207500", "202634.667500", "202635.127500", "202635.587500", "202636.047500", "202636.507500", "202636.967500", "202637.427500", "202637.887500", "202638.347500", "202638.807500", "202639.267500", "202639.727500", "202640.187500", "202640.647500", "202641.107500", "202641.567500", "202642.027500", "202642.487500", "202642.947500", "202643.407500", "202643.867500", "202644.327500", "202644.787500", "202645.247500", "202645.707500", "202646.167500", "202646.627500", "202647.087500", "202647.547500", "202648.007500", "202648.467500", "202648.927500", "202649.387500", "202649.847500", "202650.307500", "202650.767500", "202651.227500", "202651.687500", "202652.147500", "202652.607500", "202653.067500", "202653.527500", "202653.987500"],
