{
  "AcquisitionMatrixPE": 82,
  "AcquisitionNumber": 1,
  "AcquisitionTime": "20:06:8.767500",
  "BandwidthPerPixelPhaseEncode": 24.888,
  "BaseResolution": 82,
  "BodyPartExamined": "BRAIN",
  "ConsistencyInfo": "N4_VE11E_LATEST_20181129",
  "ConversionSoftware": "dcm2niix",
  "ConversionSoftwareVersion": "v1.0.20201102",
  "DerivedVendorReportedEchoSpacing": 0.00049,
  "DeviceSerialNumber": "66112",
  "DwellTime": 2e-06,
  "EchoTime": 0.0272,
  "EchoTrainLength": 82,
  "EffectiveEchoSpacing": 0.00049,
  "FlipAngle": 44,
  "ImageComments": "Unaliased MB8/PE3",
  "ImageOrientationPatientDICOM": [0.997473, -0.0194454, -0.0683349, 0.00940126, 0.989484, -0.144339],
  "ImageType": [
    "ORIGINAL",
    "PRIMARY",
    "M",
    "MB",
    "ND",
    "NORM",
    "MOSAIC"
],
  "ImagingFrequency": 123.259,
  "InPlanePhaseEncodingDirectionDICOM": "COL",
  "InstitutionAddress": "Maynard 3,Hanover,NH,US,03755",
  "InstitutionName": "Dartmouth College - PBS",
  "InstitutionalDepartmentName": "Department",
  "MRAcquisitionType": "2D",
  "MagneticFieldStrength": 3,
  "Manufacturer": "Siemens",
  "ManufacturersModelName": "Prisma",
  "Modality": "MR",
  "MultibandAccelerationFactor": 8,
  "PartialFourier": 1,
  "PatientPosition": "HFS",
  "PercentPhaseFOV": 100,
  "PercentSampling": 100,
  "PhaseEncodingDirection": "j-",
  "PhaseEncodingSteps": 82,
  "PhaseResolution": 1,
  "PixelBandwidth": 3050,
  "ProcedureStepDescription": "Wager_Wager^1076_spacetop",
  "ProtocolName": "func_run-01_task-social_acq-ap-mb8",
  "PulseSequenceDetails": "%CustomerSeq%\\cmrr_mbep2d_bold",
  "ReceiveCoilActiveElements": "HEA;HEP",
  "ReceiveCoilName": "Head_32",
  "ReconMatrixPE": 82,
  "RepetitionTime": 0.46,
  "SAR": 0.0808722,
  "ScanOptions": "FS",
  "ScanningSequence": "EP",
  "SequenceName": "epfid2d1_82",
  "SequenceVariant": "SK\\SS",
  "SeriesDescription": "func_run-01_task-social_acq-ap-mb8",
  "SeriesNumber": 8,
  "ShimSetting": [4226, -7694, -7314, 192, -144, -79, -115, 101],
  "SliceThickness": 2.7,
  "SliceTiming": [0, 0.25, 0.0625, 0.315, 0.125, 0.3775, 0.1875, 0, 0.25, 0.0625, 0.315, 0.125, 0.3775, 0.1875, 0, 0.25, 0.0625, 0.315, 0.125, 0.3775, 0.1875, 0, 0.25, 0.0625, 0.315, 0.125, 0.3775, 0.1875, 0, 0.25, 0.0625, 0.315, 0.125, 0.3775, 0.1875, 0, 0.25, 0.0625, 0.315, 0.125, 0.3775, 0.1875, 0, 0.25, 0.0625, 0.315, 0.125, 0.3775, 0.1875, 0, 0.25, 0.0625, 0.315, 0.125, 0.3775, 0.1875],
  "SoftwareVersions": "syngo MR E11",
  "SpacingBetweenSlices": 2.7,
  "StationName": "AWP66112",
  "TaskName": "social",
  "TotalReadoutTime": 0.03969,
  "TxRefAmp": 234.828,
  "WipMemBlock": "029d9e1b-49f9-4f82-8ef7-0301c744c15f||Sequence: R016 ve11e/master r/434b28f1; Aug  7 2019 18:53:46 by eja",
  "dcmmeta_affine": [
    [-2.676146984100342, 0.025222893804311752, -0.1901421695947647, 111.4565200805664],
    [0.05217048525810242, 2.654712438583374, -0.3869946300983429, -97.7342758178711],
    [-0.18333765864372253, 0.38724976778030396, 2.6653480529785156, -99.50725555419922],
    [0.0, 0.0, 0.0, 1.0]
],
  "dcmmeta_reorient_transform": [
    [0.0, -1.0, 0.0, 81.0],
    [1.0, 0.0, 0.0, 0.0],
    [0.0, 0.0, 1.0, 0.0],
    [0.0, 0.0, 0.0, 1.0]
],
  "dcmmeta_shape": [82, 82, 56, 872],
  "dcmmeta_slice_dim": 2,
  "dcmmeta_version": 0.6,
  "global": {
    "const": {
      "AccessionNumber": "A004671",
      "AcquisitionMatrix": [82, 0, 0, 82],
      "AngioFlag": "N",
      "BitsAllocated": 16,
      "BitsStored": 16,
      "BodyPartExamined": "BRAIN",
      "Columns": 656,
      "EchoNumbers": 1,
      "EchoTime": 27.2,
      "EchoTrainLength": 82,
      "FlipAngle": 44.0,
      "HighBit": 15,
      "ImageOrientationPatient": [0.99747291362032, -0.0194453618227, -0.0683349434577, 0.00940126028979, 0.98948370445443, -0.1443385427532],
      "ImagePositionPatient": [-888.79270308434, -864.22697494951, 95.618561304719],
      "ImageType": [
        "ORIGINAL",
        "PRIMARY",
        "M",
        "MB",
        "ND",
        "NORM",
        "MOSAIC"
],
      "ImagedNucleus": "1H",
      "ImagingFrequency": 123.259134,
      "InPlanePhaseEncodingDirection": "COL",
      "MRAcquisitionType": "2D",
      "MagneticFieldStrength": 3.0,
      "Manufacturer": "SIEMENS",
      "ManufacturerModelName": "Prisma",
      "Modality": "MR",
      "NumberOfAverages": 1.0,
      "NumberOfPhaseEncodingSteps": 82,
      "PercentPhaseFieldOfView": 100.0,
      "PercentSampling": 100.0,
      "PerformedProcedureStepStartTime": "190638.610000",
      "PhotometricInterpretation": "MONOCHROME2",
      "PixelBandwidth": 3050.0,
      "PixelRepresentation": 0,
      "PixelSpacing": [2.6829268932343, 2.6829268932343],
      "ProtocolName": "func_run-01_task-social_acq-ap-mb8",
      "RepetitionTime": 460.0,
      "Rows": 656,
      "SAR": 0.08087223613208,
      "SamplesPerPixel": 1,
      "ScanOptions": "FS",
      "ScanningSequence": "EP",
      "SequenceName": "epfid2d1_82",
      "SequenceVariant": [
        "SK",
        "SS"
],
      "SeriesDescription": "func_run-01_task-social_acq-ap-mb8",
      "SeriesNumber": 8,
      "SeriesTime": "200619.655000",
      "SliceLocation": -92.070901379032,
      "SliceThickness": 2.7000000476837,
      "SmallestImagePixelValue": 0,
      "SoftwareVersions": "syngo MR E11",
      "SpacingBetweenSlices": 2.6999999119912,
      "SpecificCharacterSet": "ISO_IR 100",
      "StudyID": "1",
      "StudyTime": "190638.509000",
      "TransmitCoilName": "Body",
      "VariableFlipAngleFlag": "N",
      "WindowCenterWidthExplanation": "Algo1"
    },
    "slices": {}
  },
  "time": {
    "samples": {
      "AcquisitionNumber": [1, 2, 3, 4, 5, 6, 7, 8, 9, 10, 11, 12, 13, 14, 15, 16, 17, 18, 19, 20, 21, 22, 23, 24, 25, 26, 27, 28, 29, 30, 31, 32, 33, 34, 35, 36, 37, 38, 39, 40, 41, 42, 43, 44, 45, 46, 47, 48, 49, 50, 51, 52, 53, 54, 55, 56, 57, 58, 59, 60, 61, 62, 63, 64, 65, 66, 67, 68, 69, 70, 71, 72, 73, 74, 75, 76, 77, 78, 79, 80, 81, 82, 83, 84, 85, 86, 87, 88, 89, 90, 91, 92, 93, 94, 95, 96, 97, 98, 99, 100, 101, 102, 103, 104, 105, 106, 107, 108, 109, 110, 111, 112, 113, 114, 115, 116, 117, 118, 119, 120, 121, 122, 123, 124, 125, 126, 127, 128, 129, 130, 131, 132, 133, 134, 135, 136, 137, 138, 139, 140, 141, 142, 143, 144, 145, 146, 147, 148, 149, 150, 151, 152, 153, 154, 155, 156, 157, 158, 159, 160, 161, 162, 163, 164, 165, 166, 167, 168, 169, 170, 171, 172, 173, 174, 175, 176, 177, 178, 179, 180, 181, 182, 183, 184, 185, 186, 187, 188, 189, 190, 191, 192, 193, 194, 195, 196, 197, 198, 199, 200, 201, 202, 203, 204, 205, 206, 207, 208, 209, 210, 211, 212, 213, 214, 215, 216, 217, 218, 219, 220, 221, 222, 223, 224, 225, 226, 227, 228, 229, 230, 231, 232, 233, 234, 235, 236, 237, 238, 239, 240, 241, 242, 243, 244, 245, 246, 247, 248, 249, 250, 251, 252, 253, 254, 255, 256, 257, 258, 259, 260, 261, 262, 263, 264, 265, 266, 267, 268, 269, 270, 271, 272, 273, 274, 275, 276, 277, 278, 279, 280, 281, 282, 283, 284, 285, 286, 287, 288, 289, 290, 291, 292, 293, 294, 295, 296, 297, 298, 299, 300, 301, 302, 303, 304, 305, 306, 307, 308, 309, 310, 311, 312, 313, 314, 315, 316, 317, 318, 319, 320, 321, 322, 323, 324, 325, 326, 327, 328, 329, 330, 331, 332, 333, 334, 335, 336, 337, 338, 339, 340, 341, 342, 343, 344, 345, 346, 347, 348, 349, 350, 351, 352, 353, 354, 355, 356, 357, 358, 359, 360, 361, 362, 363, 364, 365, 366, 367, 368, 369, 370, 371, 372, 373, 374, 375, 376, 377, 378, 379, 380, 381, 382, 383, 384, 385, 386, 387, 388, 389, 390, 391, 392, 393, 394, 395, 396, 397, 398, 399, 400, 401, 402, 403, 404, 405, 406, 407, 408, 409, 410, 411, 412, 413, 414, 415, 416, 417, 418, 419, 420, 421, 422, 423, 424, 425, 426, 427, 428, 429, 430, 431, 432, 433, 434, 435, 436, 437, 438, 439, 440, 441, 442, 443, 444, 445, 446, 447, 448, 449, 450, 451, 452, 453, 454, 455, 456, 457, 458, 459, 460, 461, 462, 463, 464, 465, 466, 467, 468, 469, 470, 471, 472, 473, 474, 475, 476, 477, 478, 479, 480, 481, 482, 483, 484, 485, 486, 487, 488, 489, 490, 491, 492, 493, 494, 495, 496, 497, 498, 499, 500, 501, 502, 503, 504, 505, 506, 507, 508, 509, 510, 511, 512, 513, 514, 515, 516, 517, 518, 519, 520, 521, 522, 523, 524, 525, 526, 527, 528, 529, 530, 531, 532, 533, 534, 535, 536, 537, 538, 539, 540, 541, 542, 543, 544, 545, 546, 547, 548, 549, 550, 551, 552, 553, 554, 555, 556, 557, 558, 559, 560, 561, 562, 563, 564, 565, 566, 567, 568, 569, 570, 571, 572, 573, 574, 575, 576, 577, 578, 579, 580, 581, 582, 583, 584, 585, 586, 587, 588, 589, 590, 591, 592, 593, 594, 595, 596, 597, 598, 599, 600, 601, 602, 603, 604, 605, 606, 607, 608, 609, 610, 611, 612, 613, 614, 615, 616, 617, 618, 619, 620, 621, 622, 623, 624, 625, 626, 627, 628, 629, 630, 631, 632, 633, 634, 635, 636, 637, 638, 639, 640, 641, 642, 643, 644, 645, 646, 647, 648, 649, 650, 651, 652, 653, 654, 655, 656, 657, 658, 659, 660, 661, 662, 663, 664, 665, 666, 667, 668, 669, 670, 671, 672, 673, 674, 675, 676, 677, 678, 679, 680, 681, 682, 683, 684, 685, 686, 687, 688, 689, 690, 691, 692, 693, 694, 695, 696, 697, 698, 699, 700, 701, 702, 703, 704, 705, 706, 707, 708, 709, 710, 711, 712, 713, 714, 715, 716, 717, 718, 719, 720, 721, 722, 723, 724, 725, 726, 727, 728, 729, 730, 731, 732, 733, 734, 735, 736, 737, 738, 739, 740, 741, 742, 743, 744, 745, 746, 747, 748, 749, 750, 751, 752, 753, 754, 755, 756, 757, 758, 759, 760, 761, 762, 763, 764, 765, 766, 767, 768, 769, 770, 771, 772, 773, 774, 775, 776, 777, 778, 779, 780, 781, 782, 783, 784, 785, 786, 787, 788, 789, 790, 791, 792, 793, 794, 795, 796, 797, 798, 799, 800, 801, 802, 803, 804, 805, 806, 807, 808, 809, 810, 811, 812, 813, 814, 815, 816, 817, 818, 819, 820, 821, 822, 823, 824, 825, 826, 827, 828, 829, 830, 831, 832, 833, 834, 835, 836, 837, 838, 839, 840, 841, 842, 843, 844, 845, 846, 847, 848, 849, 850, 851, 852, 853, 854, 855, 856, 857, 858, 859, 860, 861, 862, 863, 864, 865, 866, 867, 868, 869, 870, 871, 872],
      "AcquisitionTime": ["200608.767500", "200609.227500", "200609.687500", "200610.147500", "200610.607500", "200611.067500", "200611.527500", "200611.987500", "200612.447500", "200612.907500", "200613.367500", "200613.827500", "200614.287500", "200614.747500", "200615.207500", "200615.667500", "200616.127500", "200616.587500", "200617.047500", "200617.507500", "200617.967500", "200618.427500", "200618.887500", "200619.347500", "200619.807500", "200620.267500", "200620.727500", "200621.187500", "200621.647500", "200622.107500", "200622.567500", "200623.027500", "200623.487500", "200623.947500", "200624.407500", "200624.867500", "200625.327500", "200625.787500", "200626.247500", "200626.707500", "200627.167500", "200627.627500", "200628.087500", "200628.547500", "200629.007500", "200629.467500", "200629.927500", "200630.387500", "200630.847500", "200631.307500", "200631.767500", "200632.227500", "200632.687500", "200633.147500", "200633.607500", "200634.067500", "200634.527500", "200634.987500", "200635.447500", "200635.907500", "200636.367500", "200636.827500", "200637.287500", "200637.747500", "200638.207500", "200638.667500", "200639.127500", "200639.587500", "200640.047500", "200640.507500", "200640.967500", "200641.427500", "200641.887500", "200642.347500", "200642.807500", "200643.267500", "200643.727500", "200644.187500", "200644.647500", "200645.107500", "200645.567500", "200646.027500", "200646.487500", "200646.947500", "200647.407500", "200647.867500", "200648.327500", "200648.787500", "200649.247500", "200649.707500", "200650.167500", "200650.627500", "200651.087500", "200651.547500", "200652.007500", "200652.467500", "200652.927500", "200653.387500", "200653.847500", "200654.307500", "200654.767500", "200655.227500", "200655.687500", "200656.147500", "200656.607500", "200657.067500", "200657.527500", "200657.987500", "200658.447500", "200658.907500", "200659.367500", "200659.827500", "200700.287500", "200700.747500", "200701.207500", "200701.667500", "200702.127500", "200702.587500", "200703.047500", "200703.507500", "200703.967500", "200704.427500", "200704.887500", "200705.347500", "200705.807500", "200706.267500", "200706.727500", "200707.187500", "200707.647500", "200708.107500", "200708.567500", "200709.027500", "200709.487500", "200709.947500", "200710.407500", "200710.867500", "200711.327500", "200711.787500", "200712.247500", "200712.707500", "200713.167500", "200713.627500", "200714.087500", "200714.547500", "200715.007500", "200715.467500", "200715.927500", "200716.387500", "200716.847500", "200717.307500", "200717.767500", "200718.227500", "200718.687500", "200719.147500", "200719.607500", "200720.067500", "200720.527500", "200720.987500", "200721.447500", "200721.907500", "200722.367500", "200722.827500", "200723.287500", "200723.747500", "200724.207500", "200724.667500", "200725.127500", "200725.587500", "200726.047500", "200726.507500", "200726.967500", "200727.427500", "200727.887500", "200728.347500", "200728.807500", "200729.267500", "200729.727500", "200730.187500", "200730.647500", "200731.107500", "200731.567500", "200732.027500", "200732.487500", "200732.947500", "200733.407500", "200733.867500", "200734.327500", "200734.787500", "200735.247500", "200735.707500", "200736.167500", "200736.627500", "200737.087500", "200737.547500", "200738.007500", "200738.467500", "200738.927500", "200739.387500", "200739.847500", "200740.307500", "200740.767500", "200741.227500", "200741.687500", "200742.147500", "200742.607500", "200743.067500", "200743.527500", "200743.987500", "200744.447500", "200744.907500", "200745.367500", "200745.827500", "200746.287500", "200746.747500", "200747.207500", "200747.667500", "200748.127500", "200748.587500", "200749.047500", "200749.507500", "200749.967500", "200750.427500", "200750.887500", "200751.347500", "200751.807500", "200752.267500", "200752.727500", "200753.187500", "200753.647500", "200754.107500", "200754.567500", "200755.027500", "200755.487500", "200755.947500", "200756.407500", "200756.867500", "200757.327500", "200757.787500", "200758.247500", "200758.707500", "200759.167500", "200759.627500", "200800.087500", "200800.547500", "200801.007500", "200801.467500", "200801.927500", "200802.387500", "200802.847500", "200803.307500", "200803.767500", "200804.227500", "200804.687500", "200805.147500", "200805.607500", "200806.067500", "200806.527500", "200806.987500", "200807.447500", "200807.907500", "200808.367500", "200808.827500", "200809.287500", "200809.747500", "200810.207500", "200810.667500", "200811.127500", "200811.587500", "200812.047500", "200812.507500", "200812.967500", "200813.427500", "200813.887500", "200814.347500", "200814.807500", "200815.267500", "200815.727500", "200816.187500", "200816.647500", "200817.107500", "200817.567500", "200818.027500", "200818.487500", "200818.947500", "200819.407500", "200819.867500", "200820.327500", "200820.787500", "200821.247500", "200821.707500", "200822.167500", "200822.627500", "200823.087500", "200823.547500", "200824.007500", "200824.467500", "200824.927500", "200825.387500", "200825.847500", "200826.307500", "200826.767500", "200827.227500", "200827.687500", "200828.147500", "200828.607500", "200829.067500", "200829.527500", "200829.987500", "200830.447500", "200830.907500", "200831.367500", "200831.827500", "200832.287500", "200832.747500", "200833.207500", "200833.667500", "200834.127500", "200834.587500", "200835.047500", "200835.507500", "200835.967500", "200836.427500", "200836.887500", "200837.347500", "200837.807500", "200838.267500", "200838.727500", "200839.187500", "200839.647500", "200840.107500", "200840.567500", "200841.027500", "200841.487500", "200841.947500", "200842.407500", "200842.867500", "200843.327500", "200843.787500", "200844.247500", "200844.707500", "200845.167500", "200845.627500", "200846.087500", "200846.547500", "200847.007500", "200847.467500", "200847.927500", "200848.387500", "200848.847500", "200849.307500", "200849.767500", "200850.227500", "200850.687500", "200851.147500", "200851.607500", "200852.067500", "200852.527500", "200852.987500", "200853.447500", "200853.907500", "200854.367500", "200854.827500", "200855.287500", "200855.747500", "200856.207500", "200856.667500", "200857.127500", "200857.587500", "200858.047500", "200858.507500", "200858.967500", "200859.427500", "200859.887500", "200900.347500", "200900.807500", "200901.267500", "200901.727500", "200902.187500", "200902.647500", "200903.107500", "200903.567500", "200904.027500", "200904.487500", "200904.947500", "200905.407500", "200905.867500", "200906.327500", "200906.787500", "200907.247500", "200907.707500", "200908.167500", "200908.627500", "200909.087500", "200909.547500", "200910.007500", "200910.467500", "200910.927500", "200911.387500", "200911.847500", "200912.307500", "200912.767500", "200913.227500", "200913.687500", "200914.147500", "200914.607500", "200915.067500", "200915.527500", "200915.987500", "200916.447500", "200916.907500", "200917.367500", "200917.827500", "200918.287500", "200918.747500", "200919.207500", "200919.667500", "200920.127500", "200920.587500", "200921.047500", "200921.507500", "200921.967500", "200922.427500", "200922.887500", "200923.347500", "200923.807500", "200924.267500", "200924.727500", "200925.187500", "200925.647500", "200926.107500", "200926.567500", "200927.027500", "200927.487500", "200927.947500", "200928.407500", "200928.867500", "200929.327500", "200929.787500", "200930.247500", "200930.707500", "200931.167500", "200931.627500", "200932.087500", "200932.547500", "200933.007500", "200933.467500", "200933.927500", "200934.387500", "200934.847500", "200935.307500", "200935.767500", "200936.227500", "200936.687500", "200937.147500", "200937.607500", "200938.067500", "200938.527500", "200938.987500", "200939.447500", "200939.907500", "200940.367500", "200940.827500", "200941.287500", "200941.747500", "200942.207500", "200942.667500", "200943.127500", "200943.587500", "200944.047500", "200944.507500", "200944.967500", "200945.427500", "200945.887500", "200946.347500", "200946.807500", "200947.267500", "200947.727500", "200948.187500", "200948.647500", "200949.107500", "200949.567500", "200950.027500", "200950.487500", "200950.947500", "200951.407500", "200951.867500", "200952.327500", "200952.787500", "200953.247500", "200953.707500", "200954.167500", "200954.627500", "200955.087500", "200955.547500", "200956.007500", "200956.467500", "200956.927500", "200957.387500", "200957.847500", "200958.307500", "200958.767500", "200959.227500", "200959.687500", "201000.147500", "201000.607500", "201001.067500", "201001.527500", "201001.987500", "201002.447500", "201002.907500", "201003.367500", "201003.827500", "201004.287500", "201004.747500", "201005.207500", "201005.667500", "201006.127500", "201006.587500", "201007.047500", "201007.507500", "201007.967500", "201008.427500", "201008.887500", "201009.347500", "201009.807500", "201010.267500", "201010.727500", "201011.187500", "201011.647500", "201012.107500", "201012.567500", "201013.027500", "201013.487500", "201013.947500", "201014.407500", "201014.867500", "201015.327500", "201015.787500", "201016.247500", "201016.707500", "201017.167500", "201017.627500", "201018.087500", "201018.547500", "201019.007500", "201019.467500", "201019.927500", "201020.387500", "201020.847500", "201021.307500", "201021.767500", "201022.227500", "201022.687500", "201023.147500", "201023.607500", "201024.067500", "201024.527500", "201024.987500", "201025.447500", "201025.907500", "201026.367500", "201026.827500", "201027.287500", "201027.747500", "201028.207500", "201028.667500", "201029.127500", "201029.587500", "201030.047500", "201030.507500", "201030.967500", "201031.427500", "201031.887500", "201032.347500", "201032.807500", "201033.267500", "201033.727500", "201034.187500", "201034.647500", "201035.107500", "201035.567500", "201036.027500", "201036.487500", "201036.947500", "201037.407500", "201037.867500", "201038.327500", "201038.787500", "201039.247500", "201039.707500", "201040.167500", "201040.627500", "201041.087500", "201041.547500", "201042.007500", "201042.467500", "201042.927500", "201043.387500", "201043.847500", "201044.307500", "201044.767500", "201045.227500", "201045.687500", "201046.147500", "201046.607500", "201047.067500", "201047.527500", "201047.987500", "201048.447500", "201048.907500", "201049.367500", "201049.827500", "201050.287500", "201050.747500", "201051.207500", "201051.667500", "201052.127500", "201052.587500", "201053.047500", "201053.507500", "201053.967500", "201054.427500", "201054.887500", "201055.347500", "201055.807500", "201056.267500", "201056.727500", "201057.187500", "201057.647500", "201058.107500", "201058.567500", "201059.027500", "201059.487500", "201059.947500", "201100.407500", "201100.867500", "201101.327500", "201101.787500", "201102.247500", "201102.707500", "201103.167500", "201103.627500", "201104.087500", "201104.547500", "201105.007500", "201105.467500", "201105.927500", "201106.387500", "201106.847500", "201107.307500", "201107.767500", "201108.227500", "201108.687500", "201109.147500", "201109.607500", "201110.067500", "201110.527500", "201110.987500", "201111.447500", "201111.907500", "201112.367500", "201112.827500", "201113.287500", "201113.747500", "201114.207500", "201114.667500", "201115.127500", "201115.587500", "201116.047500", "201116.507500", "201116.967500", "201117.427500", "201117.887500", "201118.347500", "201118.807500", "201119.267500", "201119.727500", "201120.187500", "201120.647500", "201121.107500", "201121.567500", "201122.027500", "201122.487500", "201122.947500", "201123.407500", "201123.867500", "201124.327500", "201124.787500", "201125.247500", "201125.707500", "201126.167500", "201126.627500", "201127.087500", "201127.547500", "201128.007500", "201128.467500", "201128.927500", "201129.387500", "201129.847500", "201130.307500", "201130.767500", "201131.227500", "201131.687500", "201132.147500", "201132.607500", "201133.067500", "201133.527500", "201133.987500", "201134.447500", "201134.907500", "201135.367500", "201135.827500", "201136.287500", "201136.747500", "201137.207500", "201137.667500", "201138.127500", "201138.587500", "201139.047500", "201139.507500", "201139.967500", "201140.427500", "201140.887500", "201141.347500", "201141.807500", "201142.267500", "201142.727500", "201143.187500", "201143.647500", "201144.107500", "201144.567500", "201145.027500", "201145.487500", "201145.947500", "201146.407500", "201146.867500", "201147.327500", "201147.787500", "201148.247500", "201148.707500", "201149.167500", "201149.627500", "201150.087500", "201150.547500", "201151.007500", "201151.467500", "201151.927500", "201152.387500", "201152.847500", "201153.307500", "201153.767500", "201154.227500", "201154.687500", "201155.147500", "201155.607500", "201156.067500", "201156.527500", "201156.987500", "201157.447500", "201157.907500", "201158.367500", "201158.827500", "201159.287500", "201159.747500", "201200.207500", "201200.667500", "201201.127500", "201201.587500", "201202.047500", "201202.507500", "201202.967500", "201203.427500", "201203.887500", "201204.347500", "201204.807500", "201205.267500", "201205.727500", "201206.187500", "201206.647500", "201207.107500", "201207.567500", "201208.027500", "201208.487500", "201208.947500", "201209.407500", "201209.867500", "201210.327500", "201210.787500", "201211.247500", "201211.707500", "201212.167500", "201212.627500", "201213.087500", "201213.547500", "201214.007500", "201214.467500", "201214.927500", "201215.387500", "201215.847500", "201216.307500", "201216.767500", "201217.227500", "201217.687500", "201218.147500", "201218.607500", "201219.067500", "201219.527500", "201219.987500", "201220.447500", "201220.907500", "201221.367500", "201221.827500", "201222.287500", "201222.747500", "201223.207500", "201223.667500", "201224.127500", "201224.587500", "201225.047500", "201225.507500", "201225.967500", "201226.427500", "201226.887500", "201227.347500", "201227.807500", "201228.267500", "201228.727500", "201229.187500", "201229.647500", "201230.107500", "201230.567500", "201231.027500", "201231.487500", "201231.947500", "201232.407500", "201232.867500", "201233.327500", "201233.787500", "201234.247500", "201234.707500", "201235.167500", "201235.627500", "201236.087500", "201236.547500", "201237.007500", "201237.467500", "201237.927500", "201238.387500", "201238.847500", "201239.307500", "201239.767500", "201240.227500", "201240.687500", "201241.147500", "201241.607500", "201242.067500", "201242.527500", "201242.987500", "201243.447500", "201243.907500", "201244.367500", "201244.827500", "201245.287500", "201245.747500", "201246.207500", "201246.667500", "201247.127500", "201247.587500", "201248.047500", "201248.507500", "201248.967500", "201249.427500"],
