{
  "AcquisitionMatrixPE": 82,
  "AcquisitionNumber": 1,
  "AcquisitionTime": "19:16:47.405000",
  "BandwidthPerPixelPhaseEncode": 24.888,
  "BaseResolution": 82,
  "BodyPartExamined": "BRAIN",
  "ConsistencyInfo": "N4_VE11E_LATEST_20181129",
  "ConversionSoftware": "dcm2niix",
  "ConversionSoftwareVersion": "v1.0.20201102",
  "DerivedVendorReportedEchoSpacing": 0.00049,
  "DeviceSerialNumber": "66112",
  "DwellTime": 2e-06,
  "EchoTime": 0.0272,
  "EchoTrainLength": 82,
  "EffectiveEchoSpacing": 0.00049,
  "FlipAngle": 44,
  "ImageComments": "Unaliased MB8/PE3",
  "ImageOrientationPatientDICOM": [0.999578, -0.0283509, 0.00626794, 0.0260003, 0.970075, 0.24141],
  "ImageType": [
    "ORIGINAL",
    "PRIMARY",
    "M",
    "MB",
    "ND",
    "NORM",
    "MOSAIC"
],
  "ImagingFrequency": 123.252,
  "InPlanePhaseEncodingDirectionDICOM": "COL",
  "InstitutionAddress": "Maynard 3,Hanover,NH,US,03755",
  "InstitutionName": "Dartmouth College - PBS",
  "InstitutionalDepartmentName": "Department",
  "MRAcquisitionType": "2D",
  "MagneticFieldStrength": 3,
  "Manufacturer": "Siemens",
  "ManufacturersModelName": "Prisma",
  "Modality": "MR",
  "MultibandAccelerationFactor": 8,
  "PartialFourier": 1,
  "PatientPosition": "HFS",
  "PercentPhaseFOV": 100,
  "PercentSampling": 100,
  "PhaseEncodingDirection": "j-",
  "PhaseEncodingSteps": 82,
  "PhaseResolution": 1,
  "PixelBandwidth": 3050,
  "ProcedureStepDescription": "Wager_Wager^1076_spacetop",
  "ProtocolName": "func_run-02_task-alignvideo_acq-ap-mb8",
  "PulseSequenceDetails": "%CustomerSeq%\\cmrr_mbep2d_bold",
  "ReceiveCoilActiveElements": "HEA;HEP",
  "ReceiveCoilName": "Head_32",
  "ReconMatrixPE": 82,
  "RepetitionTime": 0.46,
  "SAR": 0.115626,
  "ScanOptions": "FS",
  "ScanningSequence": "EP",
  "SequenceName": "epfid2d1_82",
  "SequenceVariant": "SK\\SS",
  "SeriesDescription": "func_run-02_task-alignvideo_acq-ap-mb8",
  "SeriesNumber": 32,
  "ShimSetting": [4154, -7793, -7246, 662, -60, -322, 103, 114],
  "SliceThickness": 2.7,
  "SliceTiming": [0, 0.2525, 0.0625, 0.315, 0.125, 0.3775, 0.19, 0, 0.2525, 0.0625, 0.315, 0.125, 0.3775, 0.19, 0, 0.2525, 0.0625, 0.315, 0.125, 0.3775, 0.19, 0, 0.2525, 0.0625, 0.315, 0.125, 0.3775, 0.19, 0, 0.2525, 0.0625, 0.315, 0.125, 0.3775, 0.19, 0, 0.2525, 0.0625, 0.315, 0.125, 0.3775, 0.19, 0, 0.2525, 0.0625, 0.315, 0.125, 0.3775, 0.19, 0, 0.2525, 0.0625, 0.315, 0.125, 0.3775, 0.19],
  "SoftwareVersions": "syngo MR E11",
  "SpacingBetweenSlices": 2.7,
  "StationName": "AWP66112",
  "TaskName": "alignvideo",
  "TotalReadoutTime": 0.03969,
  "TxRefAmp": 248.759,
  "WipMemBlock": "d51b7889-083e-4fc4-9949-8c93c234622b||Sequence: R016 ve11e/master r/434b28f1; Aug  7 2019 18:53:46 by eja",
  "dcmmeta_affine": [
    [-2.681795835494995, 0.06975691765546799, 0.034896306693553925, 108.0682373046875],
    [0.076063372194767, 2.60263991355896, 0.6510920524597168, -110.31459045410156],
    [0.01681642234325409, -0.6476852893829346, 2.6200881004333496, -28.346847534179688],
    [0.0, 0.0, 0.0, 1.0]
],
  "dcmmeta_reorient_transform": [
    [0.0, -1.0, 0.0, 81.0],
    [1.0, 0.0, 0.0, 0.0],
    [0.0, 0.0, 1.0, 0.0],
    [0.0, 0.0, 0.0, 1.0]
],
  "dcmmeta_shape": [82, 82, 56, 926],
  "dcmmeta_slice_dim": 2,
  "dcmmeta_version": 0.6,
  "global": {
    "const": {
      "AccessionNumber": "A004077",
      "AcquisitionMatrix": [82, 0, 0, 82],
      "AngioFlag": "N",
      "BitsAllocated": 16,
      "BitsStored": 16,
      "BodyPartExamined": "BRAIN",
      "Columns": 656,
      "EchoNumbers": 1,
      "EchoTime": 27.2,
      "EchoTrainLength": 82,
      "FlipAngle": 44.0,
      "HighBit": 15,
      "ImageOrientationPatient": [0.99957838105071, -0.0283508919059, 0.00626793938833, 0.02600030636078, 0.97007484872634, 0.24140996652524],
      "ImagePositionPatient": [-903.41415906303, -825.62670583273, -271.52134740409],
      "ImageType": [
        "ORIGINAL",
        "PRIMARY",
        "M",
        "MB",
        "ND",
        "NORM",
        "MOSAIC"
],
      "ImagedNucleus": "1H",
      "ImagingFrequency": 123.252202,
      "InPlanePhaseEncodingDirection": "COL",
      "MRAcquisitionType": "2D",
      "MagneticFieldStrength": 3.0,
      "Manufacturer": "SIEMENS",
      "ManufacturerModelName": "Prisma",
      "Modality": "MR",
      "NumberOfAverages": 1.0,
      "NumberOfPhaseEncodingSteps": 82,
      "PercentPhaseFieldOfView": 100.0,
      "PercentSampling": 100.0,
      "PerformedProcedureStepStartTime": "173756.014000",
      "PhotometricInterpretation": "MONOCHROME2",
      "PixelBandwidth": 3050.0,
      "PixelRepresentation": 0,
      "PixelSpacing": [2.6829268932343, 2.6829268932343],
      "ProtocolName": "func_run-02_task-alignvideo_acq-ap-mb8",
      "RepetitionTime": 460.0,
      "Rows": 656,
      "SAR": 0.1156259576016,
      "SamplesPerPixel": 1,
      "ScanOptions": "FS",
      "ScanningSequence": "EP",
      "SequenceName": "epfid2d1_82",
      "SequenceVariant": [
        "SK",
        "SS"
],
      "SeriesDescription": "func_run-02_task-alignvideo_acq-ap-mb8",
      "SeriesNumber": 32,
      "SeriesTime": "191716.730000",
      "SliceLocation": -52.712965772468,
      "SliceThickness": 2.7000000476837,
      "SmallestImagePixelValue": 0,
      "SoftwareVersions": "syngo MR E11",
      "SpacingBetweenSlices": 2.6999999506284,
      "SpecificCharacterSet": "ISO_IR 100",
      "StudyID": "4",
      "StudyTime": "173755.969000",
      "TransmitCoilName": "Body",
      "VariableFlipAngleFlag": "N",
      "WindowCenterWidthExplanation": "Algo1"
    },
    "slices": {}
  },
  "time": {
    "samples": {
      "AcquisitionNumber": [1, 2, 3, 4, 5, 6, 7, 8, 9, 10, 11, 12, 13, 14, 15, 16, 17, 18, 19, 20, 21, 22, 23, 24, 25, 26, 27, 28, 29, 30, 31, 32, 33, 34, 35, 36, 37, 38, 39, 40, 41, 42, 43, 44, 45, 46, 47, 48, 49, 50, 51, 52, 53, 54, 55, 56, 57, 58, 59, 60, 61, 62, 63, 64, 65, 66, 67, 68, 69, 70, 71, 72, 73, 74, 75, 76, 77, 78, 79, 80, 81, 82, 83, 84, 85, 86, 87, 88, 89, 90, 91, 92, 93, 94, 95, 96, 97, 98, 99, 100, 101, 102, 103, 104, 105, 106, 107, 108, 109, 110, 111, 112, 113, 114, 115, 116, 117, 118, 119, 120, 121, 122, 123, 124, 125, 126, 127, 128, 129, 130, 131, 132, 133, 134, 135, 136, 137, 138, 139, 140, 141, 142, 143, 144, 145, 146, 147, 148, 149, 150, 151, 152, 153, 154, 155, 156, 157, 158, 159, 160, 161, 162, 163, 164, 165, 166, 167, 168, 169, 170, 171, 172, 173, 174, 175, 176, 177, 178, 179, 180, 181, 182, 183, 184, 185, 186, 187, 188, 189, 190, 191, 192, 193, 194, 195, 196, 197, 198, 199, 200, 201, 202, 203, 204, 205, 206, 207, 208, 209, 210, 211, 212, 213, 214, 215, 216, 217, 218, 219, 220, 221, 222, 223, 224, 225, 226, 227, 228, 229, 230, 231, 232, 233, 234, 235, 236, 237, 238, 239, 240, 241, 242, 243, 244, 245, 246, 247, 248, 249, 250, 251, 252, 253, 254, 255, 256, 257, 258, 259, 260, 261, 262, 263, 264, 265, 266, 267, 268, 269, 270, 271, 272, 273, 274, 275, 276, 277, 278, 279, 280, 281, 282, 283, 284, 285, 286, 287, 288, 289, 290, 291, 292, 293, 294, 295, 296, 297, 298, 299, 300, 301, 302, 303, 304, 305, 306, 307, 308, 309, 310, 311, 312, 313, 314, 315, 316, 317, 318, 319, 320, 321, 322, 323, 324, 325, 326, 327, 328, 329, 330, 331, 332, 333, 334, 335, 336, 337, 338, 339, 340, 341, 342, 343, 344, 345, 346, 347, 348, 349, 350, 351, 352, 353, 354, 355, 356, 357, 358, 359, 360, 361, 362, 363, 364, 365, 366, 367, 368, 369, 370, 371, 372, 373, 374, 375, 376, 377, 378, 379, 380, 381, 382, 383, 384, 385, 386, 387, 388, 389, 390, 391, 392, 393, 394, 395, 396, 397, 398, 399, 400, 401, 402, 403, 404, 405, 406, 407, 408, 409, 410, 411, 412, 413, 414, 415, 416, 417, 418, 419, 420, 421, 422, 423, 424, 425, 426, 427, 428, 429, 430, 431, 432, 433, 434, 435, 436, 437, 438, 439, 440, 441, 442, 443, 444, 445, 446, 447, 448, 449, 450, 451, 452, 453, 454, 455, 456, 457, 458, 459, 460, 461, 462, 463, 464, 465, 466, 467, 468, 469, 470, 471, 472, 473, 474, 475, 476, 477, 478, 479, 480, 481, 482, 483, 484, 485, 486, 487, 488, 489, 490, 491, 492, 493, 494, 495, 496, 497, 498, 499, 500, 501, 502, 503, 504, 505, 506, 507, 508, 509, 510, 511, 512, 513, 514, 515, 516, 517, 518, 519, 520, 521, 522, 523, 524, 525, 526, 527, 528, 529, 530, 531, 532, 533, 534, 535, 536, 537, 538, 539, 540, 541, 542, 543, 544, 545, 546, 547, 548, 549, 550, 551, 552, 553, 554, 555, 556, 557, 558, 559, 560, 561, 562, 563, 564, 565, 566, 567, 568, 569, 570, 571, 572, 573, 574, 575, 576, 577, 578, 579, 580, 581, 582, 583, 584, 585, 586, 587, 588, 589, 590, 591, 592, 593, 594, 595, 596, 597, 598, 599, 600, 601, 602, 603, 604, 605, 606, 607, 608, 609, 610, 611, 612, 613, 614, 615, 616, 617, 618, 619, 620, 621, 622, 623, 624, 625, 626, 627, 628, 629, 630, 631, 632, 633, 634, 635, 636, 637, 638, 639, 640, 641, 642, 643, 644, 645, 646, 647, 648, 649, 650, 651, 652, 653, 654, 655, 656, 657, 658, 659, 660, 661, 662, 663, 664, 665, 666, 667, 668, 669, 670, 671, 672, 673, 674, 675, 676, 677, 678, 679, 680, 681, 682, 683, 684, 685, 686, 687, 688, 689, 690, 691, 692, 693, 694, 695, 696, 697, 698, 699, 700, 701, 702, 703, 704, 705, 706, 707, 708, 709, 710, 711, 712, 713, 714, 715, 716, 717, 718, 719, 720, 721, 722, 723, 724, 725, 726, 727, 728, 729, 730, 731, 732, 733, 734, 735, 736, 737, 738, 739, 740, 741, 742, 743, 744, 745, 746, 747, 748, 749, 750, 751, 752, 753, 754, 755, 756, 757, 758, 759, 760, 761, 762, 763, 764, 765, 766, 767, 768, 769, 770, 771, 772, 773, 774, 775, 776, 777, 778, 779, 780, 781, 782, 783, 784, 785, 786, 787, 788, 789, 790, 791, 792, 793, 794, 795, 796, 797, 798, 799, 800, 801, 802, 803, 804, 805, 806, 807, 808, 809, 810, 811, 812, 813, 814, 815, 816, 817, 818, 819, 820, 821, 822, 823, 824, 825, 826, 827, 828, 829, 830, 831, 832, 833, 834, 835, 836, 837, 838, 839, 840, 841, 842, 843, 844, 845, 846, 847, 848, 849, 850, 851, 852, 853, 854, 855, 856, 857, 858, 859, 860, 861, 862, 863, 864, 865, 866, 867, 868, 869, 870, 871, 872, 873, 874, 875, 876, 877, 878, 879, 880, 881, 882, 883, 884, 885, 886, 887, 888, 889, 890, 891, 892, 893, 894, 895, 896, 897, 898, 899, 900, 901, 902, 903, 904, 905, 906, 907, 908, 909, 910, 911, 912, 913, 914, 915, 916, 917, 918, 919, 920, 921, 922, 923, 924, 925, 926],
      "AcquisitionTime": ["191647.405000", "191647.865000", "191648.325000", "191648.785000", "191649.245000", "191649.705000", "191650.165000", "191650.625000", "191651.085000", "191651.545000", "191652.005000", "191652.465000", "191652.925000", "191653.385000", "191653.845000", "191654.305000", "191654.765000", "191655.225000", "191655.685000", "191656.145000", "191656.605000", "191657.065000", "191657.525000", "191657.985000", "191658.445000", "191658.905000", "191659.365000", "191659.825000", "191700.285000", "191700.745000", "191701.205000", "191701.665000", "191702.125000", "191702.585000", "191703.045000", "191703.505000", "191703.965000", "191704.425000", "191704.885000", "191705.345000", "191705.805000", "191706.265000", "191706.725000", "191707.185000", "191707.645000", "191708.105000", "191708.565000", "191709.025000", "191709.485000", "191709.945000", "191710.405000", "191710.865000", "191711.325000", "191711.785000", "191712.245000", "191712.705000", "191713.165000", "191713.625000", "191714.085000", "191714.545000", "191715.005000", "191715.465000", "191715.925000", "191716.385000", "191716.845000", "191717.305000", "191717.765000", "191718.225000", "191718.685000", "191719.145000", "191719.605000", "191720.065000", "191720.525000", "191720.985000", "191721.445000", "191721.905000", "191722.365000", "191722.825000", "191723.285000", "191723.745000", "191724.205000", "191724.665000", "191725.125000", "191725.585000", "191726.045000", "191726.505000", "191726.965000", "191727.425000", "191727.885000", "191728.345000", "191728.805000", "191729.265000", "191729.725000", "191730.185000", "191730.645000", "191731.105000", "191731.565000", "191732.025000", "191732.485000", "191732.945000", "191733.405000", "191733.865000", "191734.325000", "191734.785000", "191735.245000", "191735.705000", "191736.165000", "191736.625000", "191737.085000", "191737.545000", "191738.005000", "191738.465000", "191738.925000", "191739.385000", "191739.845000", "191740.305000", "191740.765000", "191741.225000", "191741.685000", "191742.145000", "191742.605000", "191743.065000", "191743.525000", "191743.985000", "191744.445000", "191744.905000", "191745.365000", "191745.825000", "191746.285000", "191746.745000", "191747.205000", "191747.665000", "191748.125000", "191748.585000", "191749.045000", "191749.505000", "191749.965000", "191750.425000", "191750.885000", "191751.345000", "191751.805000", "191752.265000", "191752.725000", "191753.185000", "191753.645000", "191754.105000", "191754.565000", "191755.025000", "191755.485000", "191755.945000", "191756.405000", "191756.865000", "191757.325000", "191757.785000", "191758.245000", "191758.705000", "191759.165000", "191759.625000", "191800.085000", "191800.545000", "191801.005000", "191801.465000", "191801.925000", "191802.385000", "191802.845000", "191803.305000", "191803.765000", "191804.225000", "191804.685000", "191805.145000", "191805.605000", "191806.065000", "191806.525000", "191806.985000", "191807.445000", "191807.905000", "191808.365000", "191808.825000", "191809.285000", "191809.745000", "191810.205000", "191810.665000", "191811.125000", "191811.585000", "191812.045000", "191812.505000", "191812.965000", "191813.425000", "191813.885000", "191814.345000", "191814.805000", "191815.265000", "191815.725000", "191816.185000", "191816.645000", "191817.105000", "191817.565000", "191818.025000", "191818.485000", "191818.945000", "191819.405000", "191819.865000", "191820.325000", "191820.785000", "191821.245000", "191821.705000", "191822.165000", "191822.625000", "191823.085000", "191823.545000", "191824.005000", "191824.465000", "191824.925000", "191825.385000", "191825.845000", "191826.305000", "191826.765000", "191827.225000", "191827.685000", "191828.145000", "191828.605000", "191829.065000", "191829.525000", "191829.985000", "191830.445000", "191830.905000", "191831.365000", "191831.825000", "191832.285000", "191832.745000", "191833.205000", "191833.665000", "191834.125000", "191834.585000", "191835.045000", "191835.505000", "191835.965000", "191836.425000", "191836.885000", "191837.345000", "191837.805000", "191838.265000", "191838.725000", "191839.185000", "191839.645000", "191840.105000", "191840.565000", "191841.025000", "191841.485000", "191841.945000", "191842.405000", "191842.865000", "191843.325000", "191843.785000", "191844.245000", "191844.705000", "191845.165000", "191845.625000", "191846.085000", "191846.545000", "191847.005000", "191847.465000", "191847.925000", "191848.385000", "191848.845000", "191849.305000", "191849.765000", "191850.225000", "191850.685000", "191851.145000", "191851.605000", "191852.065000", "191852.525000", "191852.985000", "191853.445000", "191853.905000", "191854.365000", "191854.825000", "191855.285000", "191855.745000", "191856.205000", "191856.665000", "191857.125000", "191857.585000", "191858.045000", "191858.505000", "191858.965000", "191859.425000", "191859.885000", "191900.345000", "191900.805000", "191901.265000", "191901.725000", "191902.185000", "191902.645000", "191903.105000", "191903.565000", "191904.025000", "191904.485000", "191904.945000", "191905.405000", "191905.865000", "191906.325000", "191906.785000", "191907.245000", "191907.705000", "191908.165000", "191908.625000", "191909.085000", "191909.545000", "191910.005000", "191910.465000", "191910.925000", "191911.385000", "191911.845000", "191912.305000", "191912.765000", "191913.225000", "191913.685000", "191914.145000", "191914.605000", "191915.065000", "191915.525000", "191915.985000", "191916.445000", "191916.905000", "191917.365000", "191917.825000", "191918.285000", "191918.745000", "191919.205000", "191919.665000", "191920.125000", "191920.585000", "191921.045000", "191921.505000", "191921.965000", "191922.425000", "191922.885000", "191923.345000", "191923.805000", "191924.265000", "191924.725000", "191925.185000", "191925.645000", "191926.105000", "191926.565000", "191927.025000", "191927.485000", "191927.945000", "191928.405000", "191928.865000", "191929.325000", "191929.785000", "191930.245000", "191930.705000", "191931.165000", "191931.625000", "191932.085000", "191932.545000", "191933.005000", "191933.465000", "191933.925000", "191934.385000", "191934.845000", "191935.305000", "191935.765000", "191936.225000", "191936.685000", "191937.145000", "191937.605000", "191938.065000", "191938.525000", "191938.985000", "191939.445000", "191939.905000", "191940.365000", "191940.825000", "191941.285000", "191941.745000", "191942.205000", "191942.665000", "191943.125000", "191943.585000", "191944.045000", "191944.505000", "191944.965000", "191945.425000", "191945.885000", "191946.345000", "191946.805000", "191947.265000", "191947.725000", "191948.185000", "191948.645000", "191949.105000", "191949.565000", "191950.025000", "191950.485000", "191950.945000", "191951.405000", "191951.865000", "191952.325000", "191952.785000", "191953.245000", "191953.705000", "191954.165000", "191954.625000", "191955.085000", "191955.545000", "191956.005000", "191956.465000", "191956.925000", "191957.385000", "191957.845000", "191958.305000", "191958.765000", "191959.225000", "191959.685000", "192000.145000", "192000.605000", "192001.065000", "192001.525000", "192001.985000", "192002.445000", "192002.905000", "192003.365000", "192003.825000", "192004.285000", "192004.745000", "192005.205000", "192005.665000", "192006.125000", "192006.585000", "192007.045000", "192007.505000", "192007.965000", "192008.425000", "192008.885000", "192009.345000", "192009.805000", "192010.265000", "192010.725000", "192011.185000", "192011.645000", "192012.105000", "192012.565000", "192013.025000", "192013.485000", "192013.945000", "192014.405000", "192014.865000", "192015.325000", "192015.785000", "192016.245000", "192016.705000", "192017.165000", "192017.625000", "192018.085000", "192018.545000", "192019.005000", "192019.465000", "192019.925000", "192020.385000", "192020.845000", "192021.305000", "192021.765000", "192022.225000", "192022.685000", "192023.145000", "192023.605000", "192024.065000", "192024.525000", "192024.985000", "192025.445000", "192025.905000", "192026.365000", "192026.825000", "192027.285000", "192027.745000", "192028.205000", "192028.665000", "192029.125000", "192029.585000", "192030.045000", "192030.505000", "192030.965000", "192031.425000", "192031.885000", "192032.345000", "192032.805000", "192033.265000", "192033.725000", "192034.185000", "192034.645000", "192035.105000", "192035.565000", "192036.025000", "192036.485000", "192036.945000", "192037.405000", "192037.865000", "192038.325000", "192038.785000", "192039.245000", "192039.705000", "192040.165000", "192040.625000", "192041.085000", "192041.545000", "192042.005000", "192042.465000", "192042.925000", "192043.385000", "192043.845000", "192044.305000", "192044.765000", "192045.225000", "192045.685000", "192046.145000", "192046.605000", "192047.065000", "192047.525000", "192047.985000", "192048.445000", "192048.905000", "192049.365000", "192049.825000", "192050.285000", "192050.745000", "192051.205000", "192051.665000", "192052.125000", "192052.585000", "192053.045000", "192053.505000", "192053.965000", "192054.425000", "192054.885000", "192055.345000", "192055.805000", "192056.265000", "192056.725000", "192057.185000", "192057.645000", "192058.105000", "192058.565000", "192059.025000", "192059.485000", "192059.945000", "192100.405000", "192100.865000", "192101.325000", "192101.785000", "192102.245000", "192102.705000", "192103.165000", "192103.625000", "192104.085000", "192104.545000", "192105.005000", "192105.465000", "192105.925000", "192106.385000", "192106.845000", "192107.305000", "192107.765000", "192108.225000", "192108.685000", "192109.145000", "192109.605000", "192110.065000", "192110.525000", "192110.985000", "192111.445000", "192111.905000", "192112.365000", "192112.825000", "192113.285000", "192113.745000", "192114.205000", "192114.665000", "192115.125000", "192115.585000", "192116.045000", "192116.505000", "192116.965000", "192117.425000", "192117.885000", "192118.345000", "192118.805000", "192119.265000", "192119.725000", "192120.185000", "192120.645000", "192121.105000", "192121.565000", "192122.025000", "192122.485000", "192122.945000", "192123.405000", "192123.865000", "192124.325000", "192124.785000", "192125.245000", "192125.705000", "192126.165000", "192126.625000", "192127.085000", "192127.545000", "192128.005000", "192128.465000", "192128.925000", "192129.385000", "192129.845000", "192130.305000", "192130.765000", "192131.225000", "192131.685000", "192132.145000", "192132.605000", "192133.065000", "192133.525000", "192133.985000", "192134.445000", "192134.905000", "192135.365000", "192135.825000", "192136.285000", "192136.745000", "192137.205000", "192137.665000", "192138.125000", "192138.585000", "192139.045000", "192139.505000", "192139.965000", "192140.425000", "192140.885000", "192141.345000", "192141.805000", "192142.265000", "192142.725000", "192143.185000", "192143.645000", "192144.105000", "192144.565000", "192145.025000", "192145.485000", "192145.945000", "192146.405000", "192146.865000", "192147.325000", "192147.785000", "192148.245000", "192148.705000", "192149.165000", "192149.625000", "192150.085000", "192150.545000", "192151.005000", "192151.465000", "192151.925000", "192152.385000", "192152.845000", "192153.305000", "192153.765000", "192154.225000", "192154.685000", "192155.145000", "192155.605000", "192156.065000", "192156.525000", "192156.985000", "192157.445000", "192157.905000", "192158.365000", "192158.825000", "192159.285000", "192159.745000", "192200.205000", "192200.665000", "192201.125000", "192201.585000", "192202.045000", "192202.505000", "192202.965000", "192203.425000", "192203.885000", "192204.345000", "192204.805000", "192205.265000", "192205.725000", "192206.185000", "192206.645000", "192207.105000", "192207.565000", "192208.025000", "192208.485000", "192208.945000", "192209.405000", "192209.865000", "192210.325000", "192210.785000", "192211.245000", "192211.705000", "192212.165000", "192212.625000", "192213.085000", "192213.545000", "192214.005000", "192214.465000", "192214.925000", "192215.385000", "192215.845000", "192216.305000", "192216.765000", "192217.225000", "192217.685000", "192218.145000", "192218.605000", "192219.065000", "192219.525000", "192219.985000", "192220.445000", "192220.905000", "192221.365000", "192221.825000", "192222.285000", "192222.745000", "192223.205000", "192223.665000", "192224.125000", "192224.585000", "192225.045000", "192225.505000", "192225.965000", "192226.425000", "192226.885000", "192227.345000", "192227.805000", "192228.265000", "192228.725000", "192229.185000", "192229.645000", "192230.105000", "192230.565000", "192231.025000", "192231.485000", "192231.945000", "192232.405000", "192232.865000", "192233.325000", "192233.785000", "192234.245000", "192234.705000", "192235.165000", "192235.625000", "192236.085000", "192236.545000", "192237.005000", "192237.465000", "192237.925000", "192238.385000", "192238.845000", "192239.305000", "192239.765000", "192240.225000", "192240.685000", "192241.145000", "192241.605000", "192242.065000", "192242.525000", "192242.985000", "192243.445000", "192243.905000", "192244.365000", "192244.825000", "192245.285000", "192245.745000", "192246.205000", "192246.665000", "192247.125000", "192247.585000", "192248.045000", "192248.505000", "192248.965000", "192249.425000", "192249.885000", "192250.345000", "192250.805000", "192251.265000", "192251.725000", "192252.185000", "192252.645000", "192253.105000", "192253.565000", "192254.025000", "192254.485000", "192254.945000", "192255.405000", "192255.865000", "192256.325000", "192256.785000", "192257.245000", "192257.705000", "192258.165000", "192258.625000", "192259.085000", "192259.545000", "192300.005000", "192300.465000", "192300.925000", "192301.385000", "192301.845000", "192302.305000", "192302.765000", "192303.225000", "192303.685000", "192304.145000", "192304.605000", "192305.065000", "192305.525000", "192305.985000", "192306.445000", "192306.905000", "192307.365000", "192307.825000", "192308.285000", "192308.745000", "192309.205000", "192309.665000", "192310.125000", "192310.585000", "192311.045000", "192311.505000", "192311.965000", "192312.425000", "192312.885000", "192313.345000", "192313.805000", "192314.265000", "192314.725000", "192315.185000", "192315.645000", "192316.105000", "192316.565000", "192317.025000", "192317.485000", "192317.945000", "192318.405000", "192318.865000", "192319.325000", "192319.785000", "192320.245000", "192320.705000", "192321.165000", "192321.625000", "192322.085000", "192322.545000", "192323.005000", "192323.465000", "192323.925000", "192324.385000", "192324.845000", "192325.305000", "192325.765000", "192326.225000", "192326.685000", "192327.145000", "192327.605000", "192328.065000", "192328.525000", "192328.985000", "192329.445000", "192329.905000", "192330.365000", "192330.825000", "192331.285000", "192331.745000", "192332.205000", "192332.665000", "192333.125000", "192333.585000", "192334.045000", "192334.505000", "192334.965000", "192335.425000", "192335.885000", "192336.345000", "192336.805000", "192337.265000", "192337.725000", "192338.185000", "192338.645000", "192339.105000", "192339.565000", "192340.025000", "192340.485000", "192340.945000", "192341.405000", "192341.865000", "192342.325000", "192342.785000", "192343.245000", "192343.705000", "192344.165000", "192344.625000", "192345.085000", "192345.545000", "192346.005000", "192346.465000", "192346.925000", "192347.385000", "192347.845000", "192348.305000", "192348.765000", "192349.225000", "192349.685000", "192350.145000", "192350.605000", "192351.065000", "192351.525000", "192351.985000", "192352.445000", "192352.905000"],
