{
  "AcquisitionMatrixPE": 82,
  "AcquisitionNumber": 1,
  "AcquisitionTime": "18:26:16.410000",
  "BandwidthPerPixelPhaseEncode": 24.888,
  "BaseResolution": 82,
  "BodyPartExamined": "BRAIN",
  "ConsistencyInfo": "N4_VE11E_LATEST_20181129",
  "ConversionSoftware": "dcm2niix",
  "ConversionSoftwareVersion": "v1.0.20201102",
  "DerivedVendorReportedEchoSpacing": 0.00049,
  "DeviceSerialNumber": "66112",
  "DwellTime": 2e-06,
  "EchoTime": 0.0272,
  "EchoTrainLength": 82,
  "EffectiveEchoSpacing": 0.00049,
  "FlipAngle": 44,
  "ImageComments": "Unaliased MB8/PE3",
  "ImageOrientationPatientDICOM": [0.999578, -0.0283509, 0.00626794, 0.0260003, 0.970075, 0.24141],
  "ImageType": [
    "ORIGINAL",
    "PRIMARY",
    "M",
    "MB",
    "ND",
    "NORM",
    "MOSAIC"
],
  "ImagingFrequency": 123.252,
  "InPlanePhaseEncodingDirectionDICOM": "COL",
  "InstitutionAddress": "Maynard 3,Hanover,NH,US,03755",
  "InstitutionName": "Dartmouth College - PBS",
  "InstitutionalDepartmentName": "Department",
  "MRAcquisitionType": "2D",
  "MagneticFieldStrength": 3,
  "Manufacturer": "Siemens",
  "ManufacturersModelName": "Prisma",
  "Modality": "MR",
  "MultibandAccelerationFactor": 8,
  "PartialFourier": 1,
  "PatientPosition": "HFS",
  "PercentPhaseFOV": 100,
  "PercentSampling": 100,
  "PhaseEncodingDirection": "j-",
  "PhaseEncodingSteps": 82,
  "PhaseResolution": 1,
  "PixelBandwidth": 3050,
  "ProcedureStepDescription": "Wager_Wager^1076_spacetop",
  "ProtocolName": "func_run-02_task-social_acq-ap-mb8",
  "PulseSequenceDetails": "%CustomerSeq%\\cmrr_mbep2d_bold",
  "ReceiveCoilActiveElements": "HEA;HEP",
  "ReceiveCoilName": "Head_32",
  "ReconMatrixPE": 82,
  "RepetitionTime": 0.46,
  "SAR": 0.115584,
  "ScanOptions": "FS",
  "ScanningSequence": "EP",
  "SequenceName": "epfid2d1_82",
  "SequenceVariant": "SK\\SS",
  "SeriesDescription": "func_run-02_task-social_acq-ap-mb8",
  "SeriesNumber": 14,
  "ShimSetting": [4154, -7793, -7246, 662, -60, -322, 103, 114],
  "SliceThickness": 2.7,
  "SliceTiming": [0, 0.2525, 0.0625, 0.315, 0.125, 0.3775, 0.19, 0, 0.2525, 0.0625, 0.315, 0.125, 0.3775, 0.19, 0, 0.2525, 0.0625, 0.315, 0.125, 0.3775, 0.19, 0, 0.2525, 0.0625, 0.315, 0.125, 0.3775, 0.19, 0, 0.2525, 0.0625, 0.315, 0.125, 0.3775, 0.19, 0, 0.2525, 0.0625, 0.315, 0.125, 0.3775, 0.19, 0, 0.2525, 0.0625, 0.315, 0.125, 0.3775, 0.19, 0, 0.2525, 0.0625, 0.315, 0.125, 0.3775, 0.19],
  "SoftwareVersions": "syngo MR E11",
  "SpacingBetweenSlices": 2.7,
  "StationName": "AWP66112",
  "TaskName": "social",
  "TotalReadoutTime": 0.03969,
  "TxRefAmp": 248.759,
  "WipMemBlock": "bd763ccd-77e5-486c-86b1-90781e1def5b||Sequence: R016 ve11e/master r/434b28f1; Aug  7 2019 18:53:46 by eja",
  "dcmmeta_affine": [
    [-2.681795835494995, 0.06975691765546799, 0.034896306693553925, 108.0682373046875],
    [0.076063372194767, 2.60263991355896, 0.6510920524597168, -110.31459045410156],
    [0.01681642234325409, -0.6476852893829346, 2.6200881004333496, -28.346847534179688],
    [0.0, 0.0, 0.0, 1.0]
],
  "dcmmeta_reorient_transform": [
    [0.0, -1.0, 0.0, 81.0],
    [1.0, 0.0, 0.0, 0.0],
    [0.0, 0.0, 1.0, 0.0],
    [0.0, 0.0, 0.0, 1.0]
],
  "dcmmeta_shape": [82, 82, 56, 872],
  "dcmmeta_slice_dim": 2,
  "dcmmeta_version": 0.6,
  "global": {
    "const": {
      "AccessionNumber": "A004077",
      "AcquisitionMatrix": [82, 0, 0, 82],
      "AngioFlag": "N",
      "BitsAllocated": 16,
      "BitsStored": 16,
      "BodyPartExamined": "BRAIN",
      "Columns": 656,
      "EchoNumbers": 1,
      "EchoTime": 27.2,
      "EchoTrainLength": 82,
      "FlipAngle": 44.0,
      "HighBit": 15,
      "ImageOrientationPatient": [0.99957838105071, -0.0283508919059, 0.00626793938833, 0.02600030636078, 0.97007484872634, 0.24140996652524],
      "ImagePositionPatient": [-903.41415906303, -825.62670583273, -271.52134740409],
      "ImageType": [
        "ORIGINAL",
        "PRIMARY",
        "M",
        "MB",
        "ND",
        "NORM",
        "MOSAIC"
],
      "ImagedNucleus": "1H",
      "ImagingFrequency": 123.252194,
      "InPlanePhaseEncodingDirection": "COL",
      "MRAcquisitionType": "2D",
      "MagneticFieldStrength": 3.0,
      "Manufacturer": "SIEMENS",
      "ManufacturerModelName": "Prisma",
      "Modality": "MR",
      "NumberOfAverages": 1.0,
      "NumberOfPhaseEncodingSteps": 82,
      "PercentPhaseFieldOfView": 100.0,
      "PercentSampling": 100.0,
      "PerformedProcedureStepStartTime": "173756.014000",
      "PhotometricInterpretation": "MONOCHROME2",
      "PixelBandwidth": 3050.0,
      "PixelRepresentation": 0,
      "PixelSpacing": [2.6829268932343, 2.6829268932343],
      "ProtocolName": "func_run-02_task-social_acq-ap-mb8",
      "RepetitionTime": 460.0,
      "Rows": 656,
      "SAR": 0.11558408409552,
      "SamplesPerPixel": 1,
      "ScanOptions": "FS",
      "ScanningSequence": "EP",
      "SequenceName": "epfid2d1_82",
      "SequenceVariant": [
        "SK",
        "SS"
],
      "SeriesDescription": "func_run-02_task-social_acq-ap-mb8",
      "SeriesNumber": 14,
      "SeriesTime": "182636.742000",
      "SliceLocation": -52.712965772468,
      "SliceThickness": 2.7000000476837,
      "SmallestImagePixelValue": 0,
      "SoftwareVersions": "syngo MR E11",
      "SpacingBetweenSlices": 2.6999999506284,
      "SpecificCharacterSet": "ISO_IR 100",
      "StudyID": "4",
      "StudyTime": "173755.969000",
      "TransmitCoilName": "Body",
      "VariableFlipAngleFlag": "N",
      "WindowCenterWidthExplanation": "Algo1"
    },
    "slices": {}
  },
  "time": {
    "samples": {
      "AcquisitionNumber": [1, 2, 3, 4, 5, 6, 7, 8, 9, 10, 11, 12, 13, 14, 15, 16, 17, 18, 19, 20, 21, 22, 23, 24, 25, 26, 27, 28, 29, 30, 31, 32, 33, 34, 35, 36, 37, 38, 39, 40, 41, 42, 43, 44, 45, 46, 47, 48, 49, 50, 51, 52, 53, 54, 55, 56, 57, 58, 59, 60, 61, 62, 63, 64, 65, 66, 67, 68, 69, 70, 71, 72, 73, 74, 75, 76, 77, 78, 79, 80, 81, 82, 83, 84, 85, 86, 87, 88, 89, 90, 91, 92, 93, 94, 95, 96, 97, 98, 99, 100, 101, 102, 103, 104, 105, 106, 107, 108, 109, 110, 111, 112, 113, 114, 115, 116, 117, 118, 119, 120, 121, 122, 123, 124, 125, 126, 127, 128, 129, 130, 131, 132, 133, 134, 135, 136, 137, 138, 139, 140, 141, 142, 143, 144, 145, 146, 147, 148, 149, 150, 151, 152, 153, 154, 155, 156, 157, 158, 159, 160, 161, 162, 163, 164, 165, 166, 167, 168, 169, 170, 171, 172, 173, 174, 175, 176, 177, 178, 179, 180, 181, 182, 183, 184, 185, 186, 187, 188, 189, 190, 191, 192, 193, 194, 195, 196, 197, 198, 199, 200, 201, 202, 203, 204, 205, 206, 207, 208, 209, 210, 211, 212, 213, 214, 215, 216, 217, 218, 219, 220, 221, 222, 223, 224, 225, 226, 227, 228, 229, 230, 231, 232, 233, 234, 235, 236, 237, 238, 239, 240, 241, 242, 243, 244, 245, 246, 247, 248, 249, 250, 251, 252, 253, 254, 255, 256, 257, 258, 259, 260, 261, 262, 263, 264, 265, 266, 267, 268, 269, 270, 271, 272, 273, 274, 275, 276, 277, 278, 279, 280, 281, 282, 283, 284, 285, 286, 287, 288, 289, 290, 291, 292, 293, 294, 295, 296, 297, 298, 299, 300, 301, 302, 303, 304, 305, 306, 307, 308, 309, 310, 311, 312, 313, 314, 315, 316, 317, 318, 319, 320, 321, 322, 323, 324, 325, 326, 327, 328, 329, 330, 331, 332, 333, 334, 335, 336, 337, 338, 339, 340, 341, 342, 343, 344, 345, 346, 347, 348, 349, 350, 351, 352, 353, 354, 355, 356, 357, 358, 359, 360, 361, 362, 363, 364, 365, 366, 367, 368, 369, 370, 371, 372, 373, 374, 375, 376, 377, 378, 379, 380, 381, 382, 383, 384, 385, 386, 387, 388, 389, 390, 391, 392, 393, 394, 395, 396, 397, 398, 399, 400, 401, 402, 403, 404, 405, 406, 407, 408, 409, 410, 411, 412, 413, 414, 415, 416, 417, 418, 419, 420, 421, 422, 423, 424, 425, 426, 427, 428, 429, 430, 431, 432, 433, 434, 435, 436, 437, 438, 439, 440, 441, 442, 443, 444, 445, 446, 447, 448, 449, 450, 451, 452, 453, 454, 455, 456, 457, 458, 459, 460, 461, 462, 463, 464, 465, 466, 467, 468, 469, 470, 471, 472, 473, 474, 475, 476, 477, 478, 479, 480, 481, 482, 483, 484, 485, 486, 487, 488, 489, 490, 491, 492, 493, 494, 495, 496, 497, 498, 499, 500, 501, 502, 503, 504, 505, 506, 507, 508, 509, 510, 511, 512, 513, 514, 515, 516, 517, 518, 519, 520, 521, 522, 523, 524, 525, 526, 527, 528, 529, 530, 531, 532, 533, 534, 535, 536, 537, 538, 539, 540, 541, 542, 543, 544, 545, 546, 547, 548, 549, 550, 551, 552, 553, 554, 555, 556, 557, 558, 559, 560, 561, 562, 563, 564, 565, 566, 567, 568, 569, 570, 571, 572, 573, 574, 575, 576, 577, 578, 579, 580, 581, 582, 583, 584, 585, 586, 587, 588, 589, 590, 591, 592, 593, 594, 595, 596, 597, 598, 599, 600, 601, 602, 603, 604, 605, 606, 607, 608, 609, 610, 611, 612, 613, 614, 615, 616, 617, 618, 619, 620, 621, 622, 623, 624, 625, 626, 627, 628, 629, 630, 631, 632, 633, 634, 635, 636, 637, 638, 639, 640, 641, 642, 643, 644, 645, 646, 647, 648, 649, 650, 651, 652, 653, 654, 655, 656, 657, 658, 659, 660, 661, 662, 663, 664, 665, 666, 667, 668, 669, 670, 671, 672, 673, 674, 675, 676, 677, 678, 679, 680, 681, 682, 683, 684, 685, 686, 687, 688, 689, 690, 691, 692, 693, 694, 695, 696, 697, 698, 699, 700, 701, 702, 703, 704, 705, 706, 707, 708, 709, 710, 711, 712, 713, 714, 715, 716, 717, 718, 719, 720, 721, 722, 723, 724, 725, 726, 727, 728, 729, 730, 731, 732, 733, 734, 735, 736, 737, 738, 739, 740, 741, 742, 743, 744, 745, 746, 747, 748, 749, 750, 751, 752, 753, 754, 755, 756, 757, 758, 759, 760, 761, 762, 763, 764, 765, 766, 767, 768, 769, 770, 771, 772, 773, 774, 775, 776, 777, 778, 779, 780, 781, 782, 783, 784, 785, 786, 787, 788, 789, 790, 791, 792, 793, 794, 795, 796, 797, 798, 799, 800, 801, 802, 803, 804, 805, 806, 807, 808, 809, 810, 811, 812, 813, 814, 815, 816, 817, 818, 819, 820, 821, 822, 823, 824, 825, 826, 827, 828, 829, 830, 831, 832, 833, 834, 835, 836, 837, 838, 839, 840, 841, 842, 843, 844, 845, 846, 847, 848, 849, 850, 851, 852, 853, 854, 855, 856, 857, 858, 859, 860, 861, 862, 863, 864, 865, 866, 867, 868, 869, 870, 871, 872],
      "AcquisitionTime": ["182616.410000", "182616.870000", "182617.330000", "182617.790000", "182618.250000", "182618.710000", "182619.170000", "182619.630000", "182620.090000", "182620.550000", "182621.010000", "182621.470000", "182621.930000", "182622.390000", "182622.850000", "182623.310000", "182623.770000", "182624.230000", "182624.690000", "182625.150000", "182625.610000", "182626.070000", "182626.530000", "182626.990000", "182627.450000", "182627.910000", "182628.370000", "182628.830000", "182629.290000", "182629.750000", "182630.210000", "182630.670000", "182631.130000", "182631.590000", "182632.050000", "182632.510000", "182632.970000", "182633.430000", "182633.890000", "182634.350000", "182634.810000", "182635.270000", "182635.730000", "182636.190000", "182636.650000", "182637.110000", "182637.570000", "182638.030000", "182638.490000", "182638.950000", "182639.410000", "182639.870000", "182640.330000", "182640.790000", "182641.250000", "182641.710000", "182642.170000", "182642.630000", "182643.090000", "182643.550000", "182644.010000", "182644.470000", "182644.930000", "182645.390000", "182645.850000", "182646.310000", "182646.770000", "182647.230000", "182647.690000", "182648.150000", "182648.610000", "182649.070000", "182649.530000", "182649.990000", "182650.450000", "182650.910000", "182651.370000", "182651.830000", "182652.290000", "182652.750000", "182653.210000", "182653.670000", "182654.130000", "182654.590000", "182655.050000", "182655.510000", "182655.970000", "182656.430000", "182656.890000", "182657.350000", "182657.810000", "182658.270000", "182658.730000", "182659.190000", "182659.650000", "182700.110000", "182700.570000", "182701.030000", "182701.490000", "182701.950000", "182702.410000", "182702.870000", "182703.330000", "182703.790000", "182704.250000", "182704.710000", "182705.170000", "182705.630000", "182706.090000", "182706.550000", "182707.010000", "182707.470000", "182707.930000", "182708.390000", "182708.850000", "182709.310000", "182709.770000", "182710.230000", "182710.690000", "182711.150000", "182711.610000", "182712.070000", "182712.530000", "182712.990000", "182713.450000", "182713.910000", "182714.370000", "182714.830000", "182715.290000", "182715.750000", "182716.210000", "182716.670000", "182717.130000", "182717.590000", "182718.050000", "182718.510000", "182718.970000", "182719.430000", "182719.890000", "182720.350000", "182720.810000", "182721.270000", "182721.730000", "182722.190000", "182722.650000", "182723.110000", "182723.570000", "182724.030000", "182724.490000", "182724.950000", "182725.410000", "182725.870000", "182726.330000", "182726.790000", "182727.250000", "182727.710000", "182728.170000", "182728.630000", "182729.090000", "182729.550000", "182730.010000", "182730.470000", "182730.930000", "182731.390000", "182731.850000", "182732.310000", "182732.770000", "182733.230000", "182733.690000", "182734.150000", "182734.610000", "182735.070000", "182735.530000", "182735.990000", "182736.450000", "182736.910000", "182737.370000", "182737.830000", "182738.290000", "182738.750000", "182739.210000", "182739.670000", "182740.130000", "182740.590000", "182741.050000", "182741.510000", "182741.970000", "182742.430000", "182742.890000", "182743.350000", "182743.810000", "182744.270000", "182744.730000", "182745.190000", "182745.650000", "182746.110000", "182746.570000", "182747.030000", "182747.490000", "182747.950000", "182748.410000", "182748.870000", "182749.330000", "182749.790000", "182750.250000", "182750.710000", "182751.170000", "182751.630000", "182752.090000", "182752.550000", "182753.010000", "182753.470000", "182753.930000", "182754.390000", "182754.850000", "182755.310000", "182755.770000", "182756.230000", "182756.690000", "182757.150000", "182757.610000", "182758.070000", "182758.530000", "182758.990000", "182759.450000", "182759.910000", "182800.370000", "182800.830000", "182801.290000", "182801.750000", "182802.210000", "182802.670000", "182803.130000", "182803.590000", "182804.050000", "182804.510000", "182804.970000", "182805.430000", "182805.890000", "182806.350000", "182806.810000", "182807.270000", "182807.730000", "182808.190000", "182808.650000", "182809.110000", "182809.570000", "182810.030000", "182810.490000", "182810.950000", "182811.410000", "182811.870000", "182812.330000", "182812.790000", "182813.250000", "182813.710000", "182814.170000", "182814.630000", "182815.090000", "182815.550000", "182816.010000", "182816.470000", "182816.930000", "182817.390000", "182817.850000", "182818.310000", "182818.770000", "182819.230000", "182819.690000", "182820.150000", "182820.610000", "182821.070000", "182821.530000", "182821.990000", "182822.450000", "182822.910000", "182823.370000", "182823.830000", "182824.290000", "182824.750000", "182825.210000", "182825.670000", "182826.130000", "182826.590000", "182827.050000", "182827.510000", "182827.970000", "182828.430000", "182828.890000", "182829.350000", "182829.810000", "182830.270000", "182830.730000", "182831.190000", "182831.650000", "182832.110000", "182832.570000", "182833.030000", "182833.490000", "182833.950000", "182834.410000", "182834.870000", "182835.330000", "182835.790000", "182836.250000", "182836.710000", "182837.170000", "182837.630000", "182838.090000", "182838.550000", "182839.010000", "182839.470000", "182839.930000", "182840.390000", "182840.850000", "182841.310000", "182841.770000", "182842.230000", "182842.690000", "182843.150000", "182843.610000", "182844.070000", "182844.530000", "182844.990000", "182845.450000", "182845.910000", "182846.370000", "182846.830000", "182847.290000", "182847.750000", "182848.210000", "182848.670000", "182849.130000", "182849.590000", "182850.050000", "182850.510000", "182850.970000", "182851.430000", "182851.890000", "182852.350000", "182852.810000", "182853.270000", "182853.730000", "182854.190000", "182854.650000", "182855.110000", "182855.570000", "182856.030000", "182856.490000", "182856.950000", "182857.410000", "182857.870000", "182858.330000", "182858.790000", "182859.250000", "182859.710000", "182900.170000", "182900.630000", "182901.090000", "182901.550000", "182902.010000", "182902.470000", "182902.930000", "182903.390000", "182903.850000", "182904.310000", "182904.770000", "182905.230000", "182905.690000", "182906.150000", "182906.610000", "182907.070000", "182907.530000", "182907.990000", "182908.450000", "182908.910000", "182909.370000", "182909.830000", "182910.290000", "182910.750000", "182911.210000", "182911.670000", "182912.130000", "182912.590000", "182913.050000", "182913.510000", "182913.970000", "182914.430000", "182914.890000", "182915.350000", "182915.810000", "182916.270000", "182916.730000", "182917.190000", "182917.650000", "182918.110000", "182918.570000", "182919.030000", "182919.490000", "182919.950000", "182920.410000", "182920.870000", "182921.330000", "182921.790000", "182922.250000", "182922.710000", "182923.170000", "182923.630000", "182924.090000", "182924.550000", "182925.010000", "182925.470000", "182925.930000", "182926.390000", "182926.850000", "182927.310000", "182927.770000", "182928.230000", "182928.690000", "182929.150000", "182929.610000", "182930.070000", "182930.530000", "182930.990000", "182931.450000", "182931.910000", "182932.370000", "182932.830000", "182933.290000", "182933.750000", "182934.210000", "182934.670000", "182935.130000", "182935.590000", "182936.050000", "182936.510000", "182936.970000", "182937.430000", "182937.890000", "182938.350000", "182938.810000", "182939.270000", "182939.730000", "182940.190000", "182940.650000", "182941.110000", "182941.570000", "182942.030000", "182942.490000", "182942.950000", "182943.410000", "182943.870000", "182944.330000", "182944.790000", "182945.250000", "182945.710000", "182946.170000", "182946.630000", "182947.090000", "182947.550000", "182948.010000", "182948.470000", "182948.930000", "182949.390000", "182949.850000", "182950.310000", "182950.770000", "182951.230000", "182951.690000", "182952.150000", "182952.610000", "182953.070000", "182953.530000", "182953.990000", "182954.450000", "182954.910000", "182955.370000", "182955.830000", "182956.290000", "182956.750000", "182957.210000", "182957.670000", "182958.130000", "182958.590000", "182959.050000", "182959.510000", "182959.970000", "183000.430000", "183000.890000", "183001.350000", "183001.810000", "183002.270000", "183002.730000", "183003.190000", "183003.650000", "183004.110000", "183004.570000", "183005.030000", "183005.490000", "183005.950000", "183006.410000", "183006.870000", "183007.330000", "183007.790000", "183008.250000", "183008.710000", "183009.170000", "183009.630000", "183010.090000", "183010.550000", "183011.010000", "183011.470000", "183011.930000", "183012.390000", "183012.850000", "183013.310000", "183013.770000", "183014.230000", "183014.690000", "183015.150000", "183015.610000", "183016.070000", "183016.530000", "183016.990000", "183017.450000", "183017.910000", "183018.370000", "183018.830000", "183019.290000", "183019.750000", "183020.210000", "183020.670000", "183021.130000", "183021.590000", "183022.050000", "183022.510000", "183022.970000", "183023.430000", "183023.890000", "183024.350000", "183024.810000", "183025.270000", "183025.730000", "183026.190000", "183026.650000", "183027.110000", "183027.570000", "183028.030000", "183028.490000", "183028.950000", "183029.410000", "183029.870000", "183030.330000", "183030.790000", "183031.250000", "183031.710000", "183032.170000", "183032.630000", "183033.090000", "183033.550000", "183034.010000", "183034.470000", "183034.930000", "183035.390000", "183035.850000", "183036.310000", "183036.770000", "183037.230000", "183037.690000", "183038.150000", "183038.610000", "183039.070000", "183039.530000", "183039.990000", "183040.450000", "183040.910000", "183041.370000", "183041.830000", "183042.290000", "183042.750000", "183043.210000", "183043.670000", "183044.130000", "183044.590000", "183045.050000", "183045.510000", "183045.970000", "183046.430000", "183046.890000", "183047.350000", "183047.810000", "183048.270000", "183048.730000", "183049.190000", "183049.650000", "183050.110000", "183050.570000", "183051.030000", "183051.490000", "183051.950000", "183052.410000", "183052.870000", "183053.330000", "183053.790000", "183054.250000", "183054.710000", "183055.170000", "183055.630000", "183056.090000", "183056.550000", "183057.010000", "183057.470000", "183057.930000", "183058.390000", "183058.850000", "183059.310000", "183059.770000", "183100.230000", "183100.690000", "183101.150000", "183101.610000", "183102.070000", "183102.530000", "183102.990000", "183103.450000", "183103.910000", "183104.370000", "183104.830000", "183105.290000", "183105.750000", "183106.210000", "183106.670000", "183107.130000", "183107.590000", "183108.050000", "183108.510000", "183108.970000", "183109.430000", "183109.890000", "183110.350000", "183110.810000", "183111.270000", "183111.730000", "183112.190000", "183112.650000", "183113.110000", "183113.570000", "183114.030000", "183114.490000", "183114.950000", "183115.410000", "183115.870000", "183116.330000", "183116.790000", "183117.250000", "183117.710000", "183118.170000", "183118.630000", "183119.090000", "183119.550000", "183120.010000", "183120.470000", "183120.930000", "183121.390000", "183121.850000", "183122.310000", "183122.770000", "183123.230000", "183123.690000", "183124.150000", "183124.610000", "183125.070000", "183125.530000", "183125.990000", "183126.450000", "183126.910000", "183127.370000", "183127.830000", "183128.290000", "183128.750000", "183129.210000", "183129.670000", "183130.130000", "183130.590000", "183131.050000", "183131.510000", "183131.970000", "183132.430000", "183132.890000", "183133.350000", "183133.810000", "183134.270000", "183134.730000", "183135.190000", "183135.650000", "183136.110000", "183136.570000", "183137.030000", "183137.490000", "183137.950000", "183138.410000", "183138.870000", "183139.330000", "183139.790000", "183140.250000", "183140.710000", "183141.170000", "183141.630000", "183142.090000", "183142.550000", "183143.010000", "183143.470000", "183143.930000", "183144.390000", "183144.850000", "183145.310000", "183145.770000", "183146.230000", "183146.690000", "183147.150000", "183147.610000", "183148.070000", "183148.530000", "183148.990000", "183149.450000", "183149.910000", "183150.370000", "183150.830000", "183151.290000", "183151.750000", "183152.210000", "183152.670000", "183153.130000", "183153.590000", "183154.050000", "183154.510000", "183154.970000", "183155.430000", "183155.890000", "183156.350000", "183156.810000", "183157.270000", "183157.730000", "183158.190000", "183158.650000", "183159.110000", "183159.570000", "183200.030000", "183200.490000", "183200.950000", "183201.410000", "183201.870000", "183202.330000", "183202.790000", "183203.250000", "183203.710000", "183204.170000", "183204.630000", "183205.090000", "183205.550000", "183206.010000", "183206.470000", "183206.930000", "183207.390000", "183207.850000", "183208.310000", "183208.770000", "183209.230000", "183209.690000", "183210.150000", "183210.610000", "183211.070000", "183211.530000", "183211.990000", "183212.450000", "183212.910000", "183213.370000", "183213.830000", "183214.290000", "183214.750000", "183215.210000", "183215.670000", "183216.130000", "183216.590000", "183217.050000", "183217.510000", "183217.970000", "183218.430000", "183218.890000", "183219.350000", "183219.810000", "183220.270000", "183220.730000", "183221.190000", "183221.650000", "183222.110000", "183222.570000", "183223.030000", "183223.490000", "183223.950000", "183224.410000", "183224.870000", "183225.330000", "183225.790000", "183226.250000", "183226.710000", "183227.170000", "183227.630000", "183228.090000", "183228.550000", "183229.010000", "183229.470000", "183229.930000", "183230.390000", "183230.850000", "183231.310000", "183231.770000", "183232.230000", "183232.690000", "183233.150000", "183233.610000", "183234.070000", "183234.530000", "183234.990000", "183235.450000", "183235.910000", "183236.370000", "183236.830000", "183237.290000", "183237.750000", "183238.210000", "183238.670000", "183239.130000", "183239.590000", "183240.050000", "183240.510000", "183240.970000", "183241.430000", "183241.890000", "183242.350000", "183242.810000", "183243.270000", "183243.730000", "183244.190000", "183244.650000", "183245.110000", "183245.570000", "183246.030000", "183246.490000", "183246.950000", "183247.410000", "183247.870000", "183248.330000", "183248.790000", "183249.250000", "183249.710000", "183250.170000", "183250.630000", "183251.090000", "183251.550000", "183252.010000", "183252.470000", "183252.930000", "183253.390000", "183253.850000", "183254.310000", "183254.770000", "183255.230000", "183255.690000", "183256.150000", "183256.610000", "183257.070000"],
