{
  "AcquisitionMatrixPE": 82,
  "AcquisitionNumber": 1,
  "AcquisitionTime": "16:10:11.667500",
  "BandwidthPerPixelPhaseEncode": 24.888,
  "BaseResolution": 82,
  "BodyPartExamined": "BRAIN",
  "ConsistencyInfo": "N4_VE11C_LATEST_20160120",
  "ConversionSoftware": "dcm2niix",
  "ConversionSoftwareVersion": "v1.0.20201102",
  "DerivedVendorReportedEchoSpacing": 0.00049,
  "DeviceSerialNumber": "66112",
  "DwellTime": 2e-06,
  "EchoTime": 0.0272,
  "EchoTrainLength": 82,
  "EffectiveEchoSpacing": 0.00049,
  "FlipAngle": 44,
  "ImageComments": "Unaliased MB8/PE3",
  "ImageOrientationPatientDICOM": [0.99555, -0.0215615, -0.0917362, 0.0165084, 0.998323, -0.0554895],
  "ImageType": [
    "ORIGINAL",
    "PRIMARY",
    "M",
    "MB",
    "ND",
    "NORM",
    "MOSAIC"
],
  "ImagingFrequency": 123.252,
  "InPlanePhaseEncodingDirectionDICOM": "COL",
  "InstitutionAddress": "Maynard 3,Hanover,NH,US,03755",
  "InstitutionName": "Dartmouth College - PBS",
  "InstitutionalDepartmentName": "Department",
  "MRAcquisitionType": "2D",
  "MagneticFieldStrength": 3,
  "Manufacturer": "Siemens",
  "ManufacturersModelName": "Prisma",
  "Modality": "MR",
  "MultibandAccelerationFactor": 8,
  "PartialFourier": 1,
  "PatientPosition": "HFS",
  "PercentPhaseFOV": 100,
  "PercentSampling": 100,
  "PhaseEncodingDirection": "j-",
  "PhaseEncodingSteps": 82,
  "PhaseResolution": 1,
  "PixelBandwidth": 3050,
  "ProcedureStepDescription": "Wager_Wager^1076_spacetop",
  "ProtocolName": "func_run-02_task-alignvideo_acq-ap-mb8",
  "PulseSequenceDetails": "%CustomerSeq%\\cmrr_mbep2d_bold",
  "ReceiveCoilActiveElements": "HEA;HEP",
  "ReceiveCoilName": "Head_32",
  "ReconMatrixPE": 82,
  "RepetitionTime": 0.46,
  "SAR": 0.0777764,
  "ScanOptions": "FS",
  "ScanningSequence": "EP",
  "SequenceName": "epfid2d1_82",
  "SequenceVariant": "SK\\SS",
  "SeriesDescription": "func_run-02_task-alignvideo_acq-ap-mb8",
  "SeriesNumber": 32,
  "ShimSetting": [4124, -7757, -7286, 597, -49, -206, -5, 99],
  "SliceThickness": 2.7,
  "SliceTiming": [0, 0.2525, 0.0625, 0.315, 0.1275, 0.3775, 0.19, 0, 0.2525, 0.0625, 0.315, 0.1275, 0.3775, 0.19, 0, 0.2525, 0.0625, 0.315, 0.1275, 0.3775, 0.19, 0, 0.2525, 0.0625, 0.315, 0.1275, 0.3775, 0.19, 0, 0.2525, 0.0625, 0.315, 0.1275, 0.3775, 0.19, 0, 0.2525, 0.0625, 0.315, 0.1275, 0.3775, 0.19, 0, 0.2525, 0.0625, 0.315, 0.1275, 0.3775, 0.19, 0, 0.2525, 0.0625, 0.315, 0.1275, 0.3775, 0.19],
  "SoftwareVersions": "syngo MR E11",
  "SpacingBetweenSlices": 2.7,
  "StationName": "AWP66112",
  "TaskName": "alignvideo",
  "TotalReadoutTime": 0.03969,
  "TxRefAmp": 219.554,
  "WipMemBlock": "48979966-eb15-4d19-91e7-136d1cbb3c75||Sequence: R016 ve11c/master r/e634e98; Dec 19 2017 11:00:25 by eja",
  "dcmmeta_affine": [
    [-2.670987606048584, 0.04429074749350548, -0.25050270557403564, 112.3147964477539],
    [0.057847827672958374, 2.67842698097229, -0.14506596326828003, -89.92342376708984],
    [-0.24612154066562653, 0.1488742232322693, 2.6844375133514404, -66.73439025878906],
    [0.0, 0.0, 0.0, 1.0]
],
  "dcmmeta_reorient_transform": [
    [0.0, -1.0, 0.0, 81.0],
    [1.0, 0.0, 0.0, 0.0],
    [0.0, 0.0, 1.0, 0.0],
    [0.0, 0.0, 0.0, 1.0]
],
  "dcmmeta_shape": [82, 82, 56, 926],
  "dcmmeta_slice_dim": 2,
  "dcmmeta_version": 0.6,
  "global": {
    "const": {
      "AccessionNumber": "A003548",
      "AcquisitionMatrix": [82, 0, 0, 82],
      "AngioFlag": "N",
      "BitsAllocated": 16,
      "BitsStored": 16,
      "BodyPartExamined": "BRAIN",
      "Columns": 656,
      "EchoNumbers": 1,
      "EchoTime": 27.2,
      "EchoTrainLength": 82,
      "FlipAngle": 44.0,
      "HighBit": 15,
      "ImageOrientationPatient": [0.99554988398534, -0.0215614623315, -0.0917362078947, 0.0165083686619, 0.9983227890287, -0.0554894825177],
      "ImagePositionPatient": [-895.1872179735, -879.13541050264, 58.688203547317],
      "ImageType": [
        "ORIGINAL",
        "PRIMARY",
        "M",
        "MB",
        "ND",
        "NORM",
        "MOSAIC"
],
      "ImagedNucleus": "1H",
      "ImagingFrequency": 123.252193,
      "InPlanePhaseEncodingDirection": "COL",
      "MRAcquisitionType": "2D",
      "MagneticFieldStrength": 3.0,
      "Manufacturer": "SIEMENS",
      "ManufacturerModelName": "Prisma",
      "Modality": "MR",
      "NumberOfAverages": 1.0,
      "NumberOfPhaseEncodingSteps": 82,
      "PercentPhaseFieldOfView": 100.0,
      "PercentSampling": 100.0,
      "PerformedProcedureStepStartTime": "141642.026000",
      "PhotometricInterpretation": "MONOCHROME2",
      "PixelBandwidth": 3050.0,
      "PixelRepresentation": 0,
      "PixelSpacing": [2.6829268932343, 2.6829268932343],
      "ProtocolName": "func_run-02_task-alignvideo_acq-ap-mb8",
      "RepetitionTime": 460.0,
      "Rows": 656,
      "SAR": 0.07777636375037,
      "SamplesPerPixel": 1,
      "ScanOptions": "FS",
      "ScanningSequence": "EP",
      "SequenceName": "epfid2d1_82",
      "SequenceVariant": [
        "SK",
        "SS"
],
      "SeriesDescription": "func_run-02_task-alignvideo_acq-ap-mb8",
      "SeriesNumber": 32,
      "SeriesTime": "161025.529000",
      "SliceLocation": -71.938753643097,
      "SliceThickness": 2.7000000476837,
      "SmallestImagePixelValue": 0,
      "SoftwareVersions": "syngo MR E11",
      "SpacingBetweenSlices": 2.7000000019525,
      "SpecificCharacterSet": "ISO_IR 100",
      "StudyID": "1",
      "StudyTime": "141641.952000",
      "TransmitCoilName": "Body",
      "VariableFlipAngleFlag": "N",
      "WindowCenterWidthExplanation": "Algo1",
      "dBdt": 0.0},
    "slices": {}
  },
  "time": {
    "samples": {
      "AcquisitionNumber": [1, 2, 3, 4, 5, 6, 7, 8, 9, 10, 11, 12, 13, 14, 15, 16, 17, 18, 19, 20, 21, 22, 23, 24, 25, 26, 27, 28, 29, 30, 31, 32, 33, 34, 35, 36, 37, 38, 39, 40, 41, 42, 43, 44, 45, 46, 47, 48, 49, 50, 51, 52, 53, 54, 55, 56, 57, 58, 59, 60, 61, 62, 63, 64, 65, 66, 67, 68, 69, 70, 71, 72, 73, 74, 75, 76, 77, 78, 79, 80, 81, 82, 83, 84, 85, 86, 87, 88, 89, 90, 91, 92, 93, 94, 95, 96, 97, 98, 99, 100, 101, 102, 103, 104, 105, 106, 107, 108, 109, 110, 111, 112, 113, 114, 115, 116, 117, 118, 119, 120, 121, 122, 123, 124, 125, 126, 127, 128, 129, 130, 131, 132, 133, 134, 135, 136, 137, 138, 139, 140, 141, 142, 143, 144, 145, 146, 147, 148, 149, 150, 151, 152, 153, 154, 155, 156, 157, 158, 159, 160, 161, 162, 163, 164, 165, 166, 167, 168, 169, 170, 171, 172, 173, 174, 175, 176, 177, 178, 179, 180, 181, 182, 183, 184, 185, 186, 187, 188, 189, 190, 191, 192, 193, 194, 195, 196, 197, 198, 199, 200, 201, 202, 203, 204, 205, 206, 207, 208, 209, 210, 211, 212, 213, 214, 215, 216, 217, 218, 219, 220, 221, 222, 223, 224, 225, 226, 227, 228, 229, 230, 231, 232, 233, 234, 235, 236, 237, 238, 239, 240, 241, 242, 243, 244, 245, 246, 247, 248, 249, 250, 251, 252, 253, 254, 255, 256, 257, 258, 259, 260, 261, 262, 263, 264, 265, 266, 267, 268, 269, 270, 271, 272, 273, 274, 275, 276, 277, 278, 279, 280, 281, 282, 283, 284, 285, 286, 287, 288, 289, 290, 291, 292, 293, 294, 295, 296, 297, 298, 299, 300, 301, 302, 303, 304, 305, 306, 307, 308, 309, 310, 311, 312, 313, 314, 315, 316, 317, 318, 319, 320, 321, 322, 323, 324, 325, 326, 327, 328, 329, 330, 331, 332, 333, 334, 335, 336, 337, 338, 339, 340, 341, 342, 343, 344, 345, 346, 347, 348, 349, 350, 351, 352, 353, 354, 355, 356, 357, 358, 359, 360, 361, 362, 363, 364, 365, 366, 367, 368, 369, 370, 371, 372, 373, 374, 375, 376, 377, 378, 379, 380, 381, 382, 383, 384, 385, 386, 387, 388, 389, 390, 391, 392, 393, 394, 395, 396, 397, 398, 399, 400, 401, 402, 403, 404, 405, 406, 407, 408, 409, 410, 411, 412, 413, 414, 415, 416, 417, 418, 419, 420, 421, 422, 423, 424, 425, 426, 427, 428, 429, 430, 431, 432, 433, 434, 435, 436, 437, 438, 439, 440, 441, 442, 443, 444, 445, 446, 447, 448, 449, 450, 451, 452, 453, 454, 455, 456, 457, 458, 459, 460, 461, 462, 463, 464, 465, 466, 467, 468, 469, 470, 471, 472, 473, 474, 475, 476, 477, 478, 479, 480, 481, 482, 483, 484, 485, 486, 487, 488, 489, 490, 491, 492, 493, 494, 495, 496, 497, 498, 499, 500, 501, 502, 503, 504, 505, 506, 507, 508, 509, 510, 511, 512, 513, 514, 515, 516, 517, 518, 519, 520, 521, 522, 523, 524, 525, 526, 527, 528, 529, 530, 531, 532, 533, 534, 535, 536, 537, 538, 539, 540, 541, 542, 543, 544, 545, 546, 547, 548, 549, 550, 551, 552, 553, 554, 555, 556, 557, 558, 559, 560, 561, 562, 563, 564, 565, 566, 567, 568, 569, 570, 571, 572, 573, 574, 575, 576, 577, 578, 579, 580, 581, 582, 583, 584, 585, 586, 587, 588, 589, 590, 591, 592, 593, 594, 595, 596, 597, 598, 599, 600, 601, 602, 603, 604, 605, 606, 607, 608, 609, 610, 611, 612, 613, 614, 615, 616, 617, 618, 619, 620, 621, 622, 623, 624, 625, 626, 627, 628, 629, 630, 631, 632, 633, 634, 635, 636, 637, 638, 639, 640, 641, 642, 643, 644, 645, 646, 647, 648, 649, 650, 651, 652, 653, 654, 655, 656, 657, 658, 659, 660, 661, 662, 663, 664, 665, 666, 667, 668, 669, 670, 671, 672, 673, 674, 675, 676, 677, 678, 679, 680, 681, 682, 683, 684, 685, 686, 687, 688, 689, 690, 691, 692, 693, 694, 695, 696, 697, 698, 699, 700, 701, 702, 703, 704, 705, 706, 707, 708, 709, 710, 711, 712, 713, 714, 715, 716, 717, 718, 719, 720, 721, 722, 723, 724, 725, 726, 727, 728, 729, 730, 731, 732, 733, 734, 735, 736, 737, 738, 739, 740, 741, 742, 743, 744, 745, 746, 747, 748, 749, 750, 751, 752, 753, 754, 755, 756, 757, 758, 759, 760, 761, 762, 763, 764, 765, 766, 767, 768, 769, 770, 771, 772, 773, 774, 775, 776, 777, 778, 779, 780, 781, 782, 783, 784, 785, 786, 787, 788, 789, 790, 791, 792, 793, 794, 795, 796, 797, 798, 799, 800, 801, 802, 803, 804, 805, 806, 807, 808, 809, 810, 811, 812, 813, 814, 815, 816, 817, 818, 819, 820, 821, 822, 823, 824, 825, 826, 827, 828, 829, 830, 831, 832, 833, 834, 835, 836, 837, 838, 839, 840, 841, 842, 843, 844, 845, 846, 847, 848, 849, 850, 851, 852, 853, 854, 855, 856, 857, 858, 859, 860, 861, 862, 863, 864, 865, 866, 867, 868, 869, 870, 871, 872, 873, 874, 875, 876, 877, 878, 879, 880, 881, 882, 883, 884, 885, 886, 887, 888, 889, 890, 891, 892, 893, 894, 895, 896, 897, 898, 899, 900, 901, 902, 903, 904, 905, 906, 907, 908, 909, 910, 911, 912, 913, 914, 915, 916, 917, 918, 919, 920, 921, 922, 923, 924, 925, 926],
      "AcquisitionTime": ["161011.667500", "161012.127500", "161012.587500", "161013.047500", "161013.507500", "161013.967500", "161014.427500", "161014.887500", "161015.347500", "161015.807500", "161016.267500", "161016.727500", "161017.187500", "161017.647500", "161018.107500", "161018.567500", "161019.027500", "161019.487500", "161019.947500", "161020.407500", "161020.867500", "161021.327500", "161021.787500", "161022.247500", "161022.707500", "161023.167500", "161023.627500", "161024.087500", "161024.547500", "161025.007500", "161025.467500", "161025.927500", "161026.387500", "161026.847500", "161027.307500", "161027.767500", "161028.227500", "161028.687500", "161029.147500", "161029.607500", "161030.067500", "161030.527500", "161030.987500", "161031.447500", "161031.907500", "161032.367500", "161032.827500", "161033.287500", "161033.747500", "161034.207500", "161034.667500", "161035.127500", "161035.587500", "161036.047500", "161036.507500", "161036.967500", "161037.427500", "161037.887500", "161038.347500", "161038.807500", "161039.267500", "161039.727500", "161040.187500", "161040.647500", "161041.107500", "161041.567500", "161042.027500", "161042.487500", "161042.947500", "161043.407500", "161043.867500", "161044.327500", "161044.787500", "161045.247500", "161045.707500", "161046.167500", "161046.627500", "161047.087500", "161047.547500", "161048.007500", "161048.467500", "161048.927500", "161049.387500", "161049.847500", "161050.307500", "161050.767500", "161051.227500", "161051.687500", "161052.147500", "161052.607500", "161053.067500", "161053.527500", "161053.987500", "161054.447500", "161054.907500", "161055.367500", "161055.827500", "161056.287500", "161056.747500", "161057.207500", "161057.667500", "161058.127500", "161058.587500", "161059.047500", "161059.507500", "161059.967500", "161100.427500", "161100.887500", "161101.347500", "161101.807500", "161102.267500", "161102.727500", "161103.187500", "161103.647500", "161104.107500", "161104.567500", "161105.027500", "161105.487500", "161105.947500", "161106.407500", "161106.867500", "161107.327500", "161107.787500", "161108.247500", "161108.707500", "161109.167500", "161109.627500", "161110.087500", "161110.547500", "161111.007500", "161111.467500", "161111.927500", "161112.387500", "161112.847500", "161113.307500", "161113.767500", "161114.227500", "161114.687500", "161115.147500", "161115.607500", "161116.067500", "161116.527500", "161116.987500", "161117.447500", "161117.907500", "161118.367500", "161118.827500", "161119.287500", "161119.747500", "161120.207500", "161120.667500", "161121.127500", "161121.587500", "161122.047500", "161122.507500", "161122.967500", "161123.427500", "161123.887500", "161124.347500", "161124.807500", "161125.267500", "161125.727500", "161126.187500", "161126.647500", "161127.107500", "161127.567500", "161128.027500", "161128.487500", "161128.947500", "161129.407500", "161129.867500", "161130.327500", "161130.787500", "161131.247500", "161131.707500", "161132.167500", "161132.627500", "161133.087500", "161133.547500", "161134.007500", "161134.467500", "161134.927500", "161135.387500", "161135.847500", "161136.307500", "161136.767500", "161137.227500", "161137.687500", "161138.147500", "161138.607500", "161139.067500", "161139.527500", "161139.987500", "161140.447500", "161140.907500", "161141.367500", "161141.827500", "161142.287500", "161142.747500", "161143.207500", "161143.667500", "161144.127500", "161144.587500", "161145.047500", "161145.507500", "161145.967500", "161146.427500", "161146.887500", "161147.347500", "161147.807500", "161148.267500", "161148.727500", "161149.187500", "161149.647500", "161150.107500", "161150.567500", "161151.027500", "161151.487500", "161151.947500", "161152.407500", "161152.867500", "161153.327500", "161153.787500", "161154.247500", "161154.707500", "161155.167500", "161155.627500", "161156.087500", "161156.547500", "161157.007500", "161157.467500", "161157.927500", "161158.387500", "161158.847500", "161159.307500", "161159.767500", "161200.227500", "161200.687500", "161201.147500", "161201.607500", "161202.067500", "161202.527500", "161202.987500", "161203.447500", "161203.907500", "161204.367500", "161204.827500", "161205.287500", "161205.747500", "161206.207500", "161206.667500", "161207.127500", "161207.587500", "161208.047500", "161208.507500", "161208.967500", "161209.427500", "161209.887500", "161210.347500", "161210.807500", "161211.267500", "161211.727500", "161212.187500", "161212.647500", "161213.107500", "161213.567500", "161214.027500", "161214.487500", "161214.947500", "161215.407500", "161215.867500", "161216.327500", "161216.787500", "161217.247500", "161217.707500", "161218.167500", "161218.627500", "161219.087500", "161219.547500", "161220.007500", "161220.467500", "161220.927500", "161221.387500", "161221.847500", "161222.307500", "161222.767500", "161223.227500", "161223.687500", "161224.147500", "161224.607500", "161225.067500", "161225.527500", "161225.987500", "161226.447500", "161226.907500", "161227.367500", "161227.827500", "161228.287500", "161228.747500", "161229.207500", "161229.667500", "161230.127500", "161230.587500", "161231.047500", "161231.507500", "161231.967500", "161232.427500", "161232.887500", "161233.347500", "161233.807500", "161234.267500", "161234.727500", "161235.187500", "161235.647500", "161236.107500", "161236.567500", "161237.027500", "161237.487500", "161237.947500", "161238.407500", "161238.867500", "161239.327500", "161239.787500", "161240.247500", "161240.707500", "161241.167500", "161241.627500", "161242.087500", "161242.547500", "161243.007500", "161243.467500", "161243.927500", "161244.387500", "161244.847500", "161245.307500", "161245.767500", "161246.227500", "161246.687500", "161247.147500", "161247.607500", "161248.067500", "161248.527500", "161248.987500", "161249.447500", "161249.907500", "161250.367500", "161250.827500", "161251.287500", "161251.747500", "161252.207500", "161252.667500", "161253.127500", "161253.587500", "161254.047500", "161254.507500", "161254.967500", "161255.427500", "161255.887500", "161256.347500", "161256.807500", "161257.267500", "161257.727500", "161258.187500", "161258.647500", "161259.107500", "161259.567500", "161300.027500", "161300.487500", "161300.947500", "161301.407500", "161301.867500", "161302.327500", "161302.787500", "161303.247500", "161303.707500", "161304.167500", "161304.627500", "161305.087500", "161305.547500", "161306.007500", "161306.467500", "161306.927500", "161307.387500", "161307.847500", "161308.307500", "161308.767500", "161309.227500", "161309.687500", "161310.147500", "161310.607500", "161311.067500", "161311.527500", "161311.987500", "161312.447500", "161312.907500", "161313.367500", "161313.827500", "161314.287500", "161314.747500", "161315.207500", "161315.667500", "161316.127500", "161316.587500", "161317.047500", "161317.507500", "161317.967500", "161318.427500", "161318.887500", "161319.347500", "161319.807500", "161320.267500", "161320.727500", "161321.187500", "161321.647500", "161322.107500", "161322.567500", "161323.027500", "161323.487500", "161323.947500", "161324.407500", "161324.867500", "161325.327500", "161325.787500", "161326.247500", "161326.707500", "161327.167500", "161327.627500", "161328.087500", "161328.547500", "161329.007500", "161329.467500", "161329.927500", "161330.387500", "161330.847500", "161331.307500", "161331.767500", "161332.227500", "161332.687500", "161333.147500", "161333.607500", "161334.067500", "161334.527500", "161334.987500", "161335.447500", "161335.907500", "161336.367500", "161336.827500", "161337.287500", "161337.747500", "161338.207500", "161338.667500", "161339.127500", "161339.587500", "161340.047500", "161340.507500", "161340.967500", "161341.427500", "161341.887500", "161342.347500", "161342.807500", "161343.267500", "161343.727500", "161344.187500", "161344.647500", "161345.107500", "161345.567500", "161346.027500", "161346.487500", "161346.947500", "161347.407500", "161347.867500", "161348.327500", "161348.787500", "161349.247500", "161349.707500", "161350.167500", "161350.627500", "161351.087500", "161351.547500", "161352.007500", "161352.467500", "161352.927500", "161353.387500", "161353.847500", "161354.307500", "161354.767500", "161355.227500", "161355.687500", "161356.147500", "161356.607500", "161357.067500", "161357.527500", "161357.987500", "161358.447500", "161358.907500", "161359.367500", "161359.827500", "161400.287500", "161400.747500", "161401.207500", "161401.667500", "161402.127500", "161402.587500", "161403.047500", "161403.507500", "161403.967500", "161404.427500", "161404.887500", "161405.347500", "161405.807500", "161406.267500", "161406.727500", "161407.187500", "161407.647500", "161408.107500", "161408.567500", "161409.027500", "161409.487500", "161409.947500", "161410.407500", "161410.867500", "161411.327500", "161411.787500", "161412.247500", "161412.707500", "161413.167500", "161413.627500", "161414.087500", "161414.547500", "161415.007500", "161415.467500", "161415.927500", "161416.387500", "161416.847500", "161417.307500", "161417.767500", "161418.227500", "161418.687500", "161419.147500", "161419.607500", "161420.067500", "161420.527500", "161420.987500", "161421.447500", "161421.907500", "161422.367500", "161422.827500", "161423.287500", "161423.747500", "161424.207500", "161424.667500", "161425.127500", "161425.587500", "161426.047500", "161426.507500", "161426.967500", "161427.427500", "161427.887500", "161428.347500", "161428.807500", "161429.267500", "161429.727500", "161430.187500", "161430.647500", "161431.107500", "161431.567500", "161432.027500", "161432.487500", "161432.947500", "161433.407500", "161433.867500", "161434.327500", "161434.787500", "161435.247500", "161435.707500", "161436.167500", "161436.627500", "161437.087500", "161437.547500", "161438.007500", "161438.467500", "161438.927500", "161439.387500", "161439.847500", "161440.307500", "161440.767500", "161441.227500", "161441.687500", "161442.147500", "161442.607500", "161443.067500", "161443.527500", "161443.987500", "161444.447500", "161444.907500", "161445.367500", "161445.827500", "161446.287500", "161446.747500", "161447.207500", "161447.667500", "161448.127500", "161448.587500", "161449.047500", "161449.507500", "161449.967500", "161450.427500", "161450.887500", "161451.347500", "161451.807500", "161452.267500", "161452.727500", "161453.187500", "161453.647500", "161454.107500", "161454.567500", "161455.027500", "161455.487500", "161455.947500", "161456.407500", "161456.867500", "161457.327500", "161457.787500", "161458.247500", "161458.707500", "161459.167500", "161459.627500", "161500.087500", "161500.547500", "161501.007500", "161501.467500", "161501.927500", "161502.387500", "161502.847500", "161503.307500", "161503.767500", "161504.227500", "161504.687500", "161505.147500", "161505.607500", "161506.067500", "161506.527500", "161506.987500", "161507.447500", "161507.907500", "161508.367500", "161508.827500", "161509.287500", "161509.747500", "161510.207500", "161510.667500", "161511.127500", "161511.587500", "161512.047500", "161512.507500", "161512.967500", "161513.427500", "161513.887500", "161514.347500", "161514.807500", "161515.267500", "161515.727500", "161516.187500", "161516.647500", "161517.107500", "161517.567500", "161518.027500", "161518.487500", "161518.947500", "161519.407500", "161519.867500", "161520.327500", "161520.787500", "161521.247500", "161521.707500", "161522.167500", "161522.627500", "161523.087500", "161523.547500", "161524.007500", "161524.467500", "161524.927500", "161525.387500", "161525.847500", "161526.307500", "161526.767500", "161527.227500", "161527.687500", "161528.147500", "161528.607500", "161529.067500", "161529.527500", "161529.987500", "161530.447500", "161530.907500", "161531.367500", "161531.827500", "161532.287500", "161532.747500", "161533.207500", "161533.667500", "161534.127500", "161534.587500", "161535.047500", "161535.507500", "161535.967500", "161536.427500", "161536.887500", "161537.347500", "161537.807500", "161538.267500", "161538.727500", "161539.187500", "161539.647500", "161540.107500", "161540.567500", "161541.027500", "161541.487500", "161541.947500", "161542.407500", "161542.867500", "161543.327500", "161543.787500", "161544.247500", "161544.707500", "161545.167500", "161545.627500", "161546.087500", "161546.547500", "161547.007500", "161547.467500", "161547.927500", "161548.387500", "161548.847500", "161549.307500", "161549.767500", "161550.227500", "161550.687500", "161551.147500", "161551.607500", "161552.067500", "161552.527500", "161552.987500", "161553.447500", "161553.907500", "161554.367500", "161554.827500", "161555.287500", "161555.747500", "161556.207500", "161556.667500", "161557.127500", "161557.587500", "161558.047500", "161558.507500", "161558.967500", "161559.427500", "161559.887500", "161600.347500", "161600.807500", "161601.267500", "161601.727500", "161602.187500", "161602.647500", "161603.107500", "161603.567500", "161604.027500", "161604.487500", "161604.947500", "161605.407500", "161605.867500", "161606.327500", "161606.787500", "161607.247500", "161607.707500", "161608.167500", "161608.627500", "161609.087500", "161609.547500", "161610.007500", "161610.467500", "161610.927500", "161611.387500", "161611.847500", "161612.307500", "161612.767500", "161613.227500", "161613.687500", "161614.147500", "161614.607500", "161615.067500", "161615.527500", "161615.987500", "161616.447500", "161616.907500", "161617.367500", "161617.827500", "161618.287500", "161618.747500", "161619.207500", "161619.667500", "161620.127500", "161620.587500", "161621.047500", "161621.507500", "161621.967500", "161622.427500", "161622.887500", "161623.347500", "161623.807500", "161624.267500", "161624.727500", "161625.187500", "161625.647500", "161626.107500", "161626.567500", "161627.027500", "161627.487500", "161627.947500", "161628.407500", "161628.867500", "161629.327500", "161629.787500", "161630.247500", "161630.707500", "161631.167500", "161631.627500", "161632.087500", "161632.547500", "161633.007500", "161633.467500", "161633.927500", "161634.387500", "161634.847500", "161635.307500", "161635.767500", "161636.227500", "161636.687500", "161637.147500", "161637.607500", "161638.067500", "161638.527500", "161638.987500", "161639.447500", "161639.907500", "161640.367500", "161640.827500", "161641.287500", "161641.747500", "161642.207500", "161642.667500", "161643.127500", "161643.587500", "161644.047500", "161644.507500", "161644.967500", "161645.427500", "161645.887500", "161646.347500", "161646.807500", "161647.267500", "161647.727500", "161648.187500", "161648.647500", "161649.107500", "161649.567500", "161650.027500", "161650.487500", "161650.947500", "161651.407500", "161651.867500", "161652.327500", "161652.787500", "161653.247500", "161653.707500", "161654.167500", "161654.627500", "161655.087500", "161655.547500", "161656.007500", "161656.467500", "161656.927500", "161657.387500", "161657.847500", "161658.307500", "161658.767500", "161659.227500", "161659.687500", "161700.147500", "161700.607500", "161701.067500", "161701.527500", "161701.987500", "161702.447500", "161702.907500", "161703.367500", "161703.827500", "161704.287500", "161704.747500", "161705.207500", "161705.667500", "161706.127500", "161706.587500", "161707.047500", "161707.507500", "161707.967500", "161708.427500", "161708.887500", "161709.347500", "161709.807500", "161710.267500", "161710.727500", "161711.187500", "161711.647500", "161712.107500", "161712.567500", "161713.027500", "161713.487500", "161713.947500", "161714.407500", "161714.867500", "161715.327500", "161715.787500", "161716.247500", "161716.707500", "161717.167500"],
