{
  "AcquisitionMatrixPE": 82,
  "AcquisitionNumber": 1,
  "AcquisitionTime": "15:28:28.920000",
  "BandwidthPerPixelPhaseEncode": 24.888,
  "BaseResolution": 82,
  "BodyPartExamined": "BRAIN",
  "ConsistencyInfo": "N4_VE11C_LATEST_20160120",
  "ConversionSoftware": "dcm2niix",
  "ConversionSoftwareVersion": "v1.0.20201102",
  "DerivedVendorReportedEchoSpacing": 0.00049,
  "DeviceSerialNumber": "66112",
  "DwellTime": 2e-06,
  "EchoTime": 0.0272,
  "EchoTrainLength": 82,
  "EffectiveEchoSpacing": 0.00049,
  "FlipAngle": 44,
  "ImageComments": "Unaliased MB8/PE3",
  "ImageOrientationPatientDICOM": [0.997745, -0.0158137, -0.0652256, 0.0139321, 0.999476, -0.0292032],
  "ImageType": [
    "ORIGINAL",
    "PRIMARY",
    "M",
    "MB",
    "ND",
    "NORM",
    "MOSAIC"
],
  "ImagingFrequency": 123.252,
  "InPlanePhaseEncodingDirectionDICOM": "COL",
  "InstitutionAddress": "Maynard 3,Hanover,NH,US,03755",
  "InstitutionName": "Dartmouth College - PBS",
  "InstitutionalDepartmentName": "Department",
  "MRAcquisitionType": "2D",
  "MagneticFieldStrength": 3,
  "Manufacturer": "Siemens",
  "ManufacturersModelName": "Prisma",
  "Modality": "MR",
  "MultibandAccelerationFactor": 8,
  "PartialFourier": 1,
  "PatientPosition": "HFS",
  "PercentPhaseFOV": 100,
  "PercentSampling": 100,
  "PhaseEncodingDirection": "j-",
  "PhaseEncodingSteps": 82,
  "PhaseResolution": 1,
  "PixelBandwidth": 3050,
  "ProcedureStepDescription": "Wager_Wager^1076_spacetop",
  "ProtocolName": "func_run-03_task-social_acq-ap-mb8",
  "PulseSequenceDetails": "%CustomerSeq%\\cmrr_mbep2d_bold",
  "ReceiveCoilActiveElements": "HEA;HEP",
  "ReceiveCoilName": "Head_32",
  "ReconMatrixPE": 82,
  "RepetitionTime": 0.46,
  "SAR": 0.0777482,
  "ScanOptions": "FS",
  "ScanningSequence": "EP",
  "SequenceName": "epfid2d1_82",
  "SequenceVariant": "SK\\SS",
  "SeriesDescription": "func_run-03_task-social_acq-ap-mb8",
  "SeriesNumber": 16,
  "ShimSetting": [4125, -7758, -7292, 603, -31, -221, -9, 105],
  "SliceThickness": 2.7,
  "SliceTiming": [0, 0.2525, 0.0625, 0.315, 0.125, 0.3775, 0.1875, 0, 0.2525, 0.0625, 0.315, 0.125, 0.3775, 0.1875, 0, 0.2525, 0.0625, 0.315, 0.125, 0.3775, 0.1875, 0, 0.2525, 0.0625, 0.315, 0.125, 0.3775, 0.1875, 0, 0.2525, 0.0625, 0.315, 0.125, 0.3775, 0.1875, 0, 0.2525, 0.0625, 0.315, 0.125, 0.3775, 0.1875, 0, 0.2525, 0.0625, 0.315, 0.125, 0.3775, 0.1875, 0, 0.2525, 0.0625, 0.315, 0.125, 0.3775, 0.1875],
  "SoftwareVersions": "syngo MR E11",
  "SpacingBetweenSlices": 2.7,
  "StationName": "AWP66112",
  "TaskName": "social",
  "TotalReadoutTime": 0.03969,
  "TxRefAmp": 219.554,
  "WipMemBlock": "9d4359b8-966f-4aa3-a7f1-e3801925e189||Sequence: R016 ve11c/master r/e634e98; Dec 19 2017 11:00:25 by eja",
  "dcmmeta_affine": [
    [-2.676877498626709, 0.03737867996096611, -0.17726367712020874, 111.68597412109375],
    [0.04242703318595886, 2.6815221309661865, -0.07621720433235168, -91.24716186523438],
    [-0.17499540746212006, 0.07834996283054352, 2.693096399307251, -70.44461822509766],
    [0.0, 0.0, 0.0, 1.0]
],
  "dcmmeta_reorient_transform": [
    [0.0, -1.0, 0.0, 81.0],
    [1.0, 0.0, 0.0, 0.0],
    [0.0, 0.0, 1.0, 0.0],
    [0.0, 0.0, 0.0, 1.0]
],
  "dcmmeta_shape": [82, 82, 56, 872],
  "dcmmeta_slice_dim": 2,
  "dcmmeta_version": 0.6,
  "global": {
    "const": {
      "AccessionNumber": "A003548",
      "AcquisitionMatrix": [82, 0, 0, 82],
      "AngioFlag": "N",
      "BitsAllocated": 16,
      "BitsStored": 16,
      "BodyPartExamined": "BRAIN",
      "Columns": 656,
      "EchoNumbers": 1,
      "EchoTime": 27.2,
      "EchoTrainLength": 82,
      "FlipAngle": 44.0,
      "HighBit": 15,
      "ImageOrientationPatient": [0.99774523460136, -0.0158137123545, -0.0652255573518, 0.01393205288345, 0.99947639936061, -0.0292031680406],
      "ImagePositionPatient": [-893.70517573392, -883.37641434471, 8.61185247004],
      "ImageType": [
        "ORIGINAL",
        "PRIMARY",
        "M",
        "MB",
        "ND",
        "NORM",
        "MOSAIC"
],
      "ImagedNucleus": "1H",
      "ImagingFrequency": 123.252188,
      "InPlanePhaseEncodingDirection": "COL",
      "MRAcquisitionType": "2D",
      "MagneticFieldStrength": 3.0,
      "Manufacturer": "SIEMENS",
      "ManufacturerModelName": "Prisma",
      "Modality": "MR",
      "NumberOfAverages": 1.0,
      "NumberOfPhaseEncodingSteps": 82,
      "PercentPhaseFieldOfView": 100.0,
      "PercentSampling": 100.0,
      "PerformedProcedureStepStartTime": "141642.026000",
      "PhotometricInterpretation": "MONOCHROME2",
      "PixelBandwidth": 3050.0,
      "PixelRepresentation": 0,
      "PixelSpacing": [2.6829268932343, 2.6829268932343],
      "ProtocolName": "func_run-03_task-social_acq-ap-mb8",
      "RepetitionTime": 460.0,
      "Rows": 656,
      "SAR": 0.07774819819216,
      "SamplesPerPixel": 1,
      "ScanOptions": "FS",
      "ScanningSequence": "EP",
      "SequenceName": "epfid2d1_82",
      "SequenceVariant": [
        "SK",
        "SS"
],
      "SeriesDescription": "func_run-03_task-social_acq-ap-mb8",
      "SeriesNumber": 16,
      "SeriesTime": "152845.609000",
      "SliceLocation": -75.021261350292,
      "SliceThickness": 2.7000000476837,
      "SmallestImagePixelValue": 0,
      "SoftwareVersions": "syngo MR E11",
      "SpacingBetweenSlices": 2.6999999125306,
      "SpecificCharacterSet": "ISO_IR 100",
      "StudyID": "1",
      "StudyTime": "141641.952000",
      "TransmitCoilName": "Body",
      "VariableFlipAngleFlag": "N",
      "WindowCenterWidthExplanation": "Algo1",
      "dBdt": 0.0},
    "slices": {}
  },
  "time": {
    "samples": {
      "AcquisitionNumber": [1, 2, 3, 4, 5, 6, 7, 8, 9, 10, 11, 12, 13, 14, 15, 16, 17, 18, 19, 20, 21, 22, 23, 24, 25, 26, 27, 28, 29, 30, 31, 32, 33, 34, 35, 36, 37, 38, 39, 40, 41, 42, 43, 44, 45, 46, 47, 48, 49, 50, 51, 52, 53, 54, 55, 56, 57, 58, 59, 60, 61, 62, 63, 64, 65, 66, 67, 68, 69, 70, 71, 72, 73, 74, 75, 76, 77, 78, 79, 80, 81, 82, 83, 84, 85, 86, 87, 88, 89, 90, 91, 92, 93, 94, 95, 96, 97, 98, 99, 100, 101, 102, 103, 104, 105, 106, 107, 108, 109, 110, 111, 112, 113, 114, 115, 116, 117, 118, 119, 120, 121, 122, 123, 124, 125, 126, 127, 128, 129, 130, 131, 132, 133, 134, 135, 136, 137, 138, 139, 140, 141, 142, 143, 144, 145, 146, 147, 148, 149, 150, 151, 152, 153, 154, 155, 156, 157, 158, 159, 160, 161, 162, 163, 164, 165, 166, 167, 168, 169, 170, 171, 172, 173, 174, 175, 176, 177, 178, 179, 180, 181, 182, 183, 184, 185, 186, 187, 188, 189, 190, 191, 192, 193, 194, 195, 196, 197, 198, 199, 200, 201, 202, 203, 204, 205, 206, 207, 208, 209, 210, 211, 212, 213, 214, 215, 216, 217, 218, 219, 220, 221, 222, 223, 224, 225, 226, 227, 228, 229, 230, 231, 232, 233, 234, 235, 236, 237, 238, 239, 240, 241, 242, 243, 244, 245, 246, 247, 248, 249, 250, 251, 252, 253, 254, 255, 256, 257, 258, 259, 260, 261, 262, 263, 264, 265, 266, 267, 268, 269, 270, 271, 272, 273, 274, 275, 276, 277, 278, 279, 280, 281, 282, 283, 284, 285, 286, 287, 288, 289, 290, 291, 292, 293, 294, 295, 296, 297, 298, 299, 300, 301, 302, 303, 304, 305, 306, 307, 308, 309, 310, 311, 312, 313, 314, 315, 316, 317, 318, 319, 320, 321, 322, 323, 324, 325, 326, 327, 328, 329, 330, 331, 332, 333, 334, 335, 336, 337, 338, 339, 340, 341, 342, 343, 344, 345, 346, 347, 348, 349, 350, 351, 352, 353, 354, 355, 356, 357, 358, 359, 360, 361, 362, 363, 364, 365, 366, 367, 368, 369, 370, 371, 372, 373, 374, 375, 376, 377, 378, 379, 380, 381, 382, 383, 384, 385, 386, 387, 388, 389, 390, 391, 392, 393, 394, 395, 396, 397, 398, 399, 400, 401, 402, 403, 404, 405, 406, 407, 408, 409, 410, 411, 412, 413, 414, 415, 416, 417, 418, 419, 420, 421, 422, 423, 424, 425, 426, 427, 428, 429, 430, 431, 432, 433, 434, 435, 436, 437, 438, 439, 440, 441, 442, 443, 444, 445, 446, 447, 448, 449, 450, 451, 452, 453, 454, 455, 456, 457, 458, 459, 460, 461, 462, 463, 464, 465, 466, 467, 468, 469, 470, 471, 472, 473, 474, 475, 476, 477, 478, 479, 480, 481, 482, 483, 484, 485, 486, 487, 488, 489, 490, 491, 492, 493, 494, 495, 496, 497, 498, 499, 500, 501, 502, 503, 504, 505, 506, 507, 508, 509, 510, 511, 512, 513, 514, 515, 516, 517, 518, 519, 520, 521, 522, 523, 524, 525, 526, 527, 528, 529, 530, 531, 532, 533, 534, 535, 536, 537, 538, 539, 540, 541, 542, 543, 544, 545, 546, 547, 548, 549, 550, 551, 552, 553, 554, 555, 556, 557, 558, 559, 560, 561, 562, 563, 564, 565, 566, 567, 568, 569, 570, 571, 572, 573, 574, 575, 576, 577, 578, 579, 580, 581, 582, 583, 584, 585, 586, 587, 588, 589, 590, 591, 592, 593, 594, 595, 596, 597, 598, 599, 600, 601, 602, 603, 604, 605, 606, 607, 608, 609, 610, 611, 612, 613, 614, 615, 616, 617, 618, 619, 620, 621, 622, 623, 624, 625, 626, 627, 628, 629, 630, 631, 632, 633, 634, 635, 636, 637, 638, 639, 640, 641, 642, 643, 644, 645, 646, 647, 648, 649, 650, 651, 652, 653, 654, 655, 656, 657, 658, 659, 660, 661, 662, 663, 664, 665, 666, 667, 668, 669, 670, 671, 672, 673, 674, 675, 676, 677, 678, 679, 680, 681, 682, 683, 684, 685, 686, 687, 688, 689, 690, 691, 692, 693, 694, 695, 696, 697, 698, 699, 700, 701, 702, 703, 704, 705, 706, 707, 708, 709, 710, 711, 712, 713, 714, 715, 716, 717, 718, 719, 720, 721, 722, 723, 724, 725, 726, 727, 728, 729, 730, 731, 732, 733, 734, 735, 736, 737, 738, 739, 740, 741, 742, 743, 744, 745, 746, 747, 748, 749, 750, 751, 752, 753, 754, 755, 756, 757, 758, 759, 760, 761, 762, 763, 764, 765, 766, 767, 768, 769, 770, 771, 772, 773, 774, 775, 776, 777, 778, 779, 780, 781, 782, 783, 784, 785, 786, 787, 788, 789, 790, 791, 792, 793, 794, 795, 796, 797, 798, 799, 800, 801, 802, 803, 804, 805, 806, 807, 808, 809, 810, 811, 812, 813, 814, 815, 816, 817, 818, 819, 820, 821, 822, 823, 824, 825, 826, 827, 828, 829, 830, 831, 832, 833, 834, 835, 836, 837, 838, 839, 840, 841, 842, 843, 844, 845, 846, 847, 848, 849, 850, 851, 852, 853, 854, 855, 856, 857, 858, 859, 860, 861, 862, 863, 864, 865, 866, 867, 868, 869, 870, 871, 872],
      "AcquisitionTime": ["152828.920000", "152829.380000", "152829.840000", "152830.300000", "152830.760000", "152831.220000", "152831.680000", "152832.140000", "152832.600000", "152833.060000", "152833.520000", "152833.980000", "152834.440000", "152834.900000", "152835.360000", "152835.820000", "152836.280000", "152836.740000", "152837.200000", "152837.660000", "152838.120000", "152838.580000", "152839.040000", "152839.500000", "152839.960000", "152840.420000", "152840.880000", "152841.340000", "152841.800000", "152842.260000", "152842.720000", "152843.180000", "152843.640000", "152844.100000", "152844.560000", "152845.020000", "152845.480000", "152845.940000", "152846.400000", "152846.860000", "152847.320000", "152847.780000", "152848.240000", "152848.700000", "152849.160000", "152849.620000", "152850.080000", "152850.540000", "152851.000000", "152851.460000", "152851.920000", "152852.380000", "152852.840000", "152853.300000", "152853.760000", "152854.220000", "152854.680000", "152855.140000", "152855.600000", "152856.060000", "152856.520000", "152856.980000", "152857.440000", "152857.900000", "152858.360000", "152858.820000", "152859.280000", "152859.740000", "152900.200000", "152900.660000", "152901.120000", "152901.580000", "152902.040000", "152902.500000", "152902.960000", "152903.420000", "152903.880000", "152904.340000", "152904.800000", "152905.260000", "152905.720000", "152906.180000", "152906.640000", "152907.100000", "152907.560000", "152908.020000", "152908.480000", "152908.940000", "152909.400000", "152909.860000", "152910.320000", "152910.780000", "152911.240000", "152911.700000", "152912.160000", "152912.620000", "152913.080000", "152913.540000", "152914.000000", "152914.460000", "152914.920000", "152915.380000", "152915.840000", "152916.300000", "152916.760000", "152917.220000", "152917.680000", "152918.140000", "152918.600000", "152919.060000", "152919.520000", "152919.980000", "152920.440000", "152920.900000", "152921.360000", "152921.820000", "152922.280000", "152922.740000", "152923.200000", "152923.660000", "152924.120000", "152924.580000", "152925.040000", "152925.500000", "152925.960000", "152926.420000", "152926.880000", "152927.340000", "152927.800000", "152928.260000", "152928.720000", "152929.180000", "152929.640000", "152930.100000", "152930.560000", "152931.020000", "152931.480000", "152931.940000", "152932.400000", "152932.860000", "152933.320000", "152933.780000", "152934.240000", "152934.700000", "152935.160000", "152935.620000", "152936.080000", "152936.540000", "152937.000000", "152937.460000", "152937.920000", "152938.380000", "152938.840000", "152939.300000", "152939.760000", "152940.220000", "152940.680000", "152941.140000", "152941.600000", "152942.060000", "152942.520000", "152942.980000", "152943.440000", "152943.900000", "152944.360000", "152944.820000", "152945.280000", "152945.740000", "152946.200000", "152946.660000", "152947.120000", "152947.580000", "152948.040000", "152948.500000", "152948.960000", "152949.420000", "152949.880000", "152950.340000", "152950.800000", "152951.260000", "152951.720000", "152952.180000", "152952.640000", "152953.100000", "152953.560000", "152954.020000", "152954.480000", "152954.940000", "152955.400000", "152955.860000", "152956.320000", "152956.780000", "152957.240000", "152957.700000", "152958.160000", "152958.620000", "152959.080000", "152959.540000", "153000.000000", "153000.460000", "153000.920000", "153001.380000", "153001.840000", "153002.300000", "153002.760000", "153003.220000", "153003.680000", "153004.140000", "153004.600000", "153005.060000", "153005.520000", "153005.980000", "153006.440000", "153006.900000", "153007.360000", "153007.820000", "153008.280000", "153008.740000", "153009.200000", "153009.660000", "153010.120000", "153010.580000", "153011.040000", "153011.500000", "153011.960000", "153012.420000", "153012.880000", "153013.340000", "153013.800000", "153014.260000", "153014.720000", "153015.180000", "153015.640000", "153016.100000", "153016.560000", "153017.020000", "153017.480000", "153017.940000", "153018.400000", "153018.860000", "153019.320000", "153019.780000", "153020.240000", "153020.700000", "153021.160000", "153021.620000", "153022.080000", "153022.540000", "153023.000000", "153023.460000", "153023.920000", "153024.380000", "153024.840000", "153025.300000", "153025.760000", "153026.220000", "153026.680000", "153027.140000", "153027.600000", "153028.060000", "153028.520000", "153028.980000", "153029.440000", "153029.900000", "153030.360000", "153030.820000", "153031.280000", "153031.740000", "153032.200000", "153032.660000", "153033.120000", "153033.580000", "153034.040000", "153034.500000", "153034.960000", "153035.420000", "153035.880000", "153036.340000", "153036.800000", "153037.260000", "153037.720000", "153038.180000", "153038.640000", "153039.100000", "153039.560000", "153040.020000", "153040.480000", "153040.940000", "153041.400000", "153041.860000", "153042.320000", "153042.780000", "153043.240000", "153043.700000", "153044.160000", "153044.620000", "153045.080000", "153045.540000", "153046.000000", "153046.460000", "153046.920000", "153047.380000", "153047.840000", "153048.300000", "153048.760000", "153049.220000", "153049.680000", "153050.140000", "153050.600000", "153051.060000", "153051.520000", "153051.980000", "153052.440000", "153052.900000", "153053.360000", "153053.820000", "153054.280000", "153054.740000", "153055.200000", "153055.660000", "153056.120000", "153056.580000", "153057.040000", "153057.500000", "153057.960000", "153058.420000", "153058.880000", "153059.340000", "153059.800000", "153100.260000", "153100.720000", "153101.180000", "153101.640000", "153102.100000", "153102.560000", "153103.020000", "153103.480000", "153103.940000", "153104.400000", "153104.860000", "153105.320000", "153105.780000", "153106.240000", "153106.700000", "153107.160000", "153107.620000", "153108.080000", "153108.540000", "153109.000000", "153109.460000", "153109.920000", "153110.380000", "153110.840000", "153111.300000", "153111.760000", "153112.220000", "153112.680000", "153113.140000", "153113.600000", "153114.060000", "153114.520000", "153114.980000", "153115.440000", "153115.900000", "153116.360000", "153116.820000", "153117.280000", "153117.740000", "153118.200000", "153118.660000", "153119.120000", "153119.580000", "153120.040000", "153120.500000", "153120.960000", "153121.420000", "153121.880000", "153122.340000", "153122.800000", "153123.260000", "153123.720000", "153124.180000", "153124.640000", "153125.100000", "153125.560000", "153126.020000", "153126.480000", "153126.940000", "153127.400000", "153127.860000", "153128.320000", "153128.780000", "153129.240000", "153129.700000", "153130.160000", "153130.620000", "153131.080000", "153131.540000", "153132.000000", "153132.460000", "153132.920000", "153133.380000", "153133.840000", "153134.300000", "153134.760000", "153135.220000", "153135.680000", "153136.140000", "153136.600000", "153137.060000", "153137.520000", "153137.980000", "153138.440000", "153138.900000", "153139.360000", "153139.820000", "153140.280000", "153140.740000", "153141.200000", "153141.660000", "153142.120000", "153142.580000", "153143.040000", "153143.500000", "153143.960000", "153144.420000", "153144.880000", "153145.340000", "153145.800000", "153146.260000", "153146.720000", "153147.180000", "153147.640000", "153148.100000", "153148.560000", "153149.020000", "153149.480000", "153149.940000", "153150.400000", "153150.860000", "153151.320000", "153151.780000", "153152.240000", "153152.700000", "153153.160000", "153153.620000", "153154.080000", "153154.540000", "153155.000000", "153155.460000", "153155.920000", "153156.380000", "153156.840000", "153157.300000", "153157.760000", "153158.220000", "153158.680000", "153159.140000", "153159.600000", "153200.060000", "153200.520000", "153200.980000", "153201.440000", "153201.900000", "153202.360000", "153202.820000", "153203.280000", "153203.740000", "153204.200000", "153204.660000", "153205.120000", "153205.580000", "153206.040000", "153206.500000", "153206.960000", "153207.420000", "153207.880000", "153208.340000", "153208.800000", "153209.260000", "153209.720000", "153210.180000", "153210.640000", "153211.100000", "153211.560000", "153212.020000", "153212.480000", "153212.940000", "153213.400000", "153213.860000", "153214.320000", "153214.780000", "153215.240000", "153215.700000", "153216.160000", "153216.620000", "153217.080000", "153217.540000", "153218.000000", "153218.460000", "153218.920000", "153219.380000", "153219.840000", "153220.300000", "153220.760000", "153221.220000", "153221.680000", "153222.140000", "153222.600000", "153223.060000", "153223.520000", "153223.980000", "153224.440000", "153224.900000", "153225.360000", "153225.820000", "153226.280000", "153226.740000", "153227.200000", "153227.660000", "153228.120000", "153228.580000", "153229.040000", "153229.500000", "153229.960000", "153230.420000", "153230.880000", "153231.340000", "153231.800000", "153232.260000", "153232.720000", "153233.180000", "153233.640000", "153234.100000", "153234.560000", "153235.020000", "153235.480000", "153235.940000", "153236.400000", "153236.860000", "153237.320000", "153237.780000", "153238.240000", "153238.700000", "153239.160000", "153239.620000", "153240.080000", "153240.540000", "153241.000000", "153241.460000", "153241.920000", "153242.380000", "153242.840000", "153243.300000", "153243.760000", "153244.220000", "153244.680000", "153245.140000", "153245.600000", "153246.060000", "153246.520000", "153246.980000", "153247.440000", "153247.900000", "153248.360000", "153248.820000", "153249.280000", "153249.740000", "153250.200000", "153250.660000", "153251.120000", "153251.580000", "153252.040000", "153252.500000", "153252.960000", "153253.420000", "153253.880000", "153254.340000", "153254.800000", "153255.260000", "153255.720000", "153256.180000", "153256.640000", "153257.100000", "153257.560000", "153258.020000", "153258.480000", "153258.940000", "153259.400000", "153259.860000", "153300.320000", "153300.780000", "153301.240000", "153301.700000", "153302.160000", "153302.620000", "153303.080000", "153303.540000", "153304.000000", "153304.460000", "153304.920000", "153305.380000", "153305.840000", "153306.300000", "153306.760000", "153307.220000", "153307.680000", "153308.140000", "153308.600000", "153309.060000", "153309.520000", "153309.980000", "153310.440000", "153310.900000", "153311.360000", "153311.820000", "153312.280000", "153312.740000", "153313.200000", "153313.660000", "153314.120000", "153314.580000", "153315.040000", "153315.500000", "153315.960000", "153316.420000", "153316.880000", "153317.340000", "153317.800000", "153318.260000", "153318.720000", "153319.180000", "153319.640000", "153320.100000", "153320.560000", "153321.020000", "153321.480000", "153321.940000", "153322.400000", "153322.860000", "153323.320000", "153323.780000", "153324.240000", "153324.700000", "153325.160000", "153325.620000", "153326.080000", "153326.540000", "153327.000000", "153327.460000", "153327.920000", "153328.380000", "153328.840000", "153329.300000", "153329.760000", "153330.220000", "153330.680000", "153331.140000", "153331.600000", "153332.060000", "153332.520000", "153332.980000", "153333.440000", "153333.900000", "153334.360000", "153334.820000", "153335.280000", "153335.740000", "153336.200000", "153336.660000", "153337.120000", "153337.580000", "153338.040000", "153338.500000", "153338.960000", "153339.420000", "153339.880000", "153340.340000", "153340.800000", "153341.260000", "153341.720000", "153342.180000", "153342.640000", "153343.100000", "153343.560000", "153344.020000", "153344.480000", "153344.940000", "153345.400000", "153345.860000", "153346.320000", "153346.780000", "153347.240000", "153347.700000", "153348.160000", "153348.620000", "153349.080000", "153349.540000", "153350.000000", "153350.460000", "153350.920000", "153351.380000", "153351.840000", "153352.300000", "153352.760000", "153353.220000", "153353.680000", "153354.140000", "153354.600000", "153355.060000", "153355.520000", "153355.980000", "153356.440000", "153356.900000", "153357.360000", "153357.820000", "153358.280000", "153358.740000", "153359.200000", "153359.660000", "153400.120000", "153400.580000", "153401.040000", "153401.500000", "153401.960000", "153402.420000", "153402.880000", "153403.340000", "153403.800000", "153404.260000", "153404.720000", "153405.180000", "153405.640000", "153406.100000", "153406.560000", "153407.020000", "153407.480000", "153407.940000", "153408.400000", "153408.860000", "153409.320000", "153409.780000", "153410.240000", "153410.700000", "153411.160000", "153411.620000", "153412.080000", "153412.540000", "153413.000000", "153413.460000", "153413.920000", "153414.380000", "153414.840000", "153415.300000", "153415.760000", "153416.220000", "153416.680000", "153417.140000", "153417.600000", "153418.060000", "153418.520000", "153418.980000", "153419.440000", "153419.900000", "153420.360000", "153420.820000", "153421.280000", "153421.740000", "153422.200000", "153422.660000", "153423.120000", "153423.580000", "153424.040000", "153424.500000", "153424.960000", "153425.420000", "153425.880000", "153426.340000", "153426.800000", "153427.260000", "153427.720000", "153428.180000", "153428.640000", "153429.100000", "153429.560000", "153430.020000", "153430.480000", "153430.940000", "153431.400000", "153431.860000", "153432.320000", "153432.780000", "153433.240000", "153433.700000", "153434.160000", "153434.620000", "153435.080000", "153435.540000", "153436.000000", "153436.460000", "153436.920000", "153437.380000", "153437.840000", "153438.300000", "153438.760000", "153439.220000", "153439.680000", "153440.140000", "153440.600000", "153441.060000", "153441.520000", "153441.980000", "153442.440000", "153442.900000", "153443.360000", "153443.820000", "153444.280000", "153444.740000", "153445.200000", "153445.660000", "153446.120000", "153446.580000", "153447.040000", "153447.500000", "153447.960000", "153448.420000", "153448.880000", "153449.340000", "153449.800000", "153450.260000", "153450.720000", "153451.180000", "153451.640000", "153452.100000", "153452.560000", "153453.020000", "153453.480000", "153453.940000", "153454.400000", "153454.860000", "153455.320000", "153455.780000", "153456.240000", "153456.700000", "153457.160000", "153457.620000", "153458.080000", "153458.540000", "153459.000000", "153459.460000", "153459.920000", "153500.380000", "153500.840000", "153501.300000", "153501.760000", "153502.220000", "153502.680000", "153503.140000", "153503.600000", "153504.060000", "153504.520000", "153504.980000", "153505.440000", "153505.900000", "153506.360000", "153506.820000", "153507.280000", "153507.740000", "153508.200000", "153508.660000", "153509.120000", "153509.580000"],
