{
  "AcquisitionMatrixPE": 82,
  "AcquisitionNumber": 1,
  "AcquisitionTime": "15:12:37.005000",
  "BandwidthPerPixelPhaseEncode": 24.888,
  "BaseResolution": 82,
  "BodyPartExamined": "BRAIN",
  "ConsistencyInfo": "N4_VE11C_LATEST_20160120",
  "ConversionSoftware": "dcm2niix",
  "ConversionSoftwareVersion": "v1.0.20201102",
  "DerivedVendorReportedEchoSpacing": 0.00049,
  "DeviceSerialNumber": "66112",
  "DwellTime": 2e-06,
  "EchoTime": 0.0272,
  "EchoTrainLength": 82,
  "EffectiveEchoSpacing": 0.00049,
  "FlipAngle": 44,
  "ImageComments": "Unaliased MB8/PE3",
  "ImageOrientationPatientDICOM": [0.997745, -0.0158137, -0.0652256, 0.0139321, 0.999476, -0.0292032],
  "ImageType": [
    "ORIGINAL",
    "PRIMARY",
    "M",
    "MB",
    "ND",
    "NORM",
    "MOSAIC"
],
  "ImagingFrequency": 123.252,
  "InPlanePhaseEncodingDirectionDICOM": "COL",
  "InstitutionAddress": "Maynard 3,Hanover,NH,US,03755",
  "InstitutionName": "Dartmouth College - PBS",
  "InstitutionalDepartmentName": "Department",
  "MRAcquisitionType": "2D",
  "MagneticFieldStrength": 3,
  "Manufacturer": "Siemens",
  "ManufacturersModelName": "Prisma",
  "Modality": "MR",
  "MultibandAccelerationFactor": 8,
  "PartialFourier": 1,
  "PatientPosition": "HFS",
  "PercentPhaseFOV": 100,
  "PercentSampling": 100,
  "PhaseEncodingDirection": "j-",
  "PhaseEncodingSteps": 82,
  "PhaseResolution": 1,
  "PixelBandwidth": 3050,
  "ProcedureStepDescription": "Wager_Wager^1076_spacetop",
  "ProtocolName": "func_run-01_task-social_acq-ap-mb8",
  "PulseSequenceDetails": "%CustomerSeq%\\cmrr_mbep2d_bold",
  "ReceiveCoilActiveElements": "HEA;HEP",
  "ReceiveCoilName": "Head_32",
  "ReconMatrixPE": 82,
  "RepetitionTime": 0.46,
  "SAR": 0.0777482,
  "ScanOptions": "FS",
  "ScanningSequence": "EP",
  "SequenceName": "epfid2d1_82",
  "SequenceVariant": "SK\\SS",
  "SeriesDescription": "func_run-01_task-social_acq-ap-mb8",
  "SeriesNumber": 12,
  "ShimSetting": [4125, -7758, -7292, 603, -31, -221, -9, 105],
  "SliceThickness": 2.7,
  "SliceTiming": [0, 0.25, 0.0625, 0.3125, 0.125, 0.375, 0.1875, 0, 0.25, 0.0625, 0.3125, 0.125, 0.375, 0.1875, 0, 0.25, 0.0625, 0.3125, 0.125, 0.375, 0.1875, 0, 0.25, 0.0625, 0.3125, 0.125, 0.375, 0.1875, 0, 0.25, 0.0625, 0.3125, 0.125, 0.375, 0.1875, 0, 0.25, 0.0625, 0.3125, 0.125, 0.375, 0.1875, 0, 0.25, 0.0625, 0.3125, 0.125, 0.375, 0.1875, 0, 0.25, 0.0625, 0.3125, 0.125, 0.375, 0.1875],
  "SoftwareVersions": "syngo MR E11",
  "SpacingBetweenSlices": 2.7,
  "StationName": "AWP66112",
  "TaskName": "social",
  "TotalReadoutTime": 0.03969,
  "TxRefAmp": 219.554,
  "WipMemBlock": "fdc55cec-e8bd-4495-bf29-2cdf8c6ee2d5||Sequence: R016 ve11c/master r/e634e98; Dec 19 2017 11:00:25 by eja",
  "dcmmeta_affine": [
    [-2.676877498626709, 0.03737867996096611, -0.17726367712020874, 111.68597412109375],
    [0.04242703318595886, 2.6815221309661865, -0.07621720433235168, -91.24716186523438],
    [-0.17499540746212006, 0.07834996283054352, 2.693096399307251, -70.44461822509766],
    [0.0, 0.0, 0.0, 1.0]
],
  "dcmmeta_reorient_transform": [
    [0.0, -1.0, 0.0, 81.0],
    [1.0, 0.0, 0.0, 0.0],
    [0.0, 0.0, 1.0, 0.0],
    [0.0, 0.0, 0.0, 1.0]
],
  "dcmmeta_shape": [82, 82, 56, 872],
  "dcmmeta_slice_dim": 2,
  "dcmmeta_version": 0.6,
  "global": {
    "const": {
      "AccessionNumber": "A003548",
      "AcquisitionMatrix": [82, 0, 0, 82],
      "AngioFlag": "N",
      "BitsAllocated": 16,
      "BitsStored": 16,
      "BodyPartExamined": "BRAIN",
      "Columns": 656,
      "EchoNumbers": 1,
      "EchoTime": 27.2,
      "EchoTrainLength": 82,
      "FlipAngle": 44.0,
      "HighBit": 15,
      "ImageOrientationPatient": [0.99774523460136, -0.0158137123545, -0.0652255573518, 0.01393205288345, 0.99947639936061, -0.0292031680406],
      "ImagePositionPatient": [-893.70517573392, -883.37641434471, 8.61185247004],
      "ImageType": [
        "ORIGINAL",
        "PRIMARY",
        "M",
        "MB",
        "ND",
        "NORM",
        "MOSAIC"
],
      "ImagedNucleus": "1H",
      "ImagingFrequency": 123.252172,
      "InPlanePhaseEncodingDirection": "COL",
      "MRAcquisitionType": "2D",
      "MagneticFieldStrength": 3.0,
      "Manufacturer": "SIEMENS",
      "ManufacturerModelName": "Prisma",
      "Modality": "MR",
      "NumberOfAverages": 1.0,
      "NumberOfPhaseEncodingSteps": 82,
      "PercentPhaseFieldOfView": 100.0,
      "PercentSampling": 100.0,
      "PerformedProcedureStepStartTime": "141642.026000",
      "PhotometricInterpretation": "MONOCHROME2",
      "PixelBandwidth": 3050.0,
      "PixelRepresentation": 0,
      "PixelSpacing": [2.6829268932343, 2.6829268932343],
      "ProtocolName": "func_run-01_task-social_acq-ap-mb8",
      "RepetitionTime": 460.0,
      "Rows": 656,
      "SAR": 0.07774819819216,
      "SamplesPerPixel": 1,
      "ScanOptions": "FS",
      "ScanningSequence": "EP",
      "SequenceName": "epfid2d1_82",
      "SequenceVariant": [
        "SK",
        "SS"
],
      "SeriesDescription": "func_run-01_task-social_acq-ap-mb8",
      "SeriesNumber": 12,
      "SeriesTime": "151305.669000",
      "SliceLocation": -75.021261350292,
      "SliceThickness": 2.7000000476837,
      "SmallestImagePixelValue": 0,
      "SoftwareVersions": "syngo MR E11",
      "SpacingBetweenSlices": 2.6999999125306,
      "SpecificCharacterSet": "ISO_IR 100",
      "StudyID": "1",
      "StudyTime": "141641.952000",
      "TransmitCoilName": "Body",
      "VariableFlipAngleFlag": "N",
      "WindowCenterWidthExplanation": "Algo1",
      "dBdt": 0.0},
    "slices": {}
  },
  "time": {
    "samples": {
      "AcquisitionNumber": [1, 2, 3, 4, 5, 6, 7, 8, 9, 10, 11, 12, 13, 14, 15, 16, 17, 18, 19, 20, 21, 22, 23, 24, 25, 26, 27, 28, 29, 30, 31, 32, 33, 34, 35, 36, 37, 38, 39, 40, 41, 42, 43, 44, 45, 46, 47, 48, 49, 50, 51, 52, 53, 54, 55, 56, 57, 58, 59, 60, 61, 62, 63, 64, 65, 66, 67, 68, 69, 70, 71, 72, 73, 74, 75, 76, 77, 78, 79, 80, 81, 82, 83, 84, 85, 86, 87, 88, 89, 90, 91, 92, 93, 94, 95, 96, 97, 98, 99, 100, 101, 102, 103, 104, 105, 106, 107, 108, 109, 110, 111, 112, 113, 114, 115, 116, 117, 118, 119, 120, 121, 122, 123, 124, 125, 126, 127, 128, 129, 130, 131, 132, 133, 134, 135, 136, 137, 138, 139, 140, 141, 142, 143, 144, 145, 146, 147, 148, 149, 150, 151, 152, 153, 154, 155, 156, 157, 158, 159, 160, 161, 162, 163, 164, 165, 166, 167, 168, 169, 170, 171, 172, 173, 174, 175, 176, 177, 178, 179, 180, 181, 182, 183, 184, 185, 186, 187, 188, 189, 190, 191, 192, 193, 194, 195, 196, 197, 198, 199, 200, 201, 202, 203, 204, 205, 206, 207, 208, 209, 210, 211, 212, 213, 214, 215, 216, 217, 218, 219, 220, 221, 222, 223, 224, 225, 226, 227, 228, 229, 230, 231, 232, 233, 234, 235, 236, 237, 238, 239, 240, 241, 242, 243, 244, 245, 246, 247, 248, 249, 250, 251, 252, 253, 254, 255, 256, 257, 258, 259, 260, 261, 262, 263, 264, 265, 266, 267, 268, 269, 270, 271, 272, 273, 274, 275, 276, 277, 278, 279, 280, 281, 282, 283, 284, 285, 286, 287, 288, 289, 290, 291, 292, 293, 294, 295, 296, 297, 298, 299, 300, 301, 302, 303, 304, 305, 306, 307, 308, 309, 310, 311, 312, 313, 314, 315, 316, 317, 318, 319, 320, 321, 322, 323, 324, 325, 326, 327, 328, 329, 330, 331, 332, 333, 334, 335, 336, 337, 338, 339, 340, 341, 342, 343, 344, 345, 346, 347, 348, 349, 350, 351, 352, 353, 354, 355, 356, 357, 358, 359, 360, 361, 362, 363, 364, 365, 366, 367, 368, 369, 370, 371, 372, 373, 374, 375, 376, 377, 378, 379, 380, 381, 382, 383, 384, 385, 386, 387, 388, 389, 390, 391, 392, 393, 394, 395, 396, 397, 398, 399, 400, 401, 402, 403, 404, 405, 406, 407, 408, 409, 410, 411, 412, 413, 414, 415, 416, 417, 418, 419, 420, 421, 422, 423, 424, 425, 426, 427, 428, 429, 430, 431, 432, 433, 434, 435, 436, 437, 438, 439, 440, 441, 442, 443, 444, 445, 446, 447, 448, 449, 450, 451, 452, 453, 454, 455, 456, 457, 458, 459, 460, 461, 462, 463, 464, 465, 466, 467, 468, 469, 470, 471, 472, 473, 474, 475, 476, 477, 478, 479, 480, 481, 482, 483, 484, 485, 486, 487, 488, 489, 490, 491, 492, 493, 494, 495, 496, 497, 498, 499, 500, 501, 502, 503, 504, 505, 506, 507, 508, 509, 510, 511, 512, 513, 514, 515, 516, 517, 518, 519, 520, 521, 522, 523, 524, 525, 526, 527, 528, 529, 530, 531, 532, 533, 534, 535, 536, 537, 538, 539, 540, 541, 542, 543, 544, 545, 546, 547, 548, 549, 550, 551, 552, 553, 554, 555, 556, 557, 558, 559, 560, 561, 562, 563, 564, 565, 566, 567, 568, 569, 570, 571, 572, 573, 574, 575, 576, 577, 578, 579, 580, 581, 582, 583, 584, 585, 586, 587, 588, 589, 590, 591, 592, 593, 594, 595, 596, 597, 598, 599, 600, 601, 602, 603, 604, 605, 606, 607, 608, 609, 610, 611, 612, 613, 614, 615, 616, 617, 618, 619, 620, 621, 622, 623, 624, 625, 626, 627, 628, 629, 630, 631, 632, 633, 634, 635, 636, 637, 638, 639, 640, 641, 642, 643, 644, 645, 646, 647, 648, 649, 650, 651, 652, 653, 654, 655, 656, 657, 658, 659, 660, 661, 662, 663, 664, 665, 666, 667, 668, 669, 670, 671, 672, 673, 674, 675, 676, 677, 678, 679, 680, 681, 682, 683, 684, 685, 686, 687, 688, 689, 690, 691, 692, 693, 694, 695, 696, 697, 698, 699, 700, 701, 702, 703, 704, 705, 706, 707, 708, 709, 710, 711, 712, 713, 714, 715, 716, 717, 718, 719, 720, 721, 722, 723, 724, 725, 726, 727, 728, 729, 730, 731, 732, 733, 734, 735, 736, 737, 738, 739, 740, 741, 742, 743, 744, 745, 746, 747, 748, 749, 750, 751, 752, 753, 754, 755, 756, 757, 758, 759, 760, 761, 762, 763, 764, 765, 766, 767, 768, 769, 770, 771, 772, 773, 774, 775, 776, 777, 778, 779, 780, 781, 782, 783, 784, 785, 786, 787, 788, 789, 790, 791, 792, 793, 794, 795, 796, 797, 798, 799, 800, 801, 802, 803, 804, 805, 806, 807, 808, 809, 810, 811, 812, 813, 814, 815, 816, 817, 818, 819, 820, 821, 822, 823, 824, 825, 826, 827, 828, 829, 830, 831, 832, 833, 834, 835, 836, 837, 838, 839, 840, 841, 842, 843, 844, 845, 846, 847, 848, 849, 850, 851, 852, 853, 854, 855, 856, 857, 858, 859, 860, 861, 862, 863, 864, 865, 866, 867, 868, 869, 870, 871, 872],
      "AcquisitionTime": ["151237.005000", "151237.465000", "151237.925000", "151238.385000", "151238.845000", "151239.305000", "151239.765000", "151240.225000", "151240.685000", "151241.145000", "151241.605000", "151242.065000", "151242.525000", "151242.985000", "151243.445000", "151243.905000", "151244.365000", "151244.825000", "151245.285000", "151245.745000", "151246.205000", "151246.665000", "151247.125000", "151247.585000", "151248.045000", "151248.505000", "151248.965000", "151249.425000", "151249.885000", "151250.345000", "151250.805000", "151251.265000", "151251.725000", "151252.185000", "151252.645000", "151253.105000", "151253.565000", "151254.025000", "151254.485000", "151254.945000", "151255.405000", "151255.865000", "151256.325000", "151256.785000", "151257.245000", "151257.705000", "151258.165000", "151258.625000", "151259.085000", "151259.545000", "151300.005000", "151300.465000", "151300.925000", "151301.385000", "151301.845000", "151302.305000", "151302.765000", "151303.225000", "151303.685000", "151304.145000", "151304.605000", "151305.065000", "151305.525000", "151305.985000", "151306.445000", "151306.905000", "151307.365000", "151307.825000", "151308.285000", "151308.745000", "151309.205000", "151309.665000", "151310.125000", "151310.585000", "151311.045000", "151311.505000", "151311.965000", "151312.425000", "151312.885000", "151313.345000", "151313.805000", "151314.265000", "151314.725000", "151315.185000", "151315.645000", "151316.105000", "151316.565000", "151317.025000", "151317.485000", "151317.945000", "151318.405000", "151318.865000", "151319.325000", "151319.785000", "151320.245000", "151320.705000", "151321.165000", "151321.625000", "151322.085000", "151322.545000", "151323.005000", "151323.465000", "151323.925000", "151324.385000", "151324.845000", "151325.305000", "151325.765000", "151326.225000", "151326.685000", "151327.145000", "151327.605000", "151328.065000", "151328.525000", "151328.985000", "151329.445000", "151329.905000", "151330.365000", "151330.825000", "151331.285000", "151331.745000", "151332.205000", "151332.665000", "151333.125000", "151333.585000", "151334.045000", "151334.505000", "151334.965000", "151335.425000", "151335.885000", "151336.345000", "151336.805000", "151337.265000", "151337.725000", "151338.185000", "151338.645000", "151339.105000", "151339.565000", "151340.025000", "151340.485000", "151340.945000", "151341.405000", "151341.865000", "151342.325000", "151342.785000", "151343.245000", "151343.705000", "151344.165000", "151344.625000", "151345.085000", "151345.545000", "151346.005000", "151346.465000", "151346.925000", "151347.385000", "151347.845000", "151348.305000", "151348.765000", "151349.225000", "151349.685000", "151350.145000", "151350.605000", "151351.065000", "151351.525000", "151351.985000", "151352.445000", "151352.905000", "151353.365000", "151353.825000", "151354.285000", "151354.745000", "151355.205000", "151355.665000", "151356.125000", "151356.585000", "151357.045000", "151357.505000", "151357.965000", "151358.425000", "151358.885000", "151359.345000", "151359.805000", "151400.265000", "151400.725000", "151401.185000", "151401.645000", "151402.105000", "151402.565000", "151403.025000", "151403.485000", "151403.945000", "151404.405000", "151404.865000", "151405.325000", "151405.785000", "151406.245000", "151406.705000", "151407.165000", "151407.625000", "151408.085000", "151408.545000", "151409.005000", "151409.465000", "151409.925000", "151410.385000", "151410.845000", "151411.305000", "151411.765000", "151412.225000", "151412.685000", "151413.145000", "151413.605000", "151414.065000", "151414.525000", "151414.985000", "151415.445000", "151415.905000", "151416.365000", "151416.825000", "151417.285000", "151417.745000", "151418.205000", "151418.665000", "151419.125000", "151419.585000", "151420.045000", "151420.505000", "151420.965000", "151421.425000", "151421.885000", "151422.345000", "151422.805000", "151423.265000", "151423.725000", "151424.185000", "151424.645000", "151425.105000", "151425.565000", "151426.025000", "151426.485000", "151426.945000", "151427.405000", "151427.865000", "151428.325000", "151428.785000", "151429.245000", "151429.705000", "151430.165000", "151430.625000", "151431.085000", "151431.545000", "151432.005000", "151432.465000", "151432.925000", "151433.385000", "151433.845000", "151434.305000", "151434.765000", "151435.225000", "151435.685000", "151436.145000", "151436.605000", "151437.065000", "151437.525000", "151437.985000", "151438.445000", "151438.905000", "151439.365000", "151439.825000", "151440.285000", "151440.745000", "151441.205000", "151441.665000", "151442.125000", "151442.585000", "151443.045000", "151443.505000", "151443.965000", "151444.425000", "151444.885000", "151445.345000", "151445.805000", "151446.265000", "151446.725000", "151447.185000", "151447.645000", "151448.105000", "151448.565000", "151449.025000", "151449.485000", "151449.945000", "151450.405000", "151450.865000", "151451.325000", "151451.785000", "151452.245000", "151452.705000", "151453.165000", "151453.625000", "151454.085000", "151454.545000", "151455.005000", "151455.465000", "151455.925000", "151456.385000", "151456.845000", "151457.305000", "151457.765000", "151458.225000", "151458.685000", "151459.145000", "151459.605000", "151500.065000", "151500.525000", "151500.985000", "151501.445000", "151501.905000", "151502.365000", "151502.825000", "151503.285000", "151503.745000", "151504.205000", "151504.665000", "151505.125000", "151505.585000", "151506.045000", "151506.505000", "151506.965000", "151507.425000", "151507.885000", "151508.345000", "151508.805000", "151509.265000", "151509.725000", "151510.185000", "151510.645000", "151511.105000", "151511.565000", "151512.025000", "151512.485000", "151512.945000", "151513.405000", "151513.865000", "151514.325000", "151514.785000", "151515.245000", "151515.705000", "151516.165000", "151516.625000", "151517.085000", "151517.545000", "151518.005000", "151518.465000", "151518.925000", "151519.385000", "151519.845000", "151520.305000", "151520.765000", "151521.225000", "151521.685000", "151522.145000", "151522.605000", "151523.065000", "151523.525000", "151523.985000", "151524.445000", "151524.905000", "151525.365000", "151525.825000", "151526.285000", "151526.745000", "151527.205000", "151527.665000", "151528.125000", "151528.585000", "151529.045000", "151529.505000", "151529.965000", "151530.425000", "151530.885000", "151531.345000", "151531.805000", "151532.265000", "151532.725000", "151533.185000", "151533.645000", "151534.105000", "151534.565000", "151535.025000", "151535.485000", "151535.945000", "151536.405000", "151536.865000", "151537.325000", "151537.785000", "151538.245000", "151538.705000", "151539.165000", "151539.625000", "151540.085000", "151540.545000", "151541.005000", "151541.465000", "151541.925000", "151542.385000", "151542.845000", "151543.305000", "151543.765000", "151544.225000", "151544.685000", "151545.145000", "151545.605000", "151546.065000", "151546.525000", "151546.985000", "151547.445000", "151547.905000", "151548.365000", "151548.825000", "151549.285000", "151549.745000", "151550.205000", "151550.665000", "151551.125000", "151551.585000", "151552.045000", "151552.505000", "151552.965000", "151553.425000", "151553.885000", "151554.345000", "151554.805000", "151555.265000", "151555.725000", "151556.185000", "151556.645000", "151557.105000", "151557.565000", "151558.025000", "151558.485000", "151558.945000", "151559.405000", "151559.865000", "151600.325000", "151600.785000", "151601.245000", "151601.705000", "151602.165000", "151602.625000", "151603.085000", "151603.545000", "151604.005000", "151604.465000", "151604.925000", "151605.385000", "151605.845000", "151606.305000", "151606.765000", "151607.225000", "151607.685000", "151608.145000", "151608.605000", "151609.065000", "151609.525000", "151609.985000", "151610.445000", "151610.905000", "151611.365000", "151611.825000", "151612.285000", "151612.745000", "151613.205000", "151613.665000", "151614.125000", "151614.585000", "151615.045000", "151615.505000", "151615.965000", "151616.425000", "151616.885000", "151617.345000", "151617.805000", "151618.265000", "151618.725000", "151619.185000", "151619.645000", "151620.105000", "151620.565000", "151621.025000", "151621.485000", "151621.945000", "151622.405000", "151622.865000", "151623.325000", "151623.785000", "151624.245000", "151624.705000", "151625.165000", "151625.625000", "151626.085000", "151626.545000", "151627.005000", "151627.465000", "151627.925000", "151628.385000", "151628.845000", "151629.305000", "151629.765000", "151630.225000", "151630.685000", "151631.145000", "151631.605000", "151632.065000", "151632.525000", "151632.985000", "151633.445000", "151633.905000", "151634.365000", "151634.825000", "151635.285000", "151635.745000", "151636.205000", "151636.665000", "151637.125000", "151637.585000", "151638.045000", "151638.505000", "151638.965000", "151639.425000", "151639.885000", "151640.345000", "151640.805000", "151641.265000", "151641.725000", "151642.185000", "151642.645000", "151643.105000", "151643.565000", "151644.025000", "151644.485000", "151644.945000", "151645.405000", "151645.865000", "151646.325000", "151646.785000", "151647.245000", "151647.705000", "151648.165000", "151648.625000", "151649.085000", "151649.545000", "151650.005000", "151650.465000", "151650.925000", "151651.385000", "151651.845000", "151652.305000", "151652.765000", "151653.225000", "151653.685000", "151654.145000", "151654.605000", "151655.065000", "151655.525000", "151655.985000", "151656.445000", "151656.905000", "151657.365000", "151657.825000", "151658.285000", "151658.745000", "151659.205000", "151659.665000", "151700.125000", "151700.585000", "151701.045000", "151701.505000", "151701.965000", "151702.425000", "151702.885000", "151703.345000", "151703.805000", "151704.265000", "151704.725000", "151705.185000", "151705.645000", "151706.105000", "151706.565000", "151707.025000", "151707.485000", "151707.945000", "151708.405000", "151708.865000", "151709.325000", "151709.785000", "151710.245000", "151710.705000", "151711.165000", "151711.625000", "151712.085000", "151712.545000", "151713.005000", "151713.465000", "151713.925000", "151714.385000", "151714.845000", "151715.305000", "151715.765000", "151716.225000", "151716.685000", "151717.145000", "151717.605000", "151718.065000", "151718.525000", "151718.985000", "151719.445000", "151719.905000", "151720.365000", "151720.825000", "151721.285000", "151721.745000", "151722.205000", "151722.665000", "151723.125000", "151723.585000", "151724.045000", "151724.505000", "151724.965000", "151725.425000", "151725.885000", "151726.345000", "151726.805000", "151727.265000", "151727.725000", "151728.185000", "151728.645000", "151729.105000", "151729.565000", "151730.025000", "151730.485000", "151730.945000", "151731.405000", "151731.865000", "151732.325000", "151732.785000", "151733.245000", "151733.705000", "151734.165000", "151734.625000", "151735.085000", "151735.545000", "151736.005000", "151736.465000", "151736.925000", "151737.385000", "151737.845000", "151738.305000", "151738.765000", "151739.225000", "151739.685000", "151740.145000", "151740.605000", "151741.065000", "151741.525000", "151741.985000", "151742.445000", "151742.905000", "151743.365000", "151743.825000", "151744.285000", "151744.745000", "151745.205000", "151745.665000", "151746.125000", "151746.585000", "151747.045000", "151747.505000", "151747.965000", "151748.425000", "151748.885000", "151749.345000", "151749.805000", "151750.265000", "151750.725000", "151751.185000", "151751.645000", "151752.105000", "151752.565000", "151753.025000", "151753.485000", "151753.945000", "151754.405000", "151754.865000", "151755.325000", "151755.785000", "151756.245000", "151756.705000", "151757.165000", "151757.625000", "151758.085000", "151758.545000", "151759.005000", "151759.465000", "151759.925000", "151800.385000", "151800.845000", "151801.305000", "151801.765000", "151802.225000", "151802.685000", "151803.145000", "151803.605000", "151804.065000", "151804.525000", "151804.985000", "151805.445000", "151805.905000", "151806.365000", "151806.825000", "151807.285000", "151807.745000", "151808.205000", "151808.665000", "151809.125000", "151809.585000", "151810.045000", "151810.505000", "151810.965000", "151811.425000", "151811.885000", "151812.345000", "151812.805000", "151813.265000", "151813.725000", "151814.185000", "151814.645000", "151815.105000", "151815.565000", "151816.025000", "151816.485000", "151816.945000", "151817.405000", "151817.865000", "151818.325000", "151818.785000", "151819.245000", "151819.705000", "151820.165000", "151820.625000", "151821.085000", "151821.545000", "151822.005000", "151822.465000", "151822.925000", "151823.385000", "151823.845000", "151824.305000", "151824.765000", "151825.225000", "151825.685000", "151826.145000", "151826.605000", "151827.065000", "151827.525000", "151827.985000", "151828.445000", "151828.905000", "151829.365000", "151829.825000", "151830.285000", "151830.745000", "151831.205000", "151831.665000", "151832.125000", "151832.585000", "151833.045000", "151833.505000", "151833.965000", "151834.425000", "151834.885000", "151835.345000", "151835.805000", "151836.265000", "151836.725000", "151837.185000", "151837.645000", "151838.105000", "151838.565000", "151839.025000", "151839.485000", "151839.945000", "151840.405000", "151840.865000", "151841.325000", "151841.785000", "151842.245000", "151842.705000", "151843.165000", "151843.625000", "151844.085000", "151844.545000", "151845.005000", "151845.465000", "151845.925000", "151846.385000", "151846.845000", "151847.305000", "151847.765000", "151848.225000", "151848.685000", "151849.145000", "151849.605000", "151850.065000", "151850.525000", "151850.985000", "151851.445000", "151851.905000", "151852.365000", "151852.825000", "151853.285000", "151853.745000", "151854.205000", "151854.665000", "151855.125000", "151855.585000", "151856.045000", "151856.505000", "151856.965000", "151857.425000", "151857.885000", "151858.345000", "151858.805000", "151859.265000", "151859.725000", "151900.185000", "151900.645000", "151901.105000", "151901.565000", "151902.025000", "151902.485000", "151902.945000", "151903.405000", "151903.865000", "151904.325000", "151904.785000", "151905.245000", "151905.705000", "151906.165000", "151906.625000", "151907.085000", "151907.545000", "151908.005000", "151908.465000", "151908.925000", "151909.385000", "151909.845000", "151910.305000", "151910.765000", "151911.225000", "151911.685000", "151912.145000", "151912.605000", "151913.065000", "151913.525000", "151913.985000", "151914.445000", "151914.905000", "151915.365000", "151915.825000", "151916.285000", "151916.745000", "151917.205000", "151917.665000"],
