{
  "AcquisitionMatrixPE": 82,
  "AcquisitionNumber": 1,
  "AcquisitionTime": "15:42:29.420000",
  "BandwidthPerPixelPhaseEncode": 24.888,
  "BaseResolution": 82,
  "BodyPartExamined": "BRAIN",
  "ConsistencyInfo": "N4_VE11C_LATEST_20160120",
  "ConversionSoftware": "dcm2niix",
  "ConversionSoftwareVersion": "v1.0.20201102",
  "DerivedVendorReportedEchoSpacing": 0.00049,
  "DeviceSerialNumber": "66112",
  "DwellTime": 2e-06,
  "EchoTime": 0.0272,
  "EchoTrainLength": 82,
  "EffectiveEchoSpacing": 0.00049,
  "FlipAngle": 44,
  "ImageComments": "Unaliased MB8/PE3",
  "ImageOrientationPatientDICOM": [0.997745, -0.0158137, -0.0652256, 0.0139321, 0.999476, -0.0292032],
  "ImageType": [
    "ORIGINAL",
    "PRIMARY",
    "M",
    "MB",
    "ND",
    "NORM",
    "MOSAIC"
],
  "ImagingFrequency": 123.252,
  "InPlanePhaseEncodingDirectionDICOM": "COL",
  "InstitutionAddress": "Maynard 3,Hanover,NH,US,03755",
  "InstitutionName": "Dartmouth College - PBS",
  "InstitutionalDepartmentName": "Department",
  "MRAcquisitionType": "2D",
  "MagneticFieldStrength": 3,
  "Manufacturer": "Siemens",
  "ManufacturersModelName": "Prisma",
  "Modality": "MR",
  "MultibandAccelerationFactor": 8,
  "PartialFourier": 1,
  "PatientPosition": "HFS",
  "PercentPhaseFOV": 100,
  "PercentSampling": 100,
  "PhaseEncodingDirection": "j-",
  "PhaseEncodingSteps": 82,
  "PhaseResolution": 1,
  "PixelBandwidth": 3050,
  "ProcedureStepDescription": "Wager_Wager^1076_spacetop",
  "ProtocolName": "func_run-05_task-social_acq-ap-mb8",
  "PulseSequenceDetails": "%CustomerSeq%\\cmrr_mbep2d_bold",
  "ReceiveCoilActiveElements": "HEA;HEP",
  "ReceiveCoilName": "Head_32",
  "ReconMatrixPE": 82,
  "RepetitionTime": 0.46,
  "SAR": 0.0777482,
  "ScanOptions": "FS",
  "ScanningSequence": "EP",
  "SequenceName": "epfid2d1_82",
  "SequenceVariant": "SK\\SS",
  "SeriesDescription": "func_run-05_task-social_acq-ap-mb8",
  "SeriesNumber": 20,
  "ShimSetting": [4125, -7758, -7292, 603, -31, -221, -9, 105],
  "SliceThickness": 2.7,
  "SliceTiming": [0, 0.2525, 0.0625, 0.315, 0.125, 0.3775, 0.19, 0, 0.2525, 0.0625, 0.315, 0.125, 0.3775, 0.19, 0, 0.2525, 0.0625, 0.315, 0.125, 0.3775, 0.19, 0, 0.2525, 0.0625, 0.315, 0.125, 0.3775, 0.19, 0, 0.2525, 0.0625, 0.315, 0.125, 0.3775, 0.19, 0, 0.2525, 0.0625, 0.315, 0.125, 0.3775, 0.19, 0, 0.2525, 0.0625, 0.315, 0.125, 0.3775, 0.19, 0, 0.2525, 0.0625, 0.315, 0.125, 0.3775, 0.19],
  "SoftwareVersions": "syngo MR E11",
  "SpacingBetweenSlices": 2.7,
  "StationName": "AWP66112",
  "TaskName": "social",
  "TotalReadoutTime": 0.03969,
  "TxRefAmp": 219.554,
  "WipMemBlock": "c519538f-1c78-4344-af48-fe48133b9916||Sequence: R016 ve11c/master r/e634e98; Dec 19 2017 11:00:25 by eja",
  "dcmmeta_affine": [
    [-2.676877498626709, 0.03737867996096611, -0.17726367712020874, 111.68597412109375],
    [0.04242703318595886, 2.6815221309661865, -0.07621720433235168, -91.24716186523438],
    [-0.17499540746212006, 0.07834996283054352, 2.693096399307251, -70.44461822509766],
    [0.0, 0.0, 0.0, 1.0]
],
  "dcmmeta_reorient_transform": [
    [0.0, -1.0, 0.0, 81.0],
    [1.0, 0.0, 0.0, 0.0],
    [0.0, 0.0, 1.0, 0.0],
    [0.0, 0.0, 0.0, 1.0]
],
  "dcmmeta_shape": [82, 82, 56, 872],
  "dcmmeta_slice_dim": 2,
  "dcmmeta_version": 0.6,
  "global": {
    "const": {
      "AccessionNumber": "A003548",
      "AcquisitionMatrix": [82, 0, 0, 82],
      "AngioFlag": "N",
      "BitsAllocated": 16,
      "BitsStored": 16,
      "BodyPartExamined": "BRAIN",
      "Columns": 656,
      "EchoNumbers": 1,
      "EchoTime": 27.2,
      "EchoTrainLength": 82,
      "FlipAngle": 44.0,
      "HighBit": 15,
      "ImageOrientationPatient": [0.99774523460136, -0.0158137123545, -0.0652255573518, 0.01393205288345, 0.99947639936061, -0.0292031680406],
      "ImagePositionPatient": [-893.70517573392, -883.37641434471, 8.61185247004],
      "ImageType": [
        "ORIGINAL",
        "PRIMARY",
        "M",
        "MB",
        "ND",
        "NORM",
        "MOSAIC"
],
      "ImagedNucleus": "1H",
      "ImagingFrequency": 123.252193,
      "InPlanePhaseEncodingDirection": "COL",
      "MRAcquisitionType": "2D",
      "MagneticFieldStrength": 3.0,
      "Manufacturer": "SIEMENS",
      "ManufacturerModelName": "Prisma",
      "Modality": "MR",
      "NumberOfAverages": 1.0,
      "NumberOfPhaseEncodingSteps": 82,
      "PercentPhaseFieldOfView": 100.0,
      "PercentSampling": 100.0,
      "PerformedProcedureStepStartTime": "141642.026000",
      "PhotometricInterpretation": "MONOCHROME2",
      "PixelBandwidth": 3050.0,
      "PixelRepresentation": 0,
      "PixelSpacing": [2.6829268932343, 2.6829268932343],
      "ProtocolName": "func_run-05_task-social_acq-ap-mb8",
      "RepetitionTime": 460.0,
      "Rows": 656,
      "SAR": 0.07774819819216,
      "SamplesPerPixel": 1,
      "ScanOptions": "FS",
      "ScanningSequence": "EP",
      "SequenceName": "epfid2d1_82",
      "SequenceVariant": [
        "SK",
        "SS"
],
      "SeriesDescription": "func_run-05_task-social_acq-ap-mb8",
      "SeriesNumber": 20,
      "SeriesTime": "154245.541000",
      "SliceLocation": -75.021261350292,
      "SliceThickness": 2.7000000476837,
      "SmallestImagePixelValue": 0,
      "SoftwareVersions": "syngo MR E11",
      "SpacingBetweenSlices": 2.6999999125306,
      "SpecificCharacterSet": "ISO_IR 100",
      "StudyID": "1",
      "StudyTime": "141641.952000",
      "TransmitCoilName": "Body",
      "VariableFlipAngleFlag": "N",
      "WindowCenterWidthExplanation": "Algo1",
      "dBdt": 0.0},
    "slices": {}
  },
  "time": {
    "samples": {
      "AcquisitionNumber": [1, 2, 3, 4, 5, 6, 7, 8, 9, 10, 11, 12, 13, 14, 15, 16, 17, 18, 19, 20, 21, 22, 23, 24, 25, 26, 27, 28, 29, 30, 31, 32, 33, 34, 35, 36, 37, 38, 39, 40, 41, 42, 43, 44, 45, 46, 47, 48, 49, 50, 51, 52, 53, 54, 55, 56, 57, 58, 59, 60, 61, 62, 63, 64, 65, 66, 67, 68, 69, 70, 71, 72, 73, 74, 75, 76, 77, 78, 79, 80, 81, 82, 83, 84, 85, 86, 87, 88, 89, 90, 91, 92, 93, 94, 95, 96, 97, 98, 99, 100, 101, 102, 103, 104, 105, 106, 107, 108, 109, 110, 111, 112, 113, 114, 115, 116, 117, 118, 119, 120, 121, 122, 123, 124, 125, 126, 127, 128, 129, 130, 131, 132, 133, 134, 135, 136, 137, 138, 139, 140, 141, 142, 143, 144, 145, 146, 147, 148, 149, 150, 151, 152, 153, 154, 155, 156, 157, 158, 159, 160, 161, 162, 163, 164, 165, 166, 167, 168, 169, 170, 171, 172, 173, 174, 175, 176, 177, 178, 179, 180, 181, 182, 183, 184, 185, 186, 187, 188, 189, 190, 191, 192, 193, 194, 195, 196, 197, 198, 199, 200, 201, 202, 203, 204, 205, 206, 207, 208, 209, 210, 211, 212, 213, 214, 215, 216, 217, 218, 219, 220, 221, 222, 223, 224, 225, 226, 227, 228, 229, 230, 231, 232, 233, 234, 235, 236, 237, 238, 239, 240, 241, 242, 243, 244, 245, 246, 247, 248, 249, 250, 251, 252, 253, 254, 255, 256, 257, 258, 259, 260, 261, 262, 263, 264, 265, 266, 267, 268, 269, 270, 271, 272, 273, 274, 275, 276, 277, 278, 279, 280, 281, 282, 283, 284, 285, 286, 287, 288, 289, 290, 291, 292, 293, 294, 295, 296, 297, 298, 299, 300, 301, 302, 303, 304, 305, 306, 307, 308, 309, 310, 311, 312, 313, 314, 315, 316, 317, 318, 319, 320, 321, 322, 323, 324, 325, 326, 327, 328, 329, 330, 331, 332, 333, 334, 335, 336, 337, 338, 339, 340, 341, 342, 343, 344, 345, 346, 347, 348, 349, 350, 351, 352, 353, 354, 355, 356, 357, 358, 359, 360, 361, 362, 363, 364, 365, 366, 367, 368, 369, 370, 371, 372, 373, 374, 375, 376, 377, 378, 379, 380, 381, 382, 383, 384, 385, 386, 387, 388, 389, 390, 391, 392, 393, 394, 395, 396, 397, 398, 399, 400, 401, 402, 403, 404, 405, 406, 407, 408, 409, 410, 411, 412, 413, 414, 415, 416, 417, 418, 419, 420, 421, 422, 423, 424, 425, 426, 427, 428, 429, 430, 431, 432, 433, 434, 435, 436, 437, 438, 439, 440, 441, 442, 443, 444, 445, 446, 447, 448, 449, 450, 451, 452, 453, 454, 455, 456, 457, 458, 459, 460, 461, 462, 463, 464, 465, 466, 467, 468, 469, 470, 471, 472, 473, 474, 475, 476, 477, 478, 479, 480, 481, 482, 483, 484, 485, 486, 487, 488, 489, 490, 491, 492, 493, 494, 495, 496, 497, 498, 499, 500, 501, 502, 503, 504, 505, 506, 507, 508, 509, 510, 511, 512, 513, 514, 515, 516, 517, 518, 519, 520, 521, 522, 523, 524, 525, 526, 527, 528, 529, 530, 531, 532, 533, 534, 535, 536, 537, 538, 539, 540, 541, 542, 543, 544, 545, 546, 547, 548, 549, 550, 551, 552, 553, 554, 555, 556, 557, 558, 559, 560, 561, 562, 563, 564, 565, 566, 567, 568, 569, 570, 571, 572, 573, 574, 575, 576, 577, 578, 579, 580, 581, 582, 583, 584, 585, 586, 587, 588, 589, 590, 591, 592, 593, 594, 595, 596, 597, 598, 599, 600, 601, 602, 603, 604, 605, 606, 607, 608, 609, 610, 611, 612, 613, 614, 615, 616, 617, 618, 619, 620, 621, 622, 623, 624, 625, 626, 627, 628, 629, 630, 631, 632, 633, 634, 635, 636, 637, 638, 639, 640, 641, 642, 643, 644, 645, 646, 647, 648, 649, 650, 651, 652, 653, 654, 655, 656, 657, 658, 659, 660, 661, 662, 663, 664, 665, 666, 667, 668, 669, 670, 671, 672, 673, 674, 675, 676, 677, 678, 679, 680, 681, 682, 683, 684, 685, 686, 687, 688, 689, 690, 691, 692, 693, 694, 695, 696, 697, 698, 699, 700, 701, 702, 703, 704, 705, 706, 707, 708, 709, 710, 711, 712, 713, 714, 715, 716, 717, 718, 719, 720, 721, 722, 723, 724, 725, 726, 727, 728, 729, 730, 731, 732, 733, 734, 735, 736, 737, 738, 739, 740, 741, 742, 743, 744, 745, 746, 747, 748, 749, 750, 751, 752, 753, 754, 755, 756, 757, 758, 759, 760, 761, 762, 763, 764, 765, 766, 767, 768, 769, 770, 771, 772, 773, 774, 775, 776, 777, 778, 779, 780, 781, 782, 783, 784, 785, 786, 787, 788, 789, 790, 791, 792, 793, 794, 795, 796, 797, 798, 799, 800, 801, 802, 803, 804, 805, 806, 807, 808, 809, 810, 811, 812, 813, 814, 815, 816, 817, 818, 819, 820, 821, 822, 823, 824, 825, 826, 827, 828, 829, 830, 831, 832, 833, 834, 835, 836, 837, 838, 839, 840, 841, 842, 843, 844, 845, 846, 847, 848, 849, 850, 851, 852, 853, 854, 855, 856, 857, 858, 859, 860, 861, 862, 863, 864, 865, 866, 867, 868, 869, 870, 871, 872],
      "AcquisitionTime": ["154229.420000", "154229.880000", "154230.340000", "154230.800000", "154231.260000", "154231.720000", "154232.180000", "154232.640000", "154233.100000", "154233.560000", "154234.020000", "154234.480000", "154234.940000", "154235.400000", "154235.860000", "154236.320000", "154236.780000", "154237.240000", "154237.700000", "154238.160000", "154238.620000", "154239.080000", "154239.540000", "154240.000000", "154240.460000", "154240.920000", "154241.380000", "154241.840000", "154242.300000", "154242.760000", "154243.220000", "154243.680000", "154244.140000", "154244.600000", "154245.060000", "154245.520000", "154245.980000", "154246.440000", "154246.900000", "154247.360000", "154247.820000", "154248.280000", "154248.740000", "154249.200000", "154249.660000", "154250.120000", "154250.580000", "154251.040000", "154251.500000", "154251.960000", "154252.420000", "154252.880000", "154253.340000", "154253.800000", "154254.260000", "154254.720000", "154255.180000", "154255.640000", "154256.100000", "154256.560000", "154257.020000", "154257.480000", "154257.940000", "154258.400000", "154258.860000", "154259.320000", "154259.780000", "154300.240000", "154300.700000", "154301.160000", "154301.620000", "154302.080000", "154302.540000", "154303.000000", "154303.460000", "154303.920000", "154304.380000", "154304.840000", "154305.300000", "154305.760000", "154306.220000", "154306.680000", "154307.140000", "154307.600000", "154308.060000", "154308.520000", "154308.980000", "154309.440000", "154309.900000", "154310.360000", "154310.820000", "154311.280000", "154311.740000", "154312.200000", "154312.660000", "154313.120000", "154313.580000", "154314.040000", "154314.500000", "154314.960000", "154315.420000", "154315.880000", "154316.340000", "154316.800000", "154317.260000", "154317.720000", "154318.180000", "154318.640000", "154319.100000", "154319.560000", "154320.020000", "154320.480000", "154320.940000", "154321.400000", "154321.860000", "154322.320000", "154322.780000", "154323.240000", "154323.700000", "154324.160000", "154324.620000", "154325.080000", "154325.540000", "154326.000000", "154326.460000", "154326.920000", "154327.380000", "154327.840000", "154328.300000", "154328.760000", "154329.220000", "154329.680000", "154330.140000", "154330.600000", "154331.060000", "154331.520000", "154331.980000", "154332.440000", "154332.900000", "154333.360000", "154333.820000", "154334.280000", "154334.740000", "154335.200000", "154335.660000", "154336.120000", "154336.580000", "154337.040000", "154337.500000", "154337.960000", "154338.420000", "154338.880000", "154339.340000", "154339.800000", "154340.260000", "154340.720000", "154341.180000", "154341.640000", "154342.100000", "154342.560000", "154343.020000", "154343.480000", "154343.940000", "154344.400000", "154344.860000", "154345.320000", "154345.780000", "154346.240000", "154346.700000", "154347.160000", "154347.620000", "154348.080000", "154348.540000", "154349.000000", "154349.460000", "154349.920000", "154350.380000", "154350.840000", "154351.300000", "154351.760000", "154352.220000", "154352.680000", "154353.140000", "154353.600000", "154354.060000", "154354.520000", "154354.980000", "154355.440000", "154355.900000", "154356.360000", "154356.820000", "154357.280000", "154357.740000", "154358.200000", "154358.660000", "154359.120000", "154359.580000", "154400.040000", "154400.500000", "154400.960000", "154401.420000", "154401.880000", "154402.340000", "154402.800000", "154403.260000", "154403.720000", "154404.180000", "154404.640000", "154405.100000", "154405.560000", "154406.020000", "154406.480000", "154406.940000", "154407.400000", "154407.860000", "154408.320000", "154408.780000", "154409.240000", "154409.700000", "154410.160000", "154410.620000", "154411.080000", "154411.540000", "154412.000000", "154412.460000", "154412.920000", "154413.380000", "154413.840000", "154414.300000", "154414.760000", "154415.220000", "154415.680000", "154416.140000", "154416.600000", "154417.060000", "154417.520000", "154417.980000", "154418.440000", "154418.900000", "154419.360000", "154419.820000", "154420.280000", "154420.740000", "154421.200000", "154421.660000", "154422.120000", "154422.580000", "154423.040000", "154423.500000", "154423.960000", "154424.420000", "154424.880000", "154425.340000", "154425.800000", "154426.260000", "154426.720000", "154427.180000", "154427.640000", "154428.100000", "154428.560000", "154429.020000", "154429.480000", "154429.940000", "154430.400000", "154430.860000", "154431.320000", "154431.780000", "154432.240000", "154432.700000", "154433.160000", "154433.620000", "154434.080000", "154434.540000", "154435.000000", "154435.460000", "154435.920000", "154436.380000", "154436.840000", "154437.300000", "154437.760000", "154438.220000", "154438.680000", "154439.140000", "154439.600000", "154440.060000", "154440.520000", "154440.980000", "154441.440000", "154441.900000", "154442.360000", "154442.820000", "154443.280000", "154443.740000", "154444.200000", "154444.660000", "154445.120000", "154445.580000", "154446.040000", "154446.500000", "154446.960000", "154447.420000", "154447.880000", "154448.340000", "154448.800000", "154449.260000", "154449.720000", "154450.180000", "154450.640000", "154451.100000", "154451.560000", "154452.020000", "154452.480000", "154452.940000", "154453.400000", "154453.860000", "154454.320000", "154454.780000", "154455.240000", "154455.700000", "154456.160000", "154456.620000", "154457.080000", "154457.540000", "154458.000000", "154458.460000", "154458.920000", "154459.380000", "154459.840000", "154500.300000", "154500.760000", "154501.220000", "154501.680000", "154502.140000", "154502.600000", "154503.060000", "154503.520000", "154503.980000", "154504.440000", "154504.900000", "154505.360000", "154505.820000", "154506.280000", "154506.740000", "154507.200000", "154507.660000", "154508.120000", "154508.580000", "154509.040000", "154509.500000", "154509.960000", "154510.420000", "154510.880000", "154511.340000", "154511.800000", "154512.260000", "154512.720000", "154513.180000", "154513.640000", "154514.100000", "154514.560000", "154515.020000", "154515.480000", "154515.940000", "154516.400000", "154516.860000", "154517.320000", "154517.780000", "154518.240000", "154518.700000", "154519.160000", "154519.620000", "154520.080000", "154520.540000", "154521.000000", "154521.460000", "154521.920000", "154522.380000", "154522.840000", "154523.300000", "154523.760000", "154524.220000", "154524.680000", "154525.140000", "154525.600000", "154526.060000", "154526.520000", "154526.980000", "154527.440000", "154527.900000", "154528.360000", "154528.820000", "154529.280000", "154529.740000", "154530.200000", "154530.660000", "154531.120000", "154531.580000", "154532.040000", "154532.500000", "154532.960000", "154533.420000", "154533.880000", "154534.340000", "154534.800000", "154535.260000", "154535.720000", "154536.180000", "154536.640000", "154537.100000", "154537.560000", "154538.020000", "154538.480000", "154538.940000", "154539.400000", "154539.860000", "154540.320000", "154540.780000", "154541.240000", "154541.700000", "154542.160000", "154542.620000", "154543.080000", "154543.540000", "154544.000000", "154544.460000", "154544.920000", "154545.380000", "154545.840000", "154546.300000", "154546.760000", "154547.220000", "154547.680000", "154548.140000", "154548.600000", "154549.060000", "154549.520000", "154549.980000", "154550.440000", "154550.900000", "154551.360000", "154551.820000", "154552.280000", "154552.740000", "154553.200000", "154553.660000", "154554.120000", "154554.580000", "154555.040000", "154555.500000", "154555.960000", "154556.420000", "154556.880000", "154557.340000", "154557.800000", "154558.260000", "154558.720000", "154559.180000", "154559.640000", "154600.100000", "154600.560000", "154601.020000", "154601.480000", "154601.940000", "154602.400000", "154602.860000", "154603.320000", "154603.780000", "154604.240000", "154604.700000", "154605.160000", "154605.620000", "154606.080000", "154606.540000", "154607.000000", "154607.460000", "154607.920000", "154608.380000", "154608.840000", "154609.300000", "154609.760000", "154610.220000", "154610.680000", "154611.140000", "154611.600000", "154612.060000", "154612.520000", "154612.980000", "154613.440000", "154613.900000", "154614.360000", "154614.820000", "154615.280000", "154615.740000", "154616.200000", "154616.660000", "154617.120000", "154617.580000", "154618.040000", "154618.500000", "154618.960000", "154619.420000", "154619.880000", "154620.340000", "154620.800000", "154621.260000", "154621.720000", "154622.180000", "154622.640000", "154623.100000", "154623.560000", "154624.020000", "154624.480000", "154624.940000", "154625.400000", "154625.860000", "154626.320000", "154626.780000", "154627.240000", "154627.700000", "154628.160000", "154628.620000", "154629.080000", "154629.540000", "154630.000000", "154630.460000", "154630.920000", "154631.380000", "154631.840000", "154632.300000", "154632.760000", "154633.220000", "154633.680000", "154634.140000", "154634.600000", "154635.060000", "154635.520000", "154635.980000", "154636.440000", "154636.900000", "154637.360000", "154637.820000", "154638.280000", "154638.740000", "154639.200000", "154639.660000", "154640.120000", "154640.580000", "154641.040000", "154641.500000", "154641.960000", "154642.420000", "154642.880000", "154643.340000", "154643.800000", "154644.260000", "154644.720000", "154645.180000", "154645.640000", "154646.100000", "154646.560000", "154647.020000", "154647.480000", "154647.940000", "154648.400000", "154648.860000", "154649.320000", "154649.780000", "154650.240000", "154650.700000", "154651.160000", "154651.620000", "154652.080000", "154652.540000", "154653.000000", "154653.460000", "154653.920000", "154654.380000", "154654.840000", "154655.300000", "154655.760000", "154656.220000", "154656.680000", "154657.140000", "154657.600000", "154658.060000", "154658.520000", "154658.980000", "154659.440000", "154659.900000", "154700.360000", "154700.820000", "154701.280000", "154701.740000", "154702.200000", "154702.660000", "154703.120000", "154703.580000", "154704.040000", "154704.500000", "154704.960000", "154705.420000", "154705.880000", "154706.340000", "154706.800000", "154707.260000", "154707.720000", "154708.180000", "154708.640000", "154709.100000", "154709.560000", "154710.020000", "154710.480000", "154710.940000", "154711.400000", "154711.860000", "154712.320000", "154712.780000", "154713.240000", "154713.700000", "154714.160000", "154714.620000", "154715.080000", "154715.540000", "154716.000000", "154716.460000", "154716.920000", "154717.380000", "154717.840000", "154718.300000", "154718.760000", "154719.220000", "154719.680000", "154720.140000", "154720.600000", "154721.060000", "154721.520000", "154721.980000", "154722.440000", "154722.900000", "154723.360000", "154723.820000", "154724.280000", "154724.740000", "154725.200000", "154725.660000", "154726.120000", "154726.580000", "154727.040000", "154727.500000", "154727.960000", "154728.420000", "154728.880000", "154729.340000", "154729.800000", "154730.260000", "154730.720000", "154731.180000", "154731.640000", "154732.100000", "154732.560000", "154733.020000", "154733.480000", "154733.940000", "154734.400000", "154734.860000", "154735.320000", "154735.780000", "154736.240000", "154736.700000", "154737.160000", "154737.620000", "154738.080000", "154738.540000", "154739.000000", "154739.460000", "154739.920000", "154740.380000", "154740.840000", "154741.300000", "154741.760000", "154742.220000", "154742.680000", "154743.140000", "154743.600000", "154744.060000", "154744.520000", "154744.980000", "154745.440000", "154745.900000", "154746.360000", "154746.820000", "154747.280000", "154747.740000", "154748.200000", "154748.660000", "154749.120000", "154749.580000", "154750.040000", "154750.500000", "154750.960000", "154751.420000", "154751.880000", "154752.340000", "154752.800000", "154753.260000", "154753.720000", "154754.180000", "154754.640000", "154755.100000", "154755.560000", "154756.020000", "154756.480000", "154756.940000", "154757.400000", "154757.860000", "154758.320000", "154758.780000", "154759.240000", "154759.700000", "154800.160000", "154800.620000", "154801.080000", "154801.540000", "154802.000000", "154802.460000", "154802.920000", "154803.380000", "154803.840000", "154804.300000", "154804.760000", "154805.220000", "154805.680000", "154806.140000", "154806.600000", "154807.060000", "154807.520000", "154807.980000", "154808.440000", "154808.900000", "154809.360000", "154809.820000", "154810.280000", "154810.740000", "154811.200000", "154811.660000", "154812.120000", "154812.580000", "154813.040000", "154813.500000", "154813.960000", "154814.420000", "154814.880000", "154815.340000", "154815.800000", "154816.260000", "154816.720000", "154817.180000", "154817.640000", "154818.100000", "154818.560000", "154819.020000", "154819.480000", "154819.940000", "154820.400000", "154820.860000", "154821.320000", "154821.780000", "154822.240000", "154822.700000", "154823.160000", "154823.620000", "154824.080000", "154824.540000", "154825.000000", "154825.460000", "154825.920000", "154826.380000", "154826.840000", "154827.300000", "154827.760000", "154828.220000", "154828.680000", "154829.140000", "154829.600000", "154830.060000", "154830.520000", "154830.980000", "154831.440000", "154831.900000", "154832.360000", "154832.820000", "154833.280000", "154833.740000", "154834.200000", "154834.660000", "154835.120000", "154835.580000", "154836.040000", "154836.500000", "154836.960000", "154837.420000", "154837.880000", "154838.340000", "154838.800000", "154839.260000", "154839.720000", "154840.180000", "154840.640000", "154841.100000", "154841.560000", "154842.020000", "154842.480000", "154842.940000", "154843.400000", "154843.860000", "154844.320000", "154844.780000", "154845.240000", "154845.700000", "154846.160000", "154846.620000", "154847.080000", "154847.540000", "154848.000000", "154848.460000", "154848.920000", "154849.380000", "154849.840000", "154850.300000", "154850.760000", "154851.220000", "154851.680000", "154852.140000", "154852.600000", "154853.060000", "154853.520000", "154853.980000", "154854.440000", "154854.900000", "154855.360000", "154855.820000", "154856.280000", "154856.740000", "154857.200000", "154857.660000", "154858.120000", "154858.580000", "154859.040000", "154859.500000", "154859.960000", "154900.420000", "154900.880000", "154901.340000", "154901.800000", "154902.260000", "154902.720000", "154903.180000", "154903.640000", "154904.100000", "154904.560000", "154905.020000", "154905.480000", "154905.940000", "154906.400000", "154906.860000", "154907.320000", "154907.780000", "154908.240000", "154908.700000", "154909.160000", "154909.620000", "154910.080000"],
