{
  "AcquisitionMatrixPE": 82,
  "AcquisitionNumber": 1,
  "AcquisitionTime": "15:50:50.850000",
  "BandwidthPerPixelPhaseEncode": 24.888,
  "BaseResolution": 82,
  "BodyPartExamined": "BRAIN",
  "ConsistencyInfo": "N4_VE11C_LATEST_20160120",
  "ConversionSoftware": "dcm2niix",
  "ConversionSoftwareVersion": "v1.0.20201102",
  "DerivedVendorReportedEchoSpacing": 0.00049,
  "DeviceSerialNumber": "66112",
  "DwellTime": 2e-06,
  "EchoTime": 0.0272,
  "EchoTrainLength": 82,
  "EffectiveEchoSpacing": 0.00049,
  "FlipAngle": 44,
  "ImageComments": "Unaliased MB8/PE3",
  "ImageOrientationPatientDICOM": [0.997745, -0.0158137, -0.0652256, 0.0139321, 0.999476, -0.0292032],
  "ImageType": [
    "ORIGINAL",
    "PRIMARY",
    "M",
    "MB",
    "ND",
    "NORM",
    "MOSAIC"
],
  "ImagingFrequency": 123.252,
  "InPlanePhaseEncodingDirectionDICOM": "COL",
  "InstitutionAddress": "Maynard 3,Hanover,NH,US,03755",
  "InstitutionName": "Dartmouth College - PBS",
  "InstitutionalDepartmentName": "Department",
  "MRAcquisitionType": "2D",
  "MagneticFieldStrength": 3,
  "Manufacturer": "Siemens",
  "ManufacturersModelName": "Prisma",
  "Modality": "MR",
  "MultibandAccelerationFactor": 8,
  "PartialFourier": 1,
  "PatientPosition": "HFS",
  "PercentPhaseFOV": 100,
  "PercentSampling": 100,
  "PhaseEncodingDirection": "j-",
  "PhaseEncodingSteps": 82,
  "PhaseResolution": 1,
  "PixelBandwidth": 3050,
  "ProcedureStepDescription": "Wager_Wager^1076_spacetop",
  "ProtocolName": "func_run-06_task-social_acq-ap-mb8",
  "PulseSequenceDetails": "%CustomerSeq%\\cmrr_mbep2d_bold",
  "ReceiveCoilActiveElements": "HEA;HEP",
  "ReceiveCoilName": "Head_32",
  "ReconMatrixPE": 82,
  "RepetitionTime": 0.46,
  "SAR": 0.0777482,
  "ScanOptions": "FS",
  "ScanningSequence": "EP",
  "SequenceName": "epfid2d1_82",
  "SequenceVariant": "SK\\SS",
  "SeriesDescription": "func_run-06_task-social_acq-ap-mb8",
  "SeriesNumber": 22,
  "ShimSetting": [4125, -7758, -7292, 603, -31, -221, -9, 105],
  "SliceThickness": 2.7,
  "SliceTiming": [0, 0.2525, 0.0625, 0.315, 0.1275, 0.3775, 0.19, 0, 0.2525, 0.0625, 0.315, 0.1275, 0.3775, 0.19, 0, 0.2525, 0.0625, 0.315, 0.1275, 0.3775, 0.19, 0, 0.2525, 0.0625, 0.315, 0.1275, 0.3775, 0.19, 0, 0.2525, 0.0625, 0.315, 0.1275, 0.3775, 0.19, 0, 0.2525, 0.0625, 0.315, 0.1275, 0.3775, 0.19, 0, 0.2525, 0.0625, 0.315, 0.1275, 0.3775, 0.19, 0, 0.2525, 0.0625, 0.315, 0.1275, 0.3775, 0.19],
  "SoftwareVersions": "syngo MR E11",
  "SpacingBetweenSlices": 2.7,
  "StationName": "AWP66112",
  "TaskName": "social",
  "TotalReadoutTime": 0.03969,
  "TxRefAmp": 219.554,
  "WipMemBlock": "76978dd5-b03d-4559-93f4-79d478764096||Sequence: R016 ve11c/master r/e634e98; Dec 19 2017 11:00:25 by eja",
  "dcmmeta_affine": [
    [-2.676877498626709, 0.03737867996096611, -0.17726367712020874, 111.68597412109375],
    [0.04242703318595886, 2.6815221309661865, -0.07621720433235168, -91.24716186523438],
    [-0.17499540746212006, 0.07834996283054352, 2.693096399307251, -70.44461822509766],
    [0.0, 0.0, 0.0, 1.0]
],
  "dcmmeta_reorient_transform": [
    [0.0, -1.0, 0.0, 81.0],
    [1.0, 0.0, 0.0, 0.0],
    [0.0, 0.0, 1.0, 0.0],
    [0.0, 0.0, 0.0, 1.0]
],
  "dcmmeta_shape": [82, 82, 56, 872],
  "dcmmeta_slice_dim": 2,
  "dcmmeta_version": 0.6,
  "global": {
    "const": {
      "AccessionNumber": "A003548",
      "AcquisitionMatrix": [82, 0, 0, 82],
      "AngioFlag": "N",
      "BitsAllocated": 16,
      "BitsStored": 16,
      "BodyPartExamined": "BRAIN",
      "Columns": 656,
      "EchoNumbers": 1,
      "EchoTime": 27.2,
      "EchoTrainLength": 82,
      "FlipAngle": 44.0,
      "HighBit": 15,
      "ImageOrientationPatient": [0.99774523460136, -0.0158137123545, -0.0652255573518, 0.01393205288345, 0.99947639936061, -0.0292031680406],
      "ImagePositionPatient": [-893.70517573392, -883.37641434471, 8.61185247004],
      "ImageType": [
        "ORIGINAL",
        "PRIMARY",
        "M",
        "MB",
        "ND",
        "NORM",
        "MOSAIC"
],
      "ImagedNucleus": "1H",
      "ImagingFrequency": 123.252195,
      "InPlanePhaseEncodingDirection": "COL",
      "MRAcquisitionType": "2D",
      "MagneticFieldStrength": 3.0,
      "Manufacturer": "SIEMENS",
      "ManufacturerModelName": "Prisma",
      "Modality": "MR",
      "NumberOfAverages": 1.0,
      "NumberOfPhaseEncodingSteps": 82,
      "PercentPhaseFieldOfView": 100.0,
      "PercentSampling": 100.0,
      "PerformedProcedureStepStartTime": "141642.026000",
      "PhotometricInterpretation": "MONOCHROME2",
      "PixelBandwidth": 3050.0,
      "PixelRepresentation": 0,
      "PixelSpacing": [2.6829268932343, 2.6829268932343],
      "ProtocolName": "func_run-06_task-social_acq-ap-mb8",
      "RepetitionTime": 460.0,
      "Rows": 656,
      "SAR": 0.07774819819216,
      "SamplesPerPixel": 1,
      "ScanOptions": "FS",
      "ScanningSequence": "EP",
      "SequenceName": "epfid2d1_82",
      "SequenceVariant": [
        "SK",
        "SS"
],
      "SeriesDescription": "func_run-06_task-social_acq-ap-mb8",
      "SeriesNumber": 22,
      "SeriesTime": "155105.607000",
      "SliceLocation": -75.021261350292,
      "SliceThickness": 2.7000000476837,
      "SmallestImagePixelValue": 0,
      "SoftwareVersions": "syngo MR E11",
      "SpacingBetweenSlices": 2.6999999125306,
      "SpecificCharacterSet": "ISO_IR 100",
      "StudyID": "1",
      "StudyTime": "141641.952000",
      "TransmitCoilName": "Body",
      "VariableFlipAngleFlag": "N",
      "WindowCenterWidthExplanation": "Algo1",
      "dBdt": 0.0},
    "slices": {}
  },
  "time": {
    "samples": {
      "AcquisitionNumber": [1, 2, 3, 4, 5, 6, 7, 8, 9, 10, 11, 12, 13, 14, 15, 16, 17, 18, 19, 20, 21, 22, 23, 24, 25, 26, 27, 28, 29, 30, 31, 32, 33, 34, 35, 36, 37, 38, 39, 40, 41, 42, 43, 44, 45, 46, 47, 48, 49, 50, 51, 52, 53, 54, 55, 56, 57, 58, 59, 60, 61, 62, 63, 64, 65, 66, 67, 68, 69, 70, 71, 72, 73, 74, 75, 76, 77, 78, 79, 80, 81, 82, 83, 84, 85, 86, 87, 88, 89, 90, 91, 92, 93, 94, 95, 96, 97, 98, 99, 100, 101, 102, 103, 104, 105, 106, 107, 108, 109, 110, 111, 112, 113, 114, 115, 116, 117, 118, 119, 120, 121, 122, 123, 124, 125, 126, 127, 128, 129, 130, 131, 132, 133, 134, 135, 136, 137, 138, 139, 140, 141, 142, 143, 144, 145, 146, 147, 148, 149, 150, 151, 152, 153, 154, 155, 156, 157, 158, 159, 160, 161, 162, 163, 164, 165, 166, 167, 168, 169, 170, 171, 172, 173, 174, 175, 176, 177, 178, 179, 180, 181, 182, 183, 184, 185, 186, 187, 188, 189, 190, 191, 192, 193, 194, 195, 196, 197, 198, 199, 200, 201, 202, 203, 204, 205, 206, 207, 208, 209, 210, 211, 212, 213, 214, 215, 216, 217, 218, 219, 220, 221, 222, 223, 224, 225, 226, 227, 228, 229, 230, 231, 232, 233, 234, 235, 236, 237, 238, 239, 240, 241, 242, 243, 244, 245, 246, 247, 248, 249, 250, 251, 252, 253, 254, 255, 256, 257, 258, 259, 260, 261, 262, 263, 264, 265, 266, 267, 268, 269, 270, 271, 272, 273, 274, 275, 276, 277, 278, 279, 280, 281, 282, 283, 284, 285, 286, 287, 288, 289, 290, 291, 292, 293, 294, 295, 296, 297, 298, 299, 300, 301, 302, 303, 304, 305, 306, 307, 308, 309, 310, 311, 312, 313, 314, 315, 316, 317, 318, 319, 320, 321, 322, 323, 324, 325, 326, 327, 328, 329, 330, 331, 332, 333, 334, 335, 336, 337, 338, 339, 340, 341, 342, 343, 344, 345, 346, 347, 348, 349, 350, 351, 352, 353, 354, 355, 356, 357, 358, 359, 360, 361, 362, 363, 364, 365, 366, 367, 368, 369, 370, 371, 372, 373, 374, 375, 376, 377, 378, 379, 380, 381, 382, 383, 384, 385, 386, 387, 388, 389, 390, 391, 392, 393, 394, 395, 396, 397, 398, 399, 400, 401, 402, 403, 404, 405, 406, 407, 408, 409, 410, 411, 412, 413, 414, 415, 416, 417, 418, 419, 420, 421, 422, 423, 424, 425, 426, 427, 428, 429, 430, 431, 432, 433, 434, 435, 436, 437, 438, 439, 440, 441, 442, 443, 444, 445, 446, 447, 448, 449, 450, 451, 452, 453, 454, 455, 456, 457, 458, 459, 460, 461, 462, 463, 464, 465, 466, 467, 468, 469, 470, 471, 472, 473, 474, 475, 476, 477, 478, 479, 480, 481, 482, 483, 484, 485, 486, 487, 488, 489, 490, 491, 492, 493, 494, 495, 496, 497, 498, 499, 500, 501, 502, 503, 504, 505, 506, 507, 508, 509, 510, 511, 512, 513, 514, 515, 516, 517, 518, 519, 520, 521, 522, 523, 524, 525, 526, 527, 528, 529, 530, 531, 532, 533, 534, 535, 536, 537, 538, 539, 540, 541, 542, 543, 544, 545, 546, 547, 548, 549, 550, 551, 552, 553, 554, 555, 556, 557, 558, 559, 560, 561, 562, 563, 564, 565, 566, 567, 568, 569, 570, 571, 572, 573, 574, 575, 576, 577, 578, 579, 580, 581, 582, 583, 584, 585, 586, 587, 588, 589, 590, 591, 592, 593, 594, 595, 596, 597, 598, 599, 600, 601, 602, 603, 604, 605, 606, 607, 608, 609, 610, 611, 612, 613, 614, 615, 616, 617, 618, 619, 620, 621, 622, 623, 624, 625, 626, 627, 628, 629, 630, 631, 632, 633, 634, 635, 636, 637, 638, 639, 640, 641, 642, 643, 644, 645, 646, 647, 648, 649, 650, 651, 652, 653, 654, 655, 656, 657, 658, 659, 660, 661, 662, 663, 664, 665, 666, 667, 668, 669, 670, 671, 672, 673, 674, 675, 676, 677, 678, 679, 680, 681, 682, 683, 684, 685, 686, 687, 688, 689, 690, 691, 692, 693, 694, 695, 696, 697, 698, 699, 700, 701, 702, 703, 704, 705, 706, 707, 708, 709, 710, 711, 712, 713, 714, 715, 716, 717, 718, 719, 720, 721, 722, 723, 724, 725, 726, 727, 728, 729, 730, 731, 732, 733, 734, 735, 736, 737, 738, 739, 740, 741, 742, 743, 744, 745, 746, 747, 748, 749, 750, 751, 752, 753, 754, 755, 756, 757, 758, 759, 760, 761, 762, 763, 764, 765, 766, 767, 768, 769, 770, 771, 772, 773, 774, 775, 776, 777, 778, 779, 780, 781, 782, 783, 784, 785, 786, 787, 788, 789, 790, 791, 792, 793, 794, 795, 796, 797, 798, 799, 800, 801, 802, 803, 804, 805, 806, 807, 808, 809, 810, 811, 812, 813, 814, 815, 816, 817, 818, 819, 820, 821, 822, 823, 824, 825, 826, 827, 828, 829, 830, 831, 832, 833, 834, 835, 836, 837, 838, 839, 840, 841, 842, 843, 844, 845, 846, 847, 848, 849, 850, 851, 852, 853, 854, 855, 856, 857, 858, 859, 860, 861, 862, 863, 864, 865, 866, 867, 868, 869, 870, 871, 872],
      "AcquisitionTime": ["155050.850000", "155051.310000", "155051.770000", "155052.230000", "155052.690000", "155053.150000", "155053.610000", "155054.070000", "155054.530000", "155054.990000", "155055.450000", "155055.910000", "155056.370000", "155056.830000", "155057.290000", "155057.750000", "155058.210000", "155058.670000", "155059.130000", "155059.590000", "155100.050000", "155100.510000", "155100.970000", "155101.430000", "155101.890000", "155102.350000", "155102.810000", "155103.270000", "155103.730000", "155104.190000", "155104.650000", "155105.110000", "155105.570000", "155106.030000", "155106.490000", "155106.950000", "155107.410000", "155107.870000", "155108.330000", "155108.790000", "155109.250000", "155109.710000", "155110.170000", "155110.630000", "155111.090000", "155111.550000", "155112.010000", "155112.470000", "155112.930000", "155113.390000", "155113.850000", "155114.310000", "155114.770000", "155115.230000", "155115.690000", "155116.150000", "155116.610000", "155117.070000", "155117.530000", "155117.990000", "155118.450000", "155118.910000", "155119.370000", "155119.830000", "155120.290000", "155120.750000", "155121.210000", "155121.670000", "155122.130000", "155122.590000", "155123.050000", "155123.510000", "155123.970000", "155124.430000", "155124.890000", "155125.350000", "155125.810000", "155126.270000", "155126.730000", "155127.190000", "155127.650000", "155128.110000", "155128.570000", "155129.030000", "155129.490000", "155129.950000", "155130.410000", "155130.870000", "155131.330000", "155131.790000", "155132.250000", "155132.710000", "155133.170000", "155133.630000", "155134.090000", "155134.550000", "155135.010000", "155135.470000", "155135.930000", "155136.390000", "155136.850000", "155137.310000", "155137.770000", "155138.230000", "155138.690000", "155139.150000", "155139.610000", "155140.070000", "155140.530000", "155140.990000", "155141.450000", "155141.910000", "155142.370000", "155142.830000", "155143.290000", "155143.750000", "155144.210000", "155144.670000", "155145.130000", "155145.590000", "155146.050000", "155146.510000", "155146.970000", "155147.430000", "155147.890000", "155148.350000", "155148.810000", "155149.270000", "155149.730000", "155150.190000", "155150.650000", "155151.110000", "155151.570000", "155152.030000", "155152.490000", "155152.950000", "155153.410000", "155153.870000", "155154.330000", "155154.790000", "155155.250000", "155155.710000", "155156.170000", "155156.630000", "155157.090000", "155157.550000", "155158.010000", "155158.470000", "155158.930000", "155159.390000", "155159.850000", "155200.310000", "155200.770000", "155201.230000", "155201.690000", "155202.150000", "155202.610000", "155203.070000", "155203.530000", "155203.990000", "155204.450000", "155204.910000", "155205.370000", "155205.830000", "155206.290000", "155206.750000", "155207.210000", "155207.670000", "155208.130000", "155208.590000", "155209.050000", "155209.510000", "155209.970000", "155210.430000", "155210.890000", "155211.350000", "155211.810000", "155212.270000", "155212.730000", "155213.190000", "155213.650000", "155214.110000", "155214.570000", "155215.030000", "155215.490000", "155215.950000", "155216.410000", "155216.870000", "155217.330000", "155217.790000", "155218.250000", "155218.710000", "155219.170000", "155219.630000", "155220.090000", "155220.550000", "155221.010000", "155221.470000", "155221.930000", "155222.390000", "155222.850000", "155223.310000", "155223.770000", "155224.230000", "155224.690000", "155225.150000", "155225.610000", "155226.070000", "155226.530000", "155226.990000", "155227.450000", "155227.910000", "155228.370000", "155228.830000", "155229.290000", "155229.750000", "155230.210000", "155230.670000", "155231.130000", "155231.590000", "155232.050000", "155232.510000", "155232.970000", "155233.430000", "155233.890000", "155234.350000", "155234.810000", "155235.270000", "155235.730000", "155236.190000", "155236.650000", "155237.110000", "155237.570000", "155238.030000", "155238.490000", "155238.950000", "155239.410000", "155239.870000", "155240.330000", "155240.790000", "155241.250000", "155241.710000", "155242.170000", "155242.630000", "155243.090000", "155243.550000", "155244.010000", "155244.470000", "155244.930000", "155245.390000", "155245.850000", "155246.310000", "155246.770000", "155247.230000", "155247.690000", "155248.150000", "155248.610000", "155249.070000", "155249.530000", "155249.990000", "155250.450000", "155250.910000", "155251.370000", "155251.830000", "155252.290000", "155252.750000", "155253.210000", "155253.670000", "155254.130000", "155254.590000", "155255.050000", "155255.510000", "155255.970000", "155256.430000", "155256.890000", "155257.350000", "155257.810000", "155258.270000", "155258.730000", "155259.190000", "155259.650000", "155300.110000", "155300.570000", "155301.030000", "155301.490000", "155301.950000", "155302.410000", "155302.870000", "155303.330000", "155303.790000", "155304.250000", "155304.710000", "155305.170000", "155305.630000", "155306.090000", "155306.550000", "155307.010000", "155307.470000", "155307.930000", "155308.390000", "155308.850000", "155309.310000", "155309.770000", "155310.230000", "155310.690000", "155311.150000", "155311.610000", "155312.070000", "155312.530000", "155312.990000", "155313.450000", "155313.910000", "155314.370000", "155314.830000", "155315.290000", "155315.750000", "155316.210000", "155316.670000", "155317.130000", "155317.590000", "155318.050000", "155318.510000", "155318.970000", "155319.430000", "155319.890000", "155320.350000", "155320.810000", "155321.270000", "155321.730000", "155322.190000", "155322.650000", "155323.110000", "155323.570000", "155324.030000", "155324.490000", "155324.950000", "155325.410000", "155325.870000", "155326.330000", "155326.790000", "155327.250000", "155327.710000", "155328.170000", "155328.630000", "155329.090000", "155329.550000", "155330.010000", "155330.470000", "155330.930000", "155331.390000", "155331.850000", "155332.310000", "155332.770000", "155333.230000", "155333.690000", "155334.150000", "155334.610000", "155335.070000", "155335.530000", "155335.990000", "155336.450000", "155336.910000", "155337.370000", "155337.830000", "155338.290000", "155338.750000", "155339.210000", "155339.670000", "155340.130000", "155340.590000", "155341.050000", "155341.510000", "155341.970000", "155342.430000", "155342.890000", "155343.350000", "155343.810000", "155344.270000", "155344.730000", "155345.190000", "155345.650000", "155346.110000", "155346.570000", "155347.030000", "155347.490000", "155347.950000", "155348.410000", "155348.870000", "155349.330000", "155349.790000", "155350.250000", "155350.710000", "155351.170000", "155351.630000", "155352.090000", "155352.550000", "155353.010000", "155353.470000", "155353.930000", "155354.390000", "155354.850000", "155355.310000", "155355.770000", "155356.230000", "155356.690000", "155357.150000", "155357.610000", "155358.070000", "155358.530000", "155358.990000", "155359.450000", "155359.910000", "155400.370000", "155400.830000", "155401.290000", "155401.750000", "155402.210000", "155402.670000", "155403.130000", "155403.590000", "155404.050000", "155404.510000", "155404.970000", "155405.430000", "155405.890000", "155406.350000", "155406.810000", "155407.270000", "155407.730000", "155408.190000", "155408.650000", "155409.110000", "155409.570000", "155410.030000", "155410.490000", "155410.950000", "155411.410000", "155411.870000", "155412.330000", "155412.790000", "155413.250000", "155413.710000", "155414.170000", "155414.630000", "155415.090000", "155415.550000", "155416.010000", "155416.470000", "155416.930000", "155417.390000", "155417.850000", "155418.310000", "155418.770000", "155419.230000", "155419.690000", "155420.150000", "155420.610000", "155421.070000", "155421.530000", "155421.990000", "155422.450000", "155422.910000", "155423.370000", "155423.830000", "155424.290000", "155424.750000", "155425.210000", "155425.670000", "155426.130000", "155426.590000", "155427.050000", "155427.510000", "155427.970000", "155428.430000", "155428.890000", "155429.350000", "155429.810000", "155430.270000", "155430.730000", "155431.190000", "155431.650000", "155432.110000", "155432.570000", "155433.030000", "155433.490000", "155433.950000", "155434.410000", "155434.870000", "155435.330000", "155435.790000", "155436.250000", "155436.710000", "155437.170000", "155437.630000", "155438.090000", "155438.550000", "155439.010000", "155439.470000", "155439.930000", "155440.390000", "155440.850000", "155441.310000", "155441.770000", "155442.230000", "155442.690000", "155443.150000", "155443.610000", "155444.070000", "155444.530000", "155444.990000", "155445.450000", "155445.910000", "155446.370000", "155446.830000", "155447.290000", "155447.750000", "155448.210000", "155448.670000", "155449.130000", "155449.590000", "155450.050000", "155450.510000", "155450.970000", "155451.430000", "155451.890000", "155452.350000", "155452.810000", "155453.270000", "155453.730000", "155454.190000", "155454.650000", "155455.110000", "155455.570000", "155456.030000", "155456.490000", "155456.950000", "155457.410000", "155457.870000", "155458.330000", "155458.790000", "155459.250000", "155459.710000", "155500.170000", "155500.630000", "155501.090000", "155501.550000", "155502.010000", "155502.470000", "155502.930000", "155503.390000", "155503.850000", "155504.310000", "155504.770000", "155505.230000", "155505.690000", "155506.150000", "155506.610000", "155507.070000", "155507.530000", "155507.990000", "155508.450000", "155508.910000", "155509.370000", "155509.830000", "155510.290000", "155510.750000", "155511.210000", "155511.670000", "155512.130000", "155512.590000", "155513.050000", "155513.510000", "155513.970000", "155514.430000", "155514.890000", "155515.350000", "155515.810000", "155516.270000", "155516.730000", "155517.190000", "155517.650000", "155518.110000", "155518.570000", "155519.030000", "155519.490000", "155519.950000", "155520.410000", "155520.870000", "155521.330000", "155521.790000", "155522.250000", "155522.710000", "155523.170000", "155523.630000", "155524.090000", "155524.550000", "155525.010000", "155525.470000", "155525.930000", "155526.390000", "155526.850000", "155527.310000", "155527.770000", "155528.230000", "155528.690000", "155529.150000", "155529.610000", "155530.070000", "155530.530000", "155530.990000", "155531.450000", "155531.910000", "155532.370000", "155532.830000", "155533.290000", "155533.750000", "155534.210000", "155534.670000", "155535.130000", "155535.590000", "155536.050000", "155536.510000", "155536.970000", "155537.430000", "155537.890000", "155538.350000", "155538.810000", "155539.270000", "155539.730000", "155540.190000", "155540.650000", "155541.110000", "155541.570000", "155542.030000", "155542.490000", "155542.950000", "155543.410000", "155543.870000", "155544.330000", "155544.790000", "155545.250000", "155545.710000", "155546.170000", "155546.630000", "155547.090000", "155547.550000", "155548.010000", "155548.470000", "155548.930000", "155549.390000", "155549.850000", "155550.310000", "155550.770000", "155551.230000", "155551.690000", "155552.150000", "155552.610000", "155553.070000", "155553.530000", "155553.990000", "155554.450000", "155554.910000", "155555.370000", "155555.830000", "155556.290000", "155556.750000", "155557.210000", "155557.670000", "155558.130000", "155558.590000", "155559.050000", "155559.510000", "155559.970000", "155600.430000", "155600.890000", "155601.350000", "155601.810000", "155602.270000", "155602.730000", "155603.190000", "155603.650000", "155604.110000", "155604.570000", "155605.030000", "155605.490000", "155605.950000", "155606.410000", "155606.870000", "155607.330000", "155607.790000", "155608.250000", "155608.710000", "155609.170000", "155609.630000", "155610.090000", "155610.550000", "155611.010000", "155611.470000", "155611.930000", "155612.390000", "155612.850000", "155613.310000", "155613.770000", "155614.230000", "155614.690000", "155615.150000", "155615.610000", "155616.070000", "155616.530000", "155616.990000", "155617.450000", "155617.910000", "155618.370000", "155618.830000", "155619.290000", "155619.750000", "155620.210000", "155620.670000", "155621.130000", "155621.590000", "155622.050000", "155622.510000", "155622.970000", "155623.430000", "155623.890000", "155624.350000", "155624.810000", "155625.270000", "155625.730000", "155626.190000", "155626.650000", "155627.110000", "155627.570000", "155628.030000", "155628.490000", "155628.950000", "155629.410000", "155629.870000", "155630.330000", "155630.790000", "155631.250000", "155631.710000", "155632.170000", "155632.630000", "155633.090000", "155633.550000", "155634.010000", "155634.470000", "155634.930000", "155635.390000", "155635.850000", "155636.310000", "155636.770000", "155637.230000", "155637.690000", "155638.150000", "155638.610000", "155639.070000", "155639.530000", "155639.990000", "155640.450000", "155640.910000", "155641.370000", "155641.830000", "155642.290000", "155642.750000", "155643.210000", "155643.670000", "155644.130000", "155644.590000", "155645.050000", "155645.510000", "155645.970000", "155646.430000", "155646.890000", "155647.350000", "155647.810000", "155648.270000", "155648.730000", "155649.190000", "155649.650000", "155650.110000", "155650.570000", "155651.030000", "155651.490000", "155651.950000", "155652.410000", "155652.870000", "155653.330000", "155653.790000", "155654.250000", "155654.710000", "155655.170000", "155655.630000", "155656.090000", "155656.550000", "155657.010000", "155657.470000", "155657.930000", "155658.390000", "155658.850000", "155659.310000", "155659.770000", "155700.230000", "155700.690000", "155701.150000", "155701.610000", "155702.070000", "155702.530000", "155702.990000", "155703.450000", "155703.910000", "155704.370000", "155704.830000", "155705.290000", "155705.750000", "155706.210000", "155706.670000", "155707.130000", "155707.590000", "155708.050000", "155708.510000", "155708.970000", "155709.430000", "155709.890000", "155710.350000", "155710.810000", "155711.270000", "155711.730000", "155712.190000", "155712.650000", "155713.110000", "155713.570000", "155714.030000", "155714.490000", "155714.950000", "155715.410000", "155715.870000", "155716.330000", "155716.790000", "155717.250000", "155717.710000", "155718.170000", "155718.630000", "155719.090000", "155719.550000", "155720.010000", "155720.470000", "155720.930000", "155721.390000", "155721.850000", "155722.310000", "155722.770000", "155723.230000", "155723.690000", "155724.150000", "155724.610000", "155725.070000", "155725.530000", "155725.990000", "155726.450000", "155726.910000", "155727.370000", "155727.830000", "155728.290000", "155728.750000", "155729.210000", "155729.670000", "155730.130000", "155730.590000", "155731.050000", "155731.510000"],
