{
  "AcquisitionMatrixPE": 82,
  "AcquisitionNumber": 1,
  "AcquisitionTime": "09:22:5.917500",
  "BandwidthPerPixelPhaseEncode": 24.888,
  "BaseResolution": 82,
  "BodyPartExamined": "BRAIN",
  "ConsistencyInfo": "N4_VE11E_LATEST_20181129",
  "ConversionSoftware": "dcm2niix",
  "ConversionSoftwareVersion": "v1.0.20201102",
  "DerivedVendorReportedEchoSpacing": 0.00049,
  "DeviceSerialNumber": "66112",
  "DwellTime": 2e-06,
  "EchoTime": 0.0272,
  "EchoTrainLength": 82,
  "EffectiveEchoSpacing": 0.00049,
  "FlipAngle": 44,
  "ImageComments": "Unaliased MB8/PE3",
  "ImageOrientationPatientDICOM": [0.998866, -0.0465056, 0.010178, 0.0458823, 0.997449, 0.0546888],
  "ImageType": [
    "ORIGINAL",
    "PRIMARY",
    "M",
    "MB",
    "ND",
    "NORM",
    "MOSAIC"
],
  "ImagingFrequency": 123.252,
  "InPlanePhaseEncodingDirectionDICOM": "COL",
  "InstitutionAddress": "Maynard 3,Hanover,NH,US,03755",
  "InstitutionName": "Dartmouth College - PBS",
  "InstitutionalDepartmentName": "Department",
  "MRAcquisitionType": "2D",
  "MagneticFieldStrength": 3,
  "Manufacturer": "Siemens",
  "ManufacturersModelName": "Prisma",
  "Modality": "MR",
  "MultibandAccelerationFactor": 8,
  "PartialFourier": 1,
  "PatientPosition": "HFS",
  "PercentPhaseFOV": 100,
  "PercentSampling": 100,
  "PhaseEncodingDirection": "j-",
  "PhaseEncodingSteps": 82,
  "PhaseResolution": 1,
  "PixelBandwidth": 3050,
  "ProcedureStepDescription": "Wager_Wager^1076_spacetop",
  "ProtocolName": "func_run-06_task-social_acq-ap-mb8",
  "PulseSequenceDetails": "%CustomerSeq%\\cmrr_mbep2d_bold",
  "ReceiveCoilActiveElements": "HEA;HEP",
  "ReceiveCoilName": "Head_32",
  "ReconMatrixPE": 82,
  "RepetitionTime": 0.46,
  "SAR": 0.0770923,
  "ScanOptions": "FS",
  "ScanningSequence": "EP",
  "SequenceName": "epfid2d1_82",
  "SequenceVariant": "SK\\SS",
  "SeriesDescription": "func_run-06_task-social_acq-ap-mb8",
  "SeriesNumber": 22,
  "ShimSetting": [4152, -7743, -7264, 650, -57, -103, 62, 80],
  "SliceThickness": 2.7,
  "SliceTiming": [0, 0.25, 0.0625, 0.3125, 0.125, 0.375, 0.1875, 0, 0.25, 0.0625, 0.3125, 0.125, 0.375, 0.1875, 0, 0.25, 0.0625, 0.3125, 0.125, 0.375, 0.1875, 0, 0.25, 0.0625, 0.3125, 0.125, 0.375, 0.1875, 0, 0.25, 0.0625, 0.3125, 0.125, 0.375, 0.1875, 0, 0.25, 0.0625, 0.3125, 0.125, 0.375, 0.1875, 0, 0.25, 0.0625, 0.3125, 0.125, 0.375, 0.1875, 0, 0.25, 0.0625, 0.3125, 0.125, 0.375, 0.1875],
  "SoftwareVersions": "syngo MR E11",
  "SpacingBetweenSlices": 2.7,
  "StationName": "AWP66112",
  "TaskName": "social",
  "TotalReadoutTime": 0.03969,
  "TxRefAmp": 241.403,
  "WipMemBlock": "e217366a-97ae-4d5f-9895-8bb0e81b5097||Sequence: R016 ve11e/master r/434b28f1; Aug  7 2019 18:53:46 by eja",
  "dcmmeta_affine": [
    [-2.679884910583496, 0.12309897691011429, 0.03427752107381821, 106.54242706298828],
    [0.1247711107134819, 2.676081895828247, 0.14623157680034637, -95.03337097167969],
    [0.027306852862238884, -0.14672616124153137, 2.695819139480591, -63.34056091308594],
    [0.0, 0.0, 0.0, 1.0]
],
  "dcmmeta_reorient_transform": [
    [0.0, -1.0, 0.0, 81.0],
    [1.0, 0.0, 0.0, 0.0],
    [0.0, 0.0, 1.0, 0.0],
    [0.0, 0.0, 0.0, 1.0]
],
  "dcmmeta_shape": [82, 82, 56, 872],
  "dcmmeta_slice_dim": 2,
  "dcmmeta_version": 0.6,
  "global": {
    "const": {
      "AccessionNumber": "A003872",
      "AcquisitionMatrix": [82, 0, 0, 82],
      "AngioFlag": "N",
      "BitsAllocated": 16,
      "BitsStored": 16,
      "BodyPartExamined": "BRAIN",
      "Columns": 656,
      "EchoNumbers": 1,
      "EchoTime": 27.2,
      "EchoTrainLength": 82,
      "FlipAngle": 44.0,
      "HighBit": 15,
      "ImageOrientationPatient": [0.99886617607898, -0.0465055956549, 0.01017800855499, 0.04588234566757, 0.99744871592702, 0.05468884211234],
      "ImagePositionPatient": [-920.96982794829, -853.95549221929, -125.17285680368],
      "ImageType": [
        "ORIGINAL",
        "PRIMARY",
        "M",
        "MB",
        "ND",
        "NORM",
        "MOSAIC"
],
      "ImagedNucleus": "1H",
      "ImagingFrequency": 123.25221,
      "InPlanePhaseEncodingDirection": "COL",
      "MRAcquisitionType": "2D",
      "MagneticFieldStrength": 3.0,
      "Manufacturer": "SIEMENS",
      "ManufacturerModelName": "Prisma",
      "Modality": "MR",
      "NumberOfAverages": 1.0,
      "NumberOfPhaseEncodingSteps": 82,
      "PercentPhaseFieldOfView": 100.0,
      "PercentSampling": 100.0,
      "PerformedProcedureStepStartTime": "080448.856000",
      "PhotometricInterpretation": "MONOCHROME2",
      "PixelBandwidth": 3050.0,
      "PixelRepresentation": 0,
      "PixelSpacing": [2.6829268932343, 2.6829268932343],
      "ProtocolName": "func_run-06_task-social_acq-ap-mb8",
      "RepetitionTime": 460.0,
      "Rows": 656,
      "SAR": 0.07709228494199,
      "SamplesPerPixel": 1,
      "ScanOptions": "FS",
      "ScanningSequence": "EP",
      "SequenceName": "epfid2d1_82",
      "SequenceVariant": [
        "SK",
        "SS"
],
      "SeriesDescription": "func_run-06_task-social_acq-ap-mb8",
      "SeriesNumber": 22,
      "SeriesTime": "092218.967000",
      "SliceLocation": -67.036878712112,
      "SliceThickness": 2.7000000476837,
      "SmallestImagePixelValue": 0,
      "SoftwareVersions": "syngo MR E11",
      "SpacingBetweenSlices": 2.6999999912983,
      "SpecificCharacterSet": "ISO_IR 100",
      "StudyID": "1",
      "StudyTime": "080448.695000",
      "TransmitCoilName": "Body",
      "VariableFlipAngleFlag": "N",
      "WindowCenterWidthExplanation": "Algo1"
    },
    "slices": {}
  },
  "time": {
    "samples": {
      "AcquisitionNumber": [1, 2, 3, 4, 5, 6, 7, 8, 9, 10, 11, 12, 13, 14, 15, 16, 17, 18, 19, 20, 21, 22, 23, 24, 25, 26, 27, 28, 29, 30, 31, 32, 33, 34, 35, 36, 37, 38, 39, 40, 41, 42, 43, 44, 45, 46, 47, 48, 49, 50, 51, 52, 53, 54, 55, 56, 57, 58, 59, 60, 61, 62, 63, 64, 65, 66, 67, 68, 69, 70, 71, 72, 73, 74, 75, 76, 77, 78, 79, 80, 81, 82, 83, 84, 85, 86, 87, 88, 89, 90, 91, 92, 93, 94, 95, 96, 97, 98, 99, 100, 101, 102, 103, 104, 105, 106, 107, 108, 109, 110, 111, 112, 113, 114, 115, 116, 117, 118, 119, 120, 121, 122, 123, 124, 125, 126, 127, 128, 129, 130, 131, 132, 133, 134, 135, 136, 137, 138, 139, 140, 141, 142, 143, 144, 145, 146, 147, 148, 149, 150, 151, 152, 153, 154, 155, 156, 157, 158, 159, 160, 161, 162, 163, 164, 165, 166, 167, 168, 169, 170, 171, 172, 173, 174, 175, 176, 177, 178, 179, 180, 181, 182, 183, 184, 185, 186, 187, 188, 189, 190, 191, 192, 193, 194, 195, 196, 197, 198, 199, 200, 201, 202, 203, 204, 205, 206, 207, 208, 209, 210, 211, 212, 213, 214, 215, 216, 217, 218, 219, 220, 221, 222, 223, 224, 225, 226, 227, 228, 229, 230, 231, 232, 233, 234, 235, 236, 237, 238, 239, 240, 241, 242, 243, 244, 245, 246, 247, 248, 249, 250, 251, 252, 253, 254, 255, 256, 257, 258, 259, 260, 261, 262, 263, 264, 265, 266, 267, 268, 269, 270, 271, 272, 273, 274, 275, 276, 277, 278, 279, 280, 281, 282, 283, 284, 285, 286, 287, 288, 289, 290, 291, 292, 293, 294, 295, 296, 297, 298, 299, 300, 301, 302, 303, 304, 305, 306, 307, 308, 309, 310, 311, 312, 313, 314, 315, 316, 317, 318, 319, 320, 321, 322, 323, 324, 325, 326, 327, 328, 329, 330, 331, 332, 333, 334, 335, 336, 337, 338, 339, 340, 341, 342, 343, 344, 345, 346, 347, 348, 349, 350, 351, 352, 353, 354, 355, 356, 357, 358, 359, 360, 361, 362, 363, 364, 365, 366, 367, 368, 369, 370, 371, 372, 373, 374, 375, 376, 377, 378, 379, 380, 381, 382, 383, 384, 385, 386, 387, 388, 389, 390, 391, 392, 393, 394, 395, 396, 397, 398, 399, 400, 401, 402, 403, 404, 405, 406, 407, 408, 409, 410, 411, 412, 413, 414, 415, 416, 417, 418, 419, 420, 421, 422, 423, 424, 425, 426, 427, 428, 429, 430, 431, 432, 433, 434, 435, 436, 437, 438, 439, 440, 441, 442, 443, 444, 445, 446, 447, 448, 449, 450, 451, 452, 453, 454, 455, 456, 457, 458, 459, 460, 461, 462, 463, 464, 465, 466, 467, 468, 469, 470, 471, 472, 473, 474, 475, 476, 477, 478, 479, 480, 481, 482, 483, 484, 485, 486, 487, 488, 489, 490, 491, 492, 493, 494, 495, 496, 497, 498, 499, 500, 501, 502, 503, 504, 505, 506, 507, 508, 509, 510, 511, 512, 513, 514, 515, 516, 517, 518, 519, 520, 521, 522, 523, 524, 525, 526, 527, 528, 529, 530, 531, 532, 533, 534, 535, 536, 537, 538, 539, 540, 541, 542, 543, 544, 545, 546, 547, 548, 549, 550, 551, 552, 553, 554, 555, 556, 557, 558, 559, 560, 561, 562, 563, 564, 565, 566, 567, 568, 569, 570, 571, 572, 573, 574, 575, 576, 577, 578, 579, 580, 581, 582, 583, 584, 585, 586, 587, 588, 589, 590, 591, 592, 593, 594, 595, 596, 597, 598, 599, 600, 601, 602, 603, 604, 605, 606, 607, 608, 609, 610, 611, 612, 613, 614, 615, 616, 617, 618, 619, 620, 621, 622, 623, 624, 625, 626, 627, 628, 629, 630, 631, 632, 633, 634, 635, 636, 637, 638, 639, 640, 641, 642, 643, 644, 645, 646, 647, 648, 649, 650, 651, 652, 653, 654, 655, 656, 657, 658, 659, 660, 661, 662, 663, 664, 665, 666, 667, 668, 669, 670, 671, 672, 673, 674, 675, 676, 677, 678, 679, 680, 681, 682, 683, 684, 685, 686, 687, 688, 689, 690, 691, 692, 693, 694, 695, 696, 697, 698, 699, 700, 701, 702, 703, 704, 705, 706, 707, 708, 709, 710, 711, 712, 713, 714, 715, 716, 717, 718, 719, 720, 721, 722, 723, 724, 725, 726, 727, 728, 729, 730, 731, 732, 733, 734, 735, 736, 737, 738, 739, 740, 741, 742, 743, 744, 745, 746, 747, 748, 749, 750, 751, 752, 753, 754, 755, 756, 757, 758, 759, 760, 761, 762, 763, 764, 765, 766, 767, 768, 769, 770, 771, 772, 773, 774, 775, 776, 777, 778, 779, 780, 781, 782, 783, 784, 785, 786, 787, 788, 789, 790, 791, 792, 793, 794, 795, 796, 797, 798, 799, 800, 801, 802, 803, 804, 805, 806, 807, 808, 809, 810, 811, 812, 813, 814, 815, 816, 817, 818, 819, 820, 821, 822, 823, 824, 825, 826, 827, 828, 829, 830, 831, 832, 833, 834, 835, 836, 837, 838, 839, 840, 841, 842, 843, 844, 845, 846, 847, 848, 849, 850, 851, 852, 853, 854, 855, 856, 857, 858, 859, 860, 861, 862, 863, 864, 865, 866, 867, 868, 869, 870, 871, 872],
      "AcquisitionTime": ["092205.917500", "092206.377500", "092206.837500", "092207.297500", "092207.757500", "092208.217500", "092208.677500", "092209.137500", "092209.597500", "092210.057500", "092210.517500", "092210.977500", "092211.437500", "092211.897500", "092212.357500", "092212.817500", "092213.277500", "092213.737500", "092214.197500", "092214.657500", "092215.117500", "092215.577500", "092216.037500", "092216.497500", "092216.957500", "092217.417500", "092217.877500", "092218.337500", "092218.797500", "092219.257500", "092219.717500", "092220.177500", "092220.637500", "092221.097500", "092221.557500", "092222.017500", "092222.477500", "092222.937500", "092223.397500", "092223.857500", "092224.317500", "092224.777500", "092225.237500", "092225.697500", "092226.157500", "092226.617500", "092227.077500", "092227.537500", "092227.997500", "092228.457500", "092228.917500", "092229.377500", "092229.837500", "092230.297500", "092230.757500", "092231.217500", "092231.677500", "092232.137500", "092232.597500", "092233.057500", "092233.517500", "092233.977500", "092234.437500", "092234.897500", "092235.357500", "092235.817500", "092236.277500", "092236.737500", "092237.197500", "092237.657500", "092238.117500", "092238.577500", "092239.037500", "092239.497500", "092239.957500", "092240.417500", "092240.877500", "092241.337500", "092241.797500", "092242.257500", "092242.717500", "092243.177500", "092243.637500", "092244.097500", "092244.557500", "092245.017500", "092245.477500", "092245.937500", "092246.397500", "092246.857500", "092247.317500", "092247.777500", "092248.237500", "092248.697500", "092249.157500", "092249.617500", "092250.077500", "092250.537500", "092250.997500", "092251.457500", "092251.917500", "092252.377500", "092252.837500", "092253.297500", "092253.757500", "092254.217500", "092254.677500", "092255.137500", "092255.597500", "092256.057500", "092256.517500", "092256.977500", "092257.437500", "092257.897500", "092258.357500", "092258.817500", "092259.277500", "092259.737500", "092300.197500", "092300.657500", "092301.117500", "092301.577500", "092302.037500", "092302.497500", "092302.957500", "092303.417500", "092303.877500", "092304.337500", "092304.797500", "092305.257500", "092305.717500", "092306.177500", "092306.637500", "092307.097500", "092307.557500", "092308.017500", "092308.477500", "092308.937500", "092309.397500", "092309.857500", "092310.317500", "092310.777500", "092311.237500", "092311.697500", "092312.157500", "092312.617500", "092313.077500", "092313.537500", "092313.997500", "092314.457500", "092314.917500", "092315.377500", "092315.837500", "092316.297500", "092316.757500", "092317.217500", "092317.677500", "092318.137500", "092318.597500", "092319.057500", "092319.517500", "092319.977500", "092320.437500", "092320.897500", "092321.357500", "092321.817500", "092322.277500", "092322.737500", "092323.197500", "092323.657500", "092324.117500", "092324.577500", "092325.037500", "092325.497500", "092325.957500", "092326.417500", "092326.877500", "092327.337500", "092327.797500", "092328.257500", "092328.717500", "092329.177500", "092329.637500", "092330.097500", "092330.557500", "092331.017500", "092331.477500", "092331.937500", "092332.397500", "092332.857500", "092333.317500", "092333.777500", "092334.237500", "092334.697500", "092335.157500", "092335.617500", "092336.077500", "092336.537500", "092336.997500", "092337.457500", "092337.917500", "092338.377500", "092338.837500", "092339.297500", "092339.757500", "092340.217500", "092340.677500", "092341.137500", "092341.597500", "092342.057500", "092342.517500", "092342.977500", "092343.437500", "092343.897500", "092344.357500", "092344.817500", "092345.277500", "092345.737500", "092346.197500", "092346.657500", "092347.117500", "092347.577500", "092348.037500", "092348.497500", "092348.957500", "092349.417500", "092349.877500", "092350.337500", "092350.797500", "092351.257500", "092351.717500", "092352.177500", "092352.637500", "092353.097500", "092353.557500", "092354.017500", "092354.477500", "092354.937500", "092355.397500", "092355.857500", "092356.317500", "092356.777500", "092357.237500", "092357.697500", "092358.157500", "092358.617500", "092359.077500", "092359.537500", "092359.997500", "092400.457500", "092400.917500", "092401.377500", "092401.837500", "092402.297500", "092402.757500", "092403.217500", "092403.677500", "092404.137500", "092404.597500", "092405.057500", "092405.517500", "092405.977500", "092406.437500", "092406.897500", "092407.357500", "092407.817500", "092408.277500", "092408.737500", "092409.197500", "092409.657500", "092410.117500", "092410.577500", "092411.037500", "092411.497500", "092411.957500", "092412.417500", "092412.877500", "092413.337500", "092413.797500", "092414.257500", "092414.717500", "092415.177500", "092415.637500", "092416.097500", "092416.557500", "092417.017500", "092417.477500", "092417.937500", "092418.397500", "092418.857500", "092419.317500", "092419.777500", "092420.237500", "092420.697500", "092421.157500", "092421.617500", "092422.077500", "092422.537500", "092422.997500", "092423.457500", "092423.917500", "092424.377500", "092424.837500", "092425.297500", "092425.757500", "092426.217500", "092426.677500", "092427.137500", "092427.597500", "092428.057500", "092428.517500", "092428.977500", "092429.437500", "092429.897500", "092430.357500", "092430.817500", "092431.277500", "092431.737500", "092432.197500", "092432.657500", "092433.117500", "092433.577500", "092434.037500", "092434.497500", "092434.957500", "092435.417500", "092435.877500", "092436.337500", "092436.797500", "092437.257500", "092437.717500", "092438.177500", "092438.637500", "092439.097500", "092439.557500", "092440.017500", "092440.477500", "092440.937500", "092441.397500", "092441.857500", "092442.317500", "092442.777500", "092443.237500", "092443.697500", "092444.157500", "092444.617500", "092445.077500", "092445.537500", "092445.997500", "092446.457500", "092446.917500", "092447.377500", "092447.837500", "092448.297500", "092448.757500", "092449.217500", "092449.677500", "092450.137500", "092450.597500", "092451.057500", "092451.517500", "092451.977500", "092452.437500", "092452.897500", "092453.357500", "092453.817500", "092454.277500", "092454.737500", "092455.197500", "092455.657500", "092456.117500", "092456.577500", "092457.037500", "092457.497500", "092457.957500", "092458.417500", "092458.877500", "092459.337500", "092459.797500", "092500.257500", "092500.717500", "092501.177500", "092501.637500", "092502.097500", "092502.557500", "092503.017500", "092503.477500", "092503.937500", "092504.397500", "092504.857500", "092505.317500", "092505.777500", "092506.237500", "092506.697500", "092507.157500", "092507.617500", "092508.077500", "092508.537500", "092508.997500", "092509.457500", "092509.917500", "092510.377500", "092510.837500", "092511.297500", "092511.757500", "092512.217500", "092512.677500", "092513.137500", "092513.597500", "092514.057500", "092514.517500", "092514.977500", "092515.437500", "092515.897500", "092516.357500", "092516.817500", "092517.277500", "092517.737500", "092518.197500", "092518.657500", "092519.117500", "092519.577500", "092520.037500", "092520.497500", "092520.957500", "092521.417500", "092521.877500", "092522.337500", "092522.797500", "092523.257500", "092523.717500", "092524.177500", "092524.637500", "092525.097500", "092525.557500", "092526.017500", "092526.477500", "092526.937500", "092527.397500", "092527.857500", "092528.317500", "092528.777500", "092529.237500", "092529.697500", "092530.157500", "092530.617500", "092531.077500", "092531.537500", "092531.997500", "092532.457500", "092532.917500", "092533.377500", "092533.837500", "092534.297500", "092534.757500", "092535.217500", "092535.677500", "092536.137500", "092536.597500", "092537.057500", "092537.517500", "092537.977500", "092538.437500", "092538.897500", "092539.357500", "092539.817500", "092540.277500", "092540.737500", "092541.197500", "092541.657500", "092542.117500", "092542.577500", "092543.037500", "092543.497500", "092543.957500", "092544.417500", "092544.877500", "092545.337500", "092545.797500", "092546.257500", "092546.717500", "092547.177500", "092547.637500", "092548.097500", "092548.557500", "092549.017500", "092549.477500", "092549.937500", "092550.397500", "092550.857500", "092551.317500", "092551.777500", "092552.237500", "092552.697500", "092553.157500", "092553.617500", "092554.077500", "092554.537500", "092554.997500", "092555.457500", "092555.917500", "092556.377500", "092556.837500", "092557.297500", "092557.757500", "092558.217500", "092558.677500", "092559.137500", "092559.597500", "092600.057500", "092600.517500", "092600.977500", "092601.437500", "092601.897500", "092602.357500", "092602.817500", "092603.277500", "092603.737500", "092604.197500", "092604.657500", "092605.117500", "092605.577500", "092606.037500", "092606.497500", "092606.957500", "092607.417500", "092607.877500", "092608.337500", "092608.797500", "092609.257500", "092609.717500", "092610.177500", "092610.637500", "092611.097500", "092611.557500", "092612.017500", "092612.477500", "092612.937500", "092613.397500", "092613.857500", "092614.317500", "092614.777500", "092615.237500", "092615.697500", "092616.157500", "092616.617500", "092617.077500", "092617.537500", "092617.997500", "092618.457500", "092618.917500", "092619.377500", "092619.837500", "092620.297500", "092620.757500", "092621.217500", "092621.677500", "092622.137500", "092622.597500", "092623.057500", "092623.517500", "092623.977500", "092624.437500", "092624.897500", "092625.357500", "092625.817500", "092626.277500", "092626.737500", "092627.197500", "092627.657500", "092628.117500", "092628.577500", "092629.037500", "092629.497500", "092629.957500", "092630.417500", "092630.877500", "092631.337500", "092631.797500", "092632.257500", "092632.717500", "092633.177500", "092633.637500", "092634.097500", "092634.557500", "092635.017500", "092635.477500", "092635.937500", "092636.397500", "092636.857500", "092637.317500", "092637.777500", "092638.237500", "092638.697500", "092639.157500", "092639.617500", "092640.077500", "092640.537500", "092640.997500", "092641.457500", "092641.917500", "092642.377500", "092642.837500", "092643.297500", "092643.757500", "092644.217500", "092644.677500", "092645.137500", "092645.597500", "092646.057500", "092646.517500", "092646.977500", "092647.437500", "092647.897500", "092648.357500", "092648.817500", "092649.277500", "092649.737500", "092650.197500", "092650.657500", "092651.117500", "092651.577500", "092652.037500", "092652.497500", "092652.957500", "092653.417500", "092653.877500", "092654.337500", "092654.797500", "092655.257500", "092655.717500", "092656.177500", "092656.637500", "092657.097500", "092657.557500", "092658.017500", "092658.477500", "092658.937500", "092659.397500", "092659.857500", "092700.317500", "092700.777500", "092701.237500", "092701.697500", "092702.157500", "092702.617500", "092703.077500", "092703.537500", "092703.997500", "092704.457500", "092704.917500", "092705.377500", "092705.837500", "092706.297500", "092706.757500", "092707.217500", "092707.677500", "092708.137500", "092708.597500", "092709.057500", "092709.517500", "092709.977500", "092710.437500", "092710.897500", "092711.357500", "092711.817500", "092712.277500", "092712.737500", "092713.197500", "092713.657500", "092714.117500", "092714.577500", "092715.037500", "092715.497500", "092715.957500", "092716.417500", "092716.877500", "092717.337500", "092717.797500", "092718.257500", "092718.717500", "092719.177500", "092719.637500", "092720.097500", "092720.557500", "092721.017500", "092721.477500", "092721.937500", "092722.397500", "092722.857500", "092723.317500", "092723.777500", "092724.237500", "092724.697500", "092725.157500", "092725.617500", "092726.077500", "092726.537500", "092726.997500", "092727.457500", "092727.917500", "092728.377500", "092728.837500", "092729.297500", "092729.757500", "092730.217500", "092730.677500", "092731.137500", "092731.597500", "092732.057500", "092732.517500", "092732.977500", "092733.437500", "092733.897500", "092734.357500", "092734.817500", "092735.277500", "092735.737500", "092736.197500", "092736.657500", "092737.117500", "092737.577500", "092738.037500", "092738.497500", "092738.957500", "092739.417500", "092739.877500", "092740.337500", "092740.797500", "092741.257500", "092741.717500", "092742.177500", "092742.637500", "092743.097500", "092743.557500", "092744.017500", "092744.477500", "092744.937500", "092745.397500", "092745.857500", "092746.317500", "092746.777500", "092747.237500", "092747.697500", "092748.157500", "092748.617500", "092749.077500", "092749.537500", "092749.997500", "092750.457500", "092750.917500", "092751.377500", "092751.837500", "092752.297500", "092752.757500", "092753.217500", "092753.677500", "092754.137500", "092754.597500", "092755.057500", "092755.517500", "092755.977500", "092756.437500", "092756.897500", "092757.357500", "092757.817500", "092758.277500", "092758.737500", "092759.197500", "092759.657500", "092800.117500", "092800.577500", "092801.037500", "092801.497500", "092801.957500", "092802.417500", "092802.877500", "092803.337500", "092803.797500", "092804.257500", "092804.717500", "092805.177500", "092805.637500", "092806.097500", "092806.557500", "092807.017500", "092807.477500", "092807.937500", "092808.397500", "092808.857500", "092809.317500", "092809.777500", "092810.237500", "092810.697500", "092811.157500", "092811.617500", "092812.077500", "092812.537500", "092812.997500", "092813.457500", "092813.917500", "092814.377500", "092814.837500", "092815.297500", "092815.757500", "092816.217500", "092816.677500", "092817.137500", "092817.597500", "092818.057500", "092818.517500", "092818.977500", "092819.437500", "092819.897500", "092820.357500", "092820.817500", "092821.277500", "092821.737500", "092822.197500", "092822.657500", "092823.117500", "092823.577500", "092824.037500", "092824.497500", "092824.957500", "092825.417500", "092825.877500", "092826.337500", "092826.797500", "092827.257500", "092827.717500", "092828.177500", "092828.637500", "092829.097500", "092829.557500", "092830.017500", "092830.477500", "092830.937500", "092831.397500", "092831.857500", "092832.317500", "092832.777500", "092833.237500", "092833.697500", "092834.157500", "092834.617500", "092835.077500", "092835.537500", "092835.997500", "092836.457500", "092836.917500", "092837.377500", "092837.837500", "092838.297500", "092838.757500", "092839.217500", "092839.677500", "092840.137500", "092840.597500", "092841.057500", "092841.517500", "092841.977500", "092842.437500", "092842.897500", "092843.357500", "092843.817500", "092844.277500", "092844.737500", "092845.197500", "092845.657500", "092846.117500", "092846.577500"],
