{
  "AcquisitionMatrixPE": 140,
  "AcquisitionNumber": 1,
  "AcquisitionTime": "10:49:23.047500",
  "BandwidthPerPixelPhaseEncode": 10.352,
  "BaseResolution": 140,
  "BodyPartExamined": "BRAIN",
  "ConsistencyInfo": "N4_VE11E_LATEST_20181129",
  "ConversionSoftware": "dcm2niix",
  "ConversionSoftwareVersion": "v1.0.20201102",
  "DerivedVendorReportedEchoSpacing": 0.000689998,
  "DeviceSerialNumber": "66112",
  "DiffusionScheme": "Monopolar",
  "DwellTime": 2.1e-06,
  "EchoTime": 0.0884,
  "EchoTrainLength": 105,
  "EffectiveEchoSpacing": 0.000689998,
  "FlipAngle": 90,
  "ImageComments": "Unaliased MB3/PE3 SENSE1",
  "ImageOrientationPatientDICOM": [0.999072, -0.0239421, 0.0358103, 0.019532, 0.992727, 0.118794],
  "ImageType": [
    "ORIGINAL",
    "PRIMARY",
    "DIFFUSION",
    "NONE",
    "MB",
    "ND",
    "MOSAIC"
],
  "ImagingFrequency": 123.252,
  "InPlanePhaseEncodingDirectionDICOM": "COL",
  "InstitutionAddress": "Maynard 3,Hanover,NH,US,03755",
  "InstitutionName": "Dartmouth College - PBS",
  "InstitutionalDepartmentName": "Department",
  "MRAcquisitionType": "2D",
  "MagneticFieldStrength": 3,
  "Manufacturer": "Siemens",
  "ManufacturersModelName": "Prisma",
  "Modality": "MR",
  "MultibandAccelerationFactor": 3,
  "PartialFourier": 0.75,
  "PatientPosition": "HFS",
  "PercentPhaseFOV": 100,
  "PercentSampling": 100,
  "PhaseEncodingDirection": "j-",
  "PhaseEncodingSteps": 105,
  "PhaseResolution": 1,
  "PixelBandwidth": 1700,
  "ProcedureStepDescription": "Wager_Wager^1076_spacetop",
  "ProtocolName": "dwi_acq-96dir-6b0-mb",
  "PulseSequenceDetails": "%CustomerSeq%\\cmrr_mbep2d_diff",
  "ReceiveCoilActiveElements": "HEA;HEP",
  "ReceiveCoilName": "Head_32",
  "ReconMatrixPE": 140,
  "RepetitionTime": 4.11,
  "SAR": 0.252006,
  "ScanOptions": "PFP\\FS",
  "ScanningSequence": "EP",
  "SequenceName": "ep_b5#1",
  "SequenceVariant": "SK\\SS",
  "SeriesDescription": "dwi_acq-96dir-6b0-mb",
  "SeriesNumber": 8,
  "ShimSetting": [4158, -7753, -7260, 561, -73, -206, -5, 19],
  "SliceThickness": 1.7,
  "SliceTiming": [0, 2.12, 0.15, 2.2725, 0.3025, 2.4225, 0.455, 2.575, 0.605, 2.725, 0.7575, 2.8775, 0.9075, 3.03, 1.06, 3.18, 1.2125, 3.3325, 1.3625, 3.4825, 1.515, 3.635, 1.665, 3.7875, 1.8175, 3.9375, 1.97, 0, 2.12, 0.15, 2.2725, 0.3025, 2.4225, 0.455, 2.575, 0.605, 2.725, 0.7575, 2.8775, 0.9075, 3.03, 1.06, 3.18, 1.2125, 3.3325, 1.3625, 3.4825, 1.515, 3.635, 1.665, 3.7875, 1.8175, 3.9375, 1.97, 0, 2.12, 0.15, 2.2725, 0.3025, 2.4225, 0.455, 2.575, 0.605, 2.725, 0.7575, 2.8775, 0.9075, 3.03, 1.06, 3.18, 1.2125, 3.3325, 1.3625, 3.4825, 1.515, 3.635, 1.665, 3.7875, 1.8175, 3.9375, 1.97],
  "SoftwareVersions": "syngo MR E11",
  "SpacingBetweenSlices": 1.7,
  "StationName": "AWP66112",
  "TotalReadoutTime": 0.0959097,
  "TxRefAmp": 246.974,
  "WipMemBlock": "3ef0edcc-851c-4429-a94e-c8b1171c1159||Sequence: R016 ve11e/master r/434b28f1; Aug  7 2019 19:06:17 by eja",
  "dcmmeta_affine": [
    [-1.712694525718689, 0.03348349407315254, 0.06526988744735718, 115.6980209350586],
    [0.04104360565543175, 1.7018173933029175, 0.20057354867458344, -104.75990295410156],
    [0.06138913333415985, -0.20364713668823242, 1.686863899230957, -49.752418518066406],
    [0.0, 0.0, 0.0, 1.0]
],
  "dcmmeta_reorient_transform": [
    [0.0, -1.0, 0.0, 139.0],
    [1.0, 0.0, 0.0, 0.0],
    [0.0, 0.0, 1.0, 0.0],
    [0.0, 0.0, 0.0, 1.0]
],
  "dcmmeta_shape": [140, 140, 81, 103],
  "dcmmeta_slice_dim": 2,
  "dcmmeta_version": 0.6,
  "global": {
    "const": {
      "AccessionNumber": "A003885",
      "AcquisitionMatrix": [140, 0, 0, 140],
      "AngioFlag": "N",
      "BitsAllocated": 16,
      "BitsStored": 16,
      "BodyPartExamined": "BRAIN",
      "Columns": 1260,
      "EchoNumbers": 1,
      "EchoTime": 88.4,
      "EchoTrainLength": 105,
      "FlipAngle": 90.0,
      "HighBit": 15,
      "ImageOrientationPatient": [0.99907176730808, -0.0239421021216, 0.03581032691723, 0.01953203840534, 0.99272677373111, 0.11879415891848],
      "ImagePositionPatient": [-1098.2118936524, -1061.8260022944, -226.47967848409],
      "ImageType": [
        "ORIGINAL",
        "PRIMARY",
        "DIFFUSION",
        "NONE",
        "MB",
        "ND",
        "MOSAIC"
],
      "ImagedNucleus": "1H",
      "ImagingFrequency": 123.252145,
      "InPlanePhaseEncodingDirection": "COL",
      "MRAcquisitionType": "2D",
      "MagneticFieldStrength": 3.0,
      "Manufacturer": "SIEMENS",
      "ManufacturerModelName": "Prisma",
      "Modality": "MR",
      "NumberOfAverages": 1.0,
      "NumberOfPhaseEncodingSteps": 105,
      "PercentPhaseFieldOfView": 100.0,
      "PercentSampling": 100.0,
      "PerformedProcedureStepStartTime": "102705.344000",
      "PhotometricInterpretation": "MONOCHROME2",
      "PixelBandwidth": 1700.0,
      "PixelRepresentation": 0,
      "PixelSpacing": [1.7142857313156, 1.7142857313156],
      "ProtocolName": "dwi_acq-96dir-6b0-mb",
      "RepetitionTime": 4110.0,
      "Rows": 1260,
      "SAR": 0.25200590072836,
      "SamplesPerPixel": 1,
      "ScanOptions": [
        "PFP",
        "FS"
],
      "ScanningSequence": "EP",
      "SequenceVariant": [
        "SK",
        "SS"
],
      "SeriesDescription": "dwi_acq-96dir-6b0-mb",
      "SeriesNumber": 8,
      "SeriesTime": "105053.505000",
      "SliceLocation": -57.285901497017,
      "SliceThickness": 1.7000000476837,
      "SmallestImagePixelValue": 0,
      "SoftwareVersions": "syngo MR E11",
      "SpacingBetweenSlices": 1.6999999657135,
      "SpecificCharacterSet": "ISO_IR 100",
      "StudyID": "1",
      "StudyTime": "102705.293000",
      "TransmitCoilName": "Body",
      "VariableFlipAngleFlag": "N",
      "WindowCenterWidthExplanation": "Algo1"
    },
    "slices": {}
  },
  "time": {
    "samples": {
      "AcquisitionNumber": [1, 2, 3, 4, 5, 6, 7, 8, 9, 10, 11, 12, 13, 14, 15, 16, 17, 18, 19, 20, 21, 22, 23, 24, 25, 26, 27, 28, 29, 30, 31, 32, 33, 34, 35, 36, 37, 38, 39, 40, 41, 42, 43, 44, 45, 46, 47, 48, 49, 50, 51, 52, 53, 54, 55, 56, 57, 58, 59, 60, 61, 62, 63, 64, 65, 66, 67, 68, 69, 70, 71, 72, 73, 74, 75, 76, 77, 78, 79, 80, 81, 82, 83, 84, 85, 86, 87, 88, 89, 90, 91, 92, 93, 94, 95, 96, 97, 98, 99, 100, 101, 102, 103],
      "AcquisitionTime": ["104923.047500", "104927.157500", "104931.267500", "104935.377500", "104939.487500", "104943.597500", "104947.707500", "104951.817500", "104955.927500", "105000.037500", "105004.147500", "105008.257500", "105012.367500", "105016.477500", "105020.587500", "105024.697500", "105028.807500", "105032.917500", "105037.027500", "105041.137500", "105045.247500", "105049.357500", "105053.467500", "105057.577500", "105101.687500", "105105.797500", "105109.907500", "105114.017500", "105118.127500", "105122.237500", "105126.347500", "105130.457500", "105134.567500", "105138.677500", "105142.787500", "105146.897500", "105151.007500", "105155.117500", "105159.227500", "105203.337500", "105207.447500", "105211.557500", "105215.667500", "105219.777500", "105223.887500", "105227.997500", "105232.107500", "105236.217500", "105240.327500", "105244.437500", "105248.547500", "105252.657500", "105256.767500", "105300.877500", "105304.987500", "105309.097500", "105313.207500", "105317.317500", "105321.427500", "105325.537500", "105329.647500", "105333.757500", "105337.867500", "105341.977500", "105346.087500", "105350.197500", "105354.307500", "105358.417500", "105402.527500", "105406.637500", "105410.747500", "105414.857500", "105418.967500", "105423.077500", "105427.187500", "105431.297500", "105435.407500", "105439.517500", "105443.627500", "105447.737500", "105451.847500", "105455.957500", "105500.067500", "105504.177500", "105508.287500", "105512.397500", "105516.507500", "105520.617500", "105524.727500", "105528.837500", "105532.947500", "105537.057500", "105541.167500", "105545.277500", "105549.387500", "105553.497500", "105557.607500", "105601.717500", "105605.827500", "105609.937500", "105614.047500", "105618.157500", "105622.267500"],
      "ContentTime": ["105053.508000", "105053.512000", "105053.515000", "105053.525000", "105053.528000", "105053.531000", "105053.533000", "105053.542000", "105053.545000", "105053.548000", "105053.551000", "105053.554000", "105053.557000", "105053.561000", "105053.564000", "105053.567000", "105053.570000", "105053.573000", "105053.576000", "105053.579000", "105053.582000", "105133.504000", "105133.507000", "105133.510000", "105133.513000", "105133.516000", "105133.519000", "105133.522000", "105133.525000", "105133.528000", "105133.531000", "105253.504000", "105253.507000", "105253.510000", "105253.513000", "105253.520000", "105253.523000", "105253.526000", "105253.529000", "105253.532000", "105253.535000", "105253.538000", "105253.541000", "105253.544000", "105253.547000", "105253.550000", "105253.553000", "105253.556000", "105253.559000", "105253.562000", "105253.565000", "105433.504000", "105433.507000", "105433.510000", "105433.513000", "105433.516000", "105433.519000", "105433.522000", "105433.525000", "105433.528000", "105433.531000", "105433.534000", "105433.537000", "105433.540000", "105433.543000", "105433.546000", "105433.549000", "105433.552000", "105433.555000", "105433.558000", "105433.561000", "105433.564000", "105433.567000", "105433.570000", "105433.573000", "105613.504000", "105613.507000", "105613.510000", "105613.513000", "105613.516000", "105613.519000", "105613.522000", "105613.525000", "105613.528000", "105613.531000", "105613.534000", "105613.537000", "105613.540000", "105613.543000", "105613.546000", "105613.549000", "105613.552000", "105613.555000", "105613.558000", "105613.561000", "105613.564000", "105613.567000", "105613.570000", "105613.573000", "105626.918000", "105626.922000", "105626.925000", "105626.928000"],
      "InstanceCreationTime": ["105053.508000", "105053.512000", "105053.515000", "105053.525000", "105053.528000", "105053.531000", "105053.533000", "105053.542000", "105053.545000", "105053.548000", "105053.551000", "105053.554000", "105053.557000", "105053.561000", "105053.564000", "105053.567000", "105053.570000", "105053.573000", "105053.576000", "105053.579000", "105053.582000", "105133.504000", "105133.507000", "105133.510000", "105133.513000", "105133.516000", "105133.519000", "105133.522000", "105133.525000", "105133.528000", "105133.531000", "105253.504000", "105253.507000", "105253.510000", "105253.513000", "105253.520000", "105253.523000", "105253.526000", "105253.529000", "105253.532000", "105253.535000", "105253.538000", "105253.541000", "105253.544000", "105253.547000", "105253.550000", "105253.553000", "105253.556000", "105253.559000", "105253.562000", "105253.565000", "105433.504000", "105433.507000", "105433.510000", "105433.513000", "105433.516000", "105433.519000", "105433.522000", "105433.525000", "105433.528000", "105433.531000", "105433.534000", "105433.537000", "105433.540000", "105433.543000", "105433.546000", "105433.549000", "105433.552000", "105433.555000", "105433.558000", "105433.561000", "105433.564000", "105433.567000", "105433.570000", "105433.573000", "105613.504000", "105613.507000", "105613.510000", "105613.513000", "105613.516000", "105613.519000", "105613.522000", "105613.525000", "105613.528000", "105613.531000", "105613.534000", "105613.537000", "105613.540000", "105613.543000", "105613.546000", "105613.549000", "105613.552000", "105613.555000", "105613.558000", "105613.561000", "105613.564000", "105613.567000", "105613.570000", "105613.573000", "105626.918000", "105626.922000", "105626.925000", "105626.928000"],
      "InstanceNumber": [1, 2, 3, 4, 5, 6, 7, 8, 9, 10, 11, 12, 13, 14, 15, 16, 17, 18, 19, 20, 21, 22, 23, 24, 25, 26, 27, 28, 29, 30, 31, 32, 33, 34, 35, 36, 37, 38, 39, 40, 41, 42, 43, 44, 45, 46, 47, 48, 49, 50, 51, 52, 53, 54, 55, 56, 57, 58, 59, 60, 61, 62, 63, 64, 65, 66, 67, 68, 69, 70, 71, 72, 73, 74, 75, 76, 77, 78, 79, 80, 81, 82, 83, 84, 85, 86, 87, 88, 89, 90, 91, 92, 93, 94, 95, 96, 97, 98, 99, 100, 101, 102, 103],
      "LargestImagePixelValue": [65535, 65535, 58808, 59076, 58698, 58524, 55638, 60919, 65535, 41359, 41080, 40873, 41160, 40748, 39425, 40389, 39806, 39705, 40310, 40347, 36570, 39793, 43205, 38450, 65535, 22405, 23653, 18021, 20427, 20095, 20079, 21520, 21596, 20213, 19279, 23635, 23139, 20603, 19721, 21239, 65535, 11951, 12344, 13993, 11294, 10691, 11172, 10466, 12877, 14279, 10675, 11372, 14274, 14663, 12767, 13393, 15413, 11155, 12573, 13246, 12347, 13785, 10852, 11451, 10454, 11618, 13479, 10618, 11658, 12647, 12702, 10799, 11050, 65535, 11134, 11548, 12778, 13469, 11479, 12650, 13869, 13177, 10690, 12680, 11834, 14449, 11709, 11817, 11355, 11655, 12256, 11152, 12619, 10363, 13731, 14927, 10558, 10614, 11017, 13449, 13380, 12478, 65535],
      "SequenceName": [
 "ep_b5#1",
 "ep_b5#1",
 "ep_b500#2",
 "ep_b500#3",
 "ep_b500#4",
 "ep_b505#5",
 "ep_b495#6",
 "ep_b500#7",
 "ep_b5#8",
 "ep_b1000#9",
 "ep_b1005#10",
 "ep_b995#11",
 "ep_b1005#12",
 "ep_b995#13",
 "ep_b995#14",
 "ep_b1005#15",
 "ep_b1000#16",
 "ep_b1000#17",
 "ep_b995#18",
 "ep_b1000#19",
 "ep_b995#20",
 "ep_b1000#21",
 "ep_b1005#22",
 "ep_b1005#23",
 "ep_b5#24",
 "ep_b2000#25",
 "ep_b1995#26",
 "ep_b1990#27",
 "ep_b1995#28",
 "ep_b2005#29",
 "ep_b2010#30",
 "ep_b2000#31",
 "ep_b2005#32",
 "ep_b1995#33",
 "ep_b1995#34",
 "ep_b1995#35",
 "ep_b2005#36",
 "ep_b2000#37",
 "ep_b2010#38",
 "ep_b1995#39",
 "ep_b5#40",
 "ep_b3000#41",
 "ep_b3005#42",
 "ep_b3010#43",
 "ep_b3010#44",
 "ep_b3000#45",
 "ep_b3000#46",
 "ep_b2990#47",
 "ep_b3005#48",
 "ep_b3000#49",
 "ep_b2990#50",
 "ep_b2990#51",
 "ep_b2995#52",
 "ep_b2995#53",
 "ep_b3010#54",
 "ep_b3000#55",
 "ep_b2995#56",
 "ep_b3000#57",
 "ep_b2990#58",
 "ep_b2990#59",
 "ep_b3000#60",
 "ep_b2990#61",
 "ep_b2990#62",
 "ep_b2995#63",
 "ep_b3005#64",
 "ep_b3010#65",
 "ep_b3000#66",
 "ep_b3005#67",
 "ep_b3010#68",
 "ep_b3005#69",
 "ep_b3005#70",
 "ep_b3005#71",
 "ep_b2990#72",
 "ep_b5#73",
 "ep_b3010#74",
 "ep_b3000#75",
 "ep_b3005#76",
 "ep_b3000#77",
 "ep_b2995#78",
 "ep_b3005#79",
 "ep_b2995#80",
 "ep_b3010#81",
 "ep_b3010#82",
 "ep_b3005#83",
 "ep_b3000#84",
 "ep_b3000#85",
 "ep_b3010#86",
 "ep_b3010#87",
 "ep_b2990#88",
 "ep_b3010#89",
 "ep_b2990#90",
 "ep_b2995#91",
 "ep_b2995#92",
 "ep_b2995#93",
 "ep_b3005#94",
 "ep_b3005#95",
 "ep_b2995#96",
 "ep_b3000#97",
 "ep_b2990#98",
 "ep_b3000#99",
 "ep_b3000#100",
 "ep_b2995#101",
 "ep_b5#102"
],
      "WindowCenter": [11136.0, 11152.0, 8030.0, 8056.0, 8033.0, 7947.0, 8054.0, 8049.0, 11140.0, 6113.0, 5992.0, 6072.0, 6008.0, 6037.0, 6039.0, 6016.0, 6072.0, 6034.0, 6090.0, 6078.0, 6069.0, 6037.0, 6049.0, 6037.0, 11129.0, 3914.0, 3896.0, 3752.0, 3909.0, 3811.0, 3773.0, 3861.0, 3790.0, 3890.0, 3850.0, 3915.0, 3822.0, 3847.0, 3819.0, 3824.0, 11139.0, 2703.0, 2638.0, 2723.0, 2622.0, 2663.0, 2693.0, 2660.0, 2640.0, 2714.0, 2584.0, 2633.0, 2754.0, 2771.0, 2704.0, 2684.0, 2793.0, 2648.0, 2702.0, 2684.0, 2683.0, 2710.0, 2684.0, 2694.0, 2670.0, 2667.0, 2709.0, 2661.0, 2660.0, 2710.0, 2698.0, 2683.0, 2667.0, 11130.0, 2612.0, 2661.0, 2625.0, 2709.0, 2608.0, 2668.0, 2680.0, 2641.0, 2650.0, 2648.0, 2713.0, 2755.0, 2604.0, 2603.0, 2639.0, 2607.0, 2697.0, 2622.0, 2656.0, 2668.0, 2705.0, 2762.0, 2688.0, 2641.0, 2644.0, 2677.0, 2731.0, 2720.0, 11099.0],
      "WindowWidth": [25415.0, 25474.0, 16949.0, 17006.0, 16949.0, 16794.0, 17019.0, 16974.0, 25440.0, 12985.0, 12799.0, 12920.0, 12811.0, 12879.0, 12882.0, 12830.0, 12914.0, 12863.0, 12943.0, 12921.0, 12932.0, 12856.0, 12876.0, 12850.0, 25407.0, 8729.0, 8684.0, 8467.0, 8721.0, 8563.0, 8488.0, 8631.0, 8516.0, 8701.0, 8636.0, 8728.0, 8559.0, 8609.0, 8571.0, 8571.0, 25421.0, 6445.0, 6266.0, 6430.0, 6245.0, 6378.0, 6407.0, 6346.0, 6272.0, 6429.0, 6178.0, 6254.0, 6506.0, 6547.0, 6417.0, 6365.0, 6577.0, 6307.0, 6392.0, 6345.0, 6360.0, 6397.0, 6392.0, 6409.0, 6371.0, 6348.0, 6410.0, 6368.0, 6354.0, 6448.0, 6426.0, 6392.0, 6342.0, 25399.0, 6232.0, 6333.0, 6240.0, 6408.0, 6224.0, 6328.0, 6349.0, 6267.0, 6347.0, 6304.0, 6462.0, 6513.0, 6208.0, 6205.0, 6291.0, 6215.0, 6417.0, 6253.0, 6301.0, 6398.0, 6392.0, 6505.0, 6415.0, 6309.0, 6308.0, 6336.0, 6467.0, 6455.0, 25305.0]
    },
    "slices": {}
  }
}