{
  "AcquisitionMatrixPE": 82,
  "AcquisitionNumber": 1,
  "AcquisitionTime": "10:08:23.420000",
  "BandwidthPerPixelPhaseEncode": 24.888,
  "BaseResolution": 82,
  "BodyPartExamined": "BRAIN",
  "ConsistencyInfo": "N4_VE11C_LATEST_20160120",
  "ConversionSoftware": "dcm2niix",
  "ConversionSoftwareVersion": "v1.0.20201102",
  "DerivedVendorReportedEchoSpacing": 0.00049,
  "DeviceSerialNumber": "66112",
  "DwellTime": 2e-06,
  "EchoTime": 0.0272,
  "EchoTrainLength": 82,
  "EffectiveEchoSpacing": 0.00049,
  "FlipAngle": 44,
  "ImageComments": "Unaliased MB8/PE3",
  "ImageOrientationPatientDICOM": [0.999623, 0.00673278, 0.0266208, -0.00907249, 0.996011, 0.0887707],
  "ImageType": [
    "ORIGINAL",
    "PRIMARY",
    "M",
    "MB",
    "ND",
    "NORM",
    "MOSAIC"
],
  "ImagingFrequency": 123.252,
  "InPlanePhaseEncodingDirectionDICOM": "COL",
  "InstitutionAddress": "Maynard 3,Hanover,NH,US,03755",
  "InstitutionName": "Dartmouth College - PBS",
  "InstitutionalDepartmentName": "Department",
  "MRAcquisitionType": "2D",
  "MagneticFieldStrength": 3,
  "Manufacturer": "Siemens",
  "ManufacturersModelName": "Prisma",
  "Modality": "MR",
  "MultibandAccelerationFactor": 8,
  "PartialFourier": 1,
  "PatientPosition": "HFS",
  "PercentPhaseFOV": 100,
  "PercentSampling": 100,
  "PhaseEncodingDirection": "j-",
  "PhaseEncodingSteps": 82,
  "PhaseResolution": 1,
  "PixelBandwidth": 3050,
  "ProcedureStepDescription": "Wager_Wager^1076_spacetop",
  "ProtocolName": "func_run-02_task-faces_acq-ap-mb8",
  "PulseSequenceDetails": "%CustomerSeq%\\cmrr_mbep2d_bold",
  "ReceiveCoilActiveElements": "HEA;HEP",
  "ReceiveCoilName": "Head_32",
  "ReconMatrixPE": 82,
  "RepetitionTime": 0.46,
  "SAR": 0.0719628,
  "ScanOptions": "FS",
  "ScanningSequence": "EP",
  "SequenceName": "epfid2d1_82",
  "SequenceVariant": "SK\\SS",
  "SeriesDescription": "func_run-02_task-faces_acq-ap-mb8",
  "SeriesNumber": 20,
  "ShimSetting": [4151, -7758, -7269, 567, -119, -214, -23, 98],
  "SliceThickness": 2.7,
  "SliceTiming": [0, 0.2525, 0.0625, 0.315, 0.1275, 0.3775, 0.19, 0, 0.2525, 0.0625, 0.315, 0.1275, 0.3775, 0.19, 0, 0.2525, 0.0625, 0.315, 0.1275, 0.3775, 0.19, 0, 0.2525, 0.0625, 0.315, 0.1275, 0.3775, 0.19, 0, 0.2525, 0.0625, 0.315, 0.1275, 0.3775, 0.19, 0, 0.2525, 0.0625, 0.315, 0.1275, 0.3775, 0.19, 0, 0.2525, 0.0625, 0.315, 0.1275, 0.3775, 0.19, 0, 0.2525, 0.0625, 0.315, 0.1275, 0.3775, 0.19],
  "SoftwareVersions": "syngo MR E11",
  "SpacingBetweenSlices": 2.7,
  "StationName": "AWP66112",
  "TaskName": "faces",
  "TotalReadoutTime": 0.03969,
  "TxRefAmp": 231.28,
  "WipMemBlock": "30a541ad-468a-4732-86c7-5e1658967972||Sequence: R016 ve11c/master r/e634e98; Dec 19 2017 11:00:25 by eja",
  "dcmmeta_affine": [
    [-2.681915283203125, -0.024340836331248283, 0.06997577846050262, 110.39820098876953],
    [-0.018063563853502274, 2.6722240447998047, 0.24024254083633423, -96.45462799072266],
    [0.07142172753810883, -0.2381652295589447, 2.688380002975464, -73.52365112304688],
    [0.0, 0.0, 0.0, 1.0]
],
  "dcmmeta_reorient_transform": [
    [0.0, -1.0, 0.0, 81.0],
    [1.0, 0.0, 0.0, 0.0],
    [0.0, 0.0, 1.0, 0.0],
    [0.0, 0.0, 0.0, 1.0]
],
  "dcmmeta_shape": [82, 82, 56, 914],
  "dcmmeta_slice_dim": 2,
  "dcmmeta_version": 0.6,
  "global": {
    "const": {
      "AccessionNumber": "A003824",
      "AcquisitionMatrix": [82, 0, 0, 82],
      "AngioFlag": "N",
      "BitsAllocated": 16,
      "BitsStored": 16,
      "BodyPartExamined": "BRAIN",
      "Columns": 656,
      "EchoNumbers": 1,
      "EchoTime": 27.2,
      "EchoTrainLength": 82,
      "FlipAngle": 44.0,
      "HighBit": 15,
      "ImageOrientationPatient": [0.99962292958182, 0.00673278240492, 0.02662082446791, -0.0090724932468, 0.99601077185587, 0.08877067203398],
      "ImagePositionPatient": [-871.15044483222, -892.1080753275, -181.66649047305],
      "ImageType": [
        "ORIGINAL",
        "PRIMARY",
        "M",
        "MB",
        "ND",
        "NORM",
        "MOSAIC"
],
      "ImagedNucleus": "1H",
      "ImagingFrequency": 123.252242,
      "InPlanePhaseEncodingDirection": "COL",
      "MRAcquisitionType": "2D",
      "MagneticFieldStrength": 3.0,
      "Manufacturer": "SIEMENS",
      "ManufacturerModelName": "Prisma",
      "Modality": "MR",
      "NumberOfAverages": 1.0,
      "NumberOfPhaseEncodingSteps": 82,
      "PercentPhaseFieldOfView": 100.0,
      "PercentSampling": 100.0,
      "PerformedProcedureStepStartTime": "084139.568000",
      "PhotometricInterpretation": "MONOCHROME2",
      "PixelBandwidth": 3050.0,
      "PixelRepresentation": 0,
      "PixelSpacing": [2.6829268932343, 2.6829268932343],
      "ProtocolName": "func_run-02_task-faces_acq-ap-mb8",
      "RepetitionTime": 460.0,
      "Rows": 656,
      "SAR": 0.07196281947862,
      "SamplesPerPixel": 1,
      "ScanOptions": "FS",
      "ScanningSequence": "EP",
      "SequenceName": "epfid2d1_82",
      "SequenceVariant": [
        "SK",
        "SS"
],
      "SeriesDescription": "func_run-02_task-faces_acq-ap-mb8",
      "SeriesNumber": 20,
      "SeriesTime": "100841.284000",
      "SliceLocation": -78.928452573775,
      "SliceThickness": 2.7000000476837,
      "SmallestImagePixelValue": 0,
      "SoftwareVersions": "syngo MR E11",
      "SpacingBetweenSlices": 2.7000000365344,
      "SpecificCharacterSet": "ISO_IR 100",
      "StudyID": "2",
      "StudyTime": "084139.462000",
      "TransmitCoilName": "Body",
      "VariableFlipAngleFlag": "N",
      "WindowCenterWidthExplanation": "Algo1",
      "dBdt": 0.0},
    "slices": {}
  },
  "time": {
    "samples": {
      "AcquisitionNumber": [1, 2, 3, 4, 5, 6, 7, 8, 9, 10, 11, 12, 13, 14, 15, 16, 17, 18, 19, 20, 21, 22, 23, 24, 25, 26, 27, 28, 29, 30, 31, 32, 33, 34, 35, 36, 37, 38, 39, 40, 41, 42, 43, 44, 45, 46, 47, 48, 49, 50, 51, 52, 53, 54, 55, 56, 57, 58, 59, 60, 61, 62, 63, 64, 65, 66, 67, 68, 69, 70, 71, 72, 73, 74, 75, 76, 77, 78, 79, 80, 81, 82, 83, 84, 85, 86, 87, 88, 89, 90, 91, 92, 93, 94, 95, 96, 97, 98, 99, 100, 101, 102, 103, 104, 105, 106, 107, 108, 109, 110, 111, 112, 113, 114, 115, 116, 117, 118, 119, 120, 121, 122, 123, 124, 125, 126, 127, 128, 129, 130, 131, 132, 133, 134, 135, 136, 137, 138, 139, 140, 141, 142, 143, 144, 145, 146, 147, 148, 149, 150, 151, 152, 153, 154, 155, 156, 157, 158, 159, 160, 161, 162, 163, 164, 165, 166, 167, 168, 169, 170, 171, 172, 173, 174, 175, 176, 177, 178, 179, 180, 181, 182, 183, 184, 185, 186, 187, 188, 189, 190, 191, 192, 193, 194, 195, 196, 197, 198, 199, 200, 201, 202, 203, 204, 205, 206, 207, 208, 209, 210, 211, 212, 213, 214, 215, 216, 217, 218, 219, 220, 221, 222, 223, 224, 225, 226, 227, 228, 229, 230, 231, 232, 233, 234, 235, 236, 237, 238, 239, 240, 241, 242, 243, 244, 245, 246, 247, 248, 249, 250, 251, 252, 253, 254, 255, 256, 257, 258, 259, 260, 261, 262, 263, 264, 265, 266, 267, 268, 269, 270, 271, 272, 273, 274, 275, 276, 277, 278, 279, 280, 281, 282, 283, 284, 285, 286, 287, 288, 289, 290, 291, 292, 293, 294, 295, 296, 297, 298, 299, 300, 301, 302, 303, 304, 305, 306, 307, 308, 309, 310, 311, 312, 313, 314, 315, 316, 317, 318, 319, 320, 321, 322, 323, 324, 325, 326, 327, 328, 329, 330, 331, 332, 333, 334, 335, 336, 337, 338, 339, 340, 341, 342, 343, 344, 345, 346, 347, 348, 349, 350, 351, 352, 353, 354, 355, 356, 357, 358, 359, 360, 361, 362, 363, 364, 365, 366, 367, 368, 369, 370, 371, 372, 373, 374, 375, 376, 377, 378, 379, 380, 381, 382, 383, 384, 385, 386, 387, 388, 389, 390, 391, 392, 393, 394, 395, 396, 397, 398, 399, 400, 401, 402, 403, 404, 405, 406, 407, 408, 409, 410, 411, 412, 413, 414, 415, 416, 417, 418, 419, 420, 421, 422, 423, 424, 425, 426, 427, 428, 429, 430, 431, 432, 433, 434, 435, 436, 437, 438, 439, 440, 441, 442, 443, 444, 445, 446, 447, 448, 449, 450, 451, 452, 453, 454, 455, 456, 457, 458, 459, 460, 461, 462, 463, 464, 465, 466, 467, 468, 469, 470, 471, 472, 473, 474, 475, 476, 477, 478, 479, 480, 481, 482, 483, 484, 485, 486, 487, 488, 489, 490, 491, 492, 493, 494, 495, 496, 497, 498, 499, 500, 501, 502, 503, 504, 505, 506, 507, 508, 509, 510, 511, 512, 513, 514, 515, 516, 517, 518, 519, 520, 521, 522, 523, 524, 525, 526, 527, 528, 529, 530, 531, 532, 533, 534, 535, 536, 537, 538, 539, 540, 541, 542, 543, 544, 545, 546, 547, 548, 549, 550, 551, 552, 553, 554, 555, 556, 557, 558, 559, 560, 561, 562, 563, 564, 565, 566, 567, 568, 569, 570, 571, 572, 573, 574, 575, 576, 577, 578, 579, 580, 581, 582, 583, 584, 585, 586, 587, 588, 589, 590, 591, 592, 593, 594, 595, 596, 597, 598, 599, 600, 601, 602, 603, 604, 605, 606, 607, 608, 609, 610, 611, 612, 613, 614, 615, 616, 617, 618, 619, 620, 621, 622, 623, 624, 625, 626, 627, 628, 629, 630, 631, 632, 633, 634, 635, 636, 637, 638, 639, 640, 641, 642, 643, 644, 645, 646, 647, 648, 649, 650, 651, 652, 653, 654, 655, 656, 657, 658, 659, 660, 661, 662, 663, 664, 665, 666, 667, 668, 669, 670, 671, 672, 673, 674, 675, 676, 677, 678, 679, 680, 681, 682, 683, 684, 685, 686, 687, 688, 689, 690, 691, 692, 693, 694, 695, 696, 697, 698, 699, 700, 701, 702, 703, 704, 705, 706, 707, 708, 709, 710, 711, 712, 713, 714, 715, 716, 717, 718, 719, 720, 721, 722, 723, 724, 725, 726, 727, 728, 729, 730, 731, 732, 733, 734, 735, 736, 737, 738, 739, 740, 741, 742, 743, 744, 745, 746, 747, 748, 749, 750, 751, 752, 753, 754, 755, 756, 757, 758, 759, 760, 761, 762, 763, 764, 765, 766, 767, 768, 769, 770, 771, 772, 773, 774, 775, 776, 777, 778, 779, 780, 781, 782, 783, 784, 785, 786, 787, 788, 789, 790, 791, 792, 793, 794, 795, 796, 797, 798, 799, 800, 801, 802, 803, 804, 805, 806, 807, 808, 809, 810, 811, 812, 813, 814, 815, 816, 817, 818, 819, 820, 821, 822, 823, 824, 825, 826, 827, 828, 829, 830, 831, 832, 833, 834, 835, 836, 837, 838, 839, 840, 841, 842, 843, 844, 845, 846, 847, 848, 849, 850, 851, 852, 853, 854, 855, 856, 857, 858, 859, 860, 861, 862, 863, 864, 865, 866, 867, 868, 869, 870, 871, 872, 873, 874, 875, 876, 877, 878, 879, 880, 881, 882, 883, 884, 885, 886, 887, 888, 889, 890, 891, 892, 893, 894, 895, 896, 897, 898, 899, 900, 901, 902, 903, 904, 905, 906, 907, 908, 909, 910, 911, 912, 913, 914],
      "AcquisitionTime": ["100823.420000", "100823.880000", "100824.340000", "100824.800000", "100825.260000", "100825.720000", "100826.180000", "100826.640000", "100827.100000", "100827.560000", "100828.020000", "100828.480000", "100828.940000", "100829.400000", "100829.860000", "100830.320000", "100830.780000", "100831.240000", "100831.700000", "100832.160000", "100832.620000", "100833.080000", "100833.540000", "100834.000000", "100834.460000", "100834.920000", "100835.380000", "100835.840000", "100836.300000", "100836.760000", "100837.220000", "100837.680000", "100838.140000", "100838.600000", "100839.060000", "100839.520000", "100839.980000", "100840.440000", "100840.900000", "100841.360000", "100841.820000", "100842.280000", "100842.740000", "100843.200000", "100843.660000", "100844.120000", "100844.580000", "100845.040000", "100845.500000", "100845.960000", "100846.420000", "100846.880000", "100847.340000", "100847.800000", "100848.260000", "100848.720000", "100849.180000", "100849.640000", "100850.100000", "100850.560000", "100851.020000", "100851.480000", "100851.940000", "100852.400000", "100852.860000", "100853.320000", "100853.780000", "100854.240000", "100854.700000", "100855.160000", "100855.620000", "100856.080000", "100856.540000", "100857.000000", "100857.460000", "100857.920000", "100858.380000", "100858.840000", "100859.300000", "100859.760000", "100900.220000", "100900.680000", "100901.140000", "100901.600000", "100902.060000", "100902.520000", "100902.980000", "100903.440000", "100903.900000", "100904.360000", "100904.820000", "100905.280000", "100905.740000", "100906.200000", "100906.660000", "100907.120000", "100907.580000", "100908.040000", "100908.500000", "100908.960000", "100909.420000", "100909.880000", "100910.340000", "100910.800000", "100911.260000", "100911.720000", "100912.180000", "100912.640000", "100913.100000", "100913.560000", "100914.020000", "100914.480000", "100914.940000", "100915.400000", "100915.860000", "100916.320000", "100916.780000", "100917.240000", "100917.700000", "100918.160000", "100918.620000", "100919.080000", "100919.540000", "100920.000000", "100920.460000", "100920.920000", "100921.380000", "100921.840000", "100922.300000", "100922.760000", "100923.220000", "100923.680000", "100924.140000", "100924.600000", "100925.060000", "100925.520000", "100925.980000", "100926.440000", "100926.900000", "100927.360000", "100927.820000", "100928.280000", "100928.740000", "100929.200000", "100929.660000", "100930.120000", "100930.580000", "100931.040000", "100931.500000", "100931.960000", "100932.420000", "100932.880000", "100933.340000", "100933.800000", "100934.260000", "100934.720000", "100935.180000", "100935.640000", "100936.100000", "100936.560000", "100937.020000", "100937.480000", "100937.940000", "100938.400000", "100938.860000", "100939.320000", "100939.780000", "100940.240000", "100940.700000", "100941.160000", "100941.620000", "100942.080000", "100942.540000", "100943.000000", "100943.460000", "100943.920000", "100944.380000", "100944.840000", "100945.300000", "100945.760000", "100946.220000", "100946.680000", "100947.140000", "100947.600000", "100948.060000", "100948.520000", "100948.980000", "100949.440000", "100949.900000", "100950.360000", "100950.820000", "100951.280000", "100951.740000", "100952.200000", "100952.660000", "100953.120000", "100953.580000", "100954.040000", "100954.500000", "100954.960000", "100955.420000", "100955.880000", "100956.340000", "100956.800000", "100957.260000", "100957.720000", "100958.180000", "100958.640000", "100959.100000", "100959.560000", "101000.020000", "101000.480000", "101000.940000", "101001.400000", "101001.860000", "101002.320000", "101002.780000", "101003.240000", "101003.700000", "101004.160000", "101004.620000", "101005.080000", "101005.540000", "101006.000000", "101006.460000", "101006.920000", "101007.380000", "101007.840000", "101008.300000", "101008.760000", "101009.220000", "101009.680000", "101010.140000", "101010.600000", "101011.060000", "101011.520000", "101011.980000", "101012.440000", "101012.900000", "101013.360000", "101013.820000", "101014.280000", "101014.740000", "101015.200000", "101015.660000", "101016.120000", "101016.580000", "101017.040000", "101017.500000", "101017.960000", "101018.420000", "101018.880000", "101019.340000", "101019.800000", "101020.260000", "101020.720000", "101021.180000", "101021.640000", "101022.100000", "101022.560000", "101023.020000", "101023.480000", "101023.940000", "101024.400000", "101024.860000", "101025.320000", "101025.780000", "101026.240000", "101026.700000", "101027.160000", "101027.620000", "101028.080000", "101028.540000", "101029.000000", "101029.460000", "101029.920000", "101030.380000", "101030.840000", "101031.300000", "101031.760000", "101032.220000", "101032.680000", "101033.140000", "101033.600000", "101034.060000", "101034.520000", "101034.980000", "101035.440000", "101035.900000", "101036.360000", "101036.820000", "101037.280000", "101037.740000", "101038.200000", "101038.660000", "101039.120000", "101039.580000", "101040.040000", "101040.500000", "101040.960000", "101041.420000", "101041.880000", "101042.340000", "101042.800000", "101043.260000", "101043.720000", "101044.180000", "101044.640000", "101045.100000", "101045.560000", "101046.020000", "101046.480000", "101046.940000", "101047.400000", "101047.860000", "101048.320000", "101048.780000", "101049.240000", "101049.700000", "101050.160000", "101050.620000", "101051.080000", "101051.540000", "101052.000000", "101052.460000", "101052.920000", "101053.380000", "101053.840000", "101054.300000", "101054.760000", "101055.220000", "101055.680000", "101056.140000", "101056.600000", "101057.060000", "101057.520000", "101057.980000", "101058.440000", "101058.900000", "101059.360000", "101059.820000", "101100.280000", "101100.740000", "101101.200000", "101101.660000", "101102.120000", "101102.580000", "101103.040000", "101103.500000", "101103.960000", "101104.420000", "101104.880000", "101105.340000", "101105.800000", "101106.260000", "101106.720000", "101107.180000", "101107.640000", "101108.100000", "101108.560000", "101109.020000", "101109.480000", "101109.940000", "101110.400000", "101110.860000", "101111.320000", "101111.780000", "101112.240000", "101112.700000", "101113.160000", "101113.620000", "101114.080000", "101114.540000", "101115.000000", "101115.460000", "101115.920000", "101116.380000", "101116.840000", "101117.300000", "101117.760000", "101118.220000", "101118.680000", "101119.140000", "101119.600000", "101120.060000", "101120.520000", "101120.980000", "101121.440000", "101121.900000", "101122.360000", "101122.820000", "101123.280000", "101123.740000", "101124.200000", "101124.660000", "101125.120000", "101125.580000", "101126.040000", "101126.500000", "101126.960000", "101127.420000", "101127.880000", "101128.340000", "101128.800000", "101129.260000", "101129.720000", "101130.180000", "101130.640000", "101131.100000", "101131.560000", "101132.020000", "101132.480000", "101132.940000", "101133.400000", "101133.860000", "101134.320000", "101134.780000", "101135.240000", "101135.700000", "101136.160000", "101136.620000", "101137.080000", "101137.540000", "101138.000000", "101138.460000", "101138.920000", "101139.380000", "101139.840000", "101140.300000", "101140.760000", "101141.220000", "101141.680000", "101142.140000", "101142.600000", "101143.060000", "101143.520000", "101143.980000", "101144.440000", "101144.900000", "101145.360000", "101145.820000", "101146.280000", "101146.740000", "101147.200000", "101147.660000", "101148.120000", "101148.580000", "101149.040000", "101149.500000", "101149.960000", "101150.420000", "101150.880000", "101151.340000", "101151.800000", "101152.260000", "101152.720000", "101153.180000", "101153.640000", "101154.100000", "101154.560000", "101155.020000", "101155.480000", "101155.940000", "101156.400000", "101156.860000", "101157.320000", "101157.780000", "101158.240000", "101158.700000", "101159.160000", "101159.620000", "101200.080000", "101200.540000", "101201.000000", "101201.460000", "101201.920000", "101202.380000", "101202.840000", "101203.300000", "101203.760000", "101204.220000", "101204.680000", "101205.140000", "101205.600000", "101206.060000", "101206.520000", "101206.980000", "101207.440000", "101207.900000", "101208.360000", "101208.820000", "101209.280000", "101209.740000", "101210.200000", "101210.660000", "101211.120000", "101211.580000", "101212.040000", "101212.500000", "101212.960000", "101213.420000", "101213.880000", "101214.340000", "101214.800000", "101215.260000", "101215.720000", "101216.180000", "101216.640000", "101217.100000", "101217.560000", "101218.020000", "101218.480000", "101218.940000", "101219.400000", "101219.860000", "101220.320000", "101220.780000", "101221.240000", "101221.700000", "101222.160000", "101222.620000", "101223.080000", "101223.540000", "101224.000000", "101224.460000", "101224.920000", "101225.380000", "101225.840000", "101226.300000", "101226.760000", "101227.220000", "101227.680000", "101228.140000", "101228.600000", "101229.060000", "101229.520000", "101229.980000", "101230.440000", "101230.900000", "101231.360000", "101231.820000", "101232.280000", "101232.740000", "101233.200000", "101233.660000", "101234.120000", "101234.580000", "101235.040000", "101235.500000", "101235.960000", "101236.420000", "101236.880000", "101237.340000", "101237.800000", "101238.260000", "101238.720000", "101239.180000", "101239.640000", "101240.100000", "101240.560000", "101241.020000", "101241.480000", "101241.940000", "101242.400000", "101242.860000", "101243.320000", "101243.780000", "101244.240000", "101244.700000", "101245.160000", "101245.620000", "101246.080000", "101246.540000", "101247.000000", "101247.460000", "101247.920000", "101248.380000", "101248.840000", "101249.300000", "101249.760000", "101250.220000", "101250.680000", "101251.140000", "101251.600000", "101252.060000", "101252.520000", "101252.980000", "101253.440000", "101253.900000", "101254.360000", "101254.820000", "101255.280000", "101255.740000", "101256.200000", "101256.660000", "101257.120000", "101257.580000", "101258.040000", "101258.500000", "101258.960000", "101259.420000", "101259.880000", "101300.340000", "101300.800000", "101301.260000", "101301.720000", "101302.180000", "101302.640000", "101303.100000", "101303.560000", "101304.020000", "101304.480000", "101304.940000", "101305.400000", "101305.860000", "101306.320000", "101306.780000", "101307.240000", "101307.700000", "101308.160000", "101308.620000", "101309.080000", "101309.540000", "101310.000000", "101310.460000", "101310.920000", "101311.380000", "101311.840000", "101312.300000", "101312.760000", "101313.220000", "101313.680000", "101314.140000", "101314.600000", "101315.060000", "101315.520000", "101315.980000", "101316.440000", "101316.900000", "101317.360000", "101317.820000", "101318.280000", "101318.740000", "101319.200000", "101319.660000", "101320.120000", "101320.580000", "101321.040000", "101321.500000", "101321.960000", "101322.420000", "101322.880000", "101323.340000", "101323.800000", "101324.260000", "101324.720000", "101325.180000", "101325.640000", "101326.100000", "101326.560000", "101327.020000", "101327.480000", "101327.940000", "101328.400000", "101328.860000", "101329.320000", "101329.780000", "101330.240000", "101330.700000", "101331.160000", "101331.620000", "101332.080000", "101332.540000", "101333.000000", "101333.460000", "101333.920000", "101334.380000", "101334.840000", "101335.300000", "101335.760000", "101336.220000", "101336.680000", "101337.140000", "101337.600000", "101338.060000", "101338.520000", "101338.980000", "101339.440000", "101339.900000", "101340.360000", "101340.820000", "101341.280000", "101341.740000", "101342.200000", "101342.660000", "101343.120000", "101343.580000", "101344.040000", "101344.500000", "101344.960000", "101345.420000", "101345.880000", "101346.340000", "101346.800000", "101347.260000", "101347.720000", "101348.180000", "101348.640000", "101349.100000", "101349.560000", "101350.020000", "101350.480000", "101350.940000", "101351.400000", "101351.860000", "101352.320000", "101352.780000", "101353.240000", "101353.700000", "101354.160000", "101354.620000", "101355.080000", "101355.540000", "101356.000000", "101356.460000", "101356.920000", "101357.380000", "101357.840000", "101358.300000", "101358.760000", "101359.220000", "101359.680000", "101400.140000", "101400.600000", "101401.060000", "101401.520000", "101401.980000", "101402.440000", "101402.900000", "101403.360000", "101403.820000", "101404.280000", "101404.740000", "101405.200000", "101405.660000", "101406.120000", "101406.580000", "101407.040000", "101407.500000", "101407.960000", "101408.420000", "101408.880000", "101409.340000", "101409.800000", "101410.260000", "101410.720000", "101411.180000", "101411.640000", "101412.100000", "101412.560000", "101413.020000", "101413.480000", "101413.940000", "101414.400000", "101414.860000", "101415.320000", "101415.780000", "101416.240000", "101416.700000", "101417.160000", "101417.620000", "101418.080000", "101418.540000", "101419.000000", "101419.460000", "101419.920000", "101420.380000", "101420.840000", "101421.300000", "101421.760000", "101422.220000", "101422.680000", "101423.140000", "101423.600000", "101424.060000", "101424.520000", "101424.980000", "101425.440000", "101425.900000", "101426.360000", "101426.820000", "101427.280000", "101427.740000", "101428.200000", "101428.660000", "101429.120000", "101429.580000", "101430.040000", "101430.500000", "101430.960000", "101431.420000", "101431.880000", "101432.340000", "101432.800000", "101433.260000", "101433.720000", "101434.180000", "101434.640000", "101435.100000", "101435.560000", "101436.020000", "101436.480000", "101436.940000", "101437.400000", "101437.860000", "101438.320000", "101438.780000", "101439.240000", "101439.700000", "101440.160000", "101440.620000", "101441.080000", "101441.540000", "101442.000000", "101442.460000", "101442.920000", "101443.380000", "101443.840000", "101444.300000", "101444.760000", "101445.220000", "101445.680000", "101446.140000", "101446.600000", "101447.060000", "101447.520000", "101447.980000", "101448.440000", "101448.900000", "101449.360000", "101449.820000", "101450.280000", "101450.740000", "101451.200000", "101451.660000", "101452.120000", "101452.580000", "101453.040000", "101453.500000", "101453.960000", "101454.420000", "101454.880000", "101455.340000", "101455.800000", "101456.260000", "101456.720000", "101457.180000", "101457.640000", "101458.100000", "101458.560000", "101459.020000", "101459.480000", "101459.940000", "101500.400000", "101500.860000", "101501.320000", "101501.780000", "101502.240000", "101502.700000", "101503.160000", "101503.620000", "101504.080000", "101504.540000", "101505.000000", "101505.460000", "101505.920000", "101506.380000", "101506.840000", "101507.300000", "101507.760000", "101508.220000", "101508.680000", "101509.140000", "101509.600000", "101510.060000", "101510.520000", "101510.980000", "101511.440000", "101511.900000", "101512.360000", "101512.820000", "101513.280000", "101513.740000", "101514.200000", "101514.660000", "101515.120000", "101515.580000", "101516.040000", "101516.500000", "101516.960000", "101517.420000", "101517.880000", "101518.340000", "101518.800000", "101519.260000", "101519.720000", "101520.180000", "101520.640000", "101521.100000", "101521.560000", "101522.020000", "101522.480000", "101522.940000", "101523.400000"],
