{
  "AcquisitionMatrixPE": 82,
  "AcquisitionNumber": 1,
  "AcquisitionTime": "09:28:1.732500",
  "BandwidthPerPixelPhaseEncode": 24.888,
  "BaseResolution": 82,
  "BodyPartExamined": "BRAIN",
  "ConsistencyInfo": "N4_VE11C_LATEST_20160120",
  "ConversionSoftware": "dcm2niix",
  "ConversionSoftwareVersion": "v1.0.20201102",
  "DerivedVendorReportedEchoSpacing": 0.00049,
  "DeviceSerialNumber": "66112",
  "DwellTime": 2e-06,
  "EchoTime": 0.0272,
  "EchoTrainLength": 82,
  "EffectiveEchoSpacing": 0.00049,
  "FlipAngle": 44,
  "ImageComments": "Unaliased MB8/PE3",
  "ImageOrientationPatientDICOM": [0.999623, 0.00673278, 0.0266208, -0.00907249, 0.996011, 0.0887707],
  "ImageType": [
    "ORIGINAL",
    "PRIMARY",
    "M",
    "MB",
    "ND",
    "NORM",
    "MOSAIC"
],
  "ImagingFrequency": 123.252,
  "InPlanePhaseEncodingDirectionDICOM": "COL",
  "InstitutionAddress": "Maynard 3,Hanover,NH,US,03755",
  "InstitutionName": "Dartmouth College - PBS",
  "InstitutionalDepartmentName": "Department",
  "MRAcquisitionType": "2D",
  "MagneticFieldStrength": 3,
  "Manufacturer": "Siemens",
  "ManufacturersModelName": "Prisma",
  "Modality": "MR",
  "MultibandAccelerationFactor": 8,
  "PartialFourier": 1,
  "PatientPosition": "HFS",
  "PercentPhaseFOV": 100,
  "PercentSampling": 100,
  "PhaseEncodingDirection": "j-",
  "PhaseEncodingSteps": 82,
  "PhaseResolution": 1,
  "PixelBandwidth": 3050,
  "ProcedureStepDescription": "Wager_Wager^1076_spacetop",
  "ProtocolName": "func_run-02_task-narratives_acq-ap-mb8",
  "PulseSequenceDetails": "%CustomerSeq%\\cmrr_mbep2d_bold",
  "ReceiveCoilActiveElements": "HEA;HEP",
  "ReceiveCoilName": "Head_32",
  "ReconMatrixPE": 82,
  "RepetitionTime": 0.46,
  "SAR": 0.0720345,
  "ScanOptions": "FS",
  "ScanningSequence": "EP",
  "SequenceName": "epfid2d1_82",
  "SequenceVariant": "SK\\SS",
  "SeriesDescription": "func_run-02_task-narratives_acq-ap-mb8",
  "SeriesNumber": 12,
  "ShimSetting": [4151, -7758, -7269, 567, -119, -214, -23, 98],
  "SliceThickness": 2.7,
  "SliceTiming": [0, 0.25, 0.0625, 0.3125, 0.125, 0.3775, 0.1875, 0, 0.25, 0.0625, 0.3125, 0.125, 0.3775, 0.1875, 0, 0.25, 0.0625, 0.3125, 0.125, 0.3775, 0.1875, 0, 0.25, 0.0625, 0.3125, 0.125, 0.3775, 0.1875, 0, 0.25, 0.0625, 0.3125, 0.125, 0.3775, 0.1875, 0, 0.25, 0.0625, 0.3125, 0.125, 0.3775, 0.1875, 0, 0.25, 0.0625, 0.3125, 0.125, 0.3775, 0.1875, 0, 0.25, 0.0625, 0.3125, 0.125, 0.3775, 0.1875],
  "SoftwareVersions": "syngo MR E11",
  "SpacingBetweenSlices": 2.7,
  "StationName": "AWP66112",
  "TaskName": "narratives",
  "TotalReadoutTime": 0.03969,
  "TxRefAmp": 231.28,
  "WipMemBlock": "0b8a0fe7-89ff-49e3-a3a1-fca505602ed5||Sequence: R016 ve11c/master r/e634e98; Dec 19 2017 11:00:25 by eja",
  "dcmmeta_affine": [
    [-2.681915283203125, -0.024340836331248283, 0.06997577846050262, 110.39820098876953],
    [-0.018063563853502274, 2.6722240447998047, 0.24024254083633423, -96.45462799072266],
    [0.07142172753810883, -0.2381652295589447, 2.688380002975464, -73.52365112304688],
    [0.0, 0.0, 0.0, 1.0]
],
  "dcmmeta_reorient_transform": [
    [0.0, -1.0, 0.0, 81.0],
    [1.0, 0.0, 0.0, 0.0],
    [0.0, 0.0, 1.0, 0.0],
    [0.0, 0.0, 0.0, 1.0]
],
  "dcmmeta_shape": [82, 82, 56, 1098],
  "dcmmeta_slice_dim": 2,
  "dcmmeta_version": 0.6,
  "global": {
    "const": {
      "AccessionNumber": "A003824",
      "AcquisitionMatrix": [82, 0, 0, 82],
      "AngioFlag": "N",
      "BitsAllocated": 16,
      "BitsStored": 16,
      "BodyPartExamined": "BRAIN",
      "Columns": 656,
      "EchoNumbers": 1,
      "EchoTime": 27.2,
      "EchoTrainLength": 82,
      "FlipAngle": 44.0,
      "HighBit": 15,
      "ImageOrientationPatient": [0.99962292958182, 0.00673278240492, 0.02662082446791, -0.0090724932468, 0.99601077185587, 0.08877067203398],
      "ImagePositionPatient": [-871.15044483222, -892.1080753275, -181.66649047305],
      "ImageType": [
        "ORIGINAL",
        "PRIMARY",
        "M",
        "MB",
        "ND",
        "NORM",
        "MOSAIC"
],
      "ImagedNucleus": "1H",
      "ImagingFrequency": 123.25223,
      "InPlanePhaseEncodingDirection": "COL",
      "MRAcquisitionType": "2D",
      "MagneticFieldStrength": 3.0,
      "Manufacturer": "SIEMENS",
      "ManufacturerModelName": "Prisma",
      "Modality": "MR",
      "NumberOfAverages": 1.0,
      "NumberOfPhaseEncodingSteps": 82,
      "PercentPhaseFieldOfView": 100.0,
      "PercentSampling": 100.0,
      "PerformedProcedureStepStartTime": "084139.568000",
      "PhotometricInterpretation": "MONOCHROME2",
      "PixelBandwidth": 3050.0,
      "PixelRepresentation": 0,
      "PixelSpacing": [2.6829268932343, 2.6829268932343],
      "ProtocolName": "func_run-02_task-narratives_acq-ap-mb8",
      "RepetitionTime": 460.0,
      "Rows": 656,
      "SAR": 0.0720344977299,
      "SamplesPerPixel": 1,
      "ScanOptions": "FS",
      "ScanningSequence": "EP",
      "SequenceName": "epfid2d1_82",
      "SequenceVariant": [
        "SK",
        "SS"
],
      "SeriesDescription": "func_run-02_task-narratives_acq-ap-mb8",
      "SeriesNumber": 12,
      "SeriesTime": "092821.262000",
      "SliceLocation": -78.928452573775,
      "SliceThickness": 2.7000000476837,
      "SmallestImagePixelValue": 0,
      "SoftwareVersions": "syngo MR E11",
      "SpacingBetweenSlices": 2.7000000365344,
      "SpecificCharacterSet": "ISO_IR 100",
      "StudyID": "2",
      "StudyTime": "084139.462000",
      "TransmitCoilName": "Body",
      "VariableFlipAngleFlag": "N",
      "WindowCenterWidthExplanation": "Algo1",
      "dBdt": 0.0},
    "slices": {}
  },
  "time": {
    "samples": {
      "AcquisitionNumber": [1, 2, 3, 4, 5, 6, 7, 8, 9, 10, 11, 12, 13, 14, 15, 16, 17, 18, 19, 20, 21, 22, 23, 24, 25, 26, 27, 28, 29, 30, 31, 32, 33, 34, 35, 36, 37, 38, 39, 40, 41, 42, 43, 44, 45, 46, 47, 48, 49, 50, 51, 52, 53, 54, 55, 56, 57, 58, 59, 60, 61, 62, 63, 64, 65, 66, 67, 68, 69, 70, 71, 72, 73, 74, 75, 76, 77, 78, 79, 80, 81, 82, 83, 84, 85, 86, 87, 88, 89, 90, 91, 92, 93, 94, 95, 96, 97, 98, 99, 100, 101, 102, 103, 104, 105, 106, 107, 108, 109, 110, 111, 112, 113, 114, 115, 116, 117, 118, 119, 120, 121, 122, 123, 124, 125, 126, 127, 128, 129, 130, 131, 132, 133, 134, 135, 136, 137, 138, 139, 140, 141, 142, 143, 144, 145, 146, 147, 148, 149, 150, 151, 152, 153, 154, 155, 156, 157, 158, 159, 160, 161, 162, 163, 164, 165, 166, 167, 168, 169, 170, 171, 172, 173, 174, 175, 176, 177, 178, 179, 180, 181, 182, 183, 184, 185, 186, 187, 188, 189, 190, 191, 192, 193, 194, 195, 196, 197, 198, 199, 200, 201, 202, 203, 204, 205, 206, 207, 208, 209, 210, 211, 212, 213, 214, 215, 216, 217, 218, 219, 220, 221, 222, 223, 224, 225, 226, 227, 228, 229, 230, 231, 232, 233, 234, 235, 236, 237, 238, 239, 240, 241, 242, 243, 244, 245, 246, 247, 248, 249, 250, 251, 252, 253, 254, 255, 256, 257, 258, 259, 260, 261, 262, 263, 264, 265, 266, 267, 268, 269, 270, 271, 272, 273, 274, 275, 276, 277, 278, 279, 280, 281, 282, 283, 284, 285, 286, 287, 288, 289, 290, 291, 292, 293, 294, 295, 296, 297, 298, 299, 300, 301, 302, 303, 304, 305, 306, 307, 308, 309, 310, 311, 312, 313, 314, 315, 316, 317, 318, 319, 320, 321, 322, 323, 324, 325, 326, 327, 328, 329, 330, 331, 332, 333, 334, 335, 336, 337, 338, 339, 340, 341, 342, 343, 344, 345, 346, 347, 348, 349, 350, 351, 352, 353, 354, 355, 356, 357, 358, 359, 360, 361, 362, 363, 364, 365, 366, 367, 368, 369, 370, 371, 372, 373, 374, 375, 376, 377, 378, 379, 380, 381, 382, 383, 384, 385, 386, 387, 388, 389, 390, 391, 392, 393, 394, 395, 396, 397, 398, 399, 400, 401, 402, 403, 404, 405, 406, 407, 408, 409, 410, 411, 412, 413, 414, 415, 416, 417, 418, 419, 420, 421, 422, 423, 424, 425, 426, 427, 428, 429, 430, 431, 432, 433, 434, 435, 436, 437, 438, 439, 440, 441, 442, 443, 444, 445, 446, 447, 448, 449, 450, 451, 452, 453, 454, 455, 456, 457, 458, 459, 460, 461, 462, 463, 464, 465, 466, 467, 468, 469, 470, 471, 472, 473, 474, 475, 476, 477, 478, 479, 480, 481, 482, 483, 484, 485, 486, 487, 488, 489, 490, 491, 492, 493, 494, 495, 496, 497, 498, 499, 500, 501, 502, 503, 504, 505, 506, 507, 508, 509, 510, 511, 512, 513, 514, 515, 516, 517, 518, 519, 520, 521, 522, 523, 524, 525, 526, 527, 528, 529, 530, 531, 532, 533, 534, 535, 536, 537, 538, 539, 540, 541, 542, 543, 544, 545, 546, 547, 548, 549, 550, 551, 552, 553, 554, 555, 556, 557, 558, 559, 560, 561, 562, 563, 564, 565, 566, 567, 568, 569, 570, 571, 572, 573, 574, 575, 576, 577, 578, 579, 580, 581, 582, 583, 584, 585, 586, 587, 588, 589, 590, 591, 592, 593, 594, 595, 596, 597, 598, 599, 600, 601, 602, 603, 604, 605, 606, 607, 608, 609, 610, 611, 612, 613, 614, 615, 616, 617, 618, 619, 620, 621, 622, 623, 624, 625, 626, 627, 628, 629, 630, 631, 632, 633, 634, 635, 636, 637, 638, 639, 640, 641, 642, 643, 644, 645, 646, 647, 648, 649, 650, 651, 652, 653, 654, 655, 656, 657, 658, 659, 660, 661, 662, 663, 664, 665, 666, 667, 668, 669, 670, 671, 672, 673, 674, 675, 676, 677, 678, 679, 680, 681, 682, 683, 684, 685, 686, 687, 688, 689, 690, 691, 692, 693, 694, 695, 696, 697, 698, 699, 700, 701, 702, 703, 704, 705, 706, 707, 708, 709, 710, 711, 712, 713, 714, 715, 716, 717, 718, 719, 720, 721, 722, 723, 724, 725, 726, 727, 728, 729, 730, 731, 732, 733, 734, 735, 736, 737, 738, 739, 740, 741, 742, 743, 744, 745, 746, 747, 748, 749, 750, 751, 752, 753, 754, 755, 756, 757, 758, 759, 760, 761, 762, 763, 764, 765, 766, 767, 768, 769, 770, 771, 772, 773, 774, 775, 776, 777, 778, 779, 780, 781, 782, 783, 784, 785, 786, 787, 788, 789, 790, 791, 792, 793, 794, 795, 796, 797, 798, 799, 800, 801, 802, 803, 804, 805, 806, 807, 808, 809, 810, 811, 812, 813, 814, 815, 816, 817, 818, 819, 820, 821, 822, 823, 824, 825, 826, 827, 828, 829, 830, 831, 832, 833, 834, 835, 836, 837, 838, 839, 840, 841, 842, 843, 844, 845, 846, 847, 848, 849, 850, 851, 852, 853, 854, 855, 856, 857, 858, 859, 860, 861, 862, 863, 864, 865, 866, 867, 868, 869, 870, 871, 872, 873, 874, 875, 876, 877, 878, 879, 880, 881, 882, 883, 884, 885, 886, 887, 888, 889, 890, 891, 892, 893, 894, 895, 896, 897, 898, 899, 900, 901, 902, 903, 904, 905, 906, 907, 908, 909, 910, 911, 912, 913, 914, 915, 916, 917, 918, 919, 920, 921, 922, 923, 924, 925, 926, 927, 928, 929, 930, 931, 932, 933, 934, 935, 936, 937, 938, 939, 940, 941, 942, 943, 944, 945, 946, 947, 948, 949, 950, 951, 952, 953, 954, 955, 956, 957, 958, 959, 960, 961, 962, 963, 964, 965, 966, 967, 968, 969, 970, 971, 972, 973, 974, 975, 976, 977, 978, 979, 980, 981, 982, 983, 984, 985, 986, 987, 988, 989, 990, 991, 992, 993, 994, 995, 996, 997, 998, 999, 1000, 1001, 1002, 1003, 1004, 1005, 1006, 1007, 1008, 1009, 1010, 1011, 1012, 1013, 1014, 1015, 1016, 1017, 1018, 1019, 1020, 1021, 1022, 1023, 1024, 1025, 1026, 1027, 1028, 1029, 1030, 1031, 1032, 1033, 1034, 1035, 1036, 1037, 1038, 1039, 1040, 1041, 1042, 1043, 1044, 1045, 1046, 1047, 1048, 1049, 1050, 1051, 1052, 1053, 1054, 1055, 1056, 1057, 1058, 1059, 1060, 1061, 1062, 1063, 1064, 1065, 1066, 1067, 1068, 1069, 1070, 1071, 1072, 1073, 1074, 1075, 1076, 1077, 1078, 1079, 1080, 1081, 1082, 1083, 1084, 1085, 1086, 1087, 1088, 1089, 1090, 1091, 1092, 1093, 1094, 1095, 1096, 1097, 1098],
      "AcquisitionTime": ["092801.732500", "092802.192500", "092802.652500", "092803.112500", "092803.572500", "092804.032500", "092804.492500", "092804.952500", "092805.412500", "092805.872500", "092806.332500", "092806.792500", "092807.252500", "092807.712500", "092808.172500", "092808.632500", "092809.092500", "092809.552500", "092810.012500", "092810.472500", "092810.932500", "092811.392500", "092811.852500", "092812.312500", "092812.772500", "092813.232500", "092813.692500", "092814.152500", "092814.612500", "092815.072500", "092815.532500", "092815.992500", "092816.452500", "092816.912500", "092817.372500", "092817.832500", "092818.292500", "092818.752500", "092819.212500", "092819.672500", "092820.132500", "092820.592500", "092821.052500", "092821.512500", "092821.972500", "092822.432500", "092822.892500", "092823.352500", "092823.812500", "092824.272500", "092824.732500", "092825.192500", "092825.652500", "092826.112500", "092826.572500", "092827.032500", "092827.492500", "092827.952500", "092828.412500", "092828.872500", "092829.332500", "092829.792500", "092830.252500", "092830.712500", "092831.172500", "092831.632500", "092832.092500", "092832.552500", "092833.012500", "092833.472500", "092833.932500", "092834.392500", "092834.852500", "092835.312500", "092835.772500", "092836.232500", "092836.692500", "092837.152500", "092837.612500", "092838.072500", "092838.532500", "092838.992500", "092839.452500", "092839.912500", "092840.372500", "092840.832500", "092841.292500", "092841.752500", "092842.212500", "092842.672500", "092843.132500", "092843.592500", "092844.052500", "092844.512500", "092844.972500", "092845.432500", "092845.892500", "092846.352500", "092846.812500", "092847.272500", "092847.732500", "092848.192500", "092848.652500", "092849.112500", "092849.572500", "092850.032500", "092850.492500", "092850.952500", "092851.412500", "092851.872500", "092852.332500", "092852.792500", "092853.252500", "092853.712500", "092854.172500", "092854.632500", "092855.092500", "092855.552500", "092856.012500", "092856.472500", "092856.932500", "092857.392500", "092857.852500", "092858.312500", "092858.772500", "092859.232500", "092859.692500", "092900.152500", "092900.612500", "092901.072500", "092901.532500", "092901.992500", "092902.452500", "092902.912500", "092903.372500", "092903.832500", "092904.292500", "092904.752500", "092905.212500", "092905.672500", "092906.132500", "092906.592500", "092907.052500", "092907.512500", "092907.972500", "092908.432500", "092908.892500", "092909.352500", "092909.812500", "092910.272500", "092910.732500", "092911.192500", "092911.652500", "092912.112500", "092912.572500", "092913.032500", "092913.492500", "092913.952500", "092914.412500", "092914.872500", "092915.332500", "092915.792500", "092916.252500", "092916.712500", "092917.172500", "092917.632500", "092918.092500", "092918.552500", "092919.012500", "092919.472500", "092919.932500", "092920.392500", "092920.852500", "092921.312500", "092921.772500", "092922.232500", "092922.692500", "092923.152500", "092923.612500", "092924.072500", "092924.532500", "092924.992500", "092925.452500", "092925.912500", "092926.372500", "092926.832500", "092927.292500", "092927.752500", "092928.212500", "092928.672500", "092929.132500", "092929.592500", "092930.052500", "092930.512500", "092930.972500", "092931.432500", "092931.892500", "092932.352500", "092932.812500", "092933.272500", "092933.732500", "092934.192500", "092934.652500", "092935.112500", "092935.572500", "092936.032500", "092936.492500", "092936.952500", "092937.412500", "092937.872500", "092938.332500", "092938.792500", "092939.252500", "092939.712500", "092940.172500", "092940.632500", "092941.092500", "092941.552500", "092942.012500", "092942.472500", "092942.932500", "092943.392500", "092943.852500", "092944.312500", "092944.772500", "092945.232500", "092945.692500", "092946.152500", "092946.612500", "092947.072500", "092947.532500", "092947.992500", "092948.452500", "092948.912500", "092949.372500", "092949.832500", "092950.292500", "092950.752500", "092951.212500", "092951.672500", "092952.132500", "092952.592500", "092953.052500", "092953.512500", "092953.972500", "092954.432500", "092954.892500", "092955.352500", "092955.812500", "092956.272500", "092956.732500", "092957.192500", "092957.652500", "092958.112500", "092958.572500", "092959.032500", "092959.492500", "092959.952500", "093000.412500", "093000.872500", "093001.332500", "093001.792500", "093002.252500", "093002.712500", "093003.172500", "093003.632500", "093004.092500", "093004.552500", "093005.012500", "093005.472500", "093005.932500", "093006.392500", "093006.852500", "093007.312500", "093007.772500", "093008.232500", "093008.692500", "093009.152500", "093009.612500", "093010.072500", "093010.532500", "093010.992500", "093011.452500", "093011.912500", "093012.372500", "093012.832500", "093013.292500", "093013.752500", "093014.212500", "093014.672500", "093015.132500", "093015.592500", "093016.052500", "093016.512500", "093016.972500", "093017.432500", "093017.892500", "093018.352500", "093018.812500", "093019.272500", "093019.732500", "093020.192500", "093020.652500", "093021.112500", "093021.572500", "093022.032500", "093022.492500", "093022.952500", "093023.412500", "093023.872500", "093024.332500", "093024.792500", "093025.252500", "093025.712500", "093026.172500", "093026.632500", "093027.092500", "093027.552500", "093028.012500", "093028.472500", "093028.932500", "093029.392500", "093029.852500", "093030.312500", "093030.772500", "093031.232500", "093031.692500", "093032.152500", "093032.612500", "093033.072500", "093033.532500", "093033.992500", "093034.452500", "093034.912500", "093035.372500", "093035.832500", "093036.292500", "093036.752500", "093037.212500", "093037.672500", "093038.132500", "093038.592500", "093039.052500", "093039.512500", "093039.972500", "093040.432500", "093040.892500", "093041.352500", "093041.812500", "093042.272500", "093042.732500", "093043.192500", "093043.652500", "093044.112500", "093044.572500", "093045.032500", "093045.492500", "093045.952500", "093046.412500", "093046.872500", "093047.332500", "093047.792500", "093048.252500", "093048.712500", "093049.172500", "093049.632500", "093050.092500", "093050.552500", "093051.012500", "093051.472500", "093051.932500", "093052.392500", "093052.852500", "093053.312500", "093053.772500", "093054.232500", "093054.692500", "093055.152500", "093055.612500", "093056.072500", "093056.532500", "093056.992500", "093057.452500", "093057.912500", "093058.372500", "093058.832500", "093059.292500", "093059.752500", "093100.212500", "093100.672500", "093101.132500", "093101.592500", "093102.052500", "093102.512500", "093102.972500", "093103.432500", "093103.892500", "093104.352500", "093104.812500", "093105.272500", "093105.732500", "093106.192500", "093106.652500", "093107.112500", "093107.572500", "093108.032500", "093108.492500", "093108.952500", "093109.412500", "093109.872500", "093110.332500", "093110.792500", "093111.252500", "093111.712500", "093112.172500", "093112.632500", "093113.092500", "093113.552500", "093114.012500", "093114.472500", "093114.932500", "093115.392500", "093115.852500", "093116.312500", "093116.772500", "093117.232500", "093117.692500", "093118.152500", "093118.612500", "093119.072500", "093119.532500", "093119.992500", "093120.452500", "093120.912500", "093121.372500", "093121.832500", "093122.292500", "093122.752500", "093123.212500", "093123.672500", "093124.132500", "093124.592500", "093125.052500", "093125.512500", "093125.972500", "093126.432500", "093126.892500", "093127.352500", "093127.812500", "093128.272500", "093128.732500", "093129.192500", "093129.652500", "093130.112500", "093130.572500", "093131.032500", "093131.492500", "093131.952500", "093132.412500", "093132.872500", "093133.332500", "093133.792500", "093134.252500", "093134.712500", "093135.172500", "093135.632500", "093136.092500", "093136.552500", "093137.012500", "093137.472500", "093137.932500", "093138.392500", "093138.852500", "093139.312500", "093139.772500", "093140.232500", "093140.692500", "093141.152500", "093141.612500", "093142.072500", "093142.532500", "093142.992500", "093143.452500", "093143.912500", "093144.372500", "093144.832500", "093145.292500", "093145.752500", "093146.212500", "093146.672500", "093147.132500", "093147.592500", "093148.052500", "093148.512500", "093148.972500", "093149.432500", "093149.892500", "093150.352500", "093150.812500", "093151.272500", "093151.732500", "093152.192500", "093152.652500", "093153.112500", "093153.572500", "093154.032500", "093154.492500", "093154.952500", "093155.412500", "093155.872500", "093156.332500", "093156.792500", "093157.252500", "093157.712500", "093158.172500", "093158.632500", "093159.092500", "093159.552500", "093200.012500", "093200.472500", "093200.932500", "093201.392500", "093201.852500", "093202.312500", "093202.772500", "093203.232500", "093203.692500", "093204.152500", "093204.612500", "093205.072500", "093205.532500", "093205.992500", "093206.452500", "093206.912500", "093207.372500", "093207.832500", "093208.292500", "093208.752500", "093209.212500", "093209.672500", "093210.132500", "093210.592500", "093211.052500", "093211.512500", "093211.972500", "093212.432500", "093212.892500", "093213.352500", "093213.812500", "093214.272500", "093214.732500", "093215.192500", "093215.652500", "093216.112500", "093216.572500", "093217.032500", "093217.492500", "093217.952500", "093218.412500", "093218.872500", "093219.332500", "093219.792500", "093220.252500", "093220.712500", "093221.172500", "093221.632500", "093222.092500", "093222.552500", "093223.012500", "093223.472500", "093223.932500", "093224.392500", "093224.852500", "093225.312500", "093225.772500", "093226.232500", "093226.692500", "093227.152500", "093227.612500", "093228.072500", "093228.532500", "093228.992500", "093229.452500", "093229.912500", "093230.372500", "093230.832500", "093231.292500", "093231.752500", "093232.212500", "093232.672500", "093233.132500", "093233.592500", "093234.052500", "093234.512500", "093234.972500", "093235.432500", "093235.892500", "093236.352500", "093236.812500", "093237.272500", "093237.732500", "093238.192500", "093238.652500", "093239.112500", "093239.572500", "093240.032500", "093240.492500", "093240.952500", "093241.412500", "093241.872500", "093242.332500", "093242.792500", "093243.252500", "093243.712500", "093244.172500", "093244.632500", "093245.092500", "093245.552500", "093246.012500", "093246.472500", "093246.932500", "093247.392500", "093247.852500", "093248.312500", "093248.772500", "093249.232500", "093249.692500", "093250.152500", "093250.612500", "093251.072500", "093251.532500", "093251.992500", "093252.452500", "093252.912500", "093253.372500", "093253.832500", "093254.292500", "093254.752500", "093255.212500", "093255.672500", "093256.132500", "093256.592500", "093257.052500", "093257.512500", "093257.972500", "093258.432500", "093258.892500", "093259.352500", "093259.812500", "093300.272500", "093300.732500", "093301.192500", "093301.652500", "093302.112500", "093302.572500", "093303.032500", "093303.492500", "093303.952500", "093304.412500", "093304.872500", "093305.332500", "093305.792500", "093306.252500", "093306.712500", "093307.172500", "093307.632500", "093308.092500", "093308.552500", "093309.012500", "093309.472500", "093309.932500", "093310.392500", "093310.852500", "093311.312500", "093311.772500", "093312.232500", "093312.692500", "093313.152500", "093313.612500", "093314.072500", "093314.532500", "093314.992500", "093315.452500", "093315.912500", "093316.372500", "093316.832500", "093317.292500", "093317.752500", "093318.212500", "093318.672500", "093319.132500", "093319.592500", "093320.052500", "093320.512500", "093320.972500", "093321.432500", "093321.892500", "093322.352500", "093322.812500", "093323.272500", "093323.732500", "093324.192500", "093324.652500", "093325.112500", "093325.572500", "093326.032500", "093326.492500", "093326.952500", "093327.412500", "093327.872500", "093328.332500", "093328.792500", "093329.252500", "093329.712500", "093330.172500", "093330.632500", "093331.092500", "093331.552500", "093332.012500", "093332.472500", "093332.932500", "093333.392500", "093333.852500", "093334.312500", "093334.772500", "093335.232500", "093335.692500", "093336.152500", "093336.612500", "093337.072500", "093337.532500", "093337.992500", "093338.452500", "093338.912500", "093339.372500", "093339.832500", "093340.292500", "093340.752500", "093341.212500", "093341.672500", "093342.132500", "093342.592500", "093343.052500", "093343.512500", "093343.972500", "093344.432500", "093344.892500", "093345.352500", "093345.812500", "093346.272500", "093346.732500", "093347.192500", "093347.652500", "093348.112500", "093348.572500", "093349.032500", "093349.492500", "093349.952500", "093350.412500", "093350.872500", "093351.332500", "093351.792500", "093352.252500", "093352.712500", "093353.172500", "093353.632500", "093354.092500", "093354.552500", "093355.012500", "093355.472500", "093355.932500", "093356.392500", "093356.852500", "093357.312500", "093357.772500", "093358.232500", "093358.692500", "093359.152500", "093359.612500", "093400.072500", "093400.532500", "093400.992500", "093401.452500", "093401.912500", "093402.372500", "093402.832500", "093403.292500", "093403.752500", "093404.212500", "093404.672500", "093405.132500", "093405.592500", "093406.052500", "093406.512500", "093406.972500", "093407.432500", "093407.892500", "093408.352500", "093408.812500", "093409.272500", "093409.732500", "093410.192500", "093410.652500", "093411.112500", "093411.572500", "093412.032500", "093412.492500", "093412.952500", "093413.412500", "093413.872500", "093414.332500", "093414.792500", "093415.252500", "093415.712500", "093416.172500", "093416.632500", "093417.092500", "093417.552500", "093418.012500", "093418.472500", "093418.932500", "093419.392500", "093419.852500", "093420.312500", "093420.772500", "093421.232500", "093421.692500", "093422.152500", "093422.612500", "093423.072500", "093423.532500", "093423.992500", "093424.452500", "093424.912500", "093425.372500", "093425.832500", "093426.292500", "093426.752500", "093427.212500", "093427.672500", "093428.132500", "093428.592500", "093429.052500", "093429.512500", "093429.972500", "093430.432500", "093430.892500", "093431.352500", "093431.812500", "093432.272500", "093432.732500", "093433.192500", "093433.652500", "093434.112500", "093434.572500", "093435.032500", "093435.492500", "093435.952500", "093436.412500", "093436.872500", "093437.332500", "093437.792500", "093438.252500", "093438.712500", "093439.172500", "093439.632500", "093440.092500", "093440.552500", "093441.012500", "093441.472500", "093441.932500", "093442.392500", "093442.852500", "093443.312500", "093443.772500", "093444.232500", "093444.692500", "093445.152500", "093445.612500", "093446.072500", "093446.532500", "093446.992500", "093447.452500", "093447.912500", "093448.372500", "093448.832500", "093449.292500", "093449.752500", "093450.212500", "093450.672500", "093451.132500", "093451.592500", "093452.052500", "093452.512500", "093452.972500", "093453.432500", "093453.892500", "093454.352500", "093454.812500", "093455.272500", "093455.732500", "093456.192500", "093456.652500", "093457.112500", "093457.572500", "093458.032500", "093458.492500", "093458.952500", "093459.412500", "093459.872500", "093500.332500", "093500.792500", "093501.252500", "093501.712500", "093502.172500", "093502.632500", "093503.092500", "093503.552500", "093504.012500", "093504.472500", "093504.932500", "093505.392500", "093505.852500", "093506.312500", "093506.772500", "093507.232500", "093507.692500", "093508.152500", "093508.612500", "093509.072500", "093509.532500", "093509.992500", "093510.452500", "093510.912500", "093511.372500", "093511.832500", "093512.292500", "093512.752500", "093513.212500", "093513.672500", "093514.132500", "093514.592500", "093515.052500", "093515.512500", "093515.972500", "093516.432500", "093516.892500", "093517.352500", "093517.812500", "093518.272500", "093518.732500", "093519.192500", "093519.652500", "093520.112500", "093520.572500", "093521.032500", "093521.492500", "093521.952500", "093522.412500", "093522.872500", "093523.332500", "093523.792500", "093524.252500", "093524.712500", "093525.172500", "093525.632500", "093526.092500", "093526.552500", "093527.012500", "093527.472500", "093527.932500", "093528.392500", "093528.852500", "093529.312500", "093529.772500", "093530.232500", "093530.692500", "093531.152500", "093531.612500", "093532.072500", "093532.532500", "093532.992500", "093533.452500", "093533.912500", "093534.372500", "093534.832500", "093535.292500", "093535.752500", "093536.212500", "093536.672500", "093537.132500", "093537.592500", "093538.052500", "093538.512500", "093538.972500", "093539.432500", "093539.892500", "093540.352500", "093540.812500", "093541.272500", "093541.732500", "093542.192500", "093542.652500", "093543.112500", "093543.572500", "093544.032500", "093544.492500", "093544.952500", "093545.412500", "093545.872500", "093546.332500", "093546.792500", "093547.252500", "093547.712500", "093548.172500", "093548.632500", "093549.092500", "093549.552500", "093550.012500", "093550.472500", "093550.932500", "093551.392500", "093551.852500", "093552.312500", "093552.772500", "093553.232500", "093553.692500", "093554.152500", "093554.612500", "093555.072500", "093555.532500", "093555.992500", "093556.452500", "093556.912500", "093557.372500", "093557.832500", "093558.292500", "093558.752500", "093559.212500", "093559.672500", "093600.132500", "093600.592500", "093601.052500", "093601.512500", "093601.972500", "093602.432500", "093602.892500", "093603.352500", "093603.812500", "093604.272500", "093604.732500", "093605.192500", "093605.652500", "093606.112500", "093606.572500", "093607.032500", "093607.492500", "093607.952500", "093608.412500", "093608.872500", "093609.332500", "093609.792500", "093610.252500", "093610.712500", "093611.172500", "093611.632500", "093612.092500", "093612.552500", "093613.012500", "093613.472500", "093613.932500", "093614.392500", "093614.852500", "093615.312500", "093615.772500", "093616.232500", "093616.692500", "093617.152500", "093617.612500", "093618.072500", "093618.532500", "093618.992500", "093619.452500", "093619.912500", "093620.372500", "093620.832500", "093621.292500", "093621.752500", "093622.212500", "093622.672500", "093623.132500", "093623.592500", "093624.052500", "093624.512500", "093624.972500", "093625.432500", "093625.892500", "093626.352500"],
