{
  "AcquisitionMatrixPE": 82,
  "AcquisitionNumber": 1,
  "AcquisitionTime": "10:16:1.617500",
  "BandwidthPerPixelPhaseEncode": 24.888,
  "BaseResolution": 82,
  "BodyPartExamined": "BRAIN",
  "ConsistencyInfo": "N4_VE11C_LATEST_20160120",
  "ConversionSoftware": "dcm2niix",
  "ConversionSoftwareVersion": "v1.0.20201102",
  "DerivedVendorReportedEchoSpacing": 0.00049,
  "DeviceSerialNumber": "66112",
  "DwellTime": 2e-06,
  "EchoTime": 0.0272,
  "EchoTrainLength": 82,
  "EffectiveEchoSpacing": 0.00049,
  "FlipAngle": 44,
  "ImageComments": "Unaliased MB8/PE3",
  "ImageOrientationPatientDICOM": [0.999623, 0.00673278, 0.0266208, -0.00907249, 0.996011, 0.0887707],
  "ImageType": [
    "ORIGINAL",
    "PRIMARY",
    "M",
    "MB",
    "ND",
    "NORM",
    "MOSAIC"
],
  "ImagingFrequency": 123.252,
  "InPlanePhaseEncodingDirectionDICOM": "COL",
  "InstitutionAddress": "Maynard 3,Hanover,NH,US,03755",
  "InstitutionName": "Dartmouth College - PBS",
  "InstitutionalDepartmentName": "Department",
  "MRAcquisitionType": "2D",
  "MagneticFieldStrength": 3,
  "Manufacturer": "Siemens",
  "ManufacturersModelName": "Prisma",
  "Modality": "MR",
  "MultibandAccelerationFactor": 8,
  "PartialFourier": 1,
  "PatientPosition": "HFS",
  "PercentPhaseFOV": 100,
  "PercentSampling": 100,
  "PhaseEncodingDirection": "j-",
  "PhaseEncodingSteps": 82,
  "PhaseResolution": 1,
  "PixelBandwidth": 3050,
  "ProcedureStepDescription": "Wager_Wager^1076_spacetop",
  "ProtocolName": "func_run-03_task-faces_acq-ap-mb8",
  "PulseSequenceDetails": "%CustomerSeq%\\cmrr_mbep2d_bold",
  "ReceiveCoilActiveElements": "HEA;HEP",
  "ReceiveCoilName": "Head_32",
  "ReconMatrixPE": 82,
  "RepetitionTime": 0.46,
  "SAR": 0.0719628,
  "ScanOptions": "FS",
  "ScanningSequence": "EP",
  "SequenceName": "epfid2d1_82",
  "SequenceVariant": "SK\\SS",
  "SeriesDescription": "func_run-03_task-faces_acq-ap-mb8",
  "SeriesNumber": 22,
  "ShimSetting": [4151, -7758, -7269, 567, -119, -214, -23, 98],
  "SliceThickness": 2.7,
  "SliceTiming": [0, 0.25, 0.0625, 0.3125, 0.125, 0.375, 0.1875, 0, 0.25, 0.0625, 0.3125, 0.125, 0.375, 0.1875, 0, 0.25, 0.0625, 0.3125, 0.125, 0.375, 0.1875, 0, 0.25, 0.0625, 0.3125, 0.125, 0.375, 0.1875, 0, 0.25, 0.0625, 0.3125, 0.125, 0.375, 0.1875, 0, 0.25, 0.0625, 0.3125, 0.125, 0.375, 0.1875, 0, 0.25, 0.0625, 0.3125, 0.125, 0.375, 0.1875, 0, 0.25, 0.0625, 0.3125, 0.125, 0.375, 0.1875],
  "SoftwareVersions": "syngo MR E11",
  "SpacingBetweenSlices": 2.7,
  "StationName": "AWP66112",
  "TaskName": "faces",
  "TotalReadoutTime": 0.03969,
  "TxRefAmp": 231.28,
  "WipMemBlock": "3f1e4506-d95a-4114-bb2a-83bb1d44b942||Sequence: R016 ve11c/master r/e634e98; Dec 19 2017 11:00:25 by eja",
  "dcmmeta_affine": [
    [-2.681915283203125, -0.024340836331248283, 0.06997577846050262, 110.39820098876953],
    [-0.018063563853502274, 2.6722240447998047, 0.24024254083633423, -96.45462799072266],
    [0.07142172753810883, -0.2381652295589447, 2.688380002975464, -73.52365112304688],
    [0.0, 0.0, 0.0, 1.0]
],
  "dcmmeta_reorient_transform": [
    [0.0, -1.0, 0.0, 81.0],
    [1.0, 0.0, 0.0, 0.0],
    [0.0, 0.0, 1.0, 0.0],
    [0.0, 0.0, 0.0, 1.0]
],
  "dcmmeta_shape": [82, 82, 56, 914],
  "dcmmeta_slice_dim": 2,
  "dcmmeta_version": 0.6,
  "global": {
    "const": {
      "AccessionNumber": "A003824",
      "AcquisitionMatrix": [82, 0, 0, 82],
      "AngioFlag": "N",
      "BitsAllocated": 16,
      "BitsStored": 16,
      "BodyPartExamined": "BRAIN",
      "Columns": 656,
      "EchoNumbers": 1,
      "EchoTime": 27.2,
      "EchoTrainLength": 82,
      "FlipAngle": 44.0,
      "HighBit": 15,
      "ImageOrientationPatient": [0.99962292958182, 0.00673278240492, 0.02662082446791, -0.0090724932468, 0.99601077185587, 0.08877067203398],
      "ImagePositionPatient": [-871.15044483222, -892.1080753275, -181.66649047305],
      "ImageType": [
        "ORIGINAL",
        "PRIMARY",
        "M",
        "MB",
        "ND",
        "NORM",
        "MOSAIC"
],
      "ImagedNucleus": "1H",
      "ImagingFrequency": 123.252245,
      "InPlanePhaseEncodingDirection": "COL",
      "MRAcquisitionType": "2D",
      "MagneticFieldStrength": 3.0,
      "Manufacturer": "SIEMENS",
      "ManufacturerModelName": "Prisma",
      "Modality": "MR",
      "NumberOfAverages": 1.0,
      "NumberOfPhaseEncodingSteps": 82,
      "PercentPhaseFieldOfView": 100.0,
      "PercentSampling": 100.0,
      "PerformedProcedureStepStartTime": "084139.568000",
      "PhotometricInterpretation": "MONOCHROME2",
      "PixelBandwidth": 3050.0,
      "PixelRepresentation": 0,
      "PixelSpacing": [2.6829268932343, 2.6829268932343],
      "ProtocolName": "func_run-03_task-faces_acq-ap-mb8",
      "RepetitionTime": 460.0,
      "Rows": 656,
      "SAR": 0.07196281947862,
      "SamplesPerPixel": 1,
      "ScanOptions": "FS",
      "ScanningSequence": "EP",
      "SequenceName": "epfid2d1_82",
      "SequenceVariant": [
        "SK",
        "SS"
],
      "SeriesDescription": "func_run-03_task-faces_acq-ap-mb8",
      "SeriesNumber": 22,
      "SeriesTime": "101621.357000",
      "SliceLocation": -78.928452573775,
      "SliceThickness": 2.7000000476837,
      "SmallestImagePixelValue": 0,
      "SoftwareVersions": "syngo MR E11",
      "SpacingBetweenSlices": 2.7000000365344,
      "SpecificCharacterSet": "ISO_IR 100",
      "StudyID": "2",
      "StudyTime": "084139.462000",
      "TransmitCoilName": "Body",
      "VariableFlipAngleFlag": "N",
      "WindowCenterWidthExplanation": "Algo1",
      "dBdt": 0.0},
    "slices": {}
  },
  "time": {
    "samples": {
      "AcquisitionNumber": [1, 2, 3, 4, 5, 6, 7, 8, 9, 10, 11, 12, 13, 14, 15, 16, 17, 18, 19, 20, 21, 22, 23, 24, 25, 26, 27, 28, 29, 30, 31, 32, 33, 34, 35, 36, 37, 38, 39, 40, 41, 42, 43, 44, 45, 46, 47, 48, 49, 50, 51, 52, 53, 54, 55, 56, 57, 58, 59, 60, 61, 62, 63, 64, 65, 66, 67, 68, 69, 70, 71, 72, 73, 74, 75, 76, 77, 78, 79, 80, 81, 82, 83, 84, 85, 86, 87, 88, 89, 90, 91, 92, 93, 94, 95, 96, 97, 98, 99, 100, 101, 102, 103, 104, 105, 106, 107, 108, 109, 110, 111, 112, 113, 114, 115, 116, 117, 118, 119, 120, 121, 122, 123, 124, 125, 126, 127, 128, 129, 130, 131, 132, 133, 134, 135, 136, 137, 138, 139, 140, 141, 142, 143, 144, 145, 146, 147, 148, 149, 150, 151, 152, 153, 154, 155, 156, 157, 158, 159, 160, 161, 162, 163, 164, 165, 166, 167, 168, 169, 170, 171, 172, 173, 174, 175, 176, 177, 178, 179, 180, 181, 182, 183, 184, 185, 186, 187, 188, 189, 190, 191, 192, 193, 194, 195, 196, 197, 198, 199, 200, 201, 202, 203, 204, 205, 206, 207, 208, 209, 210, 211, 212, 213, 214, 215, 216, 217, 218, 219, 220, 221, 222, 223, 224, 225, 226, 227, 228, 229, 230, 231, 232, 233, 234, 235, 236, 237, 238, 239, 240, 241, 242, 243, 244, 245, 246, 247, 248, 249, 250, 251, 252, 253, 254, 255, 256, 257, 258, 259, 260, 261, 262, 263, 264, 265, 266, 267, 268, 269, 270, 271, 272, 273, 274, 275, 276, 277, 278, 279, 280, 281, 282, 283, 284, 285, 286, 287, 288, 289, 290, 291, 292, 293, 294, 295, 296, 297, 298, 299, 300, 301, 302, 303, 304, 305, 306, 307, 308, 309, 310, 311, 312, 313, 314, 315, 316, 317, 318, 319, 320, 321, 322, 323, 324, 325, 326, 327, 328, 329, 330, 331, 332, 333, 334, 335, 336, 337, 338, 339, 340, 341, 342, 343, 344, 345, 346, 347, 348, 349, 350, 351, 352, 353, 354, 355, 356, 357, 358, 359, 360, 361, 362, 363, 364, 365, 366, 367, 368, 369, 370, 371, 372, 373, 374, 375, 376, 377, 378, 379, 380, 381, 382, 383, 384, 385, 386, 387, 388, 389, 390, 391, 392, 393, 394, 395, 396, 397, 398, 399, 400, 401, 402, 403, 404, 405, 406, 407, 408, 409, 410, 411, 412, 413, 414, 415, 416, 417, 418, 419, 420, 421, 422, 423, 424, 425, 426, 427, 428, 429, 430, 431, 432, 433, 434, 435, 436, 437, 438, 439, 440, 441, 442, 443, 444, 445, 446, 447, 448, 449, 450, 451, 452, 453, 454, 455, 456, 457, 458, 459, 460, 461, 462, 463, 464, 465, 466, 467, 468, 469, 470, 471, 472, 473, 474, 475, 476, 477, 478, 479, 480, 481, 482, 483, 484, 485, 486, 487, 488, 489, 490, 491, 492, 493, 494, 495, 496, 497, 498, 499, 500, 501, 502, 503, 504, 505, 506, 507, 508, 509, 510, 511, 512, 513, 514, 515, 516, 517, 518, 519, 520, 521, 522, 523, 524, 525, 526, 527, 528, 529, 530, 531, 532, 533, 534, 535, 536, 537, 538, 539, 540, 541, 542, 543, 544, 545, 546, 547, 548, 549, 550, 551, 552, 553, 554, 555, 556, 557, 558, 559, 560, 561, 562, 563, 564, 565, 566, 567, 568, 569, 570, 571, 572, 573, 574, 575, 576, 577, 578, 579, 580, 581, 582, 583, 584, 585, 586, 587, 588, 589, 590, 591, 592, 593, 594, 595, 596, 597, 598, 599, 600, 601, 602, 603, 604, 605, 606, 607, 608, 609, 610, 611, 612, 613, 614, 615, 616, 617, 618, 619, 620, 621, 622, 623, 624, 625, 626, 627, 628, 629, 630, 631, 632, 633, 634, 635, 636, 637, 638, 639, 640, 641, 642, 643, 644, 645, 646, 647, 648, 649, 650, 651, 652, 653, 654, 655, 656, 657, 658, 659, 660, 661, 662, 663, 664, 665, 666, 667, 668, 669, 670, 671, 672, 673, 674, 675, 676, 677, 678, 679, 680, 681, 682, 683, 684, 685, 686, 687, 688, 689, 690, 691, 692, 693, 694, 695, 696, 697, 698, 699, 700, 701, 702, 703, 704, 705, 706, 707, 708, 709, 710, 711, 712, 713, 714, 715, 716, 717, 718, 719, 720, 721, 722, 723, 724, 725, 726, 727, 728, 729, 730, 731, 732, 733, 734, 735, 736, 737, 738, 739, 740, 741, 742, 743, 744, 745, 746, 747, 748, 749, 750, 751, 752, 753, 754, 755, 756, 757, 758, 759, 760, 761, 762, 763, 764, 765, 766, 767, 768, 769, 770, 771, 772, 773, 774, 775, 776, 777, 778, 779, 780, 781, 782, 783, 784, 785, 786, 787, 788, 789, 790, 791, 792, 793, 794, 795, 796, 797, 798, 799, 800, 801, 802, 803, 804, 805, 806, 807, 808, 809, 810, 811, 812, 813, 814, 815, 816, 817, 818, 819, 820, 821, 822, 823, 824, 825, 826, 827, 828, 829, 830, 831, 832, 833, 834, 835, 836, 837, 838, 839, 840, 841, 842, 843, 844, 845, 846, 847, 848, 849, 850, 851, 852, 853, 854, 855, 856, 857, 858, 859, 860, 861, 862, 863, 864, 865, 866, 867, 868, 869, 870, 871, 872, 873, 874, 875, 876, 877, 878, 879, 880, 881, 882, 883, 884, 885, 886, 887, 888, 889, 890, 891, 892, 893, 894, 895, 896, 897, 898, 899, 900, 901, 902, 903, 904, 905, 906, 907, 908, 909, 910, 911, 912, 913, 914],
      "AcquisitionTime": ["101601.617500", "101602.077500", "101602.537500", "101602.997500", "101603.457500", "101603.917500", "101604.377500", "101604.837500", "101605.297500", "101605.757500", "101606.217500", "101606.677500", "101607.137500", "101607.597500", "101608.057500", "101608.517500", "101608.977500", "101609.437500", "101609.897500", "101610.357500", "101610.817500", "101611.277500", "101611.737500", "101612.197500", "101612.657500", "101613.117500", "101613.577500", "101614.037500", "101614.497500", "101614.957500", "101615.417500", "101615.877500", "101616.337500", "101616.797500", "101617.257500", "101617.717500", "101618.177500", "101618.637500", "101619.097500", "101619.557500", "101620.017500", "101620.477500", "101620.937500", "101621.397500", "101621.857500", "101622.317500", "101622.777500", "101623.237500", "101623.697500", "101624.157500", "101624.617500", "101625.077500", "101625.537500", "101625.997500", "101626.457500", "101626.917500", "101627.377500", "101627.837500", "101628.297500", "101628.757500", "101629.217500", "101629.677500", "101630.137500", "101630.597500", "101631.057500", "101631.517500", "101631.977500", "101632.437500", "101632.897500", "101633.357500", "101633.817500", "101634.277500", "101634.737500", "101635.197500", "101635.657500", "101636.117500", "101636.577500", "101637.037500", "101637.497500", "101637.957500", "101638.417500", "101638.877500", "101639.337500", "101639.797500", "101640.257500", "101640.717500", "101641.177500", "101641.637500", "101642.097500", "101642.557500", "101643.017500", "101643.477500", "101643.937500", "101644.397500", "101644.857500", "101645.317500", "101645.777500", "101646.237500", "101646.697500", "101647.157500", "101647.617500", "101648.077500", "101648.537500", "101648.997500", "101649.457500", "101649.917500", "101650.377500", "101650.837500", "101651.297500", "101651.757500", "101652.217500", "101652.677500", "101653.137500", "101653.597500", "101654.057500", "101654.517500", "101654.977500", "101655.437500", "101655.897500", "101656.357500", "101656.817500", "101657.277500", "101657.737500", "101658.197500", "101658.657500", "101659.117500", "101659.577500", "101700.037500", "101700.497500", "101700.957500", "101701.417500", "101701.877500", "101702.337500", "101702.797500", "101703.257500", "101703.717500", "101704.177500", "101704.637500", "101705.097500", "101705.557500", "101706.017500", "101706.477500", "101706.937500", "101707.397500", "101707.857500", "101708.317500", "101708.777500", "101709.237500", "101709.697500", "101710.157500", "101710.617500", "101711.077500", "101711.537500", "101711.997500", "101712.457500", "101712.917500", "101713.377500", "101713.837500", "101714.297500", "101714.757500", "101715.217500", "101715.677500", "101716.137500", "101716.597500", "101717.057500", "101717.517500", "101717.977500", "101718.437500", "101718.897500", "101719.357500", "101719.817500", "101720.277500", "101720.737500", "101721.197500", "101721.657500", "101722.117500", "101722.577500", "101723.037500", "101723.497500", "101723.957500", "101724.417500", "101724.877500", "101725.337500", "101725.797500", "101726.257500", "101726.717500", "101727.177500", "101727.637500", "101728.097500", "101728.557500", "101729.017500", "101729.477500", "101729.937500", "101730.397500", "101730.857500", "101731.317500", "101731.777500", "101732.237500", "101732.697500", "101733.157500", "101733.617500", "101734.077500", "101734.537500", "101734.997500", "101735.457500", "101735.917500", "101736.377500", "101736.837500", "101737.297500", "101737.757500", "101738.217500", "101738.677500", "101739.137500", "101739.597500", "101740.057500", "101740.517500", "101740.977500", "101741.437500", "101741.897500", "101742.357500", "101742.817500", "101743.277500", "101743.737500", "101744.197500", "101744.657500", "101745.117500", "101745.577500", "101746.037500", "101746.497500", "101746.957500", "101747.417500", "101747.877500", "101748.337500", "101748.797500", "101749.257500", "101749.717500", "101750.177500", "101750.637500", "101751.097500", "101751.557500", "101752.017500", "101752.477500", "101752.937500", "101753.397500", "101753.857500", "101754.317500", "101754.777500", "101755.237500", "101755.697500", "101756.157500", "101756.617500", "101757.077500", "101757.537500", "101757.997500", "101758.457500", "101758.917500", "101759.377500", "101759.837500", "101800.297500", "101800.757500", "101801.217500", "101801.677500", "101802.137500", "101802.597500", "101803.057500", "101803.517500", "101803.977500", "101804.437500", "101804.897500", "101805.357500", "101805.817500", "101806.277500", "101806.737500", "101807.197500", "101807.657500", "101808.117500", "101808.577500", "101809.037500", "101809.497500", "101809.957500", "101810.417500", "101810.877500", "101811.337500", "101811.797500", "101812.257500", "101812.717500", "101813.177500", "101813.637500", "101814.097500", "101814.557500", "101815.017500", "101815.477500", "101815.937500", "101816.397500", "101816.857500", "101817.317500", "101817.777500", "101818.237500", "101818.697500", "101819.157500", "101819.617500", "101820.077500", "101820.537500", "101820.997500", "101821.457500", "101821.917500", "101822.377500", "101822.837500", "101823.297500", "101823.757500", "101824.217500", "101824.677500", "101825.137500", "101825.597500", "101826.057500", "101826.517500", "101826.977500", "101827.437500", "101827.897500", "101828.357500", "101828.817500", "101829.277500", "101829.737500", "101830.197500", "101830.657500", "101831.117500", "101831.577500", "101832.037500", "101832.497500", "101832.957500", "101833.417500", "101833.877500", "101834.337500", "101834.797500", "101835.257500", "101835.717500", "101836.177500", "101836.637500", "101837.097500", "101837.557500", "101838.017500", "101838.477500", "101838.937500", "101839.397500", "101839.857500", "101840.317500", "101840.777500", "101841.237500", "101841.697500", "101842.157500", "101842.617500", "101843.077500", "101843.537500", "101843.997500", "101844.457500", "101844.917500", "101845.377500", "101845.837500", "101846.297500", "101846.757500", "101847.217500", "101847.677500", "101848.137500", "101848.597500", "101849.057500", "101849.517500", "101849.977500", "101850.437500", "101850.897500", "101851.357500", "101851.817500", "101852.277500", "101852.737500", "101853.197500", "101853.657500", "101854.117500", "101854.577500", "101855.037500", "101855.497500", "101855.957500", "101856.417500", "101856.877500", "101857.337500", "101857.797500", "101858.257500", "101858.717500", "101859.177500", "101859.637500", "101900.097500", "101900.557500", "101901.017500", "101901.477500", "101901.937500", "101902.397500", "101902.857500", "101903.317500", "101903.777500", "101904.237500", "101904.697500", "101905.157500", "101905.617500", "101906.077500", "101906.537500", "101906.997500", "101907.457500", "101907.917500", "101908.377500", "101908.837500", "101909.297500", "101909.757500", "101910.217500", "101910.677500", "101911.137500", "101911.597500", "101912.057500", "101912.517500", "101912.977500", "101913.437500", "101913.897500", "101914.357500", "101914.817500", "101915.277500", "101915.737500", "101916.197500", "101916.657500", "101917.117500", "101917.577500", "101918.037500", "101918.497500", "101918.957500", "101919.417500", "101919.877500", "101920.337500", "101920.797500", "101921.257500", "101921.717500", "101922.177500", "101922.637500", "101923.097500", "101923.557500", "101924.017500", "101924.477500", "101924.937500", "101925.397500", "101925.857500", "101926.317500", "101926.777500", "101927.237500", "101927.697500", "101928.157500", "101928.617500", "101929.077500", "101929.537500", "101929.997500", "101930.457500", "101930.917500", "101931.377500", "101931.837500", "101932.297500", "101932.757500", "101933.217500", "101933.677500", "101934.137500", "101934.597500", "101935.057500", "101935.517500", "101935.977500", "101936.437500", "101936.897500", "101937.357500", "101937.817500", "101938.277500", "101938.737500", "101939.197500", "101939.657500", "101940.117500", "101940.577500", "101941.037500", "101941.497500", "101941.957500", "101942.417500", "101942.877500", "101943.337500", "101943.797500", "101944.257500", "101944.717500", "101945.177500", "101945.637500", "101946.097500", "101946.557500", "101947.017500", "101947.477500", "101947.937500", "101948.397500", "101948.857500", "101949.317500", "101949.777500", "101950.237500", "101950.697500", "101951.157500", "101951.617500", "101952.077500", "101952.537500", "101952.997500", "101953.457500", "101953.917500", "101954.377500", "101954.837500", "101955.297500", "101955.757500", "101956.217500", "101956.677500", "101957.137500", "101957.597500", "101958.057500", "101958.517500", "101958.977500", "101959.437500", "101959.897500", "102000.357500", "102000.817500", "102001.277500", "102001.737500", "102002.197500", "102002.657500", "102003.117500", "102003.577500", "102004.037500", "102004.497500", "102004.957500", "102005.417500", "102005.877500", "102006.337500", "102006.797500", "102007.257500", "102007.717500", "102008.177500", "102008.637500", "102009.097500", "102009.557500", "102010.017500", "102010.477500", "102010.937500", "102011.397500", "102011.857500", "102012.317500", "102012.777500", "102013.237500", "102013.697500", "102014.157500", "102014.617500", "102015.077500", "102015.537500", "102015.997500", "102016.457500", "102016.917500", "102017.377500", "102017.837500", "102018.297500", "102018.757500", "102019.217500", "102019.677500", "102020.137500", "102020.597500", "102021.057500", "102021.517500", "102021.977500", "102022.437500", "102022.897500", "102023.357500", "102023.817500", "102024.277500", "102024.737500", "102025.197500", "102025.657500", "102026.117500", "102026.577500", "102027.037500", "102027.497500", "102027.957500", "102028.417500", "102028.877500", "102029.337500", "102029.797500", "102030.257500", "102030.717500", "102031.177500", "102031.637500", "102032.097500", "102032.557500", "102033.017500", "102033.477500", "102033.937500", "102034.397500", "102034.857500", "102035.317500", "102035.777500", "102036.237500", "102036.697500", "102037.157500", "102037.617500", "102038.077500", "102038.537500", "102038.997500", "102039.457500", "102039.917500", "102040.377500", "102040.837500", "102041.297500", "102041.757500", "102042.217500", "102042.677500", "102043.137500", "102043.597500", "102044.057500", "102044.517500", "102044.977500", "102045.437500", "102045.897500", "102046.357500", "102046.817500", "102047.277500", "102047.737500", "102048.197500", "102048.657500", "102049.117500", "102049.577500", "102050.037500", "102050.497500", "102050.957500", "102051.417500", "102051.877500", "102052.337500", "102052.797500", "102053.257500", "102053.717500", "102054.177500", "102054.637500", "102055.097500", "102055.557500", "102056.017500", "102056.477500", "102056.937500", "102057.397500", "102057.857500", "102058.317500", "102058.777500", "102059.237500", "102059.697500", "102100.157500", "102100.617500", "102101.077500", "102101.537500", "102101.997500", "102102.457500", "102102.917500", "102103.377500", "102103.837500", "102104.297500", "102104.757500", "102105.217500", "102105.677500", "102106.137500", "102106.597500", "102107.057500", "102107.517500", "102107.977500", "102108.437500", "102108.897500", "102109.357500", "102109.817500", "102110.277500", "102110.737500", "102111.197500", "102111.657500", "102112.117500", "102112.577500", "102113.037500", "102113.497500", "102113.957500", "102114.417500", "102114.877500", "102115.337500", "102115.797500", "102116.257500", "102116.717500", "102117.177500", "102117.637500", "102118.097500", "102118.557500", "102119.017500", "102119.477500", "102119.937500", "102120.397500", "102120.857500", "102121.317500", "102121.777500", "102122.237500", "102122.697500", "102123.157500", "102123.617500", "102124.077500", "102124.537500", "102124.997500", "102125.457500", "102125.917500", "102126.377500", "102126.837500", "102127.297500", "102127.757500", "102128.217500", "102128.677500", "102129.137500", "102129.597500", "102130.057500", "102130.517500", "102130.977500", "102131.437500", "102131.897500", "102132.357500", "102132.817500", "102133.277500", "102133.737500", "102134.197500", "102134.657500", "102135.117500", "102135.577500", "102136.037500", "102136.497500", "102136.957500", "102137.417500", "102137.877500", "102138.337500", "102138.797500", "102139.257500", "102139.717500", "102140.177500", "102140.637500", "102141.097500", "102141.557500", "102142.017500", "102142.477500", "102142.937500", "102143.397500", "102143.857500", "102144.317500", "102144.777500", "102145.237500", "102145.697500", "102146.157500", "102146.617500", "102147.077500", "102147.537500", "102147.997500", "102148.457500", "102148.917500", "102149.377500", "102149.837500", "102150.297500", "102150.757500", "102151.217500", "102151.677500", "102152.137500", "102152.597500", "102153.057500", "102153.517500", "102153.977500", "102154.437500", "102154.897500", "102155.357500", "102155.817500", "102156.277500", "102156.737500", "102157.197500", "102157.657500", "102158.117500", "102158.577500", "102159.037500", "102159.497500", "102159.957500", "102200.417500", "102200.877500", "102201.337500", "102201.797500", "102202.257500", "102202.717500", "102203.177500", "102203.637500", "102204.097500", "102204.557500", "102205.017500", "102205.477500", "102205.937500", "102206.397500", "102206.857500", "102207.317500", "102207.777500", "102208.237500", "102208.697500", "102209.157500", "102209.617500", "102210.077500", "102210.537500", "102210.997500", "102211.457500", "102211.917500", "102212.377500", "102212.837500", "102213.297500", "102213.757500", "102214.217500", "102214.677500", "102215.137500", "102215.597500", "102216.057500", "102216.517500", "102216.977500", "102217.437500", "102217.897500", "102218.357500", "102218.817500", "102219.277500", "102219.737500", "102220.197500", "102220.657500", "102221.117500", "102221.577500", "102222.037500", "102222.497500", "102222.957500", "102223.417500", "102223.877500", "102224.337500", "102224.797500", "102225.257500", "102225.717500", "102226.177500", "102226.637500", "102227.097500", "102227.557500", "102228.017500", "102228.477500", "102228.937500", "102229.397500", "102229.857500", "102230.317500", "102230.777500", "102231.237500", "102231.697500", "102232.157500", "102232.617500", "102233.077500", "102233.537500", "102233.997500", "102234.457500", "102234.917500", "102235.377500", "102235.837500", "102236.297500", "102236.757500", "102237.217500", "102237.677500", "102238.137500", "102238.597500", "102239.057500", "102239.517500", "102239.977500", "102240.437500", "102240.897500", "102241.357500", "102241.817500", "102242.277500", "102242.737500", "102243.197500", "102243.657500", "102244.117500", "102244.577500", "102245.037500", "102245.497500", "102245.957500", "102246.417500", "102246.877500", "102247.337500", "102247.797500", "102248.257500", "102248.717500", "102249.177500", "102249.637500", "102250.097500", "102250.557500", "102251.017500", "102251.477500", "102251.937500", "102252.397500", "102252.857500", "102253.317500", "102253.777500", "102254.237500", "102254.697500", "102255.157500", "102255.617500", "102256.077500", "102256.537500", "102256.997500", "102257.457500", "102257.917500", "102258.377500", "102258.837500", "102259.297500", "102259.757500", "102300.217500", "102300.677500", "102301.137500", "102301.597500"],
