{
  "AcquisitionMatrixPE": 82,
  "AcquisitionNumber": 1,
  "AcquisitionTime": "10:00:47.587500",
  "BandwidthPerPixelPhaseEncode": 24.888,
  "BaseResolution": 82,
  "BodyPartExamined": "BRAIN",
  "ConsistencyInfo": "N4_VE11C_LATEST_20160120",
  "ConversionSoftware": "dcm2niix",
  "ConversionSoftwareVersion": "v1.0.20201102",
  "DerivedVendorReportedEchoSpacing": 0.00049,
  "DeviceSerialNumber": "66112",
  "DwellTime": 2e-06,
  "EchoTime": 0.0272,
  "EchoTrainLength": 82,
  "EffectiveEchoSpacing": 0.00049,
  "FlipAngle": 44,
  "ImageComments": "Unaliased MB8/PE3",
  "ImageOrientationPatientDICOM": [0.999623, 0.00673278, 0.0266208, -0.00907249, 0.996011, 0.0887707],
  "ImageType": [
    "ORIGINAL",
    "PRIMARY",
    "M",
    "MB",
    "ND",
    "NORM",
    "MOSAIC"
],
  "ImagingFrequency": 123.252,
  "InPlanePhaseEncodingDirectionDICOM": "COL",
  "InstitutionAddress": "Maynard 3,Hanover,NH,US,03755",
  "InstitutionName": "Dartmouth College - PBS",
  "InstitutionalDepartmentName": "Department",
  "MRAcquisitionType": "2D",
  "MagneticFieldStrength": 3,
  "Manufacturer": "Siemens",
  "ManufacturersModelName": "Prisma",
  "Modality": "MR",
  "MultibandAccelerationFactor": 8,
  "PartialFourier": 1,
  "PatientPosition": "HFS",
  "PercentPhaseFOV": 100,
  "PercentSampling": 100,
  "PhaseEncodingDirection": "j-",
  "PhaseEncodingSteps": 82,
  "PhaseResolution": 1,
  "PixelBandwidth": 3050,
  "ProcedureStepDescription": "Wager_Wager^1076_spacetop",
  "ProtocolName": "func_run-01_task-faces_acq-ap-mb8",
  "PulseSequenceDetails": "%CustomerSeq%\\cmrr_mbep2d_bold",
  "ReceiveCoilActiveElements": "HEA;HEP",
  "ReceiveCoilName": "Head_32",
  "ReconMatrixPE": 82,
  "RepetitionTime": 0.46,
  "SAR": 0.0719628,
  "ScanOptions": "FS",
  "ScanningSequence": "EP",
  "SequenceName": "epfid2d1_82",
  "SequenceVariant": "SK\\SS",
  "SeriesDescription": "func_run-01_task-faces_acq-ap-mb8",
  "SeriesNumber": 18,
  "ShimSetting": [4151, -7758, -7269, 567, -119, -214, -23, 98],
  "SliceThickness": 2.7,
  "SliceTiming": [0, 0.2525, 0.0625, 0.315, 0.125, 0.3775, 0.1875, 0, 0.2525, 0.0625, 0.315, 0.125, 0.3775, 0.1875, 0, 0.2525, 0.0625, 0.315, 0.125, 0.3775, 0.1875, 0, 0.2525, 0.0625, 0.315, 0.125, 0.3775, 0.1875, 0, 0.2525, 0.0625, 0.315, 0.125, 0.3775, 0.1875, 0, 0.2525, 0.0625, 0.315, 0.125, 0.3775, 0.1875, 0, 0.2525, 0.0625, 0.315, 0.125, 0.3775, 0.1875, 0, 0.2525, 0.0625, 0.315, 0.125, 0.3775, 0.1875],
  "SoftwareVersions": "syngo MR E11",
  "SpacingBetweenSlices": 2.7,
  "StationName": "AWP66112",
  "TaskName": "faces",
  "TotalReadoutTime": 0.03969,
  "TxRefAmp": 231.28,
  "WipMemBlock": "06297e12-f47e-42be-afb0-9d285280a8a2||Sequence: R016 ve11c/master r/e634e98; Dec 19 2017 11:00:25 by eja",
  "dcmmeta_affine": [
    [-2.681915283203125, -0.024340836331248283, 0.06997577846050262, 110.39820098876953],
    [-0.018063563853502274, 2.6722240447998047, 0.24024254083633423, -96.45462799072266],
    [0.07142172753810883, -0.2381652295589447, 2.688380002975464, -73.52365112304688],
    [0.0, 0.0, 0.0, 1.0]
],
  "dcmmeta_reorient_transform": [
    [0.0, -1.0, 0.0, 81.0],
    [1.0, 0.0, 0.0, 0.0],
    [0.0, 0.0, 1.0, 0.0],
    [0.0, 0.0, 0.0, 1.0]
],
  "dcmmeta_shape": [82, 82, 56, 914],
  "dcmmeta_slice_dim": 2,
  "dcmmeta_version": 0.6,
  "global": {
    "const": {
      "AccessionNumber": "A003824",
      "AcquisitionMatrix": [82, 0, 0, 82],
      "AngioFlag": "N",
      "BitsAllocated": 16,
      "BitsStored": 16,
      "BodyPartExamined": "BRAIN",
      "Columns": 656,
      "EchoNumbers": 1,
      "EchoTime": 27.2,
      "EchoTrainLength": 82,
      "FlipAngle": 44.0,
      "HighBit": 15,
      "ImageOrientationPatient": [0.99962292958182, 0.00673278240492, 0.02662082446791, -0.0090724932468, 0.99601077185587, 0.08877067203398],
      "ImagePositionPatient": [-871.15044483222, -892.1080753275, -181.66649047305],
      "ImageType": [
        "ORIGINAL",
        "PRIMARY",
        "M",
        "MB",
        "ND",
        "NORM",
        "MOSAIC"
],
      "ImagedNucleus": "1H",
      "ImagingFrequency": 123.252237,
      "InPlanePhaseEncodingDirection": "COL",
      "MRAcquisitionType": "2D",
      "MagneticFieldStrength": 3.0,
      "Manufacturer": "SIEMENS",
      "ManufacturerModelName": "Prisma",
      "Modality": "MR",
      "NumberOfAverages": 1.0,
      "NumberOfPhaseEncodingSteps": 82,
      "PercentPhaseFieldOfView": 100.0,
      "PercentSampling": 100.0,
      "PerformedProcedureStepStartTime": "084139.568000",
      "PhotometricInterpretation": "MONOCHROME2",
      "PixelBandwidth": 3050.0,
      "PixelRepresentation": 0,
      "PixelSpacing": [2.6829268932343, 2.6829268932343],
      "ProtocolName": "func_run-01_task-faces_acq-ap-mb8",
      "RepetitionTime": 460.0,
      "Rows": 656,
      "SAR": 0.07196281947862,
      "SamplesPerPixel": 1,
      "ScanOptions": "FS",
      "ScanningSequence": "EP",
      "SequenceName": "epfid2d1_82",
      "SequenceVariant": [
        "SK",
        "SS"
],
      "SeriesDescription": "func_run-01_task-faces_acq-ap-mb8",
      "SeriesNumber": 18,
      "SeriesTime": "100101.211000",
      "SliceLocation": -78.928452573775,
      "SliceThickness": 2.7000000476837,
      "SmallestImagePixelValue": 0,
      "SoftwareVersions": "syngo MR E11",
      "SpacingBetweenSlices": 2.7000000365344,
      "SpecificCharacterSet": "ISO_IR 100",
      "StudyID": "2",
      "StudyTime": "084139.462000",
      "TransmitCoilName": "Body",
      "VariableFlipAngleFlag": "N",
      "WindowCenterWidthExplanation": "Algo1",
      "dBdt": 0.0},
    "slices": {}
  },
  "time": {
    "samples": {
      "AcquisitionNumber": [1, 2, 3, 4, 5, 6, 7, 8, 9, 10, 11, 12, 13, 14, 15, 16, 17, 18, 19, 20, 21, 22, 23, 24, 25, 26, 27, 28, 29, 30, 31, 32, 33, 34, 35, 36, 37, 38, 39, 40, 41, 42, 43, 44, 45, 46, 47, 48, 49, 50, 51, 52, 53, 54, 55, 56, 57, 58, 59, 60, 61, 62, 63, 64, 65, 66, 67, 68, 69, 70, 71, 72, 73, 74, 75, 76, 77, 78, 79, 80, 81, 82, 83, 84, 85, 86, 87, 88, 89, 90, 91, 92, 93, 94, 95, 96, 97, 98, 99, 100, 101, 102, 103, 104, 105, 106, 107, 108, 109, 110, 111, 112, 113, 114, 115, 116, 117, 118, 119, 120, 121, 122, 123, 124, 125, 126, 127, 128, 129, 130, 131, 132, 133, 134, 135, 136, 137, 138, 139, 140, 141, 142, 143, 144, 145, 146, 147, 148, 149, 150, 151, 152, 153, 154, 155, 156, 157, 158, 159, 160, 161, 162, 163, 164, 165, 166, 167, 168, 169, 170, 171, 172, 173, 174, 175, 176, 177, 178, 179, 180, 181, 182, 183, 184, 185, 186, 187, 188, 189, 190, 191, 192, 193, 194, 195, 196, 197, 198, 199, 200, 201, 202, 203, 204, 205, 206, 207, 208, 209, 210, 211, 212, 213, 214, 215, 216, 217, 218, 219, 220, 221, 222, 223, 224, 225, 226, 227, 228, 229, 230, 231, 232, 233, 234, 235, 236, 237, 238, 239, 240, 241, 242, 243, 244, 245, 246, 247, 248, 249, 250, 251, 252, 253, 254, 255, 256, 257, 258, 259, 260, 261, 262, 263, 264, 265, 266, 267, 268, 269, 270, 271, 272, 273, 274, 275, 276, 277, 278, 279, 280, 281, 282, 283, 284, 285, 286, 287, 288, 289, 290, 291, 292, 293, 294, 295, 296, 297, 298, 299, 300, 301, 302, 303, 304, 305, 306, 307, 308, 309, 310, 311, 312, 313, 314, 315, 316, 317, 318, 319, 320, 321, 322, 323, 324, 325, 326, 327, 328, 329, 330, 331, 332, 333, 334, 335, 336, 337, 338, 339, 340, 341, 342, 343, 344, 345, 346, 347, 348, 349, 350, 351, 352, 353, 354, 355, 356, 357, 358, 359, 360, 361, 362, 363, 364, 365, 366, 367, 368, 369, 370, 371, 372, 373, 374, 375, 376, 377, 378, 379, 380, 381, 382, 383, 384, 385, 386, 387, 388, 389, 390, 391, 392, 393, 394, 395, 396, 397, 398, 399, 400, 401, 402, 403, 404, 405, 406, 407, 408, 409, 410, 411, 412, 413, 414, 415, 416, 417, 418, 419, 420, 421, 422, 423, 424, 425, 426, 427, 428, 429, 430, 431, 432, 433, 434, 435, 436, 437, 438, 439, 440, 441, 442, 443, 444, 445, 446, 447, 448, 449, 450, 451, 452, 453, 454, 455, 456, 457, 458, 459, 460, 461, 462, 463, 464, 465, 466, 467, 468, 469, 470, 471, 472, 473, 474, 475, 476, 477, 478, 479, 480, 481, 482, 483, 484, 485, 486, 487, 488, 489, 490, 491, 492, 493, 494, 495, 496, 497, 498, 499, 500, 501, 502, 503, 504, 505, 506, 507, 508, 509, 510, 511, 512, 513, 514, 515, 516, 517, 518, 519, 520, 521, 522, 523, 524, 525, 526, 527, 528, 529, 530, 531, 532, 533, 534, 535, 536, 537, 538, 539, 540, 541, 542, 543, 544, 545, 546, 547, 548, 549, 550, 551, 552, 553, 554, 555, 556, 557, 558, 559, 560, 561, 562, 563, 564, 565, 566, 567, 568, 569, 570, 571, 572, 573, 574, 575, 576, 577, 578, 579, 580, 581, 582, 583, 584, 585, 586, 587, 588, 589, 590, 591, 592, 593, 594, 595, 596, 597, 598, 599, 600, 601, 602, 603, 604, 605, 606, 607, 608, 609, 610, 611, 612, 613, 614, 615, 616, 617, 618, 619, 620, 621, 622, 623, 624, 625, 626, 627, 628, 629, 630, 631, 632, 633, 634, 635, 636, 637, 638, 639, 640, 641, 642, 643, 644, 645, 646, 647, 648, 649, 650, 651, 652, 653, 654, 655, 656, 657, 658, 659, 660, 661, 662, 663, 664, 665, 666, 667, 668, 669, 670, 671, 672, 673, 674, 675, 676, 677, 678, 679, 680, 681, 682, 683, 684, 685, 686, 687, 688, 689, 690, 691, 692, 693, 694, 695, 696, 697, 698, 699, 700, 701, 702, 703, 704, 705, 706, 707, 708, 709, 710, 711, 712, 713, 714, 715, 716, 717, 718, 719, 720, 721, 722, 723, 724, 725, 726, 727, 728, 729, 730, 731, 732, 733, 734, 735, 736, 737, 738, 739, 740, 741, 742, 743, 744, 745, 746, 747, 748, 749, 750, 751, 752, 753, 754, 755, 756, 757, 758, 759, 760, 761, 762, 763, 764, 765, 766, 767, 768, 769, 770, 771, 772, 773, 774, 775, 776, 777, 778, 779, 780, 781, 782, 783, 784, 785, 786, 787, 788, 789, 790, 791, 792, 793, 794, 795, 796, 797, 798, 799, 800, 801, 802, 803, 804, 805, 806, 807, 808, 809, 810, 811, 812, 813, 814, 815, 816, 817, 818, 819, 820, 821, 822, 823, 824, 825, 826, 827, 828, 829, 830, 831, 832, 833, 834, 835, 836, 837, 838, 839, 840, 841, 842, 843, 844, 845, 846, 847, 848, 849, 850, 851, 852, 853, 854, 855, 856, 857, 858, 859, 860, 861, 862, 863, 864, 865, 866, 867, 868, 869, 870, 871, 872, 873, 874, 875, 876, 877, 878, 879, 880, 881, 882, 883, 884, 885, 886, 887, 888, 889, 890, 891, 892, 893, 894, 895, 896, 897, 898, 899, 900, 901, 902, 903, 904, 905, 906, 907, 908, 909, 910, 911, 912, 913, 914],
      "AcquisitionTime": ["100047.587500", "100048.047500", "100048.507500", "100048.967500", "100049.427500", "100049.887500", "100050.347500", "100050.807500", "100051.267500", "100051.727500", "100052.187500", "100052.647500", "100053.107500", "100053.567500", "100054.027500", "100054.487500", "100054.947500", "100055.407500", "100055.867500", "100056.327500", "100056.787500", "100057.247500", "100057.707500", "100058.167500", "100058.627500", "100059.087500", "100059.547500", "100100.007500", "100100.467500", "100100.927500", "100101.387500", "100101.847500", "100102.307500", "100102.767500", "100103.227500", "100103.687500", "100104.147500", "100104.607500", "100105.067500", "100105.527500", "100105.987500", "100106.447500", "100106.907500", "100107.367500", "100107.827500", "100108.287500", "100108.747500", "100109.207500", "100109.667500", "100110.127500", "100110.587500", "100111.047500", "100111.507500", "100111.967500", "100112.427500", "100112.887500", "100113.347500", "100113.807500", "100114.267500", "100114.727500", "100115.187500", "100115.647500", "100116.107500", "100116.567500", "100117.027500", "100117.487500", "100117.947500", "100118.407500", "100118.867500", "100119.327500", "100119.787500", "100120.247500", "100120.707500", "100121.167500", "100121.627500", "100122.087500", "100122.547500", "100123.007500", "100123.467500", "100123.927500", "100124.387500", "100124.847500", "100125.307500", "100125.767500", "100126.227500", "100126.687500", "100127.147500", "100127.607500", "100128.067500", "100128.527500", "100128.987500", "100129.447500", "100129.907500", "100130.367500", "100130.827500", "100131.287500", "100131.747500", "100132.207500", "100132.667500", "100133.127500", "100133.587500", "100134.047500", "100134.507500", "100134.967500", "100135.427500", "100135.887500", "100136.347500", "100136.807500", "100137.267500", "100137.727500", "100138.187500", "100138.647500", "100139.107500", "100139.567500", "100140.027500", "100140.487500", "100140.947500", "100141.407500", "100141.867500", "100142.327500", "100142.787500", "100143.247500", "100143.707500", "100144.167500", "100144.627500", "100145.087500", "100145.547500", "100146.007500", "100146.467500", "100146.927500", "100147.387500", "100147.847500", "100148.307500", "100148.767500", "100149.227500", "100149.687500", "100150.147500", "100150.607500", "100151.067500", "100151.527500", "100151.987500", "100152.447500", "100152.907500", "100153.367500", "100153.827500", "100154.287500", "100154.747500", "100155.207500", "100155.667500", "100156.127500", "100156.587500", "100157.047500", "100157.507500", "100157.967500", "100158.427500", "100158.887500", "100159.347500", "100159.807500", "100200.267500", "100200.727500", "100201.187500", "100201.647500", "100202.107500", "100202.567500", "100203.027500", "100203.487500", "100203.947500", "100204.407500", "100204.867500", "100205.327500", "100205.787500", "100206.247500", "100206.707500", "100207.167500", "100207.627500", "100208.087500", "100208.547500", "100209.007500", "100209.467500", "100209.927500", "100210.387500", "100210.847500", "100211.307500", "100211.767500", "100212.227500", "100212.687500", "100213.147500", "100213.607500", "100214.067500", "100214.527500", "100214.987500", "100215.447500", "100215.907500", "100216.367500", "100216.827500", "100217.287500", "100217.747500", "100218.207500", "100218.667500", "100219.127500", "100219.587500", "100220.047500", "100220.507500", "100220.967500", "100221.427500", "100221.887500", "100222.347500", "100222.807500", "100223.267500", "100223.727500", "100224.187500", "100224.647500", "100225.107500", "100225.567500", "100226.027500", "100226.487500", "100226.947500", "100227.407500", "100227.867500", "100228.327500", "100228.787500", "100229.247500", "100229.707500", "100230.167500", "100230.627500", "100231.087500", "100231.547500", "100232.007500", "100232.467500", "100232.927500", "100233.387500", "100233.847500", "100234.307500", "100234.767500", "100235.227500", "100235.687500", "100236.147500", "100236.607500", "100237.067500", "100237.527500", "100237.987500", "100238.447500", "100238.907500", "100239.367500", "100239.827500", "100240.287500", "100240.747500", "100241.207500", "100241.667500", "100242.127500", "100242.587500", "100243.047500", "100243.507500", "100243.967500", "100244.427500", "100244.887500", "100245.347500", "100245.807500", "100246.267500", "100246.727500", "100247.187500", "100247.647500", "100248.107500", "100248.567500", "100249.027500", "100249.487500", "100249.947500", "100250.407500", "100250.867500", "100251.327500", "100251.787500", "100252.247500", "100252.707500", "100253.167500", "100253.627500", "100254.087500", "100254.547500", "100255.007500", "100255.467500", "100255.927500", "100256.387500", "100256.847500", "100257.307500", "100257.767500", "100258.227500", "100258.687500", "100259.147500", "100259.607500", "100300.067500", "100300.527500", "100300.987500", "100301.447500", "100301.907500", "100302.367500", "100302.827500", "100303.287500", "100303.747500", "100304.207500", "100304.667500", "100305.127500", "100305.587500", "100306.047500", "100306.507500", "100306.967500", "100307.427500", "100307.887500", "100308.347500", "100308.807500", "100309.267500", "100309.727500", "100310.187500", "100310.647500", "100311.107500", "100311.567500", "100312.027500", "100312.487500", "100312.947500", "100313.407500", "100313.867500", "100314.327500", "100314.787500", "100315.247500", "100315.707500", "100316.167500", "100316.627500", "100317.087500", "100317.547500", "100318.007500", "100318.467500", "100318.927500", "100319.387500", "100319.847500", "100320.307500", "100320.767500", "100321.227500", "100321.687500", "100322.147500", "100322.607500", "100323.067500", "100323.527500", "100323.987500", "100324.447500", "100324.907500", "100325.367500", "100325.827500", "100326.287500", "100326.747500", "100327.207500", "100327.667500", "100328.127500", "100328.587500", "100329.047500", "100329.507500", "100329.967500", "100330.427500", "100330.887500", "100331.347500", "100331.807500", "100332.267500", "100332.727500", "100333.187500", "100333.647500", "100334.107500", "100334.567500", "100335.027500", "100335.487500", "100335.947500", "100336.407500", "100336.867500", "100337.327500", "100337.787500", "100338.247500", "100338.707500", "100339.167500", "100339.627500", "100340.087500", "100340.547500", "100341.007500", "100341.467500", "100341.927500", "100342.387500", "100342.847500", "100343.307500", "100343.767500", "100344.227500", "100344.687500", "100345.147500", "100345.607500", "100346.067500", "100346.527500", "100346.987500", "100347.447500", "100347.907500", "100348.367500", "100348.827500", "100349.287500", "100349.747500", "100350.207500", "100350.667500", "100351.127500", "100351.587500", "100352.047500", "100352.507500", "100352.967500", "100353.427500", "100353.887500", "100354.347500", "100354.807500", "100355.267500", "100355.727500", "100356.187500", "100356.647500", "100357.107500", "100357.567500", "100358.027500", "100358.487500", "100358.947500", "100359.407500", "100359.867500", "100400.327500", "100400.787500", "100401.247500", "100401.707500", "100402.167500", "100402.627500", "100403.087500", "100403.547500", "100404.007500", "100404.467500", "100404.927500", "100405.387500", "100405.847500", "100406.307500", "100406.767500", "100407.227500", "100407.687500", "100408.147500", "100408.607500", "100409.067500", "100409.527500", "100409.987500", "100410.447500", "100410.907500", "100411.367500", "100411.827500", "100412.287500", "100412.747500", "100413.207500", "100413.667500", "100414.127500", "100414.587500", "100415.047500", "100415.507500", "100415.967500", "100416.427500", "100416.887500", "100417.347500", "100417.807500", "100418.267500", "100418.727500", "100419.187500", "100419.647500", "100420.107500", "100420.567500", "100421.027500", "100421.487500", "100421.947500", "100422.407500", "100422.867500", "100423.327500", "100423.787500", "100424.247500", "100424.707500", "100425.167500", "100425.627500", "100426.087500", "100426.547500", "100427.007500", "100427.467500", "100427.927500", "100428.387500", "100428.847500", "100429.307500", "100429.767500", "100430.227500", "100430.687500", "100431.147500", "100431.607500", "100432.067500", "100432.527500", "100432.987500", "100433.447500", "100433.907500", "100434.367500", "100434.827500", "100435.287500", "100435.747500", "100436.207500", "100436.667500", "100437.127500", "100437.587500", "100438.047500", "100438.507500", "100438.967500", "100439.427500", "100439.887500", "100440.347500", "100440.807500", "100441.267500", "100441.727500", "100442.187500", "100442.647500", "100443.107500", "100443.567500", "100444.027500", "100444.487500", "100444.947500", "100445.407500", "100445.867500", "100446.327500", "100446.787500", "100447.247500", "100447.707500", "100448.167500", "100448.627500", "100449.087500", "100449.547500", "100450.007500", "100450.467500", "100450.927500", "100451.387500", "100451.847500", "100452.307500", "100452.767500", "100453.227500", "100453.687500", "100454.147500", "100454.607500", "100455.067500", "100455.527500", "100455.987500", "100456.447500", "100456.907500", "100457.367500", "100457.827500", "100458.287500", "100458.747500", "100459.207500", "100459.667500", "100500.127500", "100500.587500", "100501.047500", "100501.507500", "100501.967500", "100502.427500", "100502.887500", "100503.347500", "100503.807500", "100504.267500", "100504.727500", "100505.187500", "100505.647500", "100506.107500", "100506.567500", "100507.027500", "100507.487500", "100507.947500", "100508.407500", "100508.867500", "100509.327500", "100509.787500", "100510.247500", "100510.707500", "100511.167500", "100511.627500", "100512.087500", "100512.547500", "100513.007500", "100513.467500", "100513.927500", "100514.387500", "100514.847500", "100515.307500", "100515.767500", "100516.227500", "100516.687500", "100517.147500", "100517.607500", "100518.067500", "100518.527500", "100518.987500", "100519.447500", "100519.907500", "100520.367500", "100520.827500", "100521.287500", "100521.747500", "100522.207500", "100522.667500", "100523.127500", "100523.587500", "100524.047500", "100524.507500", "100524.967500", "100525.427500", "100525.887500", "100526.347500", "100526.807500", "100527.267500", "100527.727500", "100528.187500", "100528.647500", "100529.107500", "100529.567500", "100530.027500", "100530.487500", "100530.947500", "100531.407500", "100531.867500", "100532.327500", "100532.787500", "100533.247500", "100533.707500", "100534.167500", "100534.627500", "100535.087500", "100535.547500", "100536.007500", "100536.467500", "100536.927500", "100537.387500", "100537.847500", "100538.307500", "100538.767500", "100539.227500", "100539.687500", "100540.147500", "100540.607500", "100541.067500", "100541.527500", "100541.987500", "100542.447500", "100542.907500", "100543.367500", "100543.827500", "100544.287500", "100544.747500", "100545.207500", "100545.667500", "100546.127500", "100546.587500", "100547.047500", "100547.507500", "100547.967500", "100548.427500", "100548.887500", "100549.347500", "100549.807500", "100550.267500", "100550.727500", "100551.187500", "100551.647500", "100552.107500", "100552.567500", "100553.027500", "100553.487500", "100553.947500", "100554.407500", "100554.867500", "100555.327500", "100555.787500", "100556.247500", "100556.707500", "100557.167500", "100557.627500", "100558.087500", "100558.547500", "100559.007500", "100559.467500", "100559.927500", "100600.387500", "100600.847500", "100601.307500", "100601.767500", "100602.227500", "100602.687500", "100603.147500", "100603.607500", "100604.067500", "100604.527500", "100604.987500", "100605.447500", "100605.907500", "100606.367500", "100606.827500", "100607.287500", "100607.747500", "100608.207500", "100608.667500", "100609.127500", "100609.587500", "100610.047500", "100610.507500", "100610.967500", "100611.427500", "100611.887500", "100612.347500", "100612.807500", "100613.267500", "100613.727500", "100614.187500", "100614.647500", "100615.107500", "100615.567500", "100616.027500", "100616.487500", "100616.947500", "100617.407500", "100617.867500", "100618.327500", "100618.787500", "100619.247500", "100619.707500", "100620.167500", "100620.627500", "100621.087500", "100621.547500", "100622.007500", "100622.467500", "100622.927500", "100623.387500", "100623.847500", "100624.307500", "100624.767500", "100625.227500", "100625.687500", "100626.147500", "100626.607500", "100627.067500", "100627.527500", "100627.987500", "100628.447500", "100628.907500", "100629.367500", "100629.827500", "100630.287500", "100630.747500", "100631.207500", "100631.667500", "100632.127500", "100632.587500", "100633.047500", "100633.507500", "100633.967500", "100634.427500", "100634.887500", "100635.347500", "100635.807500", "100636.267500", "100636.727500", "100637.187500", "100637.647500", "100638.107500", "100638.567500", "100639.027500", "100639.487500", "100639.947500", "100640.407500", "100640.867500", "100641.327500", "100641.787500", "100642.247500", "100642.707500", "100643.167500", "100643.627500", "100644.087500", "100644.547500", "100645.007500", "100645.467500", "100645.927500", "100646.387500", "100646.847500", "100647.307500", "100647.767500", "100648.227500", "100648.687500", "100649.147500", "100649.607500", "100650.067500", "100650.527500", "100650.987500", "100651.447500", "100651.907500", "100652.367500", "100652.827500", "100653.287500", "100653.747500", "100654.207500", "100654.667500", "100655.127500", "100655.587500", "100656.047500", "100656.507500", "100656.967500", "100657.427500", "100657.887500", "100658.347500", "100658.807500", "100659.267500", "100659.727500", "100700.187500", "100700.647500", "100701.107500", "100701.567500", "100702.027500", "100702.487500", "100702.947500", "100703.407500", "100703.867500", "100704.327500", "100704.787500", "100705.247500", "100705.707500", "100706.167500", "100706.627500", "100707.087500", "100707.547500", "100708.007500", "100708.467500", "100708.927500", "100709.387500", "100709.847500", "100710.307500", "100710.767500", "100711.227500", "100711.687500", "100712.147500", "100712.607500", "100713.067500", "100713.527500", "100713.987500", "100714.447500", "100714.907500", "100715.367500", "100715.827500", "100716.287500", "100716.747500", "100717.207500", "100717.667500", "100718.127500", "100718.587500", "100719.047500", "100719.507500", "100719.967500", "100720.427500", "100720.887500", "100721.347500", "100721.807500", "100722.267500", "100722.727500", "100723.187500", "100723.647500", "100724.107500", "100724.567500", "100725.027500", "100725.487500", "100725.947500", "100726.407500", "100726.867500", "100727.327500", "100727.787500", "100728.247500", "100728.707500", "100729.167500", "100729.627500", "100730.087500", "100730.547500", "100731.007500", "100731.467500", "100731.927500", "100732.387500", "100732.847500", "100733.307500", "100733.767500", "100734.227500", "100734.687500", "100735.147500", "100735.607500", "100736.067500", "100736.527500", "100736.987500", "100737.447500", "100737.907500", "100738.367500", "100738.827500", "100739.287500", "100739.747500", "100740.207500", "100740.667500", "100741.127500", "100741.587500", "100742.047500", "100742.507500", "100742.967500", "100743.427500", "100743.887500", "100744.347500", "100744.807500", "100745.267500", "100745.727500", "100746.187500", "100746.647500", "100747.107500", "100747.567500"],
