{
  "AcquisitionMatrixPE": 82,
  "AcquisitionNumber": 1,
  "AcquisitionTime": "10:56:36.555000",
  "BandwidthPerPixelPhaseEncode": 24.888,
  "BaseResolution": 82,
  "BodyPartExamined": "BRAIN",
  "ConsistencyInfo": "N4_VE11C_LATEST_20160120",
  "ConversionSoftware": "dcm2niix",
  "ConversionSoftwareVersion": "v1.0.20201102",
  "DerivedVendorReportedEchoSpacing": 0.00049,
  "DeviceSerialNumber": "66112",
  "DwellTime": 2e-06,
  "EchoTime": 0.0272,
  "EchoTrainLength": 82,
  "EffectiveEchoSpacing": 0.00049,
  "FlipAngle": 44,
  "ImageComments": "Unaliased MB8/PE3",
  "ImageOrientationPatientDICOM": [0.999042, 0.0165122, 0.0405219, -0.0186593, 0.99841, 0.0531922],
  "ImageType": [
    "ORIGINAL",
    "PRIMARY",
    "M",
    "MB",
    "ND",
    "NORM",
    "MOSAIC"
],
  "ImagingFrequency": 123.252,
  "InPlanePhaseEncodingDirectionDICOM": "COL",
  "InstitutionAddress": "Maynard 3,Hanover,NH,US,03755",
  "InstitutionName": "Dartmouth College - PBS",
  "InstitutionalDepartmentName": "Department",
  "MRAcquisitionType": "2D",
  "MagneticFieldStrength": 3,
  "Manufacturer": "Siemens",
  "ManufacturersModelName": "Prisma",
  "Modality": "MR",
  "MultibandAccelerationFactor": 8,
  "PartialFourier": 1,
  "PatientPosition": "HFS",
  "PercentPhaseFOV": 100,
  "PercentSampling": 100,
  "PhaseEncodingDirection": "j-",
  "PhaseEncodingSteps": 82,
  "PhaseResolution": 1,
  "PixelBandwidth": 3050,
  "ProcedureStepDescription": "Wager_Wager^1076_spacetop",
  "ProtocolName": "func_run-04_task-alignvideo_acq-ap-mb8",
  "PulseSequenceDetails": "%CustomerSeq%\\cmrr_mbep2d_bold",
  "ReceiveCoilActiveElements": "HEA;HEP",
  "ReceiveCoilName": "Head_32",
  "ReconMatrixPE": 82,
  "RepetitionTime": 0.46,
  "SAR": 0.0719628,
  "ScanOptions": "FS",
  "ScanningSequence": "EP",
  "SequenceName": "epfid2d1_82",
  "SequenceVariant": "SK\\SS",
  "SeriesDescription": "func_run-04_task-alignvideo_acq-ap-mb8",
  "SeriesNumber": 36,
  "ShimSetting": [4151, -7758, -7268, 580, -112, -211, -23, 100],
  "SliceThickness": 2.7,
  "SliceTiming": [0, 0.2525, 0.0625, 0.315, 0.1275, 0.3775, 0.19, 0, 0.2525, 0.0625, 0.315, 0.1275, 0.3775, 0.19, 0, 0.2525, 0.0625, 0.315, 0.1275, 0.3775, 0.19, 0, 0.2525, 0.0625, 0.315, 0.1275, 0.3775, 0.19, 0, 0.2525, 0.0625, 0.315, 0.1275, 0.3775, 0.19, 0, 0.2525, 0.0625, 0.315, 0.1275, 0.3775, 0.19, 0, 0.2525, 0.0625, 0.315, 0.1275, 0.3775, 0.19, 0, 0.2525, 0.0625, 0.315, 0.1275, 0.3775, 0.19],
  "SoftwareVersions": "syngo MR E11",
  "SpacingBetweenSlices": 2.7,
  "StationName": "AWP66112",
  "TaskName": "alignvideo",
  "TotalReadoutTime": 0.03969,
  "TxRefAmp": 231.28,
  "WipMemBlock": "9af4ee12-3a83-4e7b-a235-39c44ea0bfe2||Sequence: R016 ve11c/master r/e634e98; Dec 19 2017 11:00:25 by eja",
  "dcmmeta_affine": [
    [-2.6803572177886963, -0.05006156489253044, 0.10686357319355011, 110.32943725585938],
    [-0.04430115222930908, 2.6786608695983887, 0.145522803068161, -93.91531372070312],
    [0.1087171733379364, -0.14271070063114166, 2.6939568519592285, -77.9487533569336],
    [0.0, 0.0, 0.0, 1.0]
],
  "dcmmeta_reorient_transform": [
    [0.0, -1.0, 0.0, 81.0],
    [1.0, 0.0, 0.0, 0.0],
    [0.0, 0.0, 1.0, 0.0],
    [0.0, 0.0, 0.0, 1.0]
],
  "dcmmeta_shape": [82, 82, 56, 914],
  "dcmmeta_slice_dim": 2,
  "dcmmeta_version": 0.6,
  "global": {
    "const": {
      "AccessionNumber": "A003824",
      "AcquisitionMatrix": [82, 0, 0, 82],
      "AngioFlag": "N",
      "BitsAllocated": 16,
      "BitsStored": 16,
      "BodyPartExamined": "BRAIN",
      "Columns": 656,
      "EchoNumbers": 1,
      "EchoTime": 27.2,
      "EchoTrainLength": 82,
      "FlipAngle": 44.0,
      "HighBit": 15,
      "ImageOrientationPatient": [0.99904220375021, 0.0165122476395, 0.04052185587817, -0.0186593096, 0.99840994742311, 0.05319217096366],
      "ImagePositionPatient": [-861.16929338066, -904.54632689005, -161.66812128281],
      "ImageType": [
        "ORIGINAL",
        "PRIMARY",
        "M",
        "MB",
        "ND",
        "NORM",
        "MOSAIC"
],
      "ImagedNucleus": "1H",
      "ImagingFrequency": 123.252247,
      "InPlanePhaseEncodingDirection": "COL",
      "MRAcquisitionType": "2D",
      "MagneticFieldStrength": 3.0,
      "Manufacturer": "SIEMENS",
      "ManufacturerModelName": "Prisma",
      "Modality": "MR",
      "NumberOfAverages": 1.0,
      "NumberOfPhaseEncodingSteps": 82,
      "PercentPhaseFieldOfView": 100.0,
      "PercentSampling": 100.0,
      "PerformedProcedureStepStartTime": "084139.568000",
      "PhotometricInterpretation": "MONOCHROME2",
      "PixelBandwidth": 3050.0,
      "PixelRepresentation": 0,
      "PixelSpacing": [2.6829268932343, 2.6829268932343],
      "ProtocolName": "func_run-04_task-alignvideo_acq-ap-mb8",
      "RepetitionTime": 460.0,
      "Rows": 656,
      "SAR": 0.07196281947862,
      "SamplesPerPixel": 1,
      "ScanOptions": "FS",
      "ScanningSequence": "EP",
      "SequenceName": "epfid2d1_82",
      "SequenceVariant": [
        "SK",
        "SS"
],
      "SeriesDescription": "func_run-04_task-alignvideo_acq-ap-mb8",
      "SeriesNumber": 36,
      "SeriesTime": "105701.224000",
      "SliceLocation": -78.469330525404,
      "SliceThickness": 2.7000000476837,
      "SmallestImagePixelValue": 0,
      "SoftwareVersions": "syngo MR E11",
      "SpacingBetweenSlices": 2.7000000161443,
      "SpecificCharacterSet": "ISO_IR 100",
      "StudyID": "2",
      "StudyTime": "084139.462000",
      "TransmitCoilName": "Body",
      "VariableFlipAngleFlag": "N",
      "WindowCenterWidthExplanation": "Algo1",
      "dBdt": 0.0},
    "slices": {}
  },
  "time": {
    "samples": {
      "AcquisitionNumber": [1, 2, 3, 4, 5, 6, 7, 8, 9, 10, 11, 12, 13, 14, 15, 16, 17, 18, 19, 20, 21, 22, 23, 24, 25, 26, 27, 28, 29, 30, 31, 32, 33, 34, 35, 36, 37, 38, 39, 40, 41, 42, 43, 44, 45, 46, 47, 48, 49, 50, 51, 52, 53, 54, 55, 56, 57, 58, 59, 60, 61, 62, 63, 64, 65, 66, 67, 68, 69, 70, 71, 72, 73, 74, 75, 76, 77, 78, 79, 80, 81, 82, 83, 84, 85, 86, 87, 88, 89, 90, 91, 92, 93, 94, 95, 96, 97, 98, 99, 100, 101, 102, 103, 104, 105, 106, 107, 108, 109, 110, 111, 112, 113, 114, 115, 116, 117, 118, 119, 120, 121, 122, 123, 124, 125, 126, 127, 128, 129, 130, 131, 132, 133, 134, 135, 136, 137, 138, 139, 140, 141, 142, 143, 144, 145, 146, 147, 148, 149, 150, 151, 152, 153, 154, 155, 156, 157, 158, 159, 160, 161, 162, 163, 164, 165, 166, 167, 168, 169, 170, 171, 172, 173, 174, 175, 176, 177, 178, 179, 180, 181, 182, 183, 184, 185, 186, 187, 188, 189, 190, 191, 192, 193, 194, 195, 196, 197, 198, 199, 200, 201, 202, 203, 204, 205, 206, 207, 208, 209, 210, 211, 212, 213, 214, 215, 216, 217, 218, 219, 220, 221, 222, 223, 224, 225, 226, 227, 228, 229, 230, 231, 232, 233, 234, 235, 236, 237, 238, 239, 240, 241, 242, 243, 244, 245, 246, 247, 248, 249, 250, 251, 252, 253, 254, 255, 256, 257, 258, 259, 260, 261, 262, 263, 264, 265, 266, 267, 268, 269, 270, 271, 272, 273, 274, 275, 276, 277, 278, 279, 280, 281, 282, 283, 284, 285, 286, 287, 288, 289, 290, 291, 292, 293, 294, 295, 296, 297, 298, 299, 300, 301, 302, 303, 304, 305, 306, 307, 308, 309, 310, 311, 312, 313, 314, 315, 316, 317, 318, 319, 320, 321, 322, 323, 324, 325, 326, 327, 328, 329, 330, 331, 332, 333, 334, 335, 336, 337, 338, 339, 340, 341, 342, 343, 344, 345, 346, 347, 348, 349, 350, 351, 352, 353, 354, 355, 356, 357, 358, 359, 360, 361, 362, 363, 364, 365, 366, 367, 368, 369, 370, 371, 372, 373, 374, 375, 376, 377, 378, 379, 380, 381, 382, 383, 384, 385, 386, 387, 388, 389, 390, 391, 392, 393, 394, 395, 396, 397, 398, 399, 400, 401, 402, 403, 404, 405, 406, 407, 408, 409, 410, 411, 412, 413, 414, 415, 416, 417, 418, 419, 420, 421, 422, 423, 424, 425, 426, 427, 428, 429, 430, 431, 432, 433, 434, 435, 436, 437, 438, 439, 440, 441, 442, 443, 444, 445, 446, 447, 448, 449, 450, 451, 452, 453, 454, 455, 456, 457, 458, 459, 460, 461, 462, 463, 464, 465, 466, 467, 468, 469, 470, 471, 472, 473, 474, 475, 476, 477, 478, 479, 480, 481, 482, 483, 484, 485, 486, 487, 488, 489, 490, 491, 492, 493, 494, 495, 496, 497, 498, 499, 500, 501, 502, 503, 504, 505, 506, 507, 508, 509, 510, 511, 512, 513, 514, 515, 516, 517, 518, 519, 520, 521, 522, 523, 524, 525, 526, 527, 528, 529, 530, 531, 532, 533, 534, 535, 536, 537, 538, 539, 540, 541, 542, 543, 544, 545, 546, 547, 548, 549, 550, 551, 552, 553, 554, 555, 556, 557, 558, 559, 560, 561, 562, 563, 564, 565, 566, 567, 568, 569, 570, 571, 572, 573, 574, 575, 576, 577, 578, 579, 580, 581, 582, 583, 584, 585, 586, 587, 588, 589, 590, 591, 592, 593, 594, 595, 596, 597, 598, 599, 600, 601, 602, 603, 604, 605, 606, 607, 608, 609, 610, 611, 612, 613, 614, 615, 616, 617, 618, 619, 620, 621, 622, 623, 624, 625, 626, 627, 628, 629, 630, 631, 632, 633, 634, 635, 636, 637, 638, 639, 640, 641, 642, 643, 644, 645, 646, 647, 648, 649, 650, 651, 652, 653, 654, 655, 656, 657, 658, 659, 660, 661, 662, 663, 664, 665, 666, 667, 668, 669, 670, 671, 672, 673, 674, 675, 676, 677, 678, 679, 680, 681, 682, 683, 684, 685, 686, 687, 688, 689, 690, 691, 692, 693, 694, 695, 696, 697, 698, 699, 700, 701, 702, 703, 704, 705, 706, 707, 708, 709, 710, 711, 712, 713, 714, 715, 716, 717, 718, 719, 720, 721, 722, 723, 724, 725, 726, 727, 728, 729, 730, 731, 732, 733, 734, 735, 736, 737, 738, 739, 740, 741, 742, 743, 744, 745, 746, 747, 748, 749, 750, 751, 752, 753, 754, 755, 756, 757, 758, 759, 760, 761, 762, 763, 764, 765, 766, 767, 768, 769, 770, 771, 772, 773, 774, 775, 776, 777, 778, 779, 780, 781, 782, 783, 784, 785, 786, 787, 788, 789, 790, 791, 792, 793, 794, 795, 796, 797, 798, 799, 800, 801, 802, 803, 804, 805, 806, 807, 808, 809, 810, 811, 812, 813, 814, 815, 816, 817, 818, 819, 820, 821, 822, 823, 824, 825, 826, 827, 828, 829, 830, 831, 832, 833, 834, 835, 836, 837, 838, 839, 840, 841, 842, 843, 844, 845, 846, 847, 848, 849, 850, 851, 852, 853, 854, 855, 856, 857, 858, 859, 860, 861, 862, 863, 864, 865, 866, 867, 868, 869, 870, 871, 872, 873, 874, 875, 876, 877, 878, 879, 880, 881, 882, 883, 884, 885, 886, 887, 888, 889, 890, 891, 892, 893, 894, 895, 896, 897, 898, 899, 900, 901, 902, 903, 904, 905, 906, 907, 908, 909, 910, 911, 912, 913, 914],
      "AcquisitionTime": ["105636.555000", "105637.015000", "105637.475000", "105637.935000", "105638.395000", "105638.855000", "105639.315000", "105639.775000", "105640.235000", "105640.695000", "105641.155000", "105641.615000", "105642.075000", "105642.535000", "105642.995000", "105643.455000", "105643.915000", "105644.375000", "105644.835000", "105645.295000", "105645.755000", "105646.215000", "105646.675000", "105647.135000", "105647.595000", "105648.055000", "105648.515000", "105648.975000", "105649.435000", "105649.895000", "105650.355000", "105650.815000", "105651.275000", "105651.735000", "105652.195000", "105652.655000", "105653.115000", "105653.575000", "105654.035000", "105654.495000", "105654.955000", "105655.415000", "105655.875000", "105656.335000", "105656.795000", "105657.255000", "105657.715000", "105658.175000", "105658.635000", "105659.095000", "105659.555000", "105700.015000", "105700.475000", "105700.935000", "105701.395000", "105701.855000", "105702.315000", "105702.775000", "105703.235000", "105703.695000", "105704.155000", "105704.615000", "105705.075000", "105705.535000", "105705.995000", "105706.455000", "105706.915000", "105707.375000", "105707.835000", "105708.295000", "105708.755000", "105709.215000", "105709.675000", "105710.135000", "105710.595000", "105711.055000", "105711.515000", "105711.975000", "105712.435000", "105712.895000", "105713.355000", "105713.815000", "105714.275000", "105714.735000", "105715.195000", "105715.655000", "105716.115000", "105716.575000", "105717.035000", "105717.495000", "105717.955000", "105718.415000", "105718.875000", "105719.335000", "105719.795000", "105720.255000", "105720.715000", "105721.175000", "105721.635000", "105722.095000", "105722.555000", "105723.015000", "105723.475000", "105723.935000", "105724.395000", "105724.855000", "105725.315000", "105725.775000", "105726.235000", "105726.695000", "105727.155000", "105727.615000", "105728.075000", "105728.535000", "105728.995000", "105729.455000", "105729.915000", "105730.375000", "105730.835000", "105731.295000", "105731.755000", "105732.215000", "105732.675000", "105733.135000", "105733.595000", "105734.055000", "105734.515000", "105734.975000", "105735.435000", "105735.895000", "105736.355000", "105736.815000", "105737.275000", "105737.735000", "105738.195000", "105738.655000", "105739.115000", "105739.575000", "105740.035000", "105740.495000", "105740.955000", "105741.415000", "105741.875000", "105742.335000", "105742.795000", "105743.255000", "105743.715000", "105744.175000", "105744.635000", "105745.095000", "105745.555000", "105746.015000", "105746.475000", "105746.935000", "105747.395000", "105747.855000", "105748.315000", "105748.775000", "105749.235000", "105749.695000", "105750.155000", "105750.615000", "105751.075000", "105751.535000", "105751.995000", "105752.455000", "105752.915000", "105753.375000", "105753.835000", "105754.295000", "105754.755000", "105755.215000", "105755.675000", "105756.135000", "105756.595000", "105757.055000", "105757.515000", "105757.975000", "105758.435000", "105758.895000", "105759.355000", "105759.815000", "105800.275000", "105800.735000", "105801.195000", "105801.655000", "105802.115000", "105802.575000", "105803.035000", "105803.495000", "105803.955000", "105804.415000", "105804.875000", "105805.335000", "105805.795000", "105806.255000", "105806.715000", "105807.175000", "105807.635000", "105808.095000", "105808.555000", "105809.015000", "105809.475000", "105809.935000", "105810.395000", "105810.855000", "105811.315000", "105811.775000", "105812.235000", "105812.695000", "105813.155000", "105813.615000", "105814.075000", "105814.535000", "105814.995000", "105815.455000", "105815.915000", "105816.375000", "105816.835000", "105817.295000", "105817.755000", "105818.215000", "105818.675000", "105819.135000", "105819.595000", "105820.055000", "105820.515000", "105820.975000", "105821.435000", "105821.895000", "105822.355000", "105822.815000", "105823.275000", "105823.735000", "105824.195000", "105824.655000", "105825.115000", "105825.575000", "105826.035000", "105826.495000", "105826.955000", "105827.415000", "105827.875000", "105828.335000", "105828.795000", "105829.255000", "105829.715000", "105830.175000", "105830.635000", "105831.095000", "105831.555000", "105832.015000", "105832.475000", "105832.935000", "105833.395000", "105833.855000", "105834.315000", "105834.775000", "105835.235000", "105835.695000", "105836.155000", "105836.615000", "105837.075000", "105837.535000", "105837.995000", "105838.455000", "105838.915000", "105839.375000", "105839.835000", "105840.295000", "105840.755000", "105841.215000", "105841.675000", "105842.135000", "105842.595000", "105843.055000", "105843.515000", "105843.975000", "105844.435000", "105844.895000", "105845.355000", "105845.815000", "105846.275000", "105846.735000", "105847.195000", "105847.655000", "105848.115000", "105848.575000", "105849.035000", "105849.495000", "105849.955000", "105850.415000", "105850.875000", "105851.335000", "105851.795000", "105852.255000", "105852.715000", "105853.175000", "105853.635000", "105854.095000", "105854.555000", "105855.015000", "105855.475000", "105855.935000", "105856.395000", "105856.855000", "105857.315000", "105857.775000", "105858.235000", "105858.695000", "105859.155000", "105859.615000", "105900.075000", "105900.535000", "105900.995000", "105901.455000", "105901.915000", "105902.375000", "105902.835000", "105903.295000", "105903.755000", "105904.215000", "105904.675000", "105905.135000", "105905.595000", "105906.055000", "105906.515000", "105906.975000", "105907.435000", "105907.895000", "105908.355000", "105908.815000", "105909.275000", "105909.735000", "105910.195000", "105910.655000", "105911.115000", "105911.575000", "105912.035000", "105912.495000", "105912.955000", "105913.415000", "105913.875000", "105914.335000", "105914.795000", "105915.255000", "105915.715000", "105916.175000", "105916.635000", "105917.095000", "105917.555000", "105918.015000", "105918.475000", "105918.935000", "105919.395000", "105919.855000", "105920.315000", "105920.775000", "105921.235000", "105921.695000", "105922.155000", "105922.615000", "105923.075000", "105923.535000", "105923.995000", "105924.455000", "105924.915000", "105925.375000", "105925.835000", "105926.295000", "105926.755000", "105927.215000", "105927.675000", "105928.135000", "105928.595000", "105929.055000", "105929.515000", "105929.975000", "105930.435000", "105930.895000", "105931.355000", "105931.815000", "105932.275000", "105932.735000", "105933.195000", "105933.655000", "105934.115000", "105934.575000", "105935.035000", "105935.495000", "105935.955000", "105936.415000", "105936.875000", "105937.335000", "105937.795000", "105938.255000", "105938.715000", "105939.175000", "105939.635000", "105940.095000", "105940.555000", "105941.015000", "105941.475000", "105941.935000", "105942.395000", "105942.855000", "105943.315000", "105943.775000", "105944.235000", "105944.695000", "105945.155000", "105945.615000", "105946.075000", "105946.535000", "105946.995000", "105947.455000", "105947.915000", "105948.375000", "105948.835000", "105949.295000", "105949.755000", "105950.215000", "105950.675000", "105951.135000", "105951.595000", "105952.055000", "105952.515000", "105952.975000", "105953.435000", "105953.895000", "105954.355000", "105954.815000", "105955.275000", "105955.735000", "105956.195000", "105956.655000", "105957.115000", "105957.575000", "105958.035000", "105958.495000", "105958.955000", "105959.415000", "105959.875000", "110000.335000", "110000.795000", "110001.255000", "110001.715000", "110002.175000", "110002.635000", "110003.095000", "110003.555000", "110004.015000", "110004.475000", "110004.935000", "110005.395000", "110005.855000", "110006.315000", "110006.775000", "110007.235000", "110007.695000", "110008.155000", "110008.615000", "110009.075000", "110009.535000", "110009.995000", "110010.455000", "110010.915000", "110011.375000", "110011.835000", "110012.295000", "110012.755000", "110013.215000", "110013.675000", "110014.135000", "110014.595000", "110015.055000", "110015.515000", "110015.975000", "110016.435000", "110016.895000", "110017.355000", "110017.815000", "110018.275000", "110018.735000", "110019.195000", "110019.655000", "110020.115000", "110020.575000", "110021.035000", "110021.495000", "110021.955000", "110022.415000", "110022.875000", "110023.335000", "110023.795000", "110024.255000", "110024.715000", "110025.175000", "110025.635000", "110026.095000", "110026.555000", "110027.015000", "110027.475000", "110027.935000", "110028.395000", "110028.855000", "110029.315000", "110029.775000", "110030.235000", "110030.695000", "110031.155000", "110031.615000", "110032.075000", "110032.535000", "110032.995000", "110033.455000", "110033.915000", "110034.375000", "110034.835000", "110035.295000", "110035.755000", "110036.215000", "110036.675000", "110037.135000", "110037.595000", "110038.055000", "110038.515000", "110038.975000", "110039.435000", "110039.895000", "110040.355000", "110040.815000", "110041.275000", "110041.735000", "110042.195000", "110042.655000", "110043.115000", "110043.575000", "110044.035000", "110044.495000", "110044.955000", "110045.415000", "110045.875000", "110046.335000", "110046.795000", "110047.255000", "110047.715000", "110048.175000", "110048.635000", "110049.095000", "110049.555000", "110050.015000", "110050.475000", "110050.935000", "110051.395000", "110051.855000", "110052.315000", "110052.775000", "110053.235000", "110053.695000", "110054.155000", "110054.615000", "110055.075000", "110055.535000", "110055.995000", "110056.455000", "110056.915000", "110057.375000", "110057.835000", "110058.295000", "110058.755000", "110059.215000", "110059.675000", "110100.135000", "110100.595000", "110101.055000", "110101.515000", "110101.975000", "110102.435000", "110102.895000", "110103.355000", "110103.815000", "110104.275000", "110104.735000", "110105.195000", "110105.655000", "110106.115000", "110106.575000", "110107.035000", "110107.495000", "110107.955000", "110108.415000", "110108.875000", "110109.335000", "110109.795000", "110110.255000", "110110.715000", "110111.175000", "110111.635000", "110112.095000", "110112.555000", "110113.015000", "110113.475000", "110113.935000", "110114.395000", "110114.855000", "110115.315000", "110115.775000", "110116.235000", "110116.695000", "110117.155000", "110117.615000", "110118.075000", "110118.535000", "110118.995000", "110119.455000", "110119.915000", "110120.375000", "110120.835000", "110121.295000", "110121.755000", "110122.215000", "110122.675000", "110123.135000", "110123.595000", "110124.055000", "110124.515000", "110124.975000", "110125.435000", "110125.895000", "110126.355000", "110126.815000", "110127.275000", "110127.735000", "110128.195000", "110128.655000", "110129.115000", "110129.575000", "110130.035000", "110130.495000", "110130.955000", "110131.415000", "110131.875000", "110132.335000", "110132.795000", "110133.255000", "110133.715000", "110134.175000", "110134.635000", "110135.095000", "110135.555000", "110136.015000", "110136.475000", "110136.935000", "110137.395000", "110137.855000", "110138.315000", "110138.775000", "110139.235000", "110139.695000", "110140.155000", "110140.615000", "110141.075000", "110141.535000", "110141.995000", "110142.455000", "110142.915000", "110143.375000", "110143.835000", "110144.295000", "110144.755000", "110145.215000", "110145.675000", "110146.135000", "110146.595000", "110147.055000", "110147.515000", "110147.975000", "110148.435000", "110148.895000", "110149.355000", "110149.815000", "110150.275000", "110150.735000", "110151.195000", "110151.655000", "110152.115000", "110152.575000", "110153.035000", "110153.495000", "110153.955000", "110154.415000", "110154.875000", "110155.335000", "110155.795000", "110156.255000", "110156.715000", "110157.175000", "110157.635000", "110158.095000", "110158.555000", "110159.015000", "110159.475000", "110159.935000", "110200.395000", "110200.855000", "110201.315000", "110201.775000", "110202.235000", "110202.695000", "110203.155000", "110203.615000", "110204.075000", "110204.535000", "110204.995000", "110205.455000", "110205.915000", "110206.375000", "110206.835000", "110207.295000", "110207.755000", "110208.215000", "110208.675000", "110209.135000", "110209.595000", "110210.055000", "110210.515000", "110210.975000", "110211.435000", "110211.895000", "110212.355000", "110212.815000", "110213.275000", "110213.735000", "110214.195000", "110214.655000", "110215.115000", "110215.575000", "110216.035000", "110216.495000", "110216.955000", "110217.415000", "110217.875000", "110218.335000", "110218.795000", "110219.255000", "110219.715000", "110220.175000", "110220.635000", "110221.095000", "110221.555000", "110222.015000", "110222.475000", "110222.935000", "110223.395000", "110223.855000", "110224.315000", "110224.775000", "110225.235000", "110225.695000", "110226.155000", "110226.615000", "110227.075000", "110227.535000", "110227.995000", "110228.455000", "110228.915000", "110229.375000", "110229.835000", "110230.295000", "110230.755000", "110231.215000", "110231.675000", "110232.135000", "110232.595000", "110233.055000", "110233.515000", "110233.975000", "110234.435000", "110234.895000", "110235.355000", "110235.815000", "110236.275000", "110236.735000", "110237.195000", "110237.655000", "110238.115000", "110238.575000", "110239.035000", "110239.495000", "110239.955000", "110240.415000", "110240.875000", "110241.335000", "110241.795000", "110242.255000", "110242.715000", "110243.175000", "110243.635000", "110244.095000", "110244.555000", "110245.015000", "110245.475000", "110245.935000", "110246.395000", "110246.855000", "110247.315000", "110247.775000", "110248.235000", "110248.695000", "110249.155000", "110249.615000", "110250.075000", "110250.535000", "110250.995000", "110251.455000", "110251.915000", "110252.375000", "110252.835000", "110253.295000", "110253.755000", "110254.215000", "110254.675000", "110255.135000", "110255.595000", "110256.055000", "110256.515000", "110256.975000", "110257.435000", "110257.895000", "110258.355000", "110258.815000", "110259.275000", "110259.735000", "110300.195000", "110300.655000", "110301.115000", "110301.575000", "110302.035000", "110302.495000", "110302.955000", "110303.415000", "110303.875000", "110304.335000", "110304.795000", "110305.255000", "110305.715000", "110306.175000", "110306.635000", "110307.095000", "110307.555000", "110308.015000", "110308.475000", "110308.935000", "110309.395000", "110309.855000", "110310.315000", "110310.775000", "110311.235000", "110311.695000", "110312.155000", "110312.615000", "110313.075000", "110313.535000", "110313.995000", "110314.455000", "110314.915000", "110315.375000", "110315.835000", "110316.295000", "110316.755000", "110317.215000", "110317.675000", "110318.135000", "110318.595000", "110319.055000", "110319.515000", "110319.975000", "110320.435000", "110320.895000", "110321.355000", "110321.815000", "110322.275000", "110322.735000", "110323.195000", "110323.655000", "110324.115000", "110324.575000", "110325.035000", "110325.495000", "110325.955000", "110326.415000", "110326.875000", "110327.335000", "110327.795000", "110328.255000", "110328.715000", "110329.175000", "110329.635000", "110330.095000", "110330.555000", "110331.015000", "110331.475000", "110331.935000", "110332.395000", "110332.855000", "110333.315000", "110333.775000", "110334.235000", "110334.695000", "110335.155000", "110335.615000", "110336.075000", "110336.535000"],
