{
  "AcquisitionMatrixPE": 140,
  "AcquisitionNumber": 1,
  "AcquisitionTime": "12:23:15.025000",
  "BandwidthPerPixelPhaseEncode": 10.352,
  "BaseResolution": 140,
  "BodyPartExamined": "BRAIN",
  "ConsistencyInfo": "N4_VE11E_LATEST_20181129",
  "ConversionSoftware": "dcm2niix",
  "ConversionSoftwareVersion": "v1.0.20201102",
  "DerivedVendorReportedEchoSpacing": 0.000689998,
  "DeviceSerialNumber": "66112",
  "DiffusionScheme": "Monopolar",
  "DwellTime": 2.1e-06,
  "EchoTime": 0.0884,
  "EchoTrainLength": 105,
  "EffectiveEchoSpacing": 0.000689998,
  "FlipAngle": 90,
  "ImageComments": "Unaliased MB3/PE3 SENSE1",
  "ImageOrientationPatientDICOM": [0.997444, -0.0640194, 0.031733, 0.0529721, 0.960586, 0.272888],
  "ImageType": [
    "ORIGINAL",
    "PRIMARY",
    "DIFFUSION",
    "NONE",
    "MB",
    "ND",
    "MOSAIC"
],
  "ImagingFrequency": 123.252,
  "InPlanePhaseEncodingDirectionDICOM": "COL",
  "InstitutionAddress": "Maynard 3,Hanover,NH,US,03755",
  "InstitutionName": "Dartmouth College - PBS",
  "InstitutionalDepartmentName": "Department",
  "MRAcquisitionType": "2D",
  "MagneticFieldStrength": 3,
  "Manufacturer": "Siemens",
  "ManufacturersModelName": "Prisma",
  "Modality": "MR",
  "MultibandAccelerationFactor": 3,
  "PartialFourier": 0.75,
  "PatientPosition": "HFS",
  "PercentPhaseFOV": 100,
  "PercentSampling": 100,
  "PhaseEncodingDirection": "j-",
  "PhaseEncodingSteps": 105,
  "PhaseResolution": 1,
  "PixelBandwidth": 1700,
  "ProcedureStepDescription": "Wager_Wager^1076_spacetop",
  "ProtocolName": "dwi_acq-96dir-6b0-mb",
  "PulseSequenceDetails": "%CustomerSeq%\\cmrr_mbep2d_diff",
  "ReceiveCoilActiveElements": "HEA;HEP",
  "ReceiveCoilName": "Head_32",
  "ReconMatrixPE": 140,
  "RepetitionTime": 4.11,
  "SAR": 0.204055,
  "ScanOptions": "PFP\\FS",
  "ScanningSequence": "EP",
  "SequenceName": "ep_b5#1",
  "SequenceVariant": "SK\\SS",
  "SeriesDescription": "dwi_acq-96dir-6b0-mb",
  "SeriesNumber": 8,
  "ShimSetting": [4148, -7760, -7284, 535, -92, -98, 15, 65],
  "SliceThickness": 1.7,
  "SliceTiming": [0, 2.12, 0.1525, 2.2725, 0.3025, 2.425, 0.455, 2.575, 0.605, 2.7275, 0.7575, 2.8775, 0.91, 3.03, 1.06, 3.1825, 1.2125, 3.3325, 1.3625, 3.485, 1.515, 3.635, 1.6675, 3.7875, 1.8175, 3.94, 1.97, 0, 2.12, 0.1525, 2.2725, 0.3025, 2.425, 0.455, 2.575, 0.605, 2.7275, 0.7575, 2.8775, 0.91, 3.03, 1.06, 3.1825, 1.2125, 3.3325, 1.3625, 3.485, 1.515, 3.635, 1.6675, 3.7875, 1.8175, 3.94, 1.97, 0, 2.12, 0.1525, 2.2725, 0.3025, 2.425, 0.455, 2.575, 0.605, 2.7275, 0.7575, 2.8775, 0.91, 3.03, 1.06, 3.1825, 1.2125, 3.3325, 1.3625, 3.485, 1.515, 3.635, 1.6675, 3.7875, 1.8175, 3.94, 1.97],
  "SoftwareVersions": "syngo MR E11",
  "SpacingBetweenSlices": 1.7,
  "StationName": "AWP66112",
  "TotalReadoutTime": 0.0959097,
  "TxRefAmp": 231.122,
  "WipMemBlock": "1cc06d05-da81-4296-b4e7-940bf751b1f5||Sequence: R016 ve11e/master r/434b28f1; Aug  7 2019 19:06:17 by eja",
  "dcmmeta_affine": [
    [-1.7099040746688843, 0.09080925583839417, 0.0815189927816391, 110.2899398803711],
    [0.10974759608507156, 1.6467196941375732, 0.4598654806613922, -123.19940185546875],
    [0.05439934507012367, -0.46780726313591003, 1.6345881223678589, -26.123125076293945],
    [0.0, 0.0, 0.0, 1.0]
],
  "dcmmeta_reorient_transform": [
    [0.0, -1.0, 0.0, 139.0],
    [1.0, 0.0, 0.0, 0.0],
    [0.0, 0.0, 1.0, 0.0],
    [0.0, 0.0, 0.0, 1.0]
],
  "dcmmeta_shape": [140, 140, 81, 103],
  "dcmmeta_slice_dim": 2,
  "dcmmeta_version": 0.6,
  "global": {
    "const": {
      "AccessionNumber": "A003907",
      "AcquisitionMatrix": [140, 0, 0, 140],
      "AngioFlag": "N",
      "BitsAllocated": 16,
      "BitsStored": 16,
      "BodyPartExamined": "BRAIN",
      "Columns": 1260,
      "EchoNumbers": 1,
      "EchoTime": 88.4,
      "EchoTrainLength": 105,
      "FlipAngle": 90.0,
      "HighBit": 15,
      "ImageOrientationPatient": [0.99744399956574, -0.064019431269, 0.03173295054507, 0.05297206719633, 0.96058645276623, 0.27288757182939],
      "ImagePositionPatient": [-1131.3118645172, -966.39897953085, -383.58403950295],
      "ImageType": [
        "ORIGINAL",
        "PRIMARY",
        "DIFFUSION",
        "NONE",
        "MB",
        "ND",
        "MOSAIC"
],
      "ImagedNucleus": "1H",
      "ImagingFrequency": 123.252152,
      "InPlanePhaseEncodingDirection": "COL",
      "MRAcquisitionType": "2D",
      "MagneticFieldStrength": 3.0,
      "Manufacturer": "SIEMENS",
      "ManufacturerModelName": "Prisma",
      "Modality": "MR",
      "NumberOfAverages": 1.0,
      "NumberOfPhaseEncodingSteps": 105,
      "PercentPhaseFieldOfView": 100.0,
      "PercentSampling": 100.0,
      "PerformedProcedureStepStartTime": "112222.388000",
      "PhotometricInterpretation": "MONOCHROME2",
      "PixelBandwidth": 1700.0,
      "PixelRepresentation": 0,
      "PixelSpacing": [1.7142857313156, 1.7142857313156],
      "ProtocolName": "dwi_acq-96dir-6b0-mb",
      "RepetitionTime": 4110.0,
      "Rows": 1260,
      "SAR": 0.20405518734557,
      "SamplesPerPixel": 1,
      "ScanOptions": [
        "PFP",
        "FS"
],
      "ScanningSequence": "EP",
      "SequenceVariant": [
        "SK",
        "SS"
],
      "SeriesDescription": "dwi_acq-96dir-6b0-mb",
      "SeriesNumber": 8,
      "SeriesTime": "122454.773000",
      "SliceLocation": -53.155868800594,
      "SliceThickness": 1.7000000476837,
      "SmallestImagePixelValue": 0,
      "SoftwareVersions": "syngo MR E11",
      "SpacingBetweenSlices": 1.7000000153765,
      "SpecificCharacterSet": "ISO_IR 100",
      "StudyID": "1",
      "StudyTime": "112222.231000",
      "TransmitCoilName": "Body",
      "VariableFlipAngleFlag": "N",
      "WindowCenterWidthExplanation": "Algo1"
    },
    "slices": {}
  },
  "time": {
    "samples": {
      "AcquisitionNumber": [1, 2, 3, 4, 5, 6, 7, 8, 9, 10, 11, 12, 13, 14, 15, 16, 17, 18, 19, 20, 21, 22, 23, 24, 25, 26, 27, 28, 29, 30, 31, 32, 33, 34, 35, 36, 37, 38, 39, 40, 41, 42, 43, 44, 45, 46, 47, 48, 49, 50, 51, 52, 53, 54, 55, 56, 57, 58, 59, 60, 61, 62, 63, 64, 65, 66, 67, 68, 69, 70, 71, 72, 73, 74, 75, 76, 77, 78, 79, 80, 81, 82, 83, 84, 85, 86, 87, 88, 89, 90, 91, 92, 93, 94, 95, 96, 97, 98, 99, 100, 101, 102, 103],
      "AcquisitionTime": ["122315.025000", "122319.135000", "122323.245000", "122327.355000", "122331.465000", "122335.575000", "122339.685000", "122343.795000", "122347.905000", "122352.015000", "122356.125000", "122400.235000", "122404.345000", "122408.455000", "122412.565000", "122416.675000", "122420.785000", "122424.895000", "122429.005000", "122433.115000", "122437.225000", "122441.335000", "122445.445000", "122449.555000", "122453.665000", "122457.775000", "122501.885000", "122505.995000", "122510.105000", "122514.215000", "122518.325000", "122522.435000", "122526.545000", "122530.655000", "122534.765000", "122538.875000", "122542.985000", "122547.095000", "122551.205000", "122555.315000", "122559.425000", "122603.535000", "122607.645000", "122611.755000", "122615.865000", "122619.975000", "122624.085000", "122628.195000", "122632.305000", "122636.415000", "122640.525000", "122644.635000", "122648.745000", "122652.855000", "122656.965000", "122701.075000", "122705.185000", "122709.295000", "122713.405000", "122717.515000", "122721.625000", "122725.735000", "122729.845000", "122733.955000", "122738.065000", "122742.175000", "122746.285000", "122750.395000", "122754.505000", "122758.615000", "122802.725000", "122806.835000", "122810.945000", "122815.055000", "122819.165000", "122823.275000", "122827.385000", "122831.495000", "122835.605000", "122839.715000", "122843.825000", "122847.935000", "122852.045000", "122856.155000", "122900.265000", "122904.375000", "122908.485000", "122912.595000", "122916.705000", "122920.815000", "122924.925000", "122929.035000", "122933.145000", "122937.255000", "122941.365000", "122945.475000", "122949.585000", "122953.695000", "122957.805000", "123001.915000", "123006.025000", "123010.135000", "123014.245000"],
      "ContentTime": ["122454.778000", "122454.782000", "122454.785000", "122454.788000", "122454.791000", "122454.794000", "122454.797000", "122454.800000", "122454.803000", "122454.806000", "122454.809000", "122454.812000", "122454.815000", "122454.818000", "122454.821000", "122454.824000", "122454.827000", "122454.830000", "122454.833000", "122454.836000", "122454.839000", "122454.854000", "122454.857000", "122454.860000", "122514.773000", "122514.782000", "122514.785000", "122514.788000", "122634.772000", "122634.775000", "122634.778000", "122634.781000", "122634.784000", "122634.787000", "122634.790000", "122634.793000", "122634.796000", "122634.799000", "122634.802000", "122634.805000", "122634.808000", "122634.815000", "122634.818000", "122634.821000", "122634.824000", "122634.827000", "122634.830000", "122634.833000", "122814.773000", "122814.776000", "122814.779000", "122814.788000", "122814.791000", "122814.794000", "122814.797000", "122814.800000", "122814.803000", "122814.806000", "122814.809000", "122814.812000", "122814.815000", "122814.818000", "122814.821000", "122814.824000", "122814.827000", "122814.830000", "122814.833000", "122814.836000", "122814.839000", "122814.842000", "122814.845000", "122814.848000", "122934.773000", "122934.776000", "122934.779000", "122934.782000", "122934.785000", "122934.788000", "122934.791000", "122934.794000", "122934.797000", "122934.801000", "122934.804000", "122934.807000", "122934.810000", "122934.813000", "122934.816000", "122934.819000", "122934.822000", "122934.825000", "122934.828000", "122934.831000", "123019.325000", "123019.356000", "123019.359000", "123019.362000", "123019.365000", "123019.368000", "123019.371000", "123019.375000", "123019.378000", "123019.381000", "123019.384000"],
      "InstanceCreationTime": ["122454.778000", "122454.782000", "122454.785000", "122454.788000", "122454.791000", "122454.794000", "122454.797000", "122454.800000", "122454.803000", "122454.806000", "122454.809000", "122454.812000", "122454.815000", "122454.818000", "122454.821000", "122454.824000", "122454.827000", "122454.830000", "122454.833000", "122454.836000", "122454.839000", "122454.854000", "122454.857000", "122454.860000", "122514.773000", "122514.782000", "122514.785000", "122514.788000", "122634.772000", "122634.775000", "122634.778000", "122634.781000", "122634.784000", "122634.787000", "122634.790000", "122634.793000", "122634.796000", "122634.799000", "122634.802000", "122634.805000", "122634.808000", "122634.815000", "122634.818000", "122634.821000", "122634.824000", "122634.827000", "122634.830000", "122634.833000", "122814.773000", "122814.776000", "122814.779000", "122814.788000", "122814.791000", "122814.794000", "122814.797000", "122814.800000", "122814.803000", "122814.806000", "122814.809000", "122814.812000", "122814.815000", "122814.818000", "122814.821000", "122814.824000", "122814.827000", "122814.830000", "122814.833000", "122814.836000", "122814.839000", "122814.842000", "122814.845000", "122814.848000", "122934.773000", "122934.776000", "122934.779000", "122934.782000", "122934.785000", "122934.788000", "122934.791000", "122934.794000", "122934.797000", "122934.801000", "122934.804000", "122934.807000", "122934.810000", "122934.813000", "122934.816000", "122934.819000", "122934.822000", "122934.825000", "122934.828000", "122934.831000", "123019.325000", "123019.356000", "123019.359000", "123019.362000", "123019.365000", "123019.368000", "123019.371000", "123019.375000", "123019.378000", "123019.381000", "123019.384000"],
      "InstanceNumber": [1, 2, 3, 4, 5, 6, 7, 8, 9, 10, 11, 12, 13, 14, 15, 16, 17, 18, 19, 20, 21, 22, 23, 24, 25, 26, 27, 28, 29, 30, 31, 32, 33, 34, 35, 36, 37, 38, 39, 40, 41, 42, 43, 44, 45, 46, 47, 48, 49, 50, 51, 52, 53, 54, 55, 56, 57, 58, 59, 60, 61, 62, 63, 64, 65, 66, 67, 68, 69, 70, 71, 72, 73, 74, 75, 76, 77, 78, 79, 80, 81, 82, 83, 84, 85, 86, 87, 88, 89, 90, 91, 92, 93, 94, 95, 96, 97, 98, 99, 100, 101, 102, 103],
      "LargestImagePixelValue": [65535, 65535, 62173, 63107, 65535, 65535, 65535, 60775, 65535, 43721, 44266, 43045, 46448, 44785, 45542, 49203, 42176, 45648, 39339, 45324, 45358, 42497, 42326, 44285, 65535, 22434, 22353, 23619, 22348, 26326, 23939, 20185, 23911, 25111, 24204, 26039, 22598, 24420, 27193, 22648, 65535, 13821, 14405, 19510, 15682, 14025, 14157, 16518, 12471, 13047, 13680, 14427, 17278, 19904, 21582, 12271, 18111, 14357, 16473, 15019, 11826, 16038, 13239, 13470, 12680, 15747, 13534, 13873, 16465, 13968, 13367, 15636, 13594, 65535, 16155, 12452, 12137, 13020, 12823, 13452, 11738, 14651, 14912, 12296, 13741, 14794, 14227, 13709, 15030, 14642, 14772, 12653, 13934, 13504, 13446, 17330, 14407, 13263, 15157, 11867, 14437, 17166, 65535],
      "SequenceName": [
 "ep_b5#1",
 "ep_b5#1",
 "ep_b500#2",
 "ep_b500#3",
 "ep_b500#4",
 "ep_b505#5",
 "ep_b495#6",
 "ep_b500#7",
 "ep_b5#8",
 "ep_b1000#9",
 "ep_b1005#10",
 "ep_b1000#11",
 "ep_b1005#12",
 "ep_b995#13",
 "ep_b995#14",
 "ep_b1005#15",
 "ep_b1000#16",
 "ep_b1000#17",
 "ep_b995#18",
 "ep_b1000#19",
 "ep_b995#20",
 "ep_b1000#21",
 "ep_b1005#22",
 "ep_b1005#23",
 "ep_b5#24",
 "ep_b2000#25",
 "ep_b2000#26",
 "ep_b1995#27",
 "ep_b1995#28",
 "ep_b2005#29",
 "ep_b2010#30",
 "ep_b2005#31",
 "ep_b2005#32",
 "ep_b1995#33",
 "ep_b1990#34",
 "ep_b1995#35",
 "ep_b2005#36",
 "ep_b2000#37",
 "ep_b2010#38",
 "ep_b2000#39",
 "ep_b5#40",
 "ep_b3000#41",
 "ep_b3005#42",
 "ep_b3010#43",
 "ep_b3010#44",
 "ep_b2995#45",
 "ep_b2995#46",
 "ep_b2990#47",
 "ep_b3000#48",
 "ep_b3000#49",
 "ep_b2990#50",
 "ep_b2990#51",
 "ep_b2995#52",
 "ep_b2995#53",
 "ep_b3010#54",
 "ep_b3000#55",
 "ep_b2995#56",
 "ep_b3000#57",
 "ep_b2990#58",
 "ep_b2990#59",
 "ep_b3000#60",
 "ep_b2990#61",
 "ep_b2990#62",
 "ep_b2995#63",
 "ep_b3005#64",
 "ep_b3010#65",
 "ep_b3000#66",
 "ep_b3005#67",
 "ep_b3010#68",
 "ep_b3005#69",
 "ep_b3005#70",
 "ep_b3010#71",
 "ep_b2990#72",
 "ep_b5#73",
 "ep_b3010#74",
 "ep_b3000#75",
 "ep_b3005#76",
 "ep_b3005#77",
 "ep_b2995#78",
 "ep_b3000#79",
 "ep_b2995#80",
 "ep_b3010#81",
 "ep_b3010#82",
 "ep_b3005#83",
 "ep_b3000#84",
 "ep_b3000#85",
 "ep_b3005#86",
 "ep_b3010#87",
 "ep_b2990#88",
 "ep_b3010#89",
 "ep_b2990#90",
 "ep_b2995#91",
 "ep_b2995#92",
 "ep_b2995#93",
 "ep_b3005#94",
 "ep_b3005#95",
 "ep_b2995#96",
 "ep_b3000#97",
 "ep_b2990#98",
 "ep_b3000#99",
 "ep_b3000#100",
 "ep_b2995#101",
 "ep_b5#102"
],
      "WindowCenter": [10631.0, 10646.0, 7489.0, 7517.0, 7518.0, 7456.0, 7572.0, 7508.0, 10625.0, 5713.0, 5674.0, 5710.0, 5681.0, 5709.0, 5716.0, 5722.0, 5735.0, 5737.0, 5690.0, 5716.0, 5786.0, 5682.0, 5678.0, 5724.0, 10644.0, 3640.0, 3637.0, 3642.0, 3748.0, 3662.0, 3645.0, 3607.0, 3640.0, 3708.0, 3716.0, 3711.0, 3612.0, 3683.0, 3734.0, 3650.0, 10641.0, 2583.0, 2571.0, 2684.0, 2613.0, 2590.0, 2657.0, 2682.0, 2540.0, 2542.0, 2547.0, 2573.0, 2650.0, 2688.0, 2708.0, 2529.0, 2650.0, 2601.0, 2652.0, 2600.0, 2560.0, 2621.0, 2641.0, 2624.0, 2626.0, 2644.0, 2550.0, 2607.0, 2641.0, 2580.0, 2569.0, 2681.0, 2623.0, 10604.0, 2613.0, 2595.0, 2499.0, 2568.0, 2523.0, 2560.0, 2516.0, 2557.0, 2647.0, 2519.0, 2567.0, 2590.0, 2544.0, 2534.0, 2600.0, 2573.0, 2619.0, 2564.0, 2559.0, 2610.0, 2549.0, 2635.0, 2686.0, 2563.0, 2631.0, 2528.0, 2576.0, 2679.0, 10592.0],
      "WindowWidth": [24108.0, 24156.0, 15859.0, 15901.0, 15887.0, 15803.0, 16005.0, 15890.0, 24080.0, 12230.0, 12202.0, 12224.0, 12176.0, 12247.0, 12244.0, 12250.0, 12273.0, 12286.0, 12196.0, 12220.0, 12361.0, 12174.0, 12202.0, 12253.0, 24157.0, 8208.0, 8204.0, 8216.0, 8398.0, 8245.0, 8229.0, 8158.0, 8222.0, 8329.0, 8345.0, 8328.0, 8150.0, 8274.0, 8372.0, 8220.0, 24127.0, 6162.0, 6107.0, 6310.0, 6190.0, 6168.0, 6289.0, 6326.0, 6065.0, 6078.0, 6057.0, 6104.0, 6264.0, 6328.0, 6353.0, 6053.0, 6259.0, 6171.0, 6255.0, 6157.0, 6120.0, 6195.0, 6280.0, 6239.0, 6248.0, 6259.0, 6084.0, 6203.0, 6252.0, 6151.0, 6136.0, 6328.0, 6228.0, 24019.0, 6187.0, 6181.0, 5989.0, 6126.0, 6024.0, 6097.0, 6030.0, 6080.0, 6277.0, 6044.0, 6130.0, 6165.0, 6055.0, 6044.0, 6168.0, 6113.0, 6222.0, 6101.0, 6087.0, 6221.0, 6086.0, 6233.0, 6354.0, 6109.0, 6233.0, 6048.0, 6136.0, 6323.0, 23973.0]
    },
    "slices": {}
  }
}