{
  "AcquisitionMatrixPE": 82,
  "AcquisitionNumber": 1,
  "AcquisitionTime": "12:03:15.930000",
  "BandwidthPerPixelPhaseEncode": 24.888,
  "BaseResolution": 82,
  "BodyPartExamined": "BRAIN",
  "ConsistencyInfo": "N4_VE11E_LATEST_20181129",
  "ConversionSoftware": "dcm2niix",
  "ConversionSoftwareVersion": "v1.0.20201102",
  "DerivedVendorReportedEchoSpacing": 0.00049,
  "DeviceSerialNumber": "66112",
  "DwellTime": 2e-06,
  "EchoTime": 0.0272,
  "EchoTrainLength": 82,
  "EffectiveEchoSpacing": 0.00049,
  "FlipAngle": 44,
  "ImageComments": "Unaliased MB8/PE3",
  "ImageOrientationPatientDICOM": [0.996546, 0.0786575, 0.026615, -0.0805304, 0.993639, 0.0787178],
  "ImageType": [
    "ORIGINAL",
    "PRIMARY",
    "M",
    "MB",
    "ND",
    "NORM",
    "MOSAIC"
],
  "ImagingFrequency": 123.252,
  "InPlanePhaseEncodingDirectionDICOM": "COL",
  "InstitutionAddress": "Maynard 3,Hanover,NH,US,03755",
  "InstitutionName": "Dartmouth College - PBS",
  "InstitutionalDepartmentName": "Department",
  "MRAcquisitionType": "2D",
  "MagneticFieldStrength": 3,
  "Manufacturer": "Siemens",
  "ManufacturersModelName": "Prisma",
  "Modality": "MR",
  "MultibandAccelerationFactor": 8,
  "PartialFourier": 1,
  "PatientPosition": "HFS",
  "PercentPhaseFOV": 100,
  "PercentSampling": 100,
  "PhaseEncodingDirection": "j-",
  "PhaseEncodingSteps": 82,
  "PhaseResolution": 1,
  "PixelBandwidth": 3050,
  "ProcedureStepDescription": "Wager_Wager^1076_spacetop",
  "ProtocolName": "func_run-05_task-social_acq-ap-mb8",
  "PulseSequenceDetails": "%CustomerSeq%\\cmrr_mbep2d_bold",
  "ReceiveCoilActiveElements": "HEA;HEP",
  "ReceiveCoilName": "Head_32",
  "ReconMatrixPE": 82,
  "RepetitionTime": 0.46,
  "SAR": 0.107306,
  "ScanOptions": "FS",
  "ScanningSequence": "EP",
  "SequenceName": "epfid2d1_82",
  "SequenceVariant": "SK\\SS",
  "SeriesDescription": "func_run-05_task-social_acq-ap-mb8",
  "SeriesNumber": 20,
  "ShimSetting": [4165, -7844, -7279, 760, -19, -635, 256, 14],
  "SliceThickness": 2.7,
  "SliceTiming": [0, 0.2525, 0.065, 0.315, 0.1275, 0.3775, 0.19, 0, 0.2525, 0.065, 0.315, 0.1275, 0.3775, 0.19, 0, 0.2525, 0.065, 0.315, 0.1275, 0.3775, 0.19, 0, 0.2525, 0.065, 0.315, 0.1275, 0.3775, 0.19, 0, 0.2525, 0.065, 0.315, 0.1275, 0.3775, 0.19, 0, 0.2525, 0.065, 0.315, 0.1275, 0.3775, 0.19, 0, 0.2525, 0.065, 0.315, 0.1275, 0.3775, 0.19, 0, 0.2525, 0.065, 0.315, 0.1275, 0.3775, 0.19],
  "SoftwareVersions": "syngo MR E11",
  "SpacingBetweenSlices": 2.7,
  "StationName": "AWP66112",
  "TaskName": "social",
  "TotalReadoutTime": 0.03969,
  "TxRefAmp": 232.532,
  "WipMemBlock": "f278d944-4abe-412f-8b76-2b0299120f5b||Sequence: R016 ve11e/master r/434b28f1; Aug  7 2019 18:53:46 by eja",
  "dcmmeta_affine": [
    [-2.67366099357605, -0.21605709195137024, 0.054685577750205994, 119.72828674316406],
    [-0.21103236079216003, 2.665860652923584, 0.21759097278118134, -89.42184448242188],
    [0.07140599936246872, -0.21119411289691925, 2.690662145614624, -58.45695114135742],
    [0.0, 0.0, 0.0, 1.0]
],
  "dcmmeta_reorient_transform": [
    [0.0, -1.0, 0.0, 81.0],
    [1.0, 0.0, 0.0, 0.0],
    [0.0, 0.0, 1.0, 0.0],
    [0.0, 0.0, 0.0, 1.0]
],
  "dcmmeta_shape": [82, 82, 56, 872],
  "dcmmeta_slice_dim": 2,
  "dcmmeta_version": 0.6,
  "global": {
    "const": {
      "AccessionNumber": "A004238",
      "AcquisitionMatrix": [82, 0, 0, 82],
      "AngioFlag": "N",
      "BitsAllocated": 16,
      "BitsStored": 16,
      "BodyPartExamined": "BRAIN",
      "Columns": 656,
      "EchoNumbers": 1,
      "EchoTime": 27.2,
      "EchoTrainLength": 82,
      "FlipAngle": 44.0,
      "HighBit": 15,
      "ImageOrientationPatient": [0.99654635565378, 0.07865751551524, 0.02661496357567, -0.0805303659966, 0.99363895242775, 0.07871780212095],
      "ImagePositionPatient": [-807.55999459139, -952.18116647714, -156.66990587774],
      "ImageType": [
        "ORIGINAL",
        "PRIMARY",
        "M",
        "MB",
        "ND",
        "NORM",
        "MOSAIC"
],
      "ImagedNucleus": "1H",
      "ImagingFrequency": 123.252233,
      "InPlanePhaseEncodingDirection": "COL",
      "MRAcquisitionType": "2D",
      "MagneticFieldStrength": 3.0,
      "Manufacturer": "SIEMENS",
      "ManufacturerModelName": "Prisma",
      "Modality": "MR",
      "NumberOfAverages": 1.0,
      "NumberOfPhaseEncodingSteps": 82,
      "PercentPhaseFieldOfView": 100.0,
      "PercentSampling": 100.0,
      "PerformedProcedureStepStartTime": "105453.153000",
      "PhotometricInterpretation": "MONOCHROME2",
      "PixelBandwidth": 3050.0,
      "PixelRepresentation": 0,
      "PixelSpacing": [2.6829268932343, 2.6829268932343],
      "ProtocolName": "func_run-05_task-social_acq-ap-mb8",
      "RepetitionTime": 460.0,
      "Rows": 656,
      "SAR": 0.10730630139047,
      "SamplesPerPixel": 1,
      "ScanOptions": "FS",
      "ScanningSequence": "EP",
      "SequenceName": "epfid2d1_82",
      "SequenceVariant": [
        "SK",
        "SS"
],
      "SeriesDescription": "func_run-05_task-social_acq-ap-mb8",
      "SeriesNumber": 20,
      "SeriesTime": "120338.560000",
      "SliceLocation": -63.036256635382,
      "SliceThickness": 2.7000000476837,
      "SmallestImagePixelValue": 0,
      "SoftwareVersions": "syngo MR E11",
      "SpacingBetweenSlices": 2.6999999375528,
      "SpecificCharacterSet": "ISO_IR 100",
      "StudyID": "1",
      "StudyTime": "105452.947000",
      "TransmitCoilName": "Body",
      "VariableFlipAngleFlag": "N",
      "WindowCenterWidthExplanation": "Algo1"
    },
    "slices": {}
  },
  "time": {
    "samples": {
      "AcquisitionNumber": [1, 2, 3, 4, 5, 6, 7, 8, 9, 10, 11, 12, 13, 14, 15, 16, 17, 18, 19, 20, 21, 22, 23, 24, 25, 26, 27, 28, 29, 30, 31, 32, 33, 34, 35, 36, 37, 38, 39, 40, 41, 42, 43, 44, 45, 46, 47, 48, 49, 50, 51, 52, 53, 54, 55, 56, 57, 58, 59, 60, 61, 62, 63, 64, 65, 66, 67, 68, 69, 70, 71, 72, 73, 74, 75, 76, 77, 78, 79, 80, 81, 82, 83, 84, 85, 86, 87, 88, 89, 90, 91, 92, 93, 94, 95, 96, 97, 98, 99, 100, 101, 102, 103, 104, 105, 106, 107, 108, 109, 110, 111, 112, 113, 114, 115, 116, 117, 118, 119, 120, 121, 122, 123, 124, 125, 126, 127, 128, 129, 130, 131, 132, 133, 134, 135, 136, 137, 138, 139, 140, 141, 142, 143, 144, 145, 146, 147, 148, 149, 150, 151, 152, 153, 154, 155, 156, 157, 158, 159, 160, 161, 162, 163, 164, 165, 166, 167, 168, 169, 170, 171, 172, 173, 174, 175, 176, 177, 178, 179, 180, 181, 182, 183, 184, 185, 186, 187, 188, 189, 190, 191, 192, 193, 194, 195, 196, 197, 198, 199, 200, 201, 202, 203, 204, 205, 206, 207, 208, 209, 210, 211, 212, 213, 214, 215, 216, 217, 218, 219, 220, 221, 222, 223, 224, 225, 226, 227, 228, 229, 230, 231, 232, 233, 234, 235, 236, 237, 238, 239, 240, 241, 242, 243, 244, 245, 246, 247, 248, 249, 250, 251, 252, 253, 254, 255, 256, 257, 258, 259, 260, 261, 262, 263, 264, 265, 266, 267, 268, 269, 270, 271, 272, 273, 274, 275, 276, 277, 278, 279, 280, 281, 282, 283, 284, 285, 286, 287, 288, 289, 290, 291, 292, 293, 294, 295, 296, 297, 298, 299, 300, 301, 302, 303, 304, 305, 306, 307, 308, 309, 310, 311, 312, 313, 314, 315, 316, 317, 318, 319, 320, 321, 322, 323, 324, 325, 326, 327, 328, 329, 330, 331, 332, 333, 334, 335, 336, 337, 338, 339, 340, 341, 342, 343, 344, 345, 346, 347, 348, 349, 350, 351, 352, 353, 354, 355, 356, 357, 358, 359, 360, 361, 362, 363, 364, 365, 366, 367, 368, 369, 370, 371, 372, 373, 374, 375, 376, 377, 378, 379, 380, 381, 382, 383, 384, 385, 386, 387, 388, 389, 390, 391, 392, 393, 394, 395, 396, 397, 398, 399, 400, 401, 402, 403, 404, 405, 406, 407, 408, 409, 410, 411, 412, 413, 414, 415, 416, 417, 418, 419, 420, 421, 422, 423, 424, 425, 426, 427, 428, 429, 430, 431, 432, 433, 434, 435, 436, 437, 438, 439, 440, 441, 442, 443, 444, 445, 446, 447, 448, 449, 450, 451, 452, 453, 454, 455, 456, 457, 458, 459, 460, 461, 462, 463, 464, 465, 466, 467, 468, 469, 470, 471, 472, 473, 474, 475, 476, 477, 478, 479, 480, 481, 482, 483, 484, 485, 486, 487, 488, 489, 490, 491, 492, 493, 494, 495, 496, 497, 498, 499, 500, 501, 502, 503, 504, 505, 506, 507, 508, 509, 510, 511, 512, 513, 514, 515, 516, 517, 518, 519, 520, 521, 522, 523, 524, 525, 526, 527, 528, 529, 530, 531, 532, 533, 534, 535, 536, 537, 538, 539, 540, 541, 542, 543, 544, 545, 546, 547, 548, 549, 550, 551, 552, 553, 554, 555, 556, 557, 558, 559, 560, 561, 562, 563, 564, 565, 566, 567, 568, 569, 570, 571, 572, 573, 574, 575, 576, 577, 578, 579, 580, 581, 582, 583, 584, 585, 586, 587, 588, 589, 590, 591, 592, 593, 594, 595, 596, 597, 598, 599, 600, 601, 602, 603, 604, 605, 606, 607, 608, 609, 610, 611, 612, 613, 614, 615, 616, 617, 618, 619, 620, 621, 622, 623, 624, 625, 626, 627, 628, 629, 630, 631, 632, 633, 634, 635, 636, 637, 638, 639, 640, 641, 642, 643, 644, 645, 646, 647, 648, 649, 650, 651, 652, 653, 654, 655, 656, 657, 658, 659, 660, 661, 662, 663, 664, 665, 666, 667, 668, 669, 670, 671, 672, 673, 674, 675, 676, 677, 678, 679, 680, 681, 682, 683, 684, 685, 686, 687, 688, 689, 690, 691, 692, 693, 694, 695, 696, 697, 698, 699, 700, 701, 702, 703, 704, 705, 706, 707, 708, 709, 710, 711, 712, 713, 714, 715, 716, 717, 718, 719, 720, 721, 722, 723, 724, 725, 726, 727, 728, 729, 730, 731, 732, 733, 734, 735, 736, 737, 738, 739, 740, 741, 742, 743, 744, 745, 746, 747, 748, 749, 750, 751, 752, 753, 754, 755, 756, 757, 758, 759, 760, 761, 762, 763, 764, 765, 766, 767, 768, 769, 770, 771, 772, 773, 774, 775, 776, 777, 778, 779, 780, 781, 782, 783, 784, 785, 786, 787, 788, 789, 790, 791, 792, 793, 794, 795, 796, 797, 798, 799, 800, 801, 802, 803, 804, 805, 806, 807, 808, 809, 810, 811, 812, 813, 814, 815, 816, 817, 818, 819, 820, 821, 822, 823, 824, 825, 826, 827, 828, 829, 830, 831, 832, 833, 834, 835, 836, 837, 838, 839, 840, 841, 842, 843, 844, 845, 846, 847, 848, 849, 850, 851, 852, 853, 854, 855, 856, 857, 858, 859, 860, 861, 862, 863, 864, 865, 866, 867, 868, 869, 870, 871, 872],
      "AcquisitionTime": ["120315.930000", "120316.390000", "120316.850000", "120317.310000", "120317.770000", "120318.230000", "120318.690000", "120319.150000", "120319.610000", "120320.070000", "120320.530000", "120320.990000", "120321.450000", "120321.910000", "120322.370000", "120322.830000", "120323.290000", "120323.750000", "120324.210000", "120324.670000", "120325.130000", "120325.590000", "120326.050000", "120326.510000", "120326.970000", "120327.430000", "120327.890000", "120328.350000", "120328.810000", "120329.270000", "120329.730000", "120330.190000", "120330.650000", "120331.110000", "120331.570000", "120332.030000", "120332.490000", "120332.950000", "120333.410000", "120333.870000", "120334.330000", "120334.790000", "120335.250000", "120335.710000", "120336.170000", "120336.630000", "120337.090000", "120337.550000", "120338.010000", "120338.470000", "120338.930000", "120339.390000", "120339.850000", "120340.310000", "120340.770000", "120341.230000", "120341.690000", "120342.150000", "120342.610000", "120343.070000", "120343.530000", "120343.990000", "120344.450000", "120344.910000", "120345.370000", "120345.830000", "120346.290000", "120346.750000", "120347.210000", "120347.670000", "120348.130000", "120348.590000", "120349.050000", "120349.510000", "120349.970000", "120350.430000", "120350.890000", "120351.350000", "120351.810000", "120352.270000", "120352.730000", "120353.190000", "120353.650000", "120354.110000", "120354.570000", "120355.030000", "120355.490000", "120355.950000", "120356.410000", "120356.870000", "120357.330000", "120357.790000", "120358.250000", "120358.710000", "120359.170000", "120359.630000", "120400.090000", "120400.550000", "120401.010000", "120401.470000", "120401.930000", "120402.390000", "120402.850000", "120403.310000", "120403.770000", "120404.230000", "120404.690000", "120405.150000", "120405.610000", "120406.070000", "120406.530000", "120406.990000", "120407.450000", "120407.910000", "120408.370000", "120408.830000", "120409.290000", "120409.750000", "120410.210000", "120410.670000", "120411.130000", "120411.590000", "120412.050000", "120412.510000", "120412.970000", "120413.430000", "120413.890000", "120414.350000", "120414.810000", "120415.270000", "120415.730000", "120416.190000", "120416.650000", "120417.110000", "120417.570000", "120418.030000", "120418.490000", "120418.950000", "120419.410000", "120419.870000", "120420.330000", "120420.790000", "120421.250000", "120421.710000", "120422.170000", "120422.630000", "120423.090000", "120423.550000", "120424.010000", "120424.470000", "120424.930000", "120425.390000", "120425.850000", "120426.310000", "120426.770000", "120427.230000", "120427.690000", "120428.150000", "120428.610000", "120429.070000", "120429.530000", "120429.990000", "120430.450000", "120430.910000", "120431.370000", "120431.830000", "120432.290000", "120432.750000", "120433.210000", "120433.670000", "120434.130000", "120434.590000", "120435.050000", "120435.510000", "120435.970000", "120436.430000", "120436.890000", "120437.350000", "120437.810000", "120438.270000", "120438.730000", "120439.190000", "120439.650000", "120440.110000", "120440.570000", "120441.030000", "120441.490000", "120441.950000", "120442.410000", "120442.870000", "120443.330000", "120443.790000", "120444.250000", "120444.710000", "120445.170000", "120445.630000", "120446.090000", "120446.550000", "120447.010000", "120447.470000", "120447.930000", "120448.390000", "120448.850000", "120449.310000", "120449.770000", "120450.230000", "120450.690000", "120451.150000", "120451.610000", "120452.070000", "120452.530000", "120452.990000", "120453.450000", "120453.910000", "120454.370000", "120454.830000", "120455.290000", "120455.750000", "120456.210000", "120456.670000", "120457.130000", "120457.590000", "120458.050000", "120458.510000", "120458.970000", "120459.430000", "120459.890000", "120500.350000", "120500.810000", "120501.270000", "120501.730000", "120502.190000", "120502.650000", "120503.110000", "120503.570000", "120504.030000", "120504.490000", "120504.950000", "120505.410000", "120505.870000", "120506.330000", "120506.790000", "120507.250000", "120507.710000", "120508.170000", "120508.630000", "120509.090000", "120509.550000", "120510.010000", "120510.470000", "120510.930000", "120511.390000", "120511.850000", "120512.310000", "120512.770000", "120513.230000", "120513.690000", "120514.150000", "120514.610000", "120515.070000", "120515.530000", "120515.990000", "120516.450000", "120516.910000", "120517.370000", "120517.830000", "120518.290000", "120518.750000", "120519.210000", "120519.670000", "120520.130000", "120520.590000", "120521.050000", "120521.510000", "120521.970000", "120522.430000", "120522.890000", "120523.350000", "120523.810000", "120524.270000", "120524.730000", "120525.190000", "120525.650000", "120526.110000", "120526.570000", "120527.030000", "120527.490000", "120527.950000", "120528.410000", "120528.870000", "120529.330000", "120529.790000", "120530.250000", "120530.710000", "120531.170000", "120531.630000", "120532.090000", "120532.550000", "120533.010000", "120533.470000", "120533.930000", "120534.390000", "120534.850000", "120535.310000", "120535.770000", "120536.230000", "120536.690000", "120537.150000", "120537.610000", "120538.070000", "120538.530000", "120538.990000", "120539.450000", "120539.910000", "120540.370000", "120540.830000", "120541.290000", "120541.750000", "120542.210000", "120542.670000", "120543.130000", "120543.590000", "120544.050000", "120544.510000", "120544.970000", "120545.430000", "120545.890000", "120546.350000", "120546.810000", "120547.270000", "120547.730000", "120548.190000", "120548.650000", "120549.110000", "120549.570000", "120550.030000", "120550.490000", "120550.950000", "120551.410000", "120551.870000", "120552.330000", "120552.790000", "120553.250000", "120553.710000", "120554.170000", "120554.630000", "120555.090000", "120555.550000", "120556.010000", "120556.470000", "120556.930000", "120557.390000", "120557.850000", "120558.310000", "120558.770000", "120559.230000", "120559.690000", "120600.150000", "120600.610000", "120601.070000", "120601.530000", "120601.990000", "120602.450000", "120602.910000", "120603.370000", "120603.830000", "120604.290000", "120604.750000", "120605.210000", "120605.670000", "120606.130000", "120606.590000", "120607.050000", "120607.510000", "120607.970000", "120608.430000", "120608.890000", "120609.350000", "120609.810000", "120610.270000", "120610.730000", "120611.190000", "120611.650000", "120612.110000", "120612.570000", "120613.030000", "120613.490000", "120613.950000", "120614.410000", "120614.870000", "120615.330000", "120615.790000", "120616.250000", "120616.710000", "120617.170000", "120617.630000", "120618.090000", "120618.550000", "120619.010000", "120619.470000", "120619.930000", "120620.390000", "120620.850000", "120621.310000", "120621.770000", "120622.230000", "120622.690000", "120623.150000", "120623.610000", "120624.070000", "120624.530000", "120624.990000", "120625.450000", "120625.910000", "120626.370000", "120626.830000", "120627.290000", "120627.750000", "120628.210000", "120628.670000", "120629.130000", "120629.590000", "120630.050000", "120630.510000", "120630.970000", "120631.430000", "120631.890000", "120632.350000", "120632.810000", "120633.270000", "120633.730000", "120634.190000", "120634.650000", "120635.110000", "120635.570000", "120636.030000", "120636.490000", "120636.950000", "120637.410000", "120637.870000", "120638.330000", "120638.790000", "120639.250000", "120639.710000", "120640.170000", "120640.630000", "120641.090000", "120641.550000", "120642.010000", "120642.470000", "120642.930000", "120643.390000", "120643.850000", "120644.310000", "120644.770000", "120645.230000", "120645.690000", "120646.150000", "120646.610000", "120647.070000", "120647.530000", "120647.990000", "120648.450000", "120648.910000", "120649.370000", "120649.830000", "120650.290000", "120650.750000", "120651.210000", "120651.670000", "120652.130000", "120652.590000", "120653.050000", "120653.510000", "120653.970000", "120654.430000", "120654.890000", "120655.350000", "120655.810000", "120656.270000", "120656.730000", "120657.190000", "120657.650000", "120658.110000", "120658.570000", "120659.030000", "120659.490000", "120659.950000", "120700.410000", "120700.870000", "120701.330000", "120701.790000", "120702.250000", "120702.710000", "120703.170000", "120703.630000", "120704.090000", "120704.550000", "120705.010000", "120705.470000", "120705.930000", "120706.390000", "120706.850000", "120707.310000", "120707.770000", "120708.230000", "120708.690000", "120709.150000", "120709.610000", "120710.070000", "120710.530000", "120710.990000", "120711.450000", "120711.910000", "120712.370000", "120712.830000", "120713.290000", "120713.750000", "120714.210000", "120714.670000", "120715.130000", "120715.590000", "120716.050000", "120716.510000", "120716.970000", "120717.430000", "120717.890000", "120718.350000", "120718.810000", "120719.270000", "120719.730000", "120720.190000", "120720.650000", "120721.110000", "120721.570000", "120722.030000", "120722.490000", "120722.950000", "120723.410000", "120723.870000", "120724.330000", "120724.790000", "120725.250000", "120725.710000", "120726.170000", "120726.630000", "120727.090000", "120727.550000", "120728.010000", "120728.470000", "120728.930000", "120729.390000", "120729.850000", "120730.310000", "120730.770000", "120731.230000", "120731.690000", "120732.150000", "120732.610000", "120733.070000", "120733.530000", "120733.990000", "120734.450000", "120734.910000", "120735.370000", "120735.830000", "120736.290000", "120736.750000", "120737.210000", "120737.670000", "120738.130000", "120738.590000", "120739.050000", "120739.510000", "120739.970000", "120740.430000", "120740.890000", "120741.350000", "120741.810000", "120742.270000", "120742.730000", "120743.190000", "120743.650000", "120744.110000", "120744.570000", "120745.030000", "120745.490000", "120745.950000", "120746.410000", "120746.870000", "120747.330000", "120747.790000", "120748.250000", "120748.710000", "120749.170000", "120749.630000", "120750.090000", "120750.550000", "120751.010000", "120751.470000", "120751.930000", "120752.390000", "120752.850000", "120753.310000", "120753.770000", "120754.230000", "120754.690000", "120755.150000", "120755.610000", "120756.070000", "120756.530000", "120756.990000", "120757.450000", "120757.910000", "120758.370000", "120758.830000", "120759.290000", "120759.750000", "120800.210000", "120800.670000", "120801.130000", "120801.590000", "120802.050000", "120802.510000", "120802.970000", "120803.430000", "120803.890000", "120804.350000", "120804.810000", "120805.270000", "120805.730000", "120806.190000", "120806.650000", "120807.110000", "120807.570000", "120808.030000", "120808.490000", "120808.950000", "120809.410000", "120809.870000", "120810.330000", "120810.790000", "120811.250000", "120811.710000", "120812.170000", "120812.630000", "120813.090000", "120813.550000", "120814.010000", "120814.470000", "120814.930000", "120815.390000", "120815.850000", "120816.310000", "120816.770000", "120817.230000", "120817.690000", "120818.150000", "120818.610000", "120819.070000", "120819.530000", "120819.990000", "120820.450000", "120820.910000", "120821.370000", "120821.830000", "120822.290000", "120822.750000", "120823.210000", "120823.670000", "120824.130000", "120824.590000", "120825.050000", "120825.510000", "120825.970000", "120826.430000", "120826.890000", "120827.350000", "120827.810000", "120828.270000", "120828.730000", "120829.190000", "120829.650000", "120830.110000", "120830.570000", "120831.030000", "120831.490000", "120831.950000", "120832.410000", "120832.870000", "120833.330000", "120833.790000", "120834.250000", "120834.710000", "120835.170000", "120835.630000", "120836.090000", "120836.550000", "120837.010000", "120837.470000", "120837.930000", "120838.390000", "120838.850000", "120839.310000", "120839.770000", "120840.230000", "120840.690000", "120841.150000", "120841.610000", "120842.070000", "120842.530000", "120842.990000", "120843.450000", "120843.910000", "120844.370000", "120844.830000", "120845.290000", "120845.750000", "120846.210000", "120846.670000", "120847.130000", "120847.590000", "120848.050000", "120848.510000", "120848.970000", "120849.430000", "120849.890000", "120850.350000", "120850.810000", "120851.270000", "120851.730000", "120852.190000", "120852.650000", "120853.110000", "120853.570000", "120854.030000", "120854.490000", "120854.950000", "120855.410000", "120855.870000", "120856.330000", "120856.790000", "120857.250000", "120857.710000", "120858.170000", "120858.630000", "120859.090000", "120859.550000", "120900.010000", "120900.470000", "120900.930000", "120901.390000", "120901.850000", "120902.310000", "120902.770000", "120903.230000", "120903.690000", "120904.150000", "120904.610000", "120905.070000", "120905.530000", "120905.990000", "120906.450000", "120906.910000", "120907.370000", "120907.830000", "120908.290000", "120908.750000", "120909.210000", "120909.670000", "120910.130000", "120910.590000", "120911.050000", "120911.510000", "120911.970000", "120912.430000", "120912.890000", "120913.350000", "120913.810000", "120914.270000", "120914.730000", "120915.190000", "120915.650000", "120916.110000", "120916.570000", "120917.030000", "120917.490000", "120917.950000", "120918.410000", "120918.870000", "120919.330000", "120919.790000", "120920.250000", "120920.710000", "120921.170000", "120921.630000", "120922.090000", "120922.550000", "120923.010000", "120923.470000", "120923.930000", "120924.390000", "120924.850000", "120925.310000", "120925.770000", "120926.230000", "120926.690000", "120927.150000", "120927.610000", "120928.070000", "120928.530000", "120928.990000", "120929.450000", "120929.910000", "120930.370000", "120930.830000", "120931.290000", "120931.750000", "120932.210000", "120932.670000", "120933.130000", "120933.590000", "120934.050000", "120934.510000", "120934.970000", "120935.430000", "120935.890000", "120936.350000", "120936.810000", "120937.270000", "120937.730000", "120938.190000", "120938.650000", "120939.110000", "120939.570000", "120940.030000", "120940.490000", "120940.950000", "120941.410000", "120941.870000", "120942.330000", "120942.790000", "120943.250000", "120943.710000", "120944.170000", "120944.630000", "120945.090000", "120945.550000", "120946.010000", "120946.470000", "120946.930000", "120947.390000", "120947.850000", "120948.310000", "120948.770000", "120949.230000", "120949.690000", "120950.150000", "120950.610000", "120951.070000", "120951.530000", "120951.990000", "120952.450000", "120952.910000", "120953.370000", "120953.830000", "120954.290000", "120954.750000", "120955.210000", "120955.670000", "120956.130000", "120956.590000"],
