{
  "AcquisitionMatrixPE": 82,
  "AcquisitionNumber": 1,
  "AcquisitionTime": "11:29:57.450000",
  "BandwidthPerPixelPhaseEncode": 24.888,
  "BaseResolution": 82,
  "BodyPartExamined": "BRAIN",
  "ConsistencyInfo": "N4_VE11E_LATEST_20181129",
  "ConversionSoftware": "dcm2niix",
  "ConversionSoftwareVersion": "v1.0.20201102",
  "DerivedVendorReportedEchoSpacing": 0.00049,
  "DeviceSerialNumber": "66112",
  "DwellTime": 2e-06,
  "EchoTime": 0.0272,
  "EchoTrainLength": 82,
  "EffectiveEchoSpacing": 0.00049,
  "FlipAngle": 44,
  "ImageComments": "Unaliased MB8/PE3",
  "ImageOrientationPatientDICOM": [0.996546, 0.0786575, 0.026615, -0.0805304, 0.993639, 0.0787178],
  "ImageType": [
    "ORIGINAL",
    "PRIMARY",
    "M",
    "MB",
    "ND",
    "NORM",
    "MOSAIC"
],
  "ImagingFrequency": 123.252,
  "InPlanePhaseEncodingDirectionDICOM": "COL",
  "InstitutionAddress": "Maynard 3,Hanover,NH,US,03755",
  "InstitutionName": "Dartmouth College - PBS",
  "InstitutionalDepartmentName": "Department",
  "MRAcquisitionType": "2D",
  "MagneticFieldStrength": 3,
  "Manufacturer": "Siemens",
  "ManufacturersModelName": "Prisma",
  "Modality": "MR",
  "MultibandAccelerationFactor": 8,
  "PartialFourier": 1,
  "PatientPosition": "HFS",
  "PercentPhaseFOV": 100,
  "PercentSampling": 100,
  "PhaseEncodingDirection": "j-",
  "PhaseEncodingSteps": 82,
  "PhaseResolution": 1,
  "PixelBandwidth": 3050,
  "ProcedureStepDescription": "Wager_Wager^1076_spacetop",
  "ProtocolName": "func_run-01_task-social_acq-ap-mb8",
  "PulseSequenceDetails": "%CustomerSeq%\\cmrr_mbep2d_bold",
  "ReceiveCoilActiveElements": "HEA;HEP",
  "ReceiveCoilName": "Head_32",
  "ReconMatrixPE": 82,
  "RepetitionTime": 0.46,
  "SAR": 0.107306,
  "ScanOptions": "FS",
  "ScanningSequence": "EP",
  "SequenceName": "epfid2d1_82",
  "SequenceVariant": "SK\\SS",
  "SeriesDescription": "func_run-01_task-social_acq-ap-mb8",
  "SeriesNumber": 12,
  "ShimSetting": [4165, -7844, -7279, 760, -19, -635, 256, 14],
  "SliceThickness": 2.7,
  "SliceTiming": [0, 0.25, 0.0625, 0.315, 0.125, 0.3775, 0.1875, 0, 0.25, 0.0625, 0.315, 0.125, 0.3775, 0.1875, 0, 0.25, 0.0625, 0.315, 0.125, 0.3775, 0.1875, 0, 0.25, 0.0625, 0.315, 0.125, 0.3775, 0.1875, 0, 0.25, 0.0625, 0.315, 0.125, 0.3775, 0.1875, 0, 0.25, 0.0625, 0.315, 0.125, 0.3775, 0.1875, 0, 0.25, 0.0625, 0.315, 0.125, 0.3775, 0.1875, 0, 0.25, 0.0625, 0.315, 0.125, 0.3775, 0.1875],
  "SoftwareVersions": "syngo MR E11",
  "SpacingBetweenSlices": 2.7,
  "StationName": "AWP66112",
  "TaskName": "social",
  "TotalReadoutTime": 0.03969,
  "TxRefAmp": 232.532,
  "WipMemBlock": "05a16074-370f-4ee0-955d-06326d5390c3||Sequence: R016 ve11e/master r/434b28f1; Aug  7 2019 18:53:46 by eja",
  "dcmmeta_affine": [
    [-2.67366099357605, -0.21605709195137024, 0.054685577750205994, 119.72828674316406],
    [-0.21103236079216003, 2.665860652923584, 0.21759097278118134, -89.42184448242188],
    [0.07140599936246872, -0.21119411289691925, 2.690662145614624, -58.45695114135742],
    [0.0, 0.0, 0.0, 1.0]
],
  "dcmmeta_reorient_transform": [
    [0.0, -1.0, 0.0, 81.0],
    [1.0, 0.0, 0.0, 0.0],
    [0.0, 0.0, 1.0, 0.0],
    [0.0, 0.0, 0.0, 1.0]
],
  "dcmmeta_shape": [82, 82, 56, 872],
  "dcmmeta_slice_dim": 2,
  "dcmmeta_version": 0.6,
  "global": {
    "const": {
      "AccessionNumber": "A004238",
      "AcquisitionMatrix": [82, 0, 0, 82],
      "AngioFlag": "N",
      "BitsAllocated": 16,
      "BitsStored": 16,
      "BodyPartExamined": "BRAIN",
      "Columns": 656,
      "EchoNumbers": 1,
      "EchoTime": 27.2,
      "EchoTrainLength": 82,
      "FlipAngle": 44.0,
      "HighBit": 15,
      "ImageOrientationPatient": [0.99654635565378, 0.07865751551524, 0.02661496357567, -0.0805303659966, 0.99363895242775, 0.07871780212095],
      "ImagePositionPatient": [-807.55999459139, -952.18116647714, -156.66990587774],
      "ImageType": [
        "ORIGINAL",
        "PRIMARY",
        "M",
        "MB",
        "ND",
        "NORM",
        "MOSAIC"
],
      "ImagedNucleus": "1H",
      "ImagingFrequency": 123.252224,
      "InPlanePhaseEncodingDirection": "COL",
      "MRAcquisitionType": "2D",
      "MagneticFieldStrength": 3.0,
      "Manufacturer": "SIEMENS",
      "ManufacturerModelName": "Prisma",
      "Modality": "MR",
      "NumberOfAverages": 1.0,
      "NumberOfPhaseEncodingSteps": 82,
      "PercentPhaseFieldOfView": 100.0,
      "PercentSampling": 100.0,
      "PerformedProcedureStepStartTime": "105453.153000",
      "PhotometricInterpretation": "MONOCHROME2",
      "PixelBandwidth": 3050.0,
      "PixelRepresentation": 0,
      "PixelSpacing": [2.6829268932343, 2.6829268932343],
      "ProtocolName": "func_run-01_task-social_acq-ap-mb8",
      "RepetitionTime": 460.0,
      "Rows": 656,
      "SAR": 0.10730630139047,
      "SamplesPerPixel": 1,
      "ScanOptions": "FS",
      "ScanningSequence": "EP",
      "SequenceName": "epfid2d1_82",
      "SequenceVariant": [
        "SK",
        "SS"
],
      "SeriesDescription": "func_run-01_task-social_acq-ap-mb8",
      "SeriesNumber": 12,
      "SeriesTime": "113018.723000",
      "SliceLocation": -63.036256635382,
      "SliceThickness": 2.7000000476837,
      "SmallestImagePixelValue": 0,
      "SoftwareVersions": "syngo MR E11",
      "SpacingBetweenSlices": 2.6999999375528,
      "SpecificCharacterSet": "ISO_IR 100",
      "StudyID": "1",
      "StudyTime": "105452.947000",
      "TransmitCoilName": "Body",
      "VariableFlipAngleFlag": "N",
      "WindowCenterWidthExplanation": "Algo1"
    },
    "slices": {}
  },
  "time": {
    "samples": {
      "AcquisitionNumber": [1, 2, 3, 4, 5, 6, 7, 8, 9, 10, 11, 12, 13, 14, 15, 16, 17, 18, 19, 20, 21, 22, 23, 24, 25, 26, 27, 28, 29, 30, 31, 32, 33, 34, 35, 36, 37, 38, 39, 40, 41, 42, 43, 44, 45, 46, 47, 48, 49, 50, 51, 52, 53, 54, 55, 56, 57, 58, 59, 60, 61, 62, 63, 64, 65, 66, 67, 68, 69, 70, 71, 72, 73, 74, 75, 76, 77, 78, 79, 80, 81, 82, 83, 84, 85, 86, 87, 88, 89, 90, 91, 92, 93, 94, 95, 96, 97, 98, 99, 100, 101, 102, 103, 104, 105, 106, 107, 108, 109, 110, 111, 112, 113, 114, 115, 116, 117, 118, 119, 120, 121, 122, 123, 124, 125, 126, 127, 128, 129, 130, 131, 132, 133, 134, 135, 136, 137, 138, 139, 140, 141, 142, 143, 144, 145, 146, 147, 148, 149, 150, 151, 152, 153, 154, 155, 156, 157, 158, 159, 160, 161, 162, 163, 164, 165, 166, 167, 168, 169, 170, 171, 172, 173, 174, 175, 176, 177, 178, 179, 180, 181, 182, 183, 184, 185, 186, 187, 188, 189, 190, 191, 192, 193, 194, 195, 196, 197, 198, 199, 200, 201, 202, 203, 204, 205, 206, 207, 208, 209, 210, 211, 212, 213, 214, 215, 216, 217, 218, 219, 220, 221, 222, 223, 224, 225, 226, 227, 228, 229, 230, 231, 232, 233, 234, 235, 236, 237, 238, 239, 240, 241, 242, 243, 244, 245, 246, 247, 248, 249, 250, 251, 252, 253, 254, 255, 256, 257, 258, 259, 260, 261, 262, 263, 264, 265, 266, 267, 268, 269, 270, 271, 272, 273, 274, 275, 276, 277, 278, 279, 280, 281, 282, 283, 284, 285, 286, 287, 288, 289, 290, 291, 292, 293, 294, 295, 296, 297, 298, 299, 300, 301, 302, 303, 304, 305, 306, 307, 308, 309, 310, 311, 312, 313, 314, 315, 316, 317, 318, 319, 320, 321, 322, 323, 324, 325, 326, 327, 328, 329, 330, 331, 332, 333, 334, 335, 336, 337, 338, 339, 340, 341, 342, 343, 344, 345, 346, 347, 348, 349, 350, 351, 352, 353, 354, 355, 356, 357, 358, 359, 360, 361, 362, 363, 364, 365, 366, 367, 368, 369, 370, 371, 372, 373, 374, 375, 376, 377, 378, 379, 380, 381, 382, 383, 384, 385, 386, 387, 388, 389, 390, 391, 392, 393, 394, 395, 396, 397, 398, 399, 400, 401, 402, 403, 404, 405, 406, 407, 408, 409, 410, 411, 412, 413, 414, 415, 416, 417, 418, 419, 420, 421, 422, 423, 424, 425, 426, 427, 428, 429, 430, 431, 432, 433, 434, 435, 436, 437, 438, 439, 440, 441, 442, 443, 444, 445, 446, 447, 448, 449, 450, 451, 452, 453, 454, 455, 456, 457, 458, 459, 460, 461, 462, 463, 464, 465, 466, 467, 468, 469, 470, 471, 472, 473, 474, 475, 476, 477, 478, 479, 480, 481, 482, 483, 484, 485, 486, 487, 488, 489, 490, 491, 492, 493, 494, 495, 496, 497, 498, 499, 500, 501, 502, 503, 504, 505, 506, 507, 508, 509, 510, 511, 512, 513, 514, 515, 516, 517, 518, 519, 520, 521, 522, 523, 524, 525, 526, 527, 528, 529, 530, 531, 532, 533, 534, 535, 536, 537, 538, 539, 540, 541, 542, 543, 544, 545, 546, 547, 548, 549, 550, 551, 552, 553, 554, 555, 556, 557, 558, 559, 560, 561, 562, 563, 564, 565, 566, 567, 568, 569, 570, 571, 572, 573, 574, 575, 576, 577, 578, 579, 580, 581, 582, 583, 584, 585, 586, 587, 588, 589, 590, 591, 592, 593, 594, 595, 596, 597, 598, 599, 600, 601, 602, 603, 604, 605, 606, 607, 608, 609, 610, 611, 612, 613, 614, 615, 616, 617, 618, 619, 620, 621, 622, 623, 624, 625, 626, 627, 628, 629, 630, 631, 632, 633, 634, 635, 636, 637, 638, 639, 640, 641, 642, 643, 644, 645, 646, 647, 648, 649, 650, 651, 652, 653, 654, 655, 656, 657, 658, 659, 660, 661, 662, 663, 664, 665, 666, 667, 668, 669, 670, 671, 672, 673, 674, 675, 676, 677, 678, 679, 680, 681, 682, 683, 684, 685, 686, 687, 688, 689, 690, 691, 692, 693, 694, 695, 696, 697, 698, 699, 700, 701, 702, 703, 704, 705, 706, 707, 708, 709, 710, 711, 712, 713, 714, 715, 716, 717, 718, 719, 720, 721, 722, 723, 724, 725, 726, 727, 728, 729, 730, 731, 732, 733, 734, 735, 736, 737, 738, 739, 740, 741, 742, 743, 744, 745, 746, 747, 748, 749, 750, 751, 752, 753, 754, 755, 756, 757, 758, 759, 760, 761, 762, 763, 764, 765, 766, 767, 768, 769, 770, 771, 772, 773, 774, 775, 776, 777, 778, 779, 780, 781, 782, 783, 784, 785, 786, 787, 788, 789, 790, 791, 792, 793, 794, 795, 796, 797, 798, 799, 800, 801, 802, 803, 804, 805, 806, 807, 808, 809, 810, 811, 812, 813, 814, 815, 816, 817, 818, 819, 820, 821, 822, 823, 824, 825, 826, 827, 828, 829, 830, 831, 832, 833, 834, 835, 836, 837, 838, 839, 840, 841, 842, 843, 844, 845, 846, 847, 848, 849, 850, 851, 852, 853, 854, 855, 856, 857, 858, 859, 860, 861, 862, 863, 864, 865, 866, 867, 868, 869, 870, 871, 872],
      "AcquisitionTime": ["112957.450000", "112957.910000", "112958.370000", "112958.830000", "112959.290000", "112959.750000", "113000.210000", "113000.670000", "113001.130000", "113001.590000", "113002.050000", "113002.510000", "113002.970000", "113003.430000", "113003.890000", "113004.350000", "113004.810000", "113005.270000", "113005.730000", "113006.190000", "113006.650000", "113007.110000", "113007.570000", "113008.030000", "113008.490000", "113008.950000", "113009.410000", "113009.870000", "113010.330000", "113010.790000", "113011.250000", "113011.710000", "113012.170000", "113012.630000", "113013.090000", "113013.550000", "113014.010000", "113014.470000", "113014.930000", "113015.390000", "113015.850000", "113016.310000", "113016.770000", "113017.230000", "113017.690000", "113018.150000", "113018.610000", "113019.070000", "113019.530000", "113019.990000", "113020.450000", "113020.910000", "113021.370000", "113021.830000", "113022.290000", "113022.750000", "113023.210000", "113023.670000", "113024.130000", "113024.590000", "113025.050000", "113025.510000", "113025.970000", "113026.430000", "113026.890000", "113027.350000", "113027.810000", "113028.270000", "113028.730000", "113029.190000", "113029.650000", "113030.110000", "113030.570000", "113031.030000", "113031.490000", "113031.950000", "113032.410000", "113032.870000", "113033.330000", "113033.790000", "113034.250000", "113034.710000", "113035.170000", "113035.630000", "113036.090000", "113036.550000", "113037.010000", "113037.470000", "113037.930000", "113038.390000", "113038.850000", "113039.310000", "113039.770000", "113040.230000", "113040.690000", "113041.150000", "113041.610000", "113042.070000", "113042.530000", "113042.990000", "113043.450000", "113043.910000", "113044.370000", "113044.830000", "113045.290000", "113045.750000", "113046.210000", "113046.670000", "113047.130000", "113047.590000", "113048.050000", "113048.510000", "113048.970000", "113049.430000", "113049.890000", "113050.350000", "113050.810000", "113051.270000", "113051.730000", "113052.190000", "113052.650000", "113053.110000", "113053.570000", "113054.030000", "113054.490000", "113054.950000", "113055.410000", "113055.870000", "113056.330000", "113056.790000", "113057.250000", "113057.710000", "113058.170000", "113058.630000", "113059.090000", "113059.550000", "113100.010000", "113100.470000", "113100.930000", "113101.390000", "113101.850000", "113102.310000", "113102.770000", "113103.230000", "113103.690000", "113104.150000", "113104.610000", "113105.070000", "113105.530000", "113105.990000", "113106.450000", "113106.910000", "113107.370000", "113107.830000", "113108.290000", "113108.750000", "113109.210000", "113109.670000", "113110.130000", "113110.590000", "113111.050000", "113111.510000", "113111.970000", "113112.430000", "113112.890000", "113113.350000", "113113.810000", "113114.270000", "113114.730000", "113115.190000", "113115.650000", "113116.110000", "113116.570000", "113117.030000", "113117.490000", "113117.950000", "113118.410000", "113118.870000", "113119.330000", "113119.790000", "113120.250000", "113120.710000", "113121.170000", "113121.630000", "113122.090000", "113122.550000", "113123.010000", "113123.470000", "113123.930000", "113124.390000", "113124.850000", "113125.310000", "113125.770000", "113126.230000", "113126.690000", "113127.150000", "113127.610000", "113128.070000", "113128.530000", "113128.990000", "113129.450000", "113129.910000", "113130.370000", "113130.830000", "113131.290000", "113131.750000", "113132.210000", "113132.670000", "113133.130000", "113133.590000", "113134.050000", "113134.510000", "113134.970000", "113135.430000", "113135.890000", "113136.350000", "113136.810000", "113137.270000", "113137.730000", "113138.190000", "113138.650000", "113139.110000", "113139.570000", "113140.030000", "113140.490000", "113140.950000", "113141.410000", "113141.870000", "113142.330000", "113142.790000", "113143.250000", "113143.710000", "113144.170000", "113144.630000", "113145.090000", "113145.550000", "113146.010000", "113146.470000", "113146.930000", "113147.390000", "113147.850000", "113148.310000", "113148.770000", "113149.230000", "113149.690000", "113150.150000", "113150.610000", "113151.070000", "113151.530000", "113151.990000", "113152.450000", "113152.910000", "113153.370000", "113153.830000", "113154.290000", "113154.750000", "113155.210000", "113155.670000", "113156.130000", "113156.590000", "113157.050000", "113157.510000", "113157.970000", "113158.430000", "113158.890000", "113159.350000", "113159.810000", "113200.270000", "113200.730000", "113201.190000", "113201.650000", "113202.110000", "113202.570000", "113203.030000", "113203.490000", "113203.950000", "113204.410000", "113204.870000", "113205.330000", "113205.790000", "113206.250000", "113206.710000", "113207.170000", "113207.630000", "113208.090000", "113208.550000", "113209.010000", "113209.470000", "113209.930000", "113210.390000", "113210.850000", "113211.310000", "113211.770000", "113212.230000", "113212.690000", "113213.150000", "113213.610000", "113214.070000", "113214.530000", "113214.990000", "113215.450000", "113215.910000", "113216.370000", "113216.830000", "113217.290000", "113217.750000", "113218.210000", "113218.670000", "113219.130000", "113219.590000", "113220.050000", "113220.510000", "113220.970000", "113221.430000", "113221.890000", "113222.350000", "113222.810000", "113223.270000", "113223.730000", "113224.190000", "113224.650000", "113225.110000", "113225.570000", "113226.030000", "113226.490000", "113226.950000", "113227.410000", "113227.870000", "113228.330000", "113228.790000", "113229.250000", "113229.710000", "113230.170000", "113230.630000", "113231.090000", "113231.550000", "113232.010000", "113232.470000", "113232.930000", "113233.390000", "113233.850000", "113234.310000", "113234.770000", "113235.230000", "113235.690000", "113236.150000", "113236.610000", "113237.070000", "113237.530000", "113237.990000", "113238.450000", "113238.910000", "113239.370000", "113239.830000", "113240.290000", "113240.750000", "113241.210000", "113241.670000", "113242.130000", "113242.590000", "113243.050000", "113243.510000", "113243.970000", "113244.430000", "113244.890000", "113245.350000", "113245.810000", "113246.270000", "113246.730000", "113247.190000", "113247.650000", "113248.110000", "113248.570000", "113249.030000", "113249.490000", "113249.950000", "113250.410000", "113250.870000", "113251.330000", "113251.790000", "113252.250000", "113252.710000", "113253.170000", "113253.630000", "113254.090000", "113254.550000", "113255.010000", "113255.470000", "113255.930000", "113256.390000", "113256.850000", "113257.310000", "113257.770000", "113258.230000", "113258.690000", "113259.150000", "113259.610000", "113300.070000", "113300.530000", "113300.990000", "113301.450000", "113301.910000", "113302.370000", "113302.830000", "113303.290000", "113303.750000", "113304.210000", "113304.670000", "113305.130000", "113305.590000", "113306.050000", "113306.510000", "113306.970000", "113307.430000", "113307.890000", "113308.350000", "113308.810000", "113309.270000", "113309.730000", "113310.190000", "113310.650000", "113311.110000", "113311.570000", "113312.030000", "113312.490000", "113312.950000", "113313.410000", "113313.870000", "113314.330000", "113314.790000", "113315.250000", "113315.710000", "113316.170000", "113316.630000", "113317.090000", "113317.550000", "113318.010000", "113318.470000", "113318.930000", "113319.390000", "113319.850000", "113320.310000", "113320.770000", "113321.230000", "113321.690000", "113322.150000", "113322.610000", "113323.070000", "113323.530000", "113323.990000", "113324.450000", "113324.910000", "113325.370000", "113325.830000", "113326.290000", "113326.750000", "113327.210000", "113327.670000", "113328.130000", "113328.590000", "113329.050000", "113329.510000", "113329.970000", "113330.430000", "113330.890000", "113331.350000", "113331.810000", "113332.270000", "113332.730000", "113333.190000", "113333.650000", "113334.110000", "113334.570000", "113335.030000", "113335.490000", "113335.950000", "113336.410000", "113336.870000", "113337.330000", "113337.790000", "113338.250000", "113338.710000", "113339.170000", "113339.630000", "113340.090000", "113340.550000", "113341.010000", "113341.470000", "113341.930000", "113342.390000", "113342.850000", "113343.310000", "113343.770000", "113344.230000", "113344.690000", "113345.150000", "113345.610000", "113346.070000", "113346.530000", "113346.990000", "113347.450000", "113347.910000", "113348.370000", "113348.830000", "113349.290000", "113349.750000", "113350.210000", "113350.670000", "113351.130000", "113351.590000", "113352.050000", "113352.510000", "113352.970000", "113353.430000", "113353.890000", "113354.350000", "113354.810000", "113355.270000", "113355.730000", "113356.190000", "113356.650000", "113357.110000", "113357.570000", "113358.030000", "113358.490000", "113358.950000", "113359.410000", "113359.870000", "113400.330000", "113400.790000", "113401.250000", "113401.710000", "113402.170000", "113402.630000", "113403.090000", "113403.550000", "113404.010000", "113404.470000", "113404.930000", "113405.390000", "113405.850000", "113406.310000", "113406.770000", "113407.230000", "113407.690000", "113408.150000", "113408.610000", "113409.070000", "113409.530000", "113409.990000", "113410.450000", "113410.910000", "113411.370000", "113411.830000", "113412.290000", "113412.750000", "113413.210000", "113413.670000", "113414.130000", "113414.590000", "113415.050000", "113415.510000", "113415.970000", "113416.430000", "113416.890000", "113417.350000", "113417.810000", "113418.270000", "113418.730000", "113419.190000", "113419.650000", "113420.110000", "113420.570000", "113421.030000", "113421.490000", "113421.950000", "113422.410000", "113422.870000", "113423.330000", "113423.790000", "113424.250000", "113424.710000", "113425.170000", "113425.630000", "113426.090000", "113426.550000", "113427.010000", "113427.470000", "113427.930000", "113428.390000", "113428.850000", "113429.310000", "113429.770000", "113430.230000", "113430.690000", "113431.150000", "113431.610000", "113432.070000", "113432.530000", "113432.990000", "113433.450000", "113433.910000", "113434.370000", "113434.830000", "113435.290000", "113435.750000", "113436.210000", "113436.670000", "113437.130000", "113437.590000", "113438.050000", "113438.510000", "113438.970000", "113439.430000", "113439.890000", "113440.350000", "113440.810000", "113441.270000", "113441.730000", "113442.190000", "113442.650000", "113443.110000", "113443.570000", "113444.030000", "113444.490000", "113444.950000", "113445.410000", "113445.870000", "113446.330000", "113446.790000", "113447.250000", "113447.710000", "113448.170000", "113448.630000", "113449.090000", "113449.550000", "113450.010000", "113450.470000", "113450.930000", "113451.390000", "113451.850000", "113452.310000", "113452.770000", "113453.230000", "113453.690000", "113454.150000", "113454.610000", "113455.070000", "113455.530000", "113455.990000", "113456.450000", "113456.910000", "113457.370000", "113457.830000", "113458.290000", "113458.750000", "113459.210000", "113459.670000", "113500.130000", "113500.590000", "113501.050000", "113501.510000", "113501.970000", "113502.430000", "113502.890000", "113503.350000", "113503.810000", "113504.270000", "113504.730000", "113505.190000", "113505.650000", "113506.110000", "113506.570000", "113507.030000", "113507.490000", "113507.950000", "113508.410000", "113508.870000", "113509.330000", "113509.790000", "113510.250000", "113510.710000", "113511.170000", "113511.630000", "113512.090000", "113512.550000", "113513.010000", "113513.470000", "113513.930000", "113514.390000", "113514.850000", "113515.310000", "113515.770000", "113516.230000", "113516.690000", "113517.150000", "113517.610000", "113518.070000", "113518.530000", "113518.990000", "113519.450000", "113519.910000", "113520.370000", "113520.830000", "113521.290000", "113521.750000", "113522.210000", "113522.670000", "113523.130000", "113523.590000", "113524.050000", "113524.510000", "113524.970000", "113525.430000", "113525.890000", "113526.350000", "113526.810000", "113527.270000", "113527.730000", "113528.190000", "113528.650000", "113529.110000", "113529.570000", "113530.030000", "113530.490000", "113530.950000", "113531.410000", "113531.870000", "113532.330000", "113532.790000", "113533.250000", "113533.710000", "113534.170000", "113534.630000", "113535.090000", "113535.550000", "113536.010000", "113536.470000", "113536.930000", "113537.390000", "113537.850000", "113538.310000", "113538.770000", "113539.230000", "113539.690000", "113540.150000", "113540.610000", "113541.070000", "113541.530000", "113541.990000", "113542.450000", "113542.910000", "113543.370000", "113543.830000", "113544.290000", "113544.750000", "113545.210000", "113545.670000", "113546.130000", "113546.590000", "113547.050000", "113547.510000", "113547.970000", "113548.430000", "113548.890000", "113549.350000", "113549.810000", "113550.270000", "113550.730000", "113551.190000", "113551.650000", "113552.110000", "113552.570000", "113553.030000", "113553.490000", "113553.950000", "113554.410000", "113554.870000", "113555.330000", "113555.790000", "113556.250000", "113556.710000", "113557.170000", "113557.630000", "113558.090000", "113558.550000", "113559.010000", "113559.470000", "113559.930000", "113600.390000", "113600.850000", "113601.310000", "113601.770000", "113602.230000", "113602.690000", "113603.150000", "113603.610000", "113604.070000", "113604.530000", "113604.990000", "113605.450000", "113605.910000", "113606.370000", "113606.830000", "113607.290000", "113607.750000", "113608.210000", "113608.670000", "113609.130000", "113609.590000", "113610.050000", "113610.510000", "113610.970000", "113611.430000", "113611.890000", "113612.350000", "113612.810000", "113613.270000", "113613.730000", "113614.190000", "113614.650000", "113615.110000", "113615.570000", "113616.030000", "113616.490000", "113616.950000", "113617.410000", "113617.870000", "113618.330000", "113618.790000", "113619.250000", "113619.710000", "113620.170000", "113620.630000", "113621.090000", "113621.550000", "113622.010000", "113622.470000", "113622.930000", "113623.390000", "113623.850000", "113624.310000", "113624.770000", "113625.230000", "113625.690000", "113626.150000", "113626.610000", "113627.070000", "113627.530000", "113627.990000", "113628.450000", "113628.910000", "113629.370000", "113629.830000", "113630.290000", "113630.750000", "113631.210000", "113631.670000", "113632.130000", "113632.590000", "113633.050000", "113633.510000", "113633.970000", "113634.430000", "113634.890000", "113635.350000", "113635.810000", "113636.270000", "113636.730000", "113637.190000", "113637.650000", "113638.110000"],
