{
  "AcquisitionMatrixPE": 82,
  "AcquisitionNumber": 1,
  "AcquisitionTime": "11:55:31.015000",
  "BandwidthPerPixelPhaseEncode": 24.888,
  "BaseResolution": 82,
  "BodyPartExamined": "BRAIN",
  "ConsistencyInfo": "N4_VE11E_LATEST_20181129",
  "ConversionSoftware": "dcm2niix",
  "ConversionSoftwareVersion": "v1.0.20201102",
  "DerivedVendorReportedEchoSpacing": 0.00049,
  "DeviceSerialNumber": "66112",
  "DwellTime": 2e-06,
  "EchoTime": 0.0272,
  "EchoTrainLength": 82,
  "EffectiveEchoSpacing": 0.00049,
  "FlipAngle": 44,
  "ImageComments": "Unaliased MB8/PE3",
  "ImageOrientationPatientDICOM": [0.996546, 0.0786575, 0.026615, -0.0805304, 0.993639, 0.0787178],
  "ImageType": [
    "ORIGINAL",
    "PRIMARY",
    "M",
    "MB",
    "ND",
    "NORM",
    "MOSAIC"
],
  "ImagingFrequency": 123.252,
  "InPlanePhaseEncodingDirectionDICOM": "COL",
  "InstitutionAddress": "Maynard 3,Hanover,NH,US,03755",
  "InstitutionName": "Dartmouth College - PBS",
  "InstitutionalDepartmentName": "Department",
  "MRAcquisitionType": "2D",
  "MagneticFieldStrength": 3,
  "Manufacturer": "Siemens",
  "ManufacturersModelName": "Prisma",
  "Modality": "MR",
  "MultibandAccelerationFactor": 8,
  "PartialFourier": 1,
  "PatientPosition": "HFS",
  "PercentPhaseFOV": 100,
  "PercentSampling": 100,
  "PhaseEncodingDirection": "j-",
  "PhaseEncodingSteps": 82,
  "PhaseResolution": 1,
  "PixelBandwidth": 3050,
  "ProcedureStepDescription": "Wager_Wager^1076_spacetop",
  "ProtocolName": "func_run-04_task-social_acq-ap-mb8",
  "PulseSequenceDetails": "%CustomerSeq%\\cmrr_mbep2d_bold",
  "ReceiveCoilActiveElements": "HEA;HEP",
  "ReceiveCoilName": "Head_32",
  "ReconMatrixPE": 82,
  "RepetitionTime": 0.46,
  "SAR": 0.107306,
  "ScanOptions": "FS",
  "ScanningSequence": "EP",
  "SequenceName": "epfid2d1_82",
  "SequenceVariant": "SK\\SS",
  "SeriesDescription": "func_run-04_task-social_acq-ap-mb8",
  "SeriesNumber": 18,
  "ShimSetting": [4165, -7844, -7279, 760, -19, -635, 256, 14],
  "SliceThickness": 2.7,
  "SliceTiming": [0, 0.25, 0.0625, 0.3125, 0.125, 0.375, 0.1875, 0, 0.25, 0.0625, 0.3125, 0.125, 0.375, 0.1875, 0, 0.25, 0.0625, 0.3125, 0.125, 0.375, 0.1875, 0, 0.25, 0.0625, 0.3125, 0.125, 0.375, 0.1875, 0, 0.25, 0.0625, 0.3125, 0.125, 0.375, 0.1875, 0, 0.25, 0.0625, 0.3125, 0.125, 0.375, 0.1875, 0, 0.25, 0.0625, 0.3125, 0.125, 0.375, 0.1875, 0, 0.25, 0.0625, 0.3125, 0.125, 0.375, 0.1875],
  "SoftwareVersions": "syngo MR E11",
  "SpacingBetweenSlices": 2.7,
  "StationName": "AWP66112",
  "TaskName": "social",
  "TotalReadoutTime": 0.03969,
  "TxRefAmp": 232.532,
  "WipMemBlock": "c82fd125-cf72-483a-84ec-987e69666ce5||Sequence: R016 ve11e/master r/434b28f1; Aug  7 2019 18:53:46 by eja",
  "dcmmeta_affine": [
    [-2.67366099357605, -0.21605709195137024, 0.054685577750205994, 119.72828674316406],
    [-0.21103236079216003, 2.665860652923584, 0.21759097278118134, -89.42184448242188],
    [0.07140599936246872, -0.21119411289691925, 2.690662145614624, -58.45695114135742],
    [0.0, 0.0, 0.0, 1.0]
],
  "dcmmeta_reorient_transform": [
    [0.0, -1.0, 0.0, 81.0],
    [1.0, 0.0, 0.0, 0.0],
    [0.0, 0.0, 1.0, 0.0],
    [0.0, 0.0, 0.0, 1.0]
],
  "dcmmeta_shape": [82, 82, 56, 872],
  "dcmmeta_slice_dim": 2,
  "dcmmeta_version": 0.6,
  "global": {
    "const": {
      "AccessionNumber": "A004238",
      "AcquisitionMatrix": [82, 0, 0, 82],
      "AngioFlag": "N",
      "BitsAllocated": 16,
      "BitsStored": 16,
      "BodyPartExamined": "BRAIN",
      "Columns": 656,
      "EchoNumbers": 1,
      "EchoTime": 27.2,
      "EchoTrainLength": 82,
      "FlipAngle": 44.0,
      "HighBit": 15,
      "ImageOrientationPatient": [0.99654635565378, 0.07865751551524, 0.02661496357567, -0.0805303659966, 0.99363895242775, 0.07871780212095],
      "ImagePositionPatient": [-807.55999459139, -952.18116647714, -156.66990587774],
      "ImageType": [
        "ORIGINAL",
        "PRIMARY",
        "M",
        "MB",
        "ND",
        "NORM",
        "MOSAIC"
],
      "ImagedNucleus": "1H",
      "ImagingFrequency": 123.252229,
      "InPlanePhaseEncodingDirection": "COL",
      "MRAcquisitionType": "2D",
      "MagneticFieldStrength": 3.0,
      "Manufacturer": "SIEMENS",
      "ManufacturerModelName": "Prisma",
      "Modality": "MR",
      "NumberOfAverages": 1.0,
      "NumberOfPhaseEncodingSteps": 82,
      "PercentPhaseFieldOfView": 100.0,
      "PercentSampling": 100.0,
      "PerformedProcedureStepStartTime": "105453.153000",
      "PhotometricInterpretation": "MONOCHROME2",
      "PixelBandwidth": 3050.0,
      "PixelRepresentation": 0,
      "PixelSpacing": [2.6829268932343, 2.6829268932343],
      "ProtocolName": "func_run-04_task-social_acq-ap-mb8",
      "RepetitionTime": 460.0,
      "Rows": 656,
      "SAR": 0.10730630139047,
      "SamplesPerPixel": 1,
      "ScanOptions": "FS",
      "ScanningSequence": "EP",
      "SequenceName": "epfid2d1_82",
      "SequenceVariant": [
        "SK",
        "SS"
],
      "SeriesDescription": "func_run-04_task-social_acq-ap-mb8",
      "SeriesNumber": 18,
      "SeriesTime": "115558.721000",
      "SliceLocation": -63.036256635382,
      "SliceThickness": 2.7000000476837,
      "SmallestImagePixelValue": 0,
      "SoftwareVersions": "syngo MR E11",
      "SpacingBetweenSlices": 2.6999999375528,
      "SpecificCharacterSet": "ISO_IR 100",
      "StudyID": "1",
      "StudyTime": "105452.947000",
      "TransmitCoilName": "Body",
      "VariableFlipAngleFlag": "N",
      "WindowCenterWidthExplanation": "Algo1"
    },
    "slices": {}
  },
  "time": {
    "samples": {
      "AcquisitionNumber": [1, 2, 3, 4, 5, 6, 7, 8, 9, 10, 11, 12, 13, 14, 15, 16, 17, 18, 19, 20, 21, 22, 23, 24, 25, 26, 27, 28, 29, 30, 31, 32, 33, 34, 35, 36, 37, 38, 39, 40, 41, 42, 43, 44, 45, 46, 47, 48, 49, 50, 51, 52, 53, 54, 55, 56, 57, 58, 59, 60, 61, 62, 63, 64, 65, 66, 67, 68, 69, 70, 71, 72, 73, 74, 75, 76, 77, 78, 79, 80, 81, 82, 83, 84, 85, 86, 87, 88, 89, 90, 91, 92, 93, 94, 95, 96, 97, 98, 99, 100, 101, 102, 103, 104, 105, 106, 107, 108, 109, 110, 111, 112, 113, 114, 115, 116, 117, 118, 119, 120, 121, 122, 123, 124, 125, 126, 127, 128, 129, 130, 131, 132, 133, 134, 135, 136, 137, 138, 139, 140, 141, 142, 143, 144, 145, 146, 147, 148, 149, 150, 151, 152, 153, 154, 155, 156, 157, 158, 159, 160, 161, 162, 163, 164, 165, 166, 167, 168, 169, 170, 171, 172, 173, 174, 175, 176, 177, 178, 179, 180, 181, 182, 183, 184, 185, 186, 187, 188, 189, 190, 191, 192, 193, 194, 195, 196, 197, 198, 199, 200, 201, 202, 203, 204, 205, 206, 207, 208, 209, 210, 211, 212, 213, 214, 215, 216, 217, 218, 219, 220, 221, 222, 223, 224, 225, 226, 227, 228, 229, 230, 231, 232, 233, 234, 235, 236, 237, 238, 239, 240, 241, 242, 243, 244, 245, 246, 247, 248, 249, 250, 251, 252, 253, 254, 255, 256, 257, 258, 259, 260, 261, 262, 263, 264, 265, 266, 267, 268, 269, 270, 271, 272, 273, 274, 275, 276, 277, 278, 279, 280, 281, 282, 283, 284, 285, 286, 287, 288, 289, 290, 291, 292, 293, 294, 295, 296, 297, 298, 299, 300, 301, 302, 303, 304, 305, 306, 307, 308, 309, 310, 311, 312, 313, 314, 315, 316, 317, 318, 319, 320, 321, 322, 323, 324, 325, 326, 327, 328, 329, 330, 331, 332, 333, 334, 335, 336, 337, 338, 339, 340, 341, 342, 343, 344, 345, 346, 347, 348, 349, 350, 351, 352, 353, 354, 355, 356, 357, 358, 359, 360, 361, 362, 363, 364, 365, 366, 367, 368, 369, 370, 371, 372, 373, 374, 375, 376, 377, 378, 379, 380, 381, 382, 383, 384, 385, 386, 387, 388, 389, 390, 391, 392, 393, 394, 395, 396, 397, 398, 399, 400, 401, 402, 403, 404, 405, 406, 407, 408, 409, 410, 411, 412, 413, 414, 415, 416, 417, 418, 419, 420, 421, 422, 423, 424, 425, 426, 427, 428, 429, 430, 431, 432, 433, 434, 435, 436, 437, 438, 439, 440, 441, 442, 443, 444, 445, 446, 447, 448, 449, 450, 451, 452, 453, 454, 455, 456, 457, 458, 459, 460, 461, 462, 463, 464, 465, 466, 467, 468, 469, 470, 471, 472, 473, 474, 475, 476, 477, 478, 479, 480, 481, 482, 483, 484, 485, 486, 487, 488, 489, 490, 491, 492, 493, 494, 495, 496, 497, 498, 499, 500, 501, 502, 503, 504, 505, 506, 507, 508, 509, 510, 511, 512, 513, 514, 515, 516, 517, 518, 519, 520, 521, 522, 523, 524, 525, 526, 527, 528, 529, 530, 531, 532, 533, 534, 535, 536, 537, 538, 539, 540, 541, 542, 543, 544, 545, 546, 547, 548, 549, 550, 551, 552, 553, 554, 555, 556, 557, 558, 559, 560, 561, 562, 563, 564, 565, 566, 567, 568, 569, 570, 571, 572, 573, 574, 575, 576, 577, 578, 579, 580, 581, 582, 583, 584, 585, 586, 587, 588, 589, 590, 591, 592, 593, 594, 595, 596, 597, 598, 599, 600, 601, 602, 603, 604, 605, 606, 607, 608, 609, 610, 611, 612, 613, 614, 615, 616, 617, 618, 619, 620, 621, 622, 623, 624, 625, 626, 627, 628, 629, 630, 631, 632, 633, 634, 635, 636, 637, 638, 639, 640, 641, 642, 643, 644, 645, 646, 647, 648, 649, 650, 651, 652, 653, 654, 655, 656, 657, 658, 659, 660, 661, 662, 663, 664, 665, 666, 667, 668, 669, 670, 671, 672, 673, 674, 675, 676, 677, 678, 679, 680, 681, 682, 683, 684, 685, 686, 687, 688, 689, 690, 691, 692, 693, 694, 695, 696, 697, 698, 699, 700, 701, 702, 703, 704, 705, 706, 707, 708, 709, 710, 711, 712, 713, 714, 715, 716, 717, 718, 719, 720, 721, 722, 723, 724, 725, 726, 727, 728, 729, 730, 731, 732, 733, 734, 735, 736, 737, 738, 739, 740, 741, 742, 743, 744, 745, 746, 747, 748, 749, 750, 751, 752, 753, 754, 755, 756, 757, 758, 759, 760, 761, 762, 763, 764, 765, 766, 767, 768, 769, 770, 771, 772, 773, 774, 775, 776, 777, 778, 779, 780, 781, 782, 783, 784, 785, 786, 787, 788, 789, 790, 791, 792, 793, 794, 795, 796, 797, 798, 799, 800, 801, 802, 803, 804, 805, 806, 807, 808, 809, 810, 811, 812, 813, 814, 815, 816, 817, 818, 819, 820, 821, 822, 823, 824, 825, 826, 827, 828, 829, 830, 831, 832, 833, 834, 835, 836, 837, 838, 839, 840, 841, 842, 843, 844, 845, 846, 847, 848, 849, 850, 851, 852, 853, 854, 855, 856, 857, 858, 859, 860, 861, 862, 863, 864, 865, 866, 867, 868, 869, 870, 871, 872],
      "AcquisitionTime": ["115531.015000", "115531.475000", "115531.935000", "115532.395000", "115532.855000", "115533.315000", "115533.775000", "115534.235000", "115534.695000", "115535.155000", "115535.615000", "115536.075000", "115536.535000", "115536.995000", "115537.455000", "115537.915000", "115538.375000", "115538.835000", "115539.295000", "115539.755000", "115540.215000", "115540.675000", "115541.135000", "115541.595000", "115542.055000", "115542.515000", "115542.975000", "115543.435000", "115543.895000", "115544.355000", "115544.815000", "115545.275000", "115545.735000", "115546.195000", "115546.655000", "115547.115000", "115547.575000", "115548.035000", "115548.495000", "115548.955000", "115549.415000", "115549.875000", "115550.335000", "115550.795000", "115551.255000", "115551.715000", "115552.175000", "115552.635000", "115553.095000", "115553.555000", "115554.015000", "115554.475000", "115554.935000", "115555.395000", "115555.855000", "115556.315000", "115556.775000", "115557.235000", "115557.695000", "115558.155000", "115558.615000", "115559.075000", "115559.535000", "115559.995000", "115600.455000", "115600.915000", "115601.375000", "115601.835000", "115602.295000", "115602.755000", "115603.215000", "115603.675000", "115604.135000", "115604.595000", "115605.055000", "115605.515000", "115605.975000", "115606.435000", "115606.895000", "115607.355000", "115607.815000", "115608.275000", "115608.735000", "115609.195000", "115609.655000", "115610.115000", "115610.575000", "115611.035000", "115611.495000", "115611.955000", "115612.415000", "115612.875000", "115613.335000", "115613.795000", "115614.255000", "115614.715000", "115615.175000", "115615.635000", "115616.095000", "115616.555000", "115617.015000", "115617.475000", "115617.935000", "115618.395000", "115618.855000", "115619.315000", "115619.775000", "115620.235000", "115620.695000", "115621.155000", "115621.615000", "115622.075000", "115622.535000", "115622.995000", "115623.455000", "115623.915000", "115624.375000", "115624.835000", "115625.295000", "115625.755000", "115626.215000", "115626.675000", "115627.135000", "115627.595000", "115628.055000", "115628.515000", "115628.975000", "115629.435000", "115629.895000", "115630.355000", "115630.815000", "115631.275000", "115631.735000", "115632.195000", "115632.655000", "115633.115000", "115633.575000", "115634.035000", "115634.495000", "115634.955000", "115635.415000", "115635.875000", "115636.335000", "115636.795000", "115637.255000", "115637.715000", "115638.175000", "115638.635000", "115639.095000", "115639.555000", "115640.015000", "115640.475000", "115640.935000", "115641.395000", "115641.855000", "115642.315000", "115642.775000", "115643.235000", "115643.695000", "115644.155000", "115644.615000", "115645.075000", "115645.535000", "115645.995000", "115646.455000", "115646.915000", "115647.375000", "115647.835000", "115648.295000", "115648.755000", "115649.215000", "115649.675000", "115650.135000", "115650.595000", "115651.055000", "115651.515000", "115651.975000", "115652.435000", "115652.895000", "115653.355000", "115653.815000", "115654.275000", "115654.735000", "115655.195000", "115655.655000", "115656.115000", "115656.575000", "115657.035000", "115657.495000", "115657.955000", "115658.415000", "115658.875000", "115659.335000", "115659.795000", "115700.255000", "115700.715000", "115701.175000", "115701.635000", "115702.095000", "115702.555000", "115703.015000", "115703.475000", "115703.935000", "115704.395000", "115704.855000", "115705.315000", "115705.775000", "115706.235000", "115706.695000", "115707.155000", "115707.615000", "115708.075000", "115708.535000", "115708.995000", "115709.455000", "115709.915000", "115710.375000", "115710.835000", "115711.295000", "115711.755000", "115712.215000", "115712.675000", "115713.135000", "115713.595000", "115714.055000", "115714.515000", "115714.975000", "115715.435000", "115715.895000", "115716.355000", "115716.815000", "115717.275000", "115717.735000", "115718.195000", "115718.655000", "115719.115000", "115719.575000", "115720.035000", "115720.495000", "115720.955000", "115721.415000", "115721.875000", "115722.335000", "115722.795000", "115723.255000", "115723.715000", "115724.175000", "115724.635000", "115725.095000", "115725.555000", "115726.015000", "115726.475000", "115726.935000", "115727.395000", "115727.855000", "115728.315000", "115728.775000", "115729.235000", "115729.695000", "115730.155000", "115730.615000", "115731.075000", "115731.535000", "115731.995000", "115732.455000", "115732.915000", "115733.375000", "115733.835000", "115734.295000", "115734.755000", "115735.215000", "115735.675000", "115736.135000", "115736.595000", "115737.055000", "115737.515000", "115737.975000", "115738.435000", "115738.895000", "115739.355000", "115739.815000", "115740.275000", "115740.735000", "115741.195000", "115741.655000", "115742.115000", "115742.575000", "115743.035000", "115743.495000", "115743.955000", "115744.415000", "115744.875000", "115745.335000", "115745.795000", "115746.255000", "115746.715000", "115747.175000", "115747.635000", "115748.095000", "115748.555000", "115749.015000", "115749.475000", "115749.935000", "115750.395000", "115750.855000", "115751.315000", "115751.775000", "115752.235000", "115752.695000", "115753.155000", "115753.615000", "115754.075000", "115754.535000", "115754.995000", "115755.455000", "115755.915000", "115756.375000", "115756.835000", "115757.295000", "115757.755000", "115758.215000", "115758.675000", "115759.135000", "115759.595000", "115800.055000", "115800.515000", "115800.975000", "115801.435000", "115801.895000", "115802.355000", "115802.815000", "115803.275000", "115803.735000", "115804.195000", "115804.655000", "115805.115000", "115805.575000", "115806.035000", "115806.495000", "115806.955000", "115807.415000", "115807.875000", "115808.335000", "115808.795000", "115809.255000", "115809.715000", "115810.175000", "115810.635000", "115811.095000", "115811.555000", "115812.015000", "115812.475000", "115812.935000", "115813.395000", "115813.855000", "115814.315000", "115814.775000", "115815.235000", "115815.695000", "115816.155000", "115816.615000", "115817.075000", "115817.535000", "115817.995000", "115818.455000", "115818.915000", "115819.375000", "115819.835000", "115820.295000", "115820.755000", "115821.215000", "115821.675000", "115822.135000", "115822.595000", "115823.055000", "115823.515000", "115823.975000", "115824.435000", "115824.895000", "115825.355000", "115825.815000", "115826.275000", "115826.735000", "115827.195000", "115827.655000", "115828.115000", "115828.575000", "115829.035000", "115829.495000", "115829.955000", "115830.415000", "115830.875000", "115831.335000", "115831.795000", "115832.255000", "115832.715000", "115833.175000", "115833.635000", "115834.095000", "115834.555000", "115835.015000", "115835.475000", "115835.935000", "115836.395000", "115836.855000", "115837.315000", "115837.775000", "115838.235000", "115838.695000", "115839.155000", "115839.615000", "115840.075000", "115840.535000", "115840.995000", "115841.455000", "115841.915000", "115842.375000", "115842.835000", "115843.295000", "115843.755000", "115844.215000", "115844.675000", "115845.135000", "115845.595000", "115846.055000", "115846.515000", "115846.975000", "115847.435000", "115847.895000", "115848.355000", "115848.815000", "115849.275000", "115849.735000", "115850.195000", "115850.655000", "115851.115000", "115851.575000", "115852.035000", "115852.495000", "115852.955000", "115853.415000", "115853.875000", "115854.335000", "115854.795000", "115855.255000", "115855.715000", "115856.175000", "115856.635000", "115857.095000", "115857.555000", "115858.015000", "115858.475000", "115858.935000", "115859.395000", "115859.855000", "115900.315000", "115900.775000", "115901.235000", "115901.695000", "115902.155000", "115902.615000", "115903.075000", "115903.535000", "115903.995000", "115904.455000", "115904.915000", "115905.375000", "115905.835000", "115906.295000", "115906.755000", "115907.215000", "115907.675000", "115908.135000", "115908.595000", "115909.055000", "115909.515000", "115909.975000", "115910.435000", "115910.895000", "115911.355000", "115911.815000", "115912.275000", "115912.735000", "115913.195000", "115913.655000", "115914.115000", "115914.575000", "115915.035000", "115915.495000", "115915.955000", "115916.415000", "115916.875000", "115917.335000", "115917.795000", "115918.255000", "115918.715000", "115919.175000", "115919.635000", "115920.095000", "115920.555000", "115921.015000", "115921.475000", "115921.935000", "115922.395000", "115922.855000", "115923.315000", "115923.775000", "115924.235000", "115924.695000", "115925.155000", "115925.615000", "115926.075000", "115926.535000", "115926.995000", "115927.455000", "115927.915000", "115928.375000", "115928.835000", "115929.295000", "115929.755000", "115930.215000", "115930.675000", "115931.135000", "115931.595000", "115932.055000", "115932.515000", "115932.975000", "115933.435000", "115933.895000", "115934.355000", "115934.815000", "115935.275000", "115935.735000", "115936.195000", "115936.655000", "115937.115000", "115937.575000", "115938.035000", "115938.495000", "115938.955000", "115939.415000", "115939.875000", "115940.335000", "115940.795000", "115941.255000", "115941.715000", "115942.175000", "115942.635000", "115943.095000", "115943.555000", "115944.015000", "115944.475000", "115944.935000", "115945.395000", "115945.855000", "115946.315000", "115946.775000", "115947.235000", "115947.695000", "115948.155000", "115948.615000", "115949.075000", "115949.535000", "115949.995000", "115950.455000", "115950.915000", "115951.375000", "115951.835000", "115952.295000", "115952.755000", "115953.215000", "115953.675000", "115954.135000", "115954.595000", "115955.055000", "115955.515000", "115955.975000", "115956.435000", "115956.895000", "115957.355000", "115957.815000", "115958.275000", "115958.735000", "115959.195000", "115959.655000", "120000.115000", "120000.575000", "120001.035000", "120001.495000", "120001.955000", "120002.415000", "120002.875000", "120003.335000", "120003.795000", "120004.255000", "120004.715000", "120005.175000", "120005.635000", "120006.095000", "120006.555000", "120007.015000", "120007.475000", "120007.935000", "120008.395000", "120008.855000", "120009.315000", "120009.775000", "120010.235000", "120010.695000", "120011.155000", "120011.615000", "120012.075000", "120012.535000", "120012.995000", "120013.455000", "120013.915000", "120014.375000", "120014.835000", "120015.295000", "120015.755000", "120016.215000", "120016.675000", "120017.135000", "120017.595000", "120018.055000", "120018.515000", "120018.975000", "120019.435000", "120019.895000", "120020.355000", "120020.815000", "120021.275000", "120021.735000", "120022.195000", "120022.655000", "120023.115000", "120023.575000", "120024.035000", "120024.495000", "120024.955000", "120025.415000", "120025.875000", "120026.335000", "120026.795000", "120027.255000", "120027.715000", "120028.175000", "120028.635000", "120029.095000", "120029.555000", "120030.015000", "120030.475000", "120030.935000", "120031.395000", "120031.855000", "120032.315000", "120032.775000", "120033.235000", "120033.695000", "120034.155000", "120034.615000", "120035.075000", "120035.535000", "120035.995000", "120036.455000", "120036.915000", "120037.375000", "120037.835000", "120038.295000", "120038.755000", "120039.215000", "120039.675000", "120040.135000", "120040.595000", "120041.055000", "120041.515000", "120041.975000", "120042.435000", "120042.895000", "120043.355000", "120043.815000", "120044.275000", "120044.735000", "120045.195000", "120045.655000", "120046.115000", "120046.575000", "120047.035000", "120047.495000", "120047.955000", "120048.415000", "120048.875000", "120049.335000", "120049.795000", "120050.255000", "120050.715000", "120051.175000", "120051.635000", "120052.095000", "120052.555000", "120053.015000", "120053.475000", "120053.935000", "120054.395000", "120054.855000", "120055.315000", "120055.775000", "120056.235000", "120056.695000", "120057.155000", "120057.615000", "120058.075000", "120058.535000", "120058.995000", "120059.455000", "120059.915000", "120100.375000", "120100.835000", "120101.295000", "120101.755000", "120102.215000", "120102.675000", "120103.135000", "120103.595000", "120104.055000", "120104.515000", "120104.975000", "120105.435000", "120105.895000", "120106.355000", "120106.815000", "120107.275000", "120107.735000", "120108.195000", "120108.655000", "120109.115000", "120109.575000", "120110.035000", "120110.495000", "120110.955000", "120111.415000", "120111.875000", "120112.335000", "120112.795000", "120113.255000", "120113.715000", "120114.175000", "120114.635000", "120115.095000", "120115.555000", "120116.015000", "120116.475000", "120116.935000", "120117.395000", "120117.855000", "120118.315000", "120118.775000", "120119.235000", "120119.695000", "120120.155000", "120120.615000", "120121.075000", "120121.535000", "120121.995000", "120122.455000", "120122.915000", "120123.375000", "120123.835000", "120124.295000", "120124.755000", "120125.215000", "120125.675000", "120126.135000", "120126.595000", "120127.055000", "120127.515000", "120127.975000", "120128.435000", "120128.895000", "120129.355000", "120129.815000", "120130.275000", "120130.735000", "120131.195000", "120131.655000", "120132.115000", "120132.575000", "120133.035000", "120133.495000", "120133.955000", "120134.415000", "120134.875000", "120135.335000", "120135.795000", "120136.255000", "120136.715000", "120137.175000", "120137.635000", "120138.095000", "120138.555000", "120139.015000", "120139.475000", "120139.935000", "120140.395000", "120140.855000", "120141.315000", "120141.775000", "120142.235000", "120142.695000", "120143.155000", "120143.615000", "120144.075000", "120144.535000", "120144.995000", "120145.455000", "120145.915000", "120146.375000", "120146.835000", "120147.295000", "120147.755000", "120148.215000", "120148.675000", "120149.135000", "120149.595000", "120150.055000", "120150.515000", "120150.975000", "120151.435000", "120151.895000", "120152.355000", "120152.815000", "120153.275000", "120153.735000", "120154.195000", "120154.655000", "120155.115000", "120155.575000", "120156.035000", "120156.495000", "120156.955000", "120157.415000", "120157.875000", "120158.335000", "120158.795000", "120159.255000", "120159.715000", "120200.175000", "120200.635000", "120201.095000", "120201.555000", "120202.015000", "120202.475000", "120202.935000", "120203.395000", "120203.855000", "120204.315000", "120204.775000", "120205.235000", "120205.695000", "120206.155000", "120206.615000", "120207.075000", "120207.535000", "120207.995000", "120208.455000", "120208.915000", "120209.375000", "120209.835000", "120210.295000", "120210.755000", "120211.215000", "120211.675000"],
