{
  "AcquisitionMatrixPE": 140,
  "AcquisitionNumber": 1,
  "AcquisitionTime": "12:31:51.995000",
  "BandwidthPerPixelPhaseEncode": 10.352,
  "BaseResolution": 140,
  "BodyPartExamined": "BRAIN",
  "ConsistencyInfo": "N4_VE11E_LATEST_20181129",
  "ConversionSoftware": "dcm2niix",
  "ConversionSoftwareVersion": "v1.0.20201102",
  "DerivedVendorReportedEchoSpacing": 0.000689998,
  "DeviceSerialNumber": "66112",
  "DiffusionScheme": "Monopolar",
  "DwellTime": 2.1e-06,
  "EchoTime": 0.088,
  "EchoTrainLength": 105,
  "EffectiveEchoSpacing": 0.000689998,
  "FlipAngle": 90,
  "ImageComments": "Unaliased MB3/PE3",
  "ImageOrientationPatientDICOM": [0.998771, 0.00128449, 0.0495443, -0.0139464, 0.966553, 0.256089],
  "ImageType": [
    "ORIGINAL",
    "PRIMARY",
    "DIFFUSION",
    "NONE",
    "MB",
    "ND"
],
  "ImagingFrequency": 123.252,
  "InPlanePhaseEncodingDirectionDICOM": "COL",
  "InstitutionAddress": "Maynard 3,Hanover,NH,US,03755",
  "InstitutionName": "Dartmouth College - PBS",
  "InstitutionalDepartmentName": "Department",
  "IntendedFor": [
    "ses-01/dwi/sub-0052_ses-01_acq-96dirX6b0Xmb_dwi.nii.gz"
],
  "MRAcquisitionType": "2D",
  "MagneticFieldStrength": 3,
  "Manufacturer": "Siemens",
  "ManufacturersModelName": "Prisma",
  "Modality": "MR",
  "MultibandAccelerationFactor": 3,
  "PartialFourier": 0.75,
  "PatientPosition": "HFS",
  "PercentPhaseFOV": 100,
  "PercentSampling": 100,
  "PhaseEncodingDirection": "j-",
  "PhaseEncodingSteps": 105,
  "PhaseResolution": 1,
  "PixelBandwidth": 1700,
  "ProcedureStepDescription": "Wager_Wager^1076_spacetop",
  "ProtocolName": "dwi_acq-discorr-AP",
  "PulseSequenceDetails": "%CustomerSeq%\\cmrr_mbep2d_diff",
  "ReceiveCoilActiveElements": "HEA;HEP",
  "ReceiveCoilName": "Head_32",
  "ReconMatrixPE": 140,
  "RepetitionTime": 4.1,
  "SAR": 0.153109,
  "ScanOptions": "PFP\\FS",
  "ScanningSequence": "EP",
  "SequenceName": "ep_b0",
  "SequenceVariant": "SK\\SS",
  "SeriesDescription": "dwi_acq-discorr-AP",
  "SeriesNumber": 7,
  "ShimSetting": [4173, -7791, -7245, 610, -9, -99, 49, 39],
  "SliceThickness": 1.7,
  "SliceTiming": [0, 2.11719, 0.15625, 2.27344, 0.30469, 2.42188, 0.46094, 2.57031, 0.60938, 2.72656, 0.75781, 2.875, 0.91406, 3.02344, 1.0625, 3.17969, 1.21094, 3.32812, 1.35938, 3.47656, 1.51562, 3.63281, 1.66406, 3.78125, 1.82031, 3.92969, 1.96875, 0, 2.11719, 0.15625, 2.27344, 0.30469, 2.42188, 0.46094, 2.57031, 0.60938, 2.72656, 0.75781, 2.875, 0.91406, 3.02344, 1.0625, 3.17969, 1.21094, 3.32812, 1.35938, 3.47656, 1.51562, 3.63281, 1.66406, 3.78125, 1.82031, 3.92969, 1.96875, 0, 2.11719, 0.15625, 2.27344, 0.30469, 2.42188, 0.46094, 2.57031, 0.60938, 2.72656, 0.75781, 2.875, 0.91406, 3.02344, 1.0625, 3.17969, 1.21094, 3.32812, 1.35938, 3.47656, 1.51562, 3.63281, 1.66406, 3.78125, 1.82031, 3.92969, 1.96875],
  "SoftwareVersions": "syngo MR E11",
  "SpacingBetweenSlices": 1.7,
  "StationName": "AWP66112",
  "TotalReadoutTime": 0.0959097,
  "TxRefAmp": 239.056,
  "WipMemBlock": "a26fe5c2-9b4c-4418-aa25-d225376ae745||Sequence: R016 ve11e/master r/434b28f1; Aug  7 2019 19:06:17 by eja",
  "dcmmeta_affine": [
    [-1.7121790647506714, -0.02390810288488865, 0.08084869384765625, 120.11128997802734],
    [-0.002201986266300082, 1.6569474935531616, 0.4359931945800781, -100.48202514648438],
    [0.08493304997682571, -0.43900904059410095, 1.6411514282226562, -20.97747230529785],
    [0.0, 0.0, 0.0, 1.0]
],
  "dcmmeta_reorient_transform": [
    [0.0, -1.0, 0.0, 139.0],
    [1.0, 0.0, 0.0, 0.0],
    [0.0, 0.0, -1.0, 80.0],
    [0.0, 0.0, 0.0, 1.0]
],
  "dcmmeta_shape": [140, 140, 81],
  "dcmmeta_slice_dim": 2,
  "dcmmeta_version": 0.6,
  "global": {
    "const": {
      "AccessionNumber": "A003890",
      "AcquisitionMatrix": [140, 0, 0, 140],
      "AcquisitionNumber": 1,
      "AngioFlag": "N",
      "BitsAllocated": 16,
      "BitsStored": 16,
      "BodyPartExamined": "BRAIN",
      "Columns": 140,
      "EchoNumbers": 1,
      "EchoTime": 88.0,
      "EchoTrainLength": 105,
      "FlipAngle": 90.0,
      "HighBit": 15,
      "ImageOrientationPatient": [0.99877110217139, 0.00128449193263, 0.04954427865889, -0.0139463931963, 0.96655270055657, 0.25608860803169],
      "ImageType": [
        "ORIGINAL",
        "PRIMARY",
        "DIFFUSION",
        "NONE",
        "MB",
        "ND"
],
      "ImagedNucleus": "1H",
      "ImagingFrequency": 123.252147,
      "InPlanePhaseEncodingDirection": "COL",
      "MRAcquisitionType": "2D",
      "MagneticFieldStrength": 3.0,
      "Manufacturer": "SIEMENS",
      "ManufacturerModelName": "Prisma",
      "Modality": "MR",
      "NumberOfAverages": 1.0,
      "NumberOfPhaseEncodingSteps": 105,
      "PercentPhaseFieldOfView": 100.0,
      "PercentSampling": 100.0,
      "PerformedProcedureStepStartTime": "120213.534000",
      "PhotometricInterpretation": "MONOCHROME2",
      "PixelBandwidth": 1700.0,
      "PixelRepresentation": 0,
      "PixelSpacing": [1.7142857313156, 1.7142857313156],
      "ProtocolName": "dwi_acq-discorr-AP",
      "RepetitionTime": 4100.0,
      "Rows": 140,
      "SAR": 0.15310926823302,
      "SamplesPerPixel": 1,
      "ScanOptions": [
        "PFP",
        "FS"
],
      "ScanningSequence": "EP",
      "SequenceName": "ep_b0",
      "SequenceVariant": [
        "SK",
        "SS"
],
      "SeriesDescription": "dwi_acq-discorr-AP",
      "SeriesNumber": 7,
      "SeriesTime": "123156.902000",
      "SliceThickness": 1.7000000476837,
      "SmallestImagePixelValue": 0,
      "SoftwareVersions": "syngo MR E11",
      "SpacingBetweenSlices": 1.7,
      "SpecificCharacterSet": "ISO_IR 100",
      "StudyID": "1",
      "StudyTime": "120213.408000",
      "TransmitCoilName": "Body",
      "VariableFlipAngleFlag": "N",
      "WindowCenterWidthExplanation": "Algo1"
    },
    "slices": {
      "AcquisitionTime": ["123151.995000", "123154.112500", "123152.147500", "123154.262500", "123152.297500", "123154.415000", "123152.450000", "123154.565000", "123152.600000", "123154.715000", "123152.752500", "123154.867500", "123152.902500", "123155.017500", "123153.055000", "123155.170000", "123153.205000", "123155.320000", "123153.355000", "123155.472500", "123153.507500", "123155.622500", "123153.657500", "123155.775000", "123153.810000", "123155.925000", "123153.960000", "123151.995000", "123154.112500", "123152.147500", "123154.262500", "123152.297500", "123154.415000", "123152.450000", "123154.565000", "123152.600000", "123154.715000", "123152.752500", "123154.867500", "123152.902500", "123155.017500", "123153.055000", "123155.170000", "123153.205000", "123155.320000", "123153.355000", "123155.472500", "123153.507500", "123155.622500", "123153.657500", "123155.775000", "123153.810000", "123155.925000", "123153.960000", "123151.995000", "123154.112500", "123152.147500", "123154.262500", "123152.297500", "123154.415000", "123152.450000", "123154.565000", "123152.600000", "123154.715000", "123152.752500", "123154.867500", "123152.902500", "123155.017500", "123153.055000", "123155.170000", "123153.205000", "123155.320000", "123153.355000", "123155.472500", "123153.507500", "123155.622500", "123153.657500", "123155.775000", "123153.810000", "123155.925000", "123153.960000"],
      "ContentTime": ["123156.904000", "123156.995000", "123156.911000", "123157.002000", "123156.923000", "123157.008000", "123156.929000", "123157.018000", "123156.935000", "123157.024000", "123156.941000", "123157.031000", "123156.947000", "123157.037000", "123156.953000", "123157.043000", "123156.958000", "123157.049000", "123156.964000", "123157.055000", "123156.970000", "123157.061000", "123156.976000", "123157.068000", "123156.982000", "123157.074000", "123156.990000", "123156.907000", "123156.997000", "123156.919000", "123157.004000", "123156.925000", "123157.014000", "123156.931000", "123157.020000", "123156.937000", "123157.026000", "123156.943000", "123157.033000", "123156.949000", "123157.039000", "123156.954000", "123157.045000", "123156.960000", "123157.051000", "123156.966000", "123157.057000", "123156.972000", "123157.063000", "123156.978000", "123157.070000", "123156.986000", "123157.075000", "123156.991000", "123156.909000", "123157.000000", "123156.921000", "123157.006000", "123156.927000", "123157.016000", "123156.933000", "123157.022000", "123156.939000", "123157.028000", "123156.945000", "123157.035000", "123156.951000", "123157.041000", "123156.956000", "123157.047000", "123156.962000", "123157.053000", "123156.968000", "123157.059000", "123156.974000", "123157.066000", "123156.980000", "123157.072000", "123156.988000", "123157.078000", "123156.993000"],
      "CsaImage.GSWDDataType": [
        "predicted",
        "predicted",
        "predicted",
        "predicted",
        "predicted",
        "predicted",
        "predicted",
        "predicted",
        "predicted",
        "predicted",
        "predicted",
        "predicted",
        "predicted",
        "predicted",
        "predicted",
        "predicted",
        "predicted",
        "predicted",
        "predicted",
        "predicted",
        "predicted",
        "predicted",
        "predicted",
        "measured",
        "predicted",
        "measured",
        "predicted",
        "predicted",
        "predicted",
        "predicted",
        "predicted",
        "predicted",
        "predicted",
        "predicted",
        "predicted",
        "predicted",
        "predicted",
        "predicted",
        "predicted",
        "predicted",
        "predicted",
        "predicted",
        "predicted",
        "predicted",
        "predicted",
        "predicted",
        "predicted",
        "predicted",
        "predicted",
        "predicted",
        "measured",
        "predicted",
        "measured",
        "predicted",
        "predicted",
        "predicted",
        "predicted",
        "predicted",
        "predicted",
        "predicted",
        "predicted",
        "predicted",
        "predicted",
        "predicted",
        "predicted",
        "predicted",
        "predicted",
        "predicted",
        "predicted",
        "predicted",
        "predicted",
        "predicted",
        "predicted",
        "predicted",
        "predicted",
        "predicted",
        "predicted",
        "measured",
        "predicted",
        "measured",
        "predicted"
],
      "CsaImage.ICE_Dims": [
        "X_1_1_1_1_1_1_1_1_1_1_1_74",
        "X_1_1_1_1_1_1_42_1_1_2_1_74",
        "X_1_1_1_1_1_1_2_1_1_3_1_74",
        "X_1_1_1_1_1_1_43_1_1_4_1_74",
        "X_1_1_1_1_1_1_3_1_1_5_1_74",
        "X_1_1_1_1_1_1_44_1_1_6_1_74",
        "X_1_1_1_1_1_1_4_1_1_7_1_74",
        "X_1_1_1_1_1_1_45_1_1_8_1_74",
        "X_1_1_1_1_1_1_5_1_1_9_1_74",
        "X_1_1_1_1_1_1_46_1_1_10_1_74",
        "X_1_1_1_1_1_1_6_1_1_11_1_74",
        "X_1_1_1_1_1_1_47_1_1_12_1_74",
        "X_1_1_1_1_1_1_7_1_1_13_1_74",
        "X_1_1_1_1_1_1_48_1_1_14_1_74",
        "X_1_1_1_1_1_1_8_1_1_15_1_74",
        "X_1_1_1_1_1_1_49_1_1_16_1_74",
        "X_1_1_1_1_1_1_9_1_1_17_1_74",
        "X_1_1_1_1_1_1_50_1_1_18_1_74",
        "X_1_1_1_1_1_1_10_1_1_19_1_74",
        "X_1_1_1_1_1_1_51_1_1_20_1_74",
        "X_1_1_1_1_1_1_11_1_1_21_1_74",
        "X_1_1_1_1_1_1_52_1_1_22_1_74",
        "X_1_1_1_1_1_1_12_1_1_23_1_74",
        "X_1_1_1_1_1_1_53_1_1_24_1_74",
        "X_1_1_1_1_1_1_13_1_1_25_1_74",
        "X_1_1_1_1_1_1_54_1_1_26_1_74",
        "X_1_1_1_1_1_1_14_1_1_27_1_74",
        "X_1_1_1_1_1_1_55_1_1_28_1_74",
        "X_1_1_1_1_1_1_15_1_1_29_1_74",
        "X_1_1_1_1_1_1_56_1_1_30_1_74",
        "X_1_1_1_1_1_1_16_1_1_31_1_74",
        "X_1_1_1_1_1_1_57_1_1_32_1_74",
        "X_1_1_1_1_1_1_17_1_1_33_1_74",
        "X_1_1_1_1_1_1_58_1_1_34_1_74",
        "X_1_1_1_1_1_1_18_1_1_35_1_74",
        "X_1_1_1_1_1_1_59_1_1_36_1_74",
        "X_1_1_1_1_1_1_19_1_1_37_1_74",
        "X_1_1_1_1_1_1_60_1_1_38_1_74",
        "X_1_1_1_1_1_1_20_1_1_39_1_74",
        "X_1_1_1_1_1_1_61_1_1_40_1_74",
        "X_1_1_1_1_1_1_21_1_1_41_1_74",
        "X_1_1_1_1_1_1_62_1_1_42_1_74",
        "X_1_1_1_1_1_1_22_1_1_43_1_74",
        "X_1_1_1_1_1_1_63_1_1_44_1_74",
        "X_1_1_1_1_1_1_23_1_1_45_1_74",
        "X_1_1_1_1_1_1_64_1_1_46_1_74",
        "X_1_1_1_1_1_1_24_1_1_47_1_74",
        "X_1_1_1_1_1_1_65_1_1_48_1_74",
        "X_1_1_1_1_1_1_25_1_1_49_1_74",
        "X_1_1_1_1_1_1_66_1_1_50_1_74",
        "X_1_1_1_1_1_1_26_1_1_51_1_74",
        "X_1_1_1_1_1_1_67_1_1_52_1_74",
        "X_1_1_1_1_1_1_27_1_1_53_1_74",
        "X_1_1_1_1_1_1_68_1_1_54_1_74",
        "X_1_1_1_1_1_1_28_1_1_55_1_74",
        "X_1_1_1_1_1_1_69_1_1_56_1_74",
        "X_1_1_1_1_1_1_29_1_1_57_1_74",
        "X_1_1_1_1_1_1_70_1_1_58_1_74",
        "X_1_1_1_1_1_1_30_1_1_59_1_74",
        "X_1_1_1_1_1_1_71_1_1_60_1_74",
        "X_1_1_1_1_1_1_31_1_1_61_1_74",
        "X_1_1_1_1_1_1_72_1_1_62_1_74",
        "X_1_1_1_1_1_1_32_1_1_63_1_74",
        "X_1_1_1_1_1_1_73_1_1_64_1_74",
        "X_1_1_1_1_1_1_33_1_1_65_1_74",
        "X_1_1_1_1_1_1_74_1_1_66_1_74",
        "X_1_1_1_1_1_1_34_1_1_67_1_74",
        "X_1_1_1_1_1_1_75_1_1_68_1_74",
        "X_1_1_1_1_1_1_35_1_1_69_1_74",
        "X_1_1_1_1_1_1_76_1_1_70_1_74",
        "X_1_1_1_1_1_1_36_1_1_71_1_74",
        "X_1_1_1_1_1_1_77_1_1_72_1_74",
        "X_1_1_1_1_1_1_37_1_1_73_1_74",
        "X_1_1_1_1_1_1_78_1_1_74_1_74",
        "X_1_1_1_1_1_1_38_1_1_75_1_74",
        "X_1_1_1_1_1_1_79_1_1_76_1_74",
        "X_1_1_1_1_1_1_39_1_1_77_1_74",
        "X_1_1_1_1_1_1_80_1_1_78_1_74",
        "X_1_1_1_1_1_1_40_1_1_79_1_74",
        "X_1_1_1_1_1_1_81_1_1_80_1_74",
        "X_1_1_1_1_1_1_41_1_1_81_1_74"
],
      "CsaImage.ProtocolSliceNumber": [0, 1, 2, 3, 4, 5, 6, 7, 8, 9, 10, 11, 12, 13, 14, 15, 16, 17, 18, 19, 20, 21, 22, 23, 24, 25, 26, 27, 28, 29, 30, 31, 32, 33, 34, 35, 36, 37, 38, 39, 40, 41, 42, 43, 44, 45, 46, 47, 48, 49, 50, 51, 52, 53, 54, 55, 56, 57, 58, 59, 60, 61, 62, 63, 64, 65, 66, 67, 68, 69, 70, 71, 72, 73, 74, 75, 76, 77, 78, 79, 80],
      "CsaImage.RFSWDDataType": [
        "predicted",
        "predicted",
        "predicted",
        "predicted",
        "predicted",
        "predicted",
        "predicted",
        "predicted",
        "predicted",
        "predicted",
        "predicted",
        "predicted",
        "predicted",
        "predicted",
        "predicted",
        "predicted",
        "predicted",
        "predicted",
        "predicted",
        "predicted",
        "predicted",
        "predicted",
        "predicted",
        "measured",
        "predicted",
        "measured",
        "predicted",
        "predicted",
        "predicted",
        "predicted",
        "predicted",
        "predicted",
        "predicted",
        "predicted",
        "predicted",
        "predicted",
        "predicted",
        "predicted",
        "predicted",
        "predicted",
        "predicted",
        "predicted",
        "predicted",
        "predicted",
        "predicted",
        "predicted",
        "predicted",
        "predicted",
        "predicted",
        "predicted",
        "measured",
        "predicted",
        "measured",
        "predicted",
        "predicted",
        "predicted",
        "predicted",
        "predicted",
        "predicted",
        "predicted",
        "predicted",
        "predicted",
        "predicted",
        "predicted",
        "predicted",
        "predicted",
        "predicted",
        "predicted",
        "predicted",
        "predicted",
        "predicted",
        "predicted",
        "predicted",
        "predicted",
        "predicted",
        "predicted",
        "predicted",
        "measured",
        "predicted",
        "measured",
        "predicted"
],
      "CsaImage.SlicePosition_PCS": [
        [-116.78804263, -129.83390946, -81.99967724],
        [-116.86889156, -130.26989979, -80.35852581],
        [-116.9497405, -130.70589013, -78.71737819],
        [-117.03058955, -131.14188046, -77.07622677],
        [-117.11143848, -131.57787079, -75.43507534],
        [-117.19228741, -132.01386113, -73.79392391],
        [-117.2731364, -132.44985146, -72.15277248],
        [-117.3539854, -132.88584275, -70.51162105],
        [-117.43483433, -133.32183213, -68.87047344],
        [-117.51568332, -133.75782151, -67.22932201],
        [-117.59653231, -134.19381279, -65.58817058],
        [-117.67738124, -134.62980217, -63.94701915],
        [-117.75823024, -135.06579346, -62.30586963],
        [-117.8390792, -135.50178284, -60.66471821],
        [-117.91992819, -135.93777413, -59.02356678],
        [-118.00077715, -136.37376351, -57.38241726],
        [-118.08162613, -136.8097548, -55.74126583],
        [-118.1624751, -137.24574417, -54.1001144],
        [-118.24332407, -137.68173546, -52.45896393],
        [-118.32417305, -138.11772484, -50.81781345],
        [-118.40502202, -138.55371613, -49.17666298],
        [-118.48587098, -138.98970551, -47.53551155],
        [-118.56671995, -139.4256968, -45.89436107],
        [-118.64756894, -139.86168618, -44.25321012],
        [-118.7284179, -140.29767746, -42.61205917],
        [-118.80926689, -140.73366684, -40.9709087],
        [-118.89011582, -141.16965813, -39.32975775],
        [-118.97096482, -141.60564751, -37.68860703],
        [-119.05181381, -142.04163689, -36.0474562],
        [-119.13266274, -142.47762818, -34.40630537],
        [-119.21351167, -142.91361756, -32.76515465],
        [-119.29436072, -143.34960884, -31.12400394],
        [-119.37520966, -143.78559822, -29.48285299],
        [-119.45605859, -144.22158951, -27.84170204],
        [-119.53690764, -144.65757889, -26.20055156],
        [-119.61775657, -145.09357018, -24.55940109],
        [-119.6986055, -145.52955956, -22.91824966],
        [-119.77945456, -145.96555085, -21.27709919],
        [-119.86030349, -146.40154023, -19.63594776],
        [-119.94115242, -146.83753151, -17.99479824],
        [-120.02200147, -147.27352089, -16.35364681],
        [-120.1028504, -147.70951218, -14.71249538],
        [-120.18369934, -148.14550347, -13.07134586],
        [-120.26454827, -148.58149285, -11.43019443],
        [-120.34539744, -149.01748223, -9.789043],
        [-120.42624637, -149.45347161, -8.14789348],
        [-120.5070953, -149.88946099, -6.50674206],
        [-120.58794424, -150.32545418, -4.86559063],
        [-120.66879317, -150.76144356, -3.2244392],
        [-120.7496421, -151.19743294, -1.58328777],
        [-120.83049127, -151.63342232, 0.05785984],
        [-120.9113402, -152.06941552, 1.69901127],
        [-120.99218914, -152.5054049, 3.3401627],
        [-121.07303807, -152.94139428, 4.98131413],
        [-121.153887, -153.37738366, 6.62246556],
        [-121.23473593, -153.81337685, 8.26361698],
        [-121.3155851, -154.24936623, 9.9047646],
        [-121.39643404, -154.68535561, 11.54591603],
        [-121.47728297, -155.12134499, 13.18706745],
        [-121.5581319, -155.55733818, 14.82821888],
        [-121.63898083, -155.99332756, 16.46937031],
        [-121.71982976, -156.42931694, 18.11052174],
        [-121.80067894, -156.86530632, 19.75166935],
        [-121.88152787, -157.3012957, 21.39282078],
        [-121.9623768, -157.7372889, 23.03397221],
        [-122.04322573, -158.17327828, 24.67512364],
        [-122.12407466, -158.60926766, 26.31627507],
        [-122.20492384, -159.04525704, 27.95742268],
        [-122.28577253, -159.48125023, 29.59857411],
        [-122.3666217, -159.91723961, 31.23972554],
        [-122.44747039, -160.35322899, 32.88087696],
        [-122.52831956, -160.78921837, 34.52202839],
        [-122.60916874, -161.22521157, 36.16317982],
        [-122.69001743, -161.66120095, 37.80433125],
        [-122.7708666, -162.09719033, 39.44548268],
        [-122.85171529, -162.53317971, 41.0866341],
        [-122.93256446, -162.9691729, 42.72778553],
        [-123.01341363, -163.40516228, 44.36892933],
        [-123.09426233, -163.84115166, 46.01008076],
        [-123.1751115, -164.27714104, 47.65123219],
        [-123.25596019, -164.71313424, 49.29238362]
],
      "CsaImage.TimeAfterStart": [16.4, 18.515, 16.5525, 18.6675, 16.7025, 18.8175, 16.855, 18.97, 17.005, 19.12, 17.1575, 19.2725, 17.3075, 19.4225, 17.4575, 19.575, 17.61, 19.725, 17.76, 19.875, 17.9125, 20.0275, 18.0625, 20.1775, 18.215, 20.33, 18.365, 16.4, 18.515, 16.5525, 18.6675, 16.7025, 18.8175, 16.855, 18.97, 17.005, 19.12, 17.1575, 19.2725, 17.3075, 19.4225, 17.4575, 19.575, 17.61, 19.725, 17.76, 19.875, 17.9125, 20.0275, 18.0625, 20.1775, 18.215, 20.33, 18.365, 16.4, 18.515, 16.5525, 18.6675, 16.7025, 18.8175, 16.855, 18.97, 17.005, 19.12, 17.1575, 19.2725, 17.3075, 19.4225, 17.4575, 19.575, 17.61, 19.725, 17.76, 19.875, 17.9125, 20.0275, 18.0625, 20.1775, 18.215, 20.33, 18.365],
      "ImagePositionPatient": [
        [-116.78804263174, -129.83390945814, -81.999677235963],
        [-116.86889156401, -130.2698997917, -80.35852580774],
        [-116.94974049627, -130.70589012526, -78.717378194215],
        [-117.03058954775, -131.14188045882, -77.076226765992],
        [-117.11143848001, -131.57787079237, -75.435075337769],
        [-117.19228741228, -132.01386112593, -73.793923909547],
        [-117.27313640415, -132.44985145949, -72.152772481324],
        [-117.35398539602, -132.88584274672, -70.511621053101],
        [-117.43483432829, -133.3218321266, -68.870473439576],
        [-117.51568332016, -133.75782150648, -67.229322011353],
        [-117.59653231203, -134.19381279372, -65.588170583131],
        [-117.6773812443, -134.6298021736, -63.947019154908],
        [-117.75823023617, -135.06579346083, -62.305869634034],
        [-117.83907919824, -135.50178284071, -60.664718205811],
        [-117.91992819011, -135.93777412794, -59.023566777589],
        [-118.00077715217, -136.37376350783, -57.382417256715],
        [-118.08162612914, -136.80975479506, -55.741265828492],
        [-118.16247510053, -137.24574417494, -54.100114400269],
        [-118.24332406818, -137.68173546217, -52.458963925721],
        [-118.32417304515, -138.11772484206, -50.817813451173],
        [-118.40502202212, -138.55371612929, -49.176662976624],
        [-118.48587098419, -138.98970550917, -47.535511548402],
        [-118.56671994626, -139.4256967964, -45.894361073853],
        [-118.64756893813, -139.86168617628, -44.253210122468],
        [-118.7284179002, -140.29767746352, -42.612059171082],
        [-118.80926689207, -140.7336668434, -40.970908696534],
        [-118.89011582434, -141.16965813063, -39.329757745149],
        [-118.97096481621, -141.60564751051, -37.688607032182],
        [-119.05181380808, -142.04163689039, -36.047456200005],
        [-119.13266274034, -142.47762817763, -34.406305367829],
        [-119.21351167261, -142.91361755751, -32.765154654862],
        [-119.29436072409, -143.34960884474, -31.124003941895],
        [-119.37520965635, -143.78559822462, -29.48285299051],
        [-119.45605858862, -144.22158951185, -27.841702039124],
        [-119.53690764009, -144.65757889174, -26.200551564576],
        [-119.61775657236, -145.09357017897, -24.559401090028],
        [-119.69860550463, -145.52955955885, -22.918249661805],
        [-119.7794545561, -145.96555084608, -21.277099187257],
        [-119.86030348837, -146.40154022597, -19.635947759034],
        [-119.94115242063, -146.8375315132, -17.99479823816],
        [-120.02200147211, -147.27352089308, -16.353646809937],
        [-120.10285040438, -147.70951218031, -14.712495381715],
        [-120.18369933664, -148.14550346754, -13.071345860841],
        [-120.26454826891, -148.58149284743, -11.430194432618],
        [-120.34539743959, -149.01748222731, -9.7890430043954],
        [-120.42624637186, -149.45347160719, -8.1478934835213],
        [-120.50709530413, -149.88946098707, -6.5067420552987],
        [-120.58794423639, -150.32545418165, -4.865590627076],
        [-120.66879316866, -150.76144356154, -3.2244391988534],
        [-120.74964210092, -151.19743294142, -1.5832877706307],
        [-120.83049127161, -151.6334223213, 0.05785984289467],
        [-120.91134020388, -152.06941551588, 1.6990112711173],
        [-120.99218913614, -152.50540489577, 3.34016269934],
        [-121.07303806841, -152.94139427565, 4.9813141275626],
        [-121.15388700067, -153.37738365553, 6.6224655557853],
        [-121.23473593294, -153.81337685011, 8.263616984008],
        [-121.31558510363, -154.24936622999, 9.9047645975333],
        [-121.39643403589, -154.68535560988, 11.545916025756],
        [-121.47728296816, -155.12134498976, 13.187067453979],
        [-121.55813190042, -155.55733818434, 14.828218882201],
        [-121.63898083269, -155.99332756422, 16.469370310424],
        [-121.71982976496, -156.42931694411, 18.110521738647],
        [-121.80067893564, -156.86530632399, 19.751669352172],
        [-121.88152786791, -157.30129570387, 21.392820780395],
        [-121.96237680017, -157.73728889845, 23.033972208617],
        [-122.04322573244, -158.17327827833, 24.67512363684],
        [-122.12407466471, -158.60926765822, 26.316275065063],
        [-122.20492383539, -159.0452570381, 27.957422678588],
        [-122.28577252924, -159.48125023268, 29.598574106811],
        [-122.36662169992, -159.91723961256, 31.239725535033],
        [-122.44747039377, -160.35322899245, 32.880876963256],
        [-122.52831956446, -160.78921837233, 34.522028391479],
        [-122.60916873514, -161.22521156691, 36.163179819701],
        [-122.69001742899, -161.66120094679, 37.804331247924],
        [-122.77086659967, -162.09719032667, 39.445482676147],
        [-122.85171529352, -162.53317970656, 41.086634104369],
        [-122.93256446421, -162.96917290114, 42.727785532592],
        [-123.01341363489, -163.40516228102, 44.36892933142],
        [-123.09426232874, -163.8411516609, 46.010080759643],
        [-123.17511149942, -164.27714104079, 47.651232187865],
        [-123.25596019327, -164.71313423537, 49.292383616088]
],
      "InstanceCreationTime": ["123156.904000", "123156.995000", "123156.911000", "123157.002000", "123156.923000", "123157.008000", "123156.929000", "123157.018000", "123156.935000", "123157.024000", "123156.941000", "123157.031000", "123156.947000", "123157.037000", "123156.953000", "123157.043000", "123156.958000", "123157.049000", "123156.964000", "123157.055000", "123156.970000", "123157.061000", "123156.976000", "123157.068000", "123156.982000", "123157.074000", "123156.990000", "123156.907000", "123156.997000", "123156.919000", "123157.004000", "123156.925000", "123157.014000", "123156.931000", "123157.020000", "123156.937000", "123157.026000", "123156.943000", "123157.033000", "123156.949000", "123157.039000", "123156.954000", "123157.045000", "123156.960000", "123157.051000", "123156.966000", "123157.057000", "123156.972000", "123157.063000", "123156.978000", "123157.070000", "123156.986000", "123157.075000", "123156.991000", "123156.909000", "123157.000000", "123156.921000", "123157.006000", "123156.927000", "123157.016000", "123156.933000", "123157.022000", "123156.939000", "123157.028000", "123156.945000", "123157.035000", "123156.951000", "123157.041000", "123156.956000", "123157.047000", "123156.962000", "123157.053000", "123156.968000", "123157.059000", "123156.974000", "123157.066000", "123156.980000", "123157.072000", "123156.988000", "123157.078000", "123156.993000"],
      "InstanceNumber": [1, 2, 3, 4, 5, 6, 7, 8, 9, 10, 11, 12, 13, 14, 15, 16, 17, 18, 19, 20, 21, 22, 23, 24, 25, 26, 27, 28, 29, 30, 31, 32, 33, 34, 35, 36, 37, 38, 39, 40, 41, 42, 43, 44, 45, 46, 47, 48, 49, 50, 51, 52, 53, 54, 55, 56, 57, 58, 59, 60, 61, 62, 63, 64, 65, 66, 67, 68, 69, 70, 71, 72, 73, 74, 75, 76, 77, 78, 79, 80, 81],
      "LargestImagePixelValue": [24670, 33486, 46449, 43728, 24828, 24706, 19826, 21937, 27533, 24007, 25337, 26543, 30263, 31759, 33390, 45847, 61204, 59212, 61098, 54322, 48583, 37946, 36230, 38744, 36872, 36258, 35191, 44737, 47143, 45442, 38416, 39113, 40674, 55247, 50921, 47091, 58578, 50176, 58740, 50457, 44528, 38590, 45520, 55236, 39261, 46458, 36039, 40970, 46686, 61792, 49032, 59133, 60801, 50416, 45622, 51396, 65535, 63969, 65535, 65535, 49135, 47814, 58245, 57487, 60951, 59057, 55865, 54042, 45386, 57936, 65535, 65535, 65535, 65535, 65535, 65535, 65535, 65535, 63228, 17291, 11208],
      "SliceLocation": [-40.309012997233, -38.609012370421, -36.909015426252, -35.209014793771, -33.509014166959, -31.809013540147, -30.1090129105, -28.40901203627, -26.709015336685, -25.009014951622, -23.309014077391, -21.609013695163, -19.909014662254, -18.209014278609, -16.509013404378, -14.809014862055, -13.109013988533, -11.409013604444, -9.7090136520262, -8.009014188333, -6.3090142354718, -4.6090138518264, -2.909013899674, -1.2090139749417, 0.4909864375412, 2.1909859019431, 3.8909863130086, 5.5909860075757, 7.2909858172254, 8.9909861132084, 10.690985804941, 12.39098599151, 14.090985913408, 15.790986324474, 17.49098579171, 19.190985742445, 20.890986124673, 22.590986081078, 24.290986463306, 25.99098549338, 27.690985881278, 29.390986752674, 31.090985782748, 32.790986164976, 34.490986558543, 36.190985099449, 37.890985481677, 39.590986842241, 41.290987224469, 42.990987606697, 44.690984317621, 46.390985678184, 48.090986060412, 49.79098644264, 51.490986824868, 53.190988185432, 54.890984896356, 56.590985278584, 58.290985660812, 59.990987021376, 61.690987403604, 63.390987785832, 65.090984496755, 66.790984878983, 68.490986239547, 70.190986621775, 71.890987004003, 73.590983714927, 75.290985064152, 76.990985457719, 78.690985828608, 80.390986222175, 82.090987594077, 83.790987964967, 85.490988358533, 87.190988729423, 88.890990101325, 90.590983129606, 92.290983500495, 93.990983894062, 95.690985243287],
