{
  "AcquisitionMatrixPE": 82,
  "AcquisitionNumber": 1,
  "AcquisitionTime": "14:03:57.950000",
  "BandwidthPerPixelPhaseEncode": 24.888,
  "BaseResolution": 82,
  "BodyPartExamined": "BRAIN",
  "ConsistencyInfo": "N4_VE11E_LATEST_20181129",
  "ConversionSoftware": "dcm2niix",
  "ConversionSoftwareVersion": "v1.0.20201102",
  "DerivedVendorReportedEchoSpacing": 0.00049,
  "DeviceSerialNumber": "66112",
  "DwellTime": 2e-06,
  "EchoTime": 0.0272,
  "EchoTrainLength": 82,
  "EffectiveEchoSpacing": 0.00049,
  "FlipAngle": 44,
  "ImageComments": "Unaliased MB8/PE3",
  "ImageOrientationPatientDICOM": [0.998152, 0.00518772, 0.060546, -0.0151574, 0.986112, 0.16539],
  "ImageType": [
    "ORIGINAL",
    "PRIMARY",
    "M",
    "MB",
    "ND",
    "NORM",
    "MOSAIC"
],
  "ImagingFrequency": 123.259,
  "InPlanePhaseEncodingDirectionDICOM": "COL",
  "InstitutionAddress": "Maynard 3,Hanover,NH,US,03755",
  "InstitutionName": "Dartmouth College - PBS",
  "InstitutionalDepartmentName": "Department",
  "MRAcquisitionType": "2D",
  "MagneticFieldStrength": 3,
  "Manufacturer": "Siemens",
  "ManufacturersModelName": "Prisma",
  "Modality": "MR",
  "MultibandAccelerationFactor": 8,
  "PartialFourier": 1,
  "PatientPosition": "HFS",
  "PercentPhaseFOV": 100,
  "PercentSampling": 100,
  "PhaseEncodingDirection": "j-",
  "PhaseEncodingSteps": 82,
  "PhaseResolution": 1,
  "PixelBandwidth": 3050,
  "ProcedureStepDescription": "Wager_Wager^1076_spacetop",
  "ProtocolName": "func_run-04_task-social_acq-ap-mb8",
  "PulseSequenceDetails": "%CustomerSeq%\\cmrr_mbep2d_bold",
  "ReceiveCoilActiveElements": "HEA;HEP",
  "ReceiveCoilName": "Head_32",
  "ReconMatrixPE": 82,
  "RepetitionTime": 0.46,
  "SAR": 0.0857244,
  "ScanOptions": "FS",
  "ScanningSequence": "EP",
  "SequenceName": "epfid2d1_82",
  "SequenceVariant": "SK\\SS",
  "SeriesDescription": "func_run-04_task-social_acq-ap-mb8",
  "SeriesNumber": 14,
  "ShimSetting": [4242, -7794, -7222, 389, -150, 23, 137, 59],
  "SliceThickness": 2.7,
  "SliceTiming": [0, 0.25, 0.0625, 0.3125, 0.125, 0.3775, 0.1875, 0, 0.25, 0.0625, 0.3125, 0.125, 0.3775, 0.1875, 0, 0.25, 0.0625, 0.3125, 0.125, 0.3775, 0.1875, 0, 0.25, 0.0625, 0.3125, 0.125, 0.3775, 0.1875, 0, 0.25, 0.0625, 0.3125, 0.125, 0.3775, 0.1875, 0, 0.25, 0.0625, 0.3125, 0.125, 0.3775, 0.1875, 0, 0.25, 0.0625, 0.3125, 0.125, 0.3775, 0.1875, 0, 0.25, 0.0625, 0.3125, 0.125, 0.3775, 0.1875],
  "SoftwareVersions": "syngo MR E11",
  "SpacingBetweenSlices": 2.7,
  "StationName": "AWP66112",
  "TaskName": "social",
  "TotalReadoutTime": 0.03969,
  "TxRefAmp": 220.894,
  "WipMemBlock": "085d50f8-0539-45c9-8000-2e78459a74b7||Sequence: R016 ve11e/master r/434b28f1; Aug  7 2019 18:53:46 by eja",
  "dcmmeta_affine": [
    [-2.677968740463257, -0.04066622629761696, 0.1588873416185379, 109.45892333984375],
    [-0.013918265700340271, 2.6456656455993652, 0.44820651412010193, -112.35665130615234],
    [0.16244059801101685, -0.4437301754951477, 2.6577935218811035, -51.52315139770508],
    [0.0, 0.0, 0.0, 1.0]
],
  "dcmmeta_reorient_transform": [
    [0.0, -1.0, 0.0, 81.0],
    [1.0, 0.0, 0.0, 0.0],
    [0.0, 0.0, 1.0, 0.0],
    [0.0, 0.0, 0.0, 1.0]
],
  "dcmmeta_shape": [82, 82, 56, 872],
  "dcmmeta_slice_dim": 2,
  "dcmmeta_version": 0.6,
  "global": {
    "const": {
      "AccessionNumber": "A004848",
      "AcquisitionMatrix": [82, 0, 0, 82],
      "AngioFlag": "N",
      "BitsAllocated": 16,
      "BitsStored": 16,
      "BodyPartExamined": "BRAIN",
      "Columns": 656,
      "EchoNumbers": 1,
      "EchoTime": 27.2,
      "EchoTrainLength": 82,
      "FlipAngle": 44.0,
      "HighBit": 15,
      "ImageOrientationPatient": [0.99815192459098, 0.00518771703645, 0.06054604055818, -0.0151574106883, 0.98611170191762, 0.16539033902366],
      "ImagePositionPatient": [-863.07075596971, -865.24283008029, -261.43631201576],
      "ImageType": [
        "ORIGINAL",
        "PRIMARY",
        "M",
        "MB",
        "ND",
        "NORM",
        "MOSAIC"
],
      "ImagedNucleus": "1H",
      "ImagingFrequency": 123.259052,
      "InPlanePhaseEncodingDirection": "COL",
      "MRAcquisitionType": "2D",
      "MagneticFieldStrength": 3.0,
      "Manufacturer": "SIEMENS",
      "ManufacturerModelName": "Prisma",
      "Modality": "MR",
      "NumberOfAverages": 1.0,
      "NumberOfPhaseEncodingSteps": 82,
      "PercentPhaseFieldOfView": 100.0,
      "PercentSampling": 100.0,
      "PerformedProcedureStepStartTime": "132939.511000",
      "PhotometricInterpretation": "MONOCHROME2",
      "PixelBandwidth": 3050.0,
      "PixelRepresentation": 0,
      "PixelSpacing": [2.6829268932343, 2.6829268932343],
      "ProtocolName": "func_run-04_task-social_acq-ap-mb8",
      "RepetitionTime": 460.0,
      "Rows": 656,
      "SAR": 0.08572440767402,
      "SamplesPerPixel": 1,
      "ScanOptions": "FS",
      "ScanningSequence": "EP",
      "SequenceName": "epfid2d1_82",
      "SequenceVariant": [
        "SK",
        "SS"
],
      "SeriesDescription": "func_run-04_task-social_acq-ap-mb8",
      "SeriesNumber": 14,
      "SeriesTime": "140424.784000",
      "SliceLocation": -62.927864610722,
      "SliceThickness": 2.7000000476837,
      "SmallestImagePixelValue": 0,
      "SoftwareVersions": "syngo MR E11",
      "SpacingBetweenSlices": 2.7000000212658,
      "SpecificCharacterSet": "ISO_IR 100",
      "StudyID": "1",
      "StudyTime": "132939.355000",
      "TransmitCoilName": "Body",
      "VariableFlipAngleFlag": "N",
      "WindowCenterWidthExplanation": "Algo1"
    },
    "slices": {}
  },
  "time": {
    "samples": {
      "AcquisitionNumber": [1, 2, 3, 4, 5, 6, 7, 8, 9, 10, 11, 12, 13, 14, 15, 16, 17, 18, 19, 20, 21, 22, 23, 24, 25, 26, 27, 28, 29, 30, 31, 32, 33, 34, 35, 36, 37, 38, 39, 40, 41, 42, 43, 44, 45, 46, 47, 48, 49, 50, 51, 52, 53, 54, 55, 56, 57, 58, 59, 60, 61, 62, 63, 64, 65, 66, 67, 68, 69, 70, 71, 72, 73, 74, 75, 76, 77, 78, 79, 80, 81, 82, 83, 84, 85, 86, 87, 88, 89, 90, 91, 92, 93, 94, 95, 96, 97, 98, 99, 100, 101, 102, 103, 104, 105, 106, 107, 108, 109, 110, 111, 112, 113, 114, 115, 116, 117, 118, 119, 120, 121, 122, 123, 124, 125, 126, 127, 128, 129, 130, 131, 132, 133, 134, 135, 136, 137, 138, 139, 140, 141, 142, 143, 144, 145, 146, 147, 148, 149, 150, 151, 152, 153, 154, 155, 156, 157, 158, 159, 160, 161, 162, 163, 164, 165, 166, 167, 168, 169, 170, 171, 172, 173, 174, 175, 176, 177, 178, 179, 180, 181, 182, 183, 184, 185, 186, 187, 188, 189, 190, 191, 192, 193, 194, 195, 196, 197, 198, 199, 200, 201, 202, 203, 204, 205, 206, 207, 208, 209, 210, 211, 212, 213, 214, 215, 216, 217, 218, 219, 220, 221, 222, 223, 224, 225, 226, 227, 228, 229, 230, 231, 232, 233, 234, 235, 236, 237, 238, 239, 240, 241, 242, 243, 244, 245, 246, 247, 248, 249, 250, 251, 252, 253, 254, 255, 256, 257, 258, 259, 260, 261, 262, 263, 264, 265, 266, 267, 268, 269, 270, 271, 272, 273, 274, 275, 276, 277, 278, 279, 280, 281, 282, 283, 284, 285, 286, 287, 288, 289, 290, 291, 292, 293, 294, 295, 296, 297, 298, 299, 300, 301, 302, 303, 304, 305, 306, 307, 308, 309, 310, 311, 312, 313, 314, 315, 316, 317, 318, 319, 320, 321, 322, 323, 324, 325, 326, 327, 328, 329, 330, 331, 332, 333, 334, 335, 336, 337, 338, 339, 340, 341, 342, 343, 344, 345, 346, 347, 348, 349, 350, 351, 352, 353, 354, 355, 356, 357, 358, 359, 360, 361, 362, 363, 364, 365, 366, 367, 368, 369, 370, 371, 372, 373, 374, 375, 376, 377, 378, 379, 380, 381, 382, 383, 384, 385, 386, 387, 388, 389, 390, 391, 392, 393, 394, 395, 396, 397, 398, 399, 400, 401, 402, 403, 404, 405, 406, 407, 408, 409, 410, 411, 412, 413, 414, 415, 416, 417, 418, 419, 420, 421, 422, 423, 424, 425, 426, 427, 428, 429, 430, 431, 432, 433, 434, 435, 436, 437, 438, 439, 440, 441, 442, 443, 444, 445, 446, 447, 448, 449, 450, 451, 452, 453, 454, 455, 456, 457, 458, 459, 460, 461, 462, 463, 464, 465, 466, 467, 468, 469, 470, 471, 472, 473, 474, 475, 476, 477, 478, 479, 480, 481, 482, 483, 484, 485, 486, 487, 488, 489, 490, 491, 492, 493, 494, 495, 496, 497, 498, 499, 500, 501, 502, 503, 504, 505, 506, 507, 508, 509, 510, 511, 512, 513, 514, 515, 516, 517, 518, 519, 520, 521, 522, 523, 524, 525, 526, 527, 528, 529, 530, 531, 532, 533, 534, 535, 536, 537, 538, 539, 540, 541, 542, 543, 544, 545, 546, 547, 548, 549, 550, 551, 552, 553, 554, 555, 556, 557, 558, 559, 560, 561, 562, 563, 564, 565, 566, 567, 568, 569, 570, 571, 572, 573, 574, 575, 576, 577, 578, 579, 580, 581, 582, 583, 584, 585, 586, 587, 588, 589, 590, 591, 592, 593, 594, 595, 596, 597, 598, 599, 600, 601, 602, 603, 604, 605, 606, 607, 608, 609, 610, 611, 612, 613, 614, 615, 616, 617, 618, 619, 620, 621, 622, 623, 624, 625, 626, 627, 628, 629, 630, 631, 632, 633, 634, 635, 636, 637, 638, 639, 640, 641, 642, 643, 644, 645, 646, 647, 648, 649, 650, 651, 652, 653, 654, 655, 656, 657, 658, 659, 660, 661, 662, 663, 664, 665, 666, 667, 668, 669, 670, 671, 672, 673, 674, 675, 676, 677, 678, 679, 680, 681, 682, 683, 684, 685, 686, 687, 688, 689, 690, 691, 692, 693, 694, 695, 696, 697, 698, 699, 700, 701, 702, 703, 704, 705, 706, 707, 708, 709, 710, 711, 712, 713, 714, 715, 716, 717, 718, 719, 720, 721, 722, 723, 724, 725, 726, 727, 728, 729, 730, 731, 732, 733, 734, 735, 736, 737, 738, 739, 740, 741, 742, 743, 744, 745, 746, 747, 748, 749, 750, 751, 752, 753, 754, 755, 756, 757, 758, 759, 760, 761, 762, 763, 764, 765, 766, 767, 768, 769, 770, 771, 772, 773, 774, 775, 776, 777, 778, 779, 780, 781, 782, 783, 784, 785, 786, 787, 788, 789, 790, 791, 792, 793, 794, 795, 796, 797, 798, 799, 800, 801, 802, 803, 804, 805, 806, 807, 808, 809, 810, 811, 812, 813, 814, 815, 816, 817, 818, 819, 820, 821, 822, 823, 824, 825, 826, 827, 828, 829, 830, 831, 832, 833, 834, 835, 836, 837, 838, 839, 840, 841, 842, 843, 844, 845, 846, 847, 848, 849, 850, 851, 852, 853, 854, 855, 856, 857, 858, 859, 860, 861, 862, 863, 864, 865, 866, 867, 868, 869, 870, 871, 872],
      "AcquisitionTime": ["140357.950000", "140358.410000", "140358.870000", "140359.330000", "140359.790000", "140400.250000", "140400.710000", "140401.170000", "140401.630000", "140402.090000", "140402.550000", "140403.010000", "140403.470000", "140403.930000", "140404.390000", "140404.850000", "140405.310000", "140405.770000", "140406.230000", "140406.690000", "140407.150000", "140407.610000", "140408.070000", "140408.530000", "140408.990000", "140409.450000", "140409.910000", "140410.370000", "140410.830000", "140411.290000", "140411.750000", "140412.210000", "140412.670000", "140413.130000", "140413.590000", "140414.050000", "140414.510000", "140414.970000", "140415.430000", "140415.890000", "140416.350000", "140416.810000", "140417.270000", "140417.730000", "140418.190000", "140418.650000", "140419.110000", "140419.570000", "140420.030000", "140420.490000", "140420.950000", "140421.410000", "140421.870000", "140422.330000", "140422.790000", "140423.250000", "140423.710000", "140424.170000", "140424.630000", "140425.090000", "140425.550000", "140426.010000", "140426.470000", "140426.930000", "140427.390000", "140427.850000", "140428.310000", "140428.770000", "140429.230000", "140429.690000", "140430.150000", "140430.610000", "140431.070000", "140431.530000", "140431.990000", "140432.450000", "140432.910000", "140433.370000", "140433.830000", "140434.290000", "140434.750000", "140435.210000", "140435.670000", "140436.130000", "140436.590000", "140437.050000", "140437.510000", "140437.970000", "140438.430000", "140438.890000", "140439.350000", "140439.810000", "140440.270000", "140440.730000", "140441.190000", "140441.650000", "140442.110000", "140442.570000", "140443.030000", "140443.490000", "140443.950000", "140444.410000", "140444.870000", "140445.330000", "140445.790000", "140446.250000", "140446.710000", "140447.170000", "140447.630000", "140448.090000", "140448.550000", "140449.010000", "140449.470000", "140449.930000", "140450.390000", "140450.850000", "140451.310000", "140451.770000", "140452.230000", "140452.690000", "140453.150000", "140453.610000", "140454.070000", "140454.530000", "140454.990000", "140455.450000", "140455.910000", "140456.370000", "140456.830000", "140457.290000", "140457.750000", "140458.210000", "140458.670000", "140459.130000", "140459.590000", "140500.050000", "140500.510000", "140500.970000", "140501.430000", "140501.890000", "140502.350000", "140502.810000", "140503.270000", "140503.730000", "140504.190000", "140504.650000", "140505.110000", "140505.570000", "140506.030000", "140506.490000", "140506.950000", "140507.410000", "140507.870000", "140508.330000", "140508.790000", "140509.250000", "140509.710000", "140510.170000", "140510.630000", "140511.090000", "140511.550000", "140512.010000", "140512.470000", "140512.930000", "140513.390000", "140513.850000", "140514.310000", "140514.770000", "140515.230000", "140515.690000", "140516.150000", "140516.610000", "140517.070000", "140517.530000", "140517.990000", "140518.450000", "140518.910000", "140519.370000", "140519.830000", "140520.290000", "140520.750000", "140521.210000", "140521.670000", "140522.130000", "140522.590000", "140523.050000", "140523.510000", "140523.970000", "140524.430000", "140524.890000", "140525.350000", "140525.810000", "140526.270000", "140526.730000", "140527.190000", "140527.650000", "140528.110000", "140528.570000", "140529.030000", "140529.490000", "140529.950000", "140530.410000", "140530.870000", "140531.330000", "140531.790000", "140532.250000", "140532.710000", "140533.170000", "140533.630000", "140534.090000", "140534.550000", "140535.010000", "140535.470000", "140535.930000", "140536.390000", "140536.850000", "140537.310000", "140537.770000", "140538.230000", "140538.690000", "140539.150000", "140539.610000", "140540.070000", "140540.530000", "140540.990000", "140541.450000", "140541.910000", "140542.370000", "140542.830000", "140543.290000", "140543.750000", "140544.210000", "140544.670000", "140545.130000", "140545.590000", "140546.050000", "140546.510000", "140546.970000", "140547.430000", "140547.890000", "140548.350000", "140548.810000", "140549.270000", "140549.730000", "140550.190000", "140550.650000", "140551.110000", "140551.570000", "140552.030000", "140552.490000", "140552.950000", "140553.410000", "140553.870000", "140554.330000", "140554.790000", "140555.250000", "140555.710000", "140556.170000", "140556.630000", "140557.090000", "140557.550000", "140558.010000", "140558.470000", "140558.930000", "140559.390000", "140559.850000", "140600.310000", "140600.770000", "140601.230000", "140601.690000", "140602.150000", "140602.610000", "140603.070000", "140603.530000", "140603.990000", "140604.450000", "140604.910000", "140605.370000", "140605.830000", "140606.290000", "140606.750000", "140607.210000", "140607.670000", "140608.130000", "140608.590000", "140609.050000", "140609.510000", "140609.970000", "140610.430000", "140610.890000", "140611.350000", "140611.810000", "140612.270000", "140612.730000", "140613.190000", "140613.650000", "140614.110000", "140614.570000", "140615.030000", "140615.490000", "140615.950000", "140616.410000", "140616.870000", "140617.330000", "140617.790000", "140618.250000", "140618.710000", "140619.170000", "140619.630000", "140620.090000", "140620.550000", "140621.010000", "140621.470000", "140621.930000", "140622.390000", "140622.850000", "140623.310000", "140623.770000", "140624.230000", "140624.690000", "140625.150000", "140625.610000", "140626.070000", "140626.530000", "140626.990000", "140627.450000", "140627.910000", "140628.370000", "140628.830000", "140629.290000", "140629.750000", "140630.210000", "140630.670000", "140631.130000", "140631.590000", "140632.050000", "140632.510000", "140632.970000", "140633.430000", "140633.890000", "140634.350000", "140634.810000", "140635.270000", "140635.730000", "140636.190000", "140636.650000", "140637.110000", "140637.570000", "140638.030000", "140638.490000", "140638.950000", "140639.410000", "140639.870000", "140640.330000", "140640.790000", "140641.250000", "140641.710000", "140642.170000", "140642.630000", "140643.090000", "140643.550000", "140644.010000", "140644.470000", "140644.930000", "140645.390000", "140645.850000", "140646.310000", "140646.770000", "140647.230000", "140647.690000", "140648.150000", "140648.610000", "140649.070000", "140649.530000", "140649.990000", "140650.450000", "140650.910000", "140651.370000", "140651.830000", "140652.290000", "140652.750000", "140653.210000", "140653.670000", "140654.130000", "140654.590000", "140655.050000", "140655.510000", "140655.970000", "140656.430000", "140656.890000", "140657.350000", "140657.810000", "140658.270000", "140658.730000", "140659.190000", "140659.650000", "140700.110000", "140700.570000", "140701.030000", "140701.490000", "140701.950000", "140702.410000", "140702.870000", "140703.330000", "140703.790000", "140704.250000", "140704.710000", "140705.170000", "140705.630000", "140706.090000", "140706.550000", "140707.010000", "140707.470000", "140707.930000", "140708.390000", "140708.850000", "140709.310000", "140709.770000", "140710.230000", "140710.690000", "140711.150000", "140711.610000", "140712.070000", "140712.530000", "140712.990000", "140713.450000", "140713.910000", "140714.370000", "140714.830000", "140715.290000", "140715.750000", "140716.210000", "140716.670000", "140717.130000", "140717.590000", "140718.050000", "140718.510000", "140718.970000", "140719.430000", "140719.890000", "140720.350000", "140720.810000", "140721.270000", "140721.730000", "140722.190000", "140722.650000", "140723.110000", "140723.570000", "140724.030000", "140724.490000", "140724.950000", "140725.410000", "140725.870000", "140726.330000", "140726.790000", "140727.250000", "140727.710000", "140728.170000", "140728.630000", "140729.090000", "140729.550000", "140730.010000", "140730.470000", "140730.930000", "140731.390000", "140731.850000", "140732.310000", "140732.770000", "140733.230000", "140733.690000", "140734.150000", "140734.610000", "140735.070000", "140735.530000", "140735.990000", "140736.450000", "140736.910000", "140737.370000", "140737.830000", "140738.290000", "140738.750000", "140739.210000", "140739.670000", "140740.130000", "140740.590000", "140741.050000", "140741.510000", "140741.970000", "140742.430000", "140742.890000", "140743.350000", "140743.810000", "140744.270000", "140744.730000", "140745.190000", "140745.650000", "140746.110000", "140746.570000", "140747.030000", "140747.490000", "140747.950000", "140748.410000", "140748.870000", "140749.330000", "140749.790000", "140750.250000", "140750.710000", "140751.170000", "140751.630000", "140752.090000", "140752.550000", "140753.010000", "140753.470000", "140753.930000", "140754.390000", "140754.850000", "140755.310000", "140755.770000", "140756.230000", "140756.690000", "140757.150000", "140757.610000", "140758.070000", "140758.530000", "140758.990000", "140759.450000", "140759.910000", "140800.370000", "140800.830000", "140801.290000", "140801.750000", "140802.210000", "140802.670000", "140803.130000", "140803.590000", "140804.050000", "140804.510000", "140804.970000", "140805.430000", "140805.890000", "140806.350000", "140806.810000", "140807.270000", "140807.730000", "140808.190000", "140808.650000", "140809.110000", "140809.570000", "140810.030000", "140810.490000", "140810.950000", "140811.410000", "140811.870000", "140812.330000", "140812.790000", "140813.250000", "140813.710000", "140814.170000", "140814.630000", "140815.090000", "140815.550000", "140816.010000", "140816.470000", "140816.930000", "140817.390000", "140817.850000", "140818.310000", "140818.770000", "140819.230000", "140819.690000", "140820.150000", "140820.610000", "140821.070000", "140821.530000", "140821.990000", "140822.450000", "140822.910000", "140823.370000", "140823.830000", "140824.290000", "140824.750000", "140825.210000", "140825.670000", "140826.130000", "140826.590000", "140827.050000", "140827.510000", "140827.970000", "140828.430000", "140828.890000", "140829.350000", "140829.810000", "140830.270000", "140830.730000", "140831.190000", "140831.650000", "140832.110000", "140832.570000", "140833.030000", "140833.490000", "140833.950000", "140834.410000", "140834.870000", "140835.330000", "140835.790000", "140836.250000", "140836.710000", "140837.170000", "140837.630000", "140838.090000", "140838.550000", "140839.010000", "140839.470000", "140839.930000", "140840.390000", "140840.850000", "140841.310000", "140841.770000", "140842.230000", "140842.690000", "140843.150000", "140843.610000", "140844.070000", "140844.530000", "140844.990000", "140845.450000", "140845.910000", "140846.370000", "140846.830000", "140847.290000", "140847.750000", "140848.210000", "140848.670000", "140849.130000", "140849.590000", "140850.050000", "140850.510000", "140850.970000", "140851.430000", "140851.890000", "140852.350000", "140852.810000", "140853.270000", "140853.730000", "140854.190000", "140854.650000", "140855.110000", "140855.570000", "140856.030000", "140856.490000", "140856.950000", "140857.410000", "140857.870000", "140858.330000", "140858.790000", "140859.250000", "140859.710000", "140900.170000", "140900.630000", "140901.090000", "140901.550000", "140902.010000", "140902.470000", "140902.930000", "140903.390000", "140903.850000", "140904.310000", "140904.770000", "140905.230000", "140905.690000", "140906.150000", "140906.610000", "140907.070000", "140907.530000", "140907.990000", "140908.450000", "140908.910000", "140909.370000", "140909.830000", "140910.290000", "140910.750000", "140911.210000", "140911.670000", "140912.130000", "140912.590000", "140913.050000", "140913.510000", "140913.970000", "140914.430000", "140914.890000", "140915.350000", "140915.810000", "140916.270000", "140916.730000", "140917.190000", "140917.650000", "140918.110000", "140918.570000", "140919.030000", "140919.490000", "140919.950000", "140920.410000", "140920.870000", "140921.330000", "140921.790000", "140922.250000", "140922.710000", "140923.170000", "140923.630000", "140924.090000", "140924.550000", "140925.010000", "140925.470000", "140925.930000", "140926.390000", "140926.850000", "140927.310000", "140927.770000", "140928.230000", "140928.690000", "140929.150000", "140929.610000", "140930.070000", "140930.530000", "140930.990000", "140931.450000", "140931.910000", "140932.370000", "140932.830000", "140933.290000", "140933.750000", "140934.210000", "140934.670000", "140935.130000", "140935.590000", "140936.050000", "140936.510000", "140936.970000", "140937.430000", "140937.890000", "140938.350000", "140938.810000", "140939.270000", "140939.730000", "140940.190000", "140940.650000", "140941.110000", "140941.570000", "140942.030000", "140942.490000", "140942.950000", "140943.410000", "140943.870000", "140944.330000", "140944.790000", "140945.250000", "140945.710000", "140946.170000", "140946.630000", "140947.090000", "140947.550000", "140948.010000", "140948.470000", "140948.930000", "140949.390000", "140949.850000", "140950.310000", "140950.770000", "140951.230000", "140951.690000", "140952.150000", "140952.610000", "140953.070000", "140953.530000", "140953.990000", "140954.450000", "140954.910000", "140955.370000", "140955.830000", "140956.290000", "140956.750000", "140957.210000", "140957.670000", "140958.130000", "140958.590000", "140959.050000", "140959.510000", "140959.970000", "141000.430000", "141000.890000", "141001.350000", "141001.810000", "141002.270000", "141002.730000", "141003.190000", "141003.650000", "141004.110000", "141004.570000", "141005.030000", "141005.490000", "141005.950000", "141006.410000", "141006.870000", "141007.330000", "141007.790000", "141008.250000", "141008.710000", "141009.170000", "141009.630000", "141010.090000", "141010.550000", "141011.010000", "141011.470000", "141011.930000", "141012.390000", "141012.850000", "141013.310000", "141013.770000", "141014.230000", "141014.690000", "141015.150000", "141015.610000", "141016.070000", "141016.530000", "141016.990000", "141017.450000", "141017.910000", "141018.370000", "141018.830000", "141019.290000", "141019.750000", "141020.210000", "141020.670000", "141021.130000", "141021.590000", "141022.050000", "141022.510000", "141022.970000", "141023.430000", "141023.890000", "141024.350000", "141024.810000", "141025.270000", "141025.730000", "141026.190000", "141026.650000", "141027.110000", "141027.570000", "141028.030000", "141028.490000", "141028.950000", "141029.410000", "141029.870000", "141030.330000", "141030.790000", "141031.250000", "141031.710000", "141032.170000", "141032.630000", "141033.090000", "141033.550000", "141034.010000", "141034.470000", "141034.930000", "141035.390000", "141035.850000", "141036.310000", "141036.770000", "141037.230000", "141037.690000", "141038.150000", "141038.610000"],
