{
  "AcquisitionMatrixPE": 82,
  "AcquisitionNumber": 1,
  "AcquisitionTime": "13:56:51.117500",
  "BandwidthPerPixelPhaseEncode": 24.888,
  "BaseResolution": 82,
  "BodyPartExamined": "BRAIN",
  "ConsistencyInfo": "N4_VE11E_LATEST_20181129",
  "ConversionSoftware": "dcm2niix",
  "ConversionSoftwareVersion": "v1.0.20201102",
  "DerivedVendorReportedEchoSpacing": 0.00049,
  "DeviceSerialNumber": "66112",
  "DwellTime": 2e-06,
  "EchoTime": 0.0272,
  "EchoTrainLength": 82,
  "EffectiveEchoSpacing": 0.00049,
  "FlipAngle": 44,
  "ImageComments": "Unaliased MB8/PE3",
  "ImageOrientationPatientDICOM": [0.998152, 0.00518772, 0.060546, -0.0151574, 0.986112, 0.16539],
  "ImageType": [
    "ORIGINAL",
    "PRIMARY",
    "M",
    "MB",
    "ND",
    "NORM",
    "MOSAIC"
],
  "ImagingFrequency": 123.259,
  "InPlanePhaseEncodingDirectionDICOM": "COL",
  "InstitutionAddress": "Maynard 3,Hanover,NH,US,03755",
  "InstitutionName": "Dartmouth College - PBS",
  "InstitutionalDepartmentName": "Department",
  "MRAcquisitionType": "2D",
  "MagneticFieldStrength": 3,
  "Manufacturer": "Siemens",
  "ManufacturersModelName": "Prisma",
  "Modality": "MR",
  "MultibandAccelerationFactor": 8,
  "PartialFourier": 1,
  "PatientPosition": "HFS",
  "PercentPhaseFOV": 100,
  "PercentSampling": 100,
  "PhaseEncodingDirection": "j-",
  "PhaseEncodingSteps": 82,
  "PhaseResolution": 1,
  "PixelBandwidth": 3050,
  "ProcedureStepDescription": "Wager_Wager^1076_spacetop",
  "ProtocolName": "func_run-03_task-social_acq-ap-mb8",
  "PulseSequenceDetails": "%CustomerSeq%\\cmrr_mbep2d_bold",
  "ReceiveCoilActiveElements": "HEA;HEP",
  "ReceiveCoilName": "Head_32",
  "ReconMatrixPE": 82,
  "RepetitionTime": 0.46,
  "SAR": 0.0857244,
  "ScanOptions": "FS",
  "ScanningSequence": "EP",
  "SequenceName": "epfid2d1_82",
  "SequenceVariant": "SK\\SS",
  "SeriesDescription": "func_run-03_task-social_acq-ap-mb8",
  "SeriesNumber": 12,
  "ShimSetting": [4242, -7794, -7222, 389, -150, 23, 137, 59],
  "SliceThickness": 2.7,
  "SliceTiming": [0, 0.2525, 0.0625, 0.315, 0.1275, 0.3775, 0.19, 0, 0.2525, 0.0625, 0.315, 0.1275, 0.3775, 0.19, 0, 0.2525, 0.0625, 0.315, 0.1275, 0.3775, 0.19, 0, 0.2525, 0.0625, 0.315, 0.1275, 0.3775, 0.19, 0, 0.2525, 0.0625, 0.315, 0.1275, 0.3775, 0.19, 0, 0.2525, 0.0625, 0.315, 0.1275, 0.3775, 0.19, 0, 0.2525, 0.0625, 0.315, 0.1275, 0.3775, 0.19, 0, 0.2525, 0.0625, 0.315, 0.1275, 0.3775, 0.19],
  "SoftwareVersions": "syngo MR E11",
  "SpacingBetweenSlices": 2.7,
  "StationName": "AWP66112",
  "TaskName": "social",
  "TotalReadoutTime": 0.03969,
  "TxRefAmp": 220.894,
  "WipMemBlock": "34ba8651-aea2-4a21-8970-15056d13665c||Sequence: R016 ve11e/master r/434b28f1; Aug  7 2019 18:53:46 by eja",
  "dcmmeta_affine": [
    [-2.677968740463257, -0.04066622629761696, 0.1588873416185379, 109.45892333984375],
    [-0.013918265700340271, 2.6456656455993652, 0.44820651412010193, -112.35665130615234],
    [0.16244059801101685, -0.4437301754951477, 2.6577935218811035, -51.52315139770508],
    [0.0, 0.0, 0.0, 1.0]
],
  "dcmmeta_reorient_transform": [
    [0.0, -1.0, 0.0, 81.0],
    [1.0, 0.0, 0.0, 0.0],
    [0.0, 0.0, 1.0, 0.0],
    [0.0, 0.0, 0.0, 1.0]
],
  "dcmmeta_shape": [82, 82, 56, 872],
  "dcmmeta_slice_dim": 2,
  "dcmmeta_version": 0.6,
  "global": {
    "const": {
      "AccessionNumber": "A004848",
      "AcquisitionMatrix": [82, 0, 0, 82],
      "AngioFlag": "N",
      "BitsAllocated": 16,
      "BitsStored": 16,
      "BodyPartExamined": "BRAIN",
      "Columns": 656,
      "EchoNumbers": 1,
      "EchoTime": 27.2,
      "EchoTrainLength": 82,
      "FlipAngle": 44.0,
      "HighBit": 15,
      "ImageOrientationPatient": [0.99815192459098, 0.00518771703645, 0.06054604055818, -0.0151574106883, 0.98611170191762, 0.16539033902366],
      "ImagePositionPatient": [-863.07075596971, -865.24283008029, -261.43631201576],
      "ImageType": [
        "ORIGINAL",
        "PRIMARY",
        "M",
        "MB",
        "ND",
        "NORM",
        "MOSAIC"
],
      "ImagedNucleus": "1H",
      "ImagingFrequency": 123.259045,
      "InPlanePhaseEncodingDirection": "COL",
      "MRAcquisitionType": "2D",
      "MagneticFieldStrength": 3.0,
      "Manufacturer": "SIEMENS",
      "ManufacturerModelName": "Prisma",
      "Modality": "MR",
      "NumberOfAverages": 1.0,
      "NumberOfPhaseEncodingSteps": 82,
      "PercentPhaseFieldOfView": 100.0,
      "PercentSampling": 100.0,
      "PerformedProcedureStepStartTime": "132939.511000",
      "PhotometricInterpretation": "MONOCHROME2",
      "PixelBandwidth": 3050.0,
      "PixelRepresentation": 0,
      "PixelSpacing": [2.6829268932343, 2.6829268932343],
      "ProtocolName": "func_run-03_task-social_acq-ap-mb8",
      "RepetitionTime": 460.0,
      "Rows": 656,
      "SAR": 0.08572440767402,
      "SamplesPerPixel": 1,
      "ScanOptions": "FS",
      "ScanningSequence": "EP",
      "SequenceName": "epfid2d1_82",
      "SequenceVariant": [
        "SK",
        "SS"
],
      "SeriesDescription": "func_run-03_task-social_acq-ap-mb8",
      "SeriesNumber": 12,
      "SeriesTime": "135704.977000",
      "SliceLocation": -62.927864610722,
      "SliceThickness": 2.7000000476837,
      "SmallestImagePixelValue": 0,
      "SoftwareVersions": "syngo MR E11",
      "SpacingBetweenSlices": 2.7000000212658,
      "SpecificCharacterSet": "ISO_IR 100",
      "StudyID": "1",
      "StudyTime": "132939.355000",
      "TransmitCoilName": "Body",
      "VariableFlipAngleFlag": "N",
      "WindowCenterWidthExplanation": "Algo1"
    },
    "slices": {}
  },
  "time": {
    "samples": {
      "AcquisitionNumber": [1, 2, 3, 4, 5, 6, 7, 8, 9, 10, 11, 12, 13, 14, 15, 16, 17, 18, 19, 20, 21, 22, 23, 24, 25, 26, 27, 28, 29, 30, 31, 32, 33, 34, 35, 36, 37, 38, 39, 40, 41, 42, 43, 44, 45, 46, 47, 48, 49, 50, 51, 52, 53, 54, 55, 56, 57, 58, 59, 60, 61, 62, 63, 64, 65, 66, 67, 68, 69, 70, 71, 72, 73, 74, 75, 76, 77, 78, 79, 80, 81, 82, 83, 84, 85, 86, 87, 88, 89, 90, 91, 92, 93, 94, 95, 96, 97, 98, 99, 100, 101, 102, 103, 104, 105, 106, 107, 108, 109, 110, 111, 112, 113, 114, 115, 116, 117, 118, 119, 120, 121, 122, 123, 124, 125, 126, 127, 128, 129, 130, 131, 132, 133, 134, 135, 136, 137, 138, 139, 140, 141, 142, 143, 144, 145, 146, 147, 148, 149, 150, 151, 152, 153, 154, 155, 156, 157, 158, 159, 160, 161, 162, 163, 164, 165, 166, 167, 168, 169, 170, 171, 172, 173, 174, 175, 176, 177, 178, 179, 180, 181, 182, 183, 184, 185, 186, 187, 188, 189, 190, 191, 192, 193, 194, 195, 196, 197, 198, 199, 200, 201, 202, 203, 204, 205, 206, 207, 208, 209, 210, 211, 212, 213, 214, 215, 216, 217, 218, 219, 220, 221, 222, 223, 224, 225, 226, 227, 228, 229, 230, 231, 232, 233, 234, 235, 236, 237, 238, 239, 240, 241, 242, 243, 244, 245, 246, 247, 248, 249, 250, 251, 252, 253, 254, 255, 256, 257, 258, 259, 260, 261, 262, 263, 264, 265, 266, 267, 268, 269, 270, 271, 272, 273, 274, 275, 276, 277, 278, 279, 280, 281, 282, 283, 284, 285, 286, 287, 288, 289, 290, 291, 292, 293, 294, 295, 296, 297, 298, 299, 300, 301, 302, 303, 304, 305, 306, 307, 308, 309, 310, 311, 312, 313, 314, 315, 316, 317, 318, 319, 320, 321, 322, 323, 324, 325, 326, 327, 328, 329, 330, 331, 332, 333, 334, 335, 336, 337, 338, 339, 340, 341, 342, 343, 344, 345, 346, 347, 348, 349, 350, 351, 352, 353, 354, 355, 356, 357, 358, 359, 360, 361, 362, 363, 364, 365, 366, 367, 368, 369, 370, 371, 372, 373, 374, 375, 376, 377, 378, 379, 380, 381, 382, 383, 384, 385, 386, 387, 388, 389, 390, 391, 392, 393, 394, 395, 396, 397, 398, 399, 400, 401, 402, 403, 404, 405, 406, 407, 408, 409, 410, 411, 412, 413, 414, 415, 416, 417, 418, 419, 420, 421, 422, 423, 424, 425, 426, 427, 428, 429, 430, 431, 432, 433, 434, 435, 436, 437, 438, 439, 440, 441, 442, 443, 444, 445, 446, 447, 448, 449, 450, 451, 452, 453, 454, 455, 456, 457, 458, 459, 460, 461, 462, 463, 464, 465, 466, 467, 468, 469, 470, 471, 472, 473, 474, 475, 476, 477, 478, 479, 480, 481, 482, 483, 484, 485, 486, 487, 488, 489, 490, 491, 492, 493, 494, 495, 496, 497, 498, 499, 500, 501, 502, 503, 504, 505, 506, 507, 508, 509, 510, 511, 512, 513, 514, 515, 516, 517, 518, 519, 520, 521, 522, 523, 524, 525, 526, 527, 528, 529, 530, 531, 532, 533, 534, 535, 536, 537, 538, 539, 540, 541, 542, 543, 544, 545, 546, 547, 548, 549, 550, 551, 552, 553, 554, 555, 556, 557, 558, 559, 560, 561, 562, 563, 564, 565, 566, 567, 568, 569, 570, 571, 572, 573, 574, 575, 576, 577, 578, 579, 580, 581, 582, 583, 584, 585, 586, 587, 588, 589, 590, 591, 592, 593, 594, 595, 596, 597, 598, 599, 600, 601, 602, 603, 604, 605, 606, 607, 608, 609, 610, 611, 612, 613, 614, 615, 616, 617, 618, 619, 620, 621, 622, 623, 624, 625, 626, 627, 628, 629, 630, 631, 632, 633, 634, 635, 636, 637, 638, 639, 640, 641, 642, 643, 644, 645, 646, 647, 648, 649, 650, 651, 652, 653, 654, 655, 656, 657, 658, 659, 660, 661, 662, 663, 664, 665, 666, 667, 668, 669, 670, 671, 672, 673, 674, 675, 676, 677, 678, 679, 680, 681, 682, 683, 684, 685, 686, 687, 688, 689, 690, 691, 692, 693, 694, 695, 696, 697, 698, 699, 700, 701, 702, 703, 704, 705, 706, 707, 708, 709, 710, 711, 712, 713, 714, 715, 716, 717, 718, 719, 720, 721, 722, 723, 724, 725, 726, 727, 728, 729, 730, 731, 732, 733, 734, 735, 736, 737, 738, 739, 740, 741, 742, 743, 744, 745, 746, 747, 748, 749, 750, 751, 752, 753, 754, 755, 756, 757, 758, 759, 760, 761, 762, 763, 764, 765, 766, 767, 768, 769, 770, 771, 772, 773, 774, 775, 776, 777, 778, 779, 780, 781, 782, 783, 784, 785, 786, 787, 788, 789, 790, 791, 792, 793, 794, 795, 796, 797, 798, 799, 800, 801, 802, 803, 804, 805, 806, 807, 808, 809, 810, 811, 812, 813, 814, 815, 816, 817, 818, 819, 820, 821, 822, 823, 824, 825, 826, 827, 828, 829, 830, 831, 832, 833, 834, 835, 836, 837, 838, 839, 840, 841, 842, 843, 844, 845, 846, 847, 848, 849, 850, 851, 852, 853, 854, 855, 856, 857, 858, 859, 860, 861, 862, 863, 864, 865, 866, 867, 868, 869, 870, 871, 872],
      "AcquisitionTime": ["135651.117500", "135651.577500", "135652.037500", "135652.497500", "135652.957500", "135653.417500", "135653.877500", "135654.337500", "135654.797500", "135655.257500", "135655.717500", "135656.177500", "135656.637500", "135657.097500", "135657.557500", "135658.017500", "135658.477500", "135658.937500", "135659.397500", "135659.857500", "135700.317500", "135700.777500", "135701.237500", "135701.697500", "135702.157500", "135702.617500", "135703.077500", "135703.537500", "135703.997500", "135704.457500", "135704.917500", "135705.377500", "135705.837500", "135706.297500", "135706.757500", "135707.217500", "135707.677500", "135708.137500", "135708.597500", "135709.057500", "135709.517500", "135709.977500", "135710.437500", "135710.897500", "135711.357500", "135711.817500", "135712.277500", "135712.737500", "135713.197500", "135713.657500", "135714.117500", "135714.577500", "135715.037500", "135715.497500", "135715.957500", "135716.417500", "135716.877500", "135717.337500", "135717.797500", "135718.257500", "135718.717500", "135719.177500", "135719.637500", "135720.097500", "135720.557500", "135721.017500", "135721.477500", "135721.937500", "135722.397500", "135722.857500", "135723.317500", "135723.777500", "135724.237500", "135724.697500", "135725.157500", "135725.617500", "135726.077500", "135726.537500", "135726.997500", "135727.457500", "135727.917500", "135728.377500", "135728.837500", "135729.297500", "135729.757500", "135730.217500", "135730.677500", "135731.137500", "135731.597500", "135732.057500", "135732.517500", "135732.977500", "135733.437500", "135733.897500", "135734.357500", "135734.817500", "135735.277500", "135735.737500", "135736.197500", "135736.657500", "135737.117500", "135737.577500", "135738.037500", "135738.497500", "135738.957500", "135739.417500", "135739.877500", "135740.337500", "135740.797500", "135741.257500", "135741.717500", "135742.177500", "135742.637500", "135743.097500", "135743.557500", "135744.017500", "135744.477500", "135744.937500", "135745.397500", "135745.857500", "135746.317500", "135746.777500", "135747.237500", "135747.697500", "135748.157500", "135748.617500", "135749.077500", "135749.537500", "135749.997500", "135750.457500", "135750.917500", "135751.377500", "135751.837500", "135752.297500", "135752.757500", "135753.217500", "135753.677500", "135754.137500", "135754.597500", "135755.057500", "135755.517500", "135755.977500", "135756.437500", "135756.897500", "135757.357500", "135757.817500", "135758.277500", "135758.737500", "135759.197500", "135759.657500", "135800.117500", "135800.577500", "135801.037500", "135801.497500", "135801.957500", "135802.417500", "135802.877500", "135803.337500", "135803.797500", "135804.257500", "135804.717500", "135805.177500", "135805.637500", "135806.097500", "135806.557500", "135807.017500", "135807.477500", "135807.937500", "135808.397500", "135808.857500", "135809.317500", "135809.777500", "135810.237500", "135810.697500", "135811.157500", "135811.617500", "135812.077500", "135812.537500", "135812.997500", "135813.457500", "135813.917500", "135814.377500", "135814.837500", "135815.297500", "135815.757500", "135816.217500", "135816.677500", "135817.137500", "135817.597500", "135818.057500", "135818.517500", "135818.977500", "135819.437500", "135819.897500", "135820.357500", "135820.817500", "135821.277500", "135821.737500", "135822.197500", "135822.657500", "135823.117500", "135823.577500", "135824.037500", "135824.497500", "135824.957500", "135825.417500", "135825.877500", "135826.337500", "135826.797500", "135827.257500", "135827.717500", "135828.177500", "135828.637500", "135829.097500", "135829.557500", "135830.017500", "135830.477500", "135830.937500", "135831.397500", "135831.857500", "135832.317500", "135832.777500", "135833.237500", "135833.697500", "135834.157500", "135834.617500", "135835.077500", "135835.537500", "135835.997500", "135836.457500", "135836.917500", "135837.377500", "135837.837500", "135838.297500", "135838.757500", "135839.217500", "135839.677500", "135840.137500", "135840.597500", "135841.057500", "135841.517500", "135841.977500", "135842.437500", "135842.897500", "135843.357500", "135843.817500", "135844.277500", "135844.737500", "135845.197500", "135845.657500", "135846.117500", "135846.577500", "135847.037500", "135847.497500", "135847.957500", "135848.417500", "135848.877500", "135849.337500", "135849.797500", "135850.257500", "135850.717500", "135851.177500", "135851.637500", "135852.097500", "135852.557500", "135853.017500", "135853.477500", "135853.937500", "135854.397500", "135854.857500", "135855.317500", "135855.777500", "135856.237500", "135856.697500", "135857.157500", "135857.617500", "135858.077500", "135858.537500", "135858.997500", "135859.457500", "135859.917500", "135900.377500", "135900.837500", "135901.297500", "135901.757500", "135902.217500", "135902.677500", "135903.137500", "135903.597500", "135904.057500", "135904.517500", "135904.977500", "135905.437500", "135905.897500", "135906.357500", "135906.817500", "135907.277500", "135907.737500", "135908.197500", "135908.657500", "135909.117500", "135909.577500", "135910.037500", "135910.497500", "135910.957500", "135911.417500", "135911.877500", "135912.337500", "135912.797500", "135913.257500", "135913.717500", "135914.177500", "135914.637500", "135915.097500", "135915.557500", "135916.017500", "135916.477500", "135916.937500", "135917.397500", "135917.857500", "135918.317500", "135918.777500", "135919.237500", "135919.697500", "135920.157500", "135920.617500", "135921.077500", "135921.537500", "135921.997500", "135922.457500", "135922.917500", "135923.377500", "135923.837500", "135924.297500", "135924.757500", "135925.217500", "135925.677500", "135926.137500", "135926.597500", "135927.057500", "135927.517500", "135927.977500", "135928.437500", "135928.897500", "135929.357500", "135929.817500", "135930.277500", "135930.737500", "135931.197500", "135931.657500", "135932.117500", "135932.577500", "135933.037500", "135933.497500", "135933.957500", "135934.417500", "135934.877500", "135935.337500", "135935.797500", "135936.257500", "135936.717500", "135937.177500", "135937.637500", "135938.097500", "135938.557500", "135939.017500", "135939.477500", "135939.937500", "135940.397500", "135940.857500", "135941.317500", "135941.777500", "135942.237500", "135942.697500", "135943.157500", "135943.617500", "135944.077500", "135944.537500", "135944.997500", "135945.457500", "135945.917500", "135946.377500", "135946.837500", "135947.297500", "135947.757500", "135948.217500", "135948.677500", "135949.137500", "135949.597500", "135950.057500", "135950.517500", "135950.977500", "135951.437500", "135951.897500", "135952.357500", "135952.817500", "135953.277500", "135953.737500", "135954.197500", "135954.657500", "135955.117500", "135955.577500", "135956.037500", "135956.497500", "135956.957500", "135957.417500", "135957.877500", "135958.337500", "135958.797500", "135959.257500", "135959.717500", "140000.177500", "140000.637500", "140001.097500", "140001.557500", "140002.017500", "140002.477500", "140002.937500", "140003.397500", "140003.857500", "140004.317500", "140004.777500", "140005.237500", "140005.697500", "140006.157500", "140006.617500", "140007.077500", "140007.537500", "140007.997500", "140008.457500", "140008.917500", "140009.377500", "140009.837500", "140010.297500", "140010.757500", "140011.217500", "140011.677500", "140012.137500", "140012.597500", "140013.057500", "140013.517500", "140013.977500", "140014.437500", "140014.897500", "140015.357500", "140015.817500", "140016.277500", "140016.737500", "140017.197500", "140017.657500", "140018.117500", "140018.577500", "140019.037500", "140019.497500", "140019.957500", "140020.417500", "140020.877500", "140021.337500", "140021.797500", "140022.257500", "140022.717500", "140023.177500", "140023.637500", "140024.097500", "140024.557500", "140025.017500", "140025.477500", "140025.937500", "140026.397500", "140026.857500", "140027.317500", "140027.777500", "140028.237500", "140028.697500", "140029.157500", "140029.617500", "140030.077500", "140030.537500", "140030.997500", "140031.457500", "140031.917500", "140032.377500", "140032.837500", "140033.297500", "140033.757500", "140034.217500", "140034.677500", "140035.137500", "140035.597500", "140036.057500", "140036.517500", "140036.977500", "140037.437500", "140037.897500", "140038.357500", "140038.817500", "140039.277500", "140039.737500", "140040.197500", "140040.657500", "140041.117500", "140041.577500", "140042.037500", "140042.497500", "140042.957500", "140043.417500", "140043.877500", "140044.337500", "140044.797500", "140045.257500", "140045.717500", "140046.177500", "140046.637500", "140047.097500", "140047.557500", "140048.017500", "140048.477500", "140048.937500", "140049.397500", "140049.857500", "140050.317500", "140050.777500", "140051.237500", "140051.697500", "140052.157500", "140052.617500", "140053.077500", "140053.537500", "140053.997500", "140054.457500", "140054.917500", "140055.377500", "140055.837500", "140056.297500", "140056.757500", "140057.217500", "140057.677500", "140058.137500", "140058.597500", "140059.057500", "140059.517500", "140059.977500", "140100.437500", "140100.897500", "140101.357500", "140101.817500", "140102.277500", "140102.737500", "140103.197500", "140103.657500", "140104.117500", "140104.577500", "140105.037500", "140105.497500", "140105.957500", "140106.417500", "140106.877500", "140107.337500", "140107.797500", "140108.257500", "140108.717500", "140109.177500", "140109.637500", "140110.097500", "140110.557500", "140111.017500", "140111.477500", "140111.937500", "140112.397500", "140112.857500", "140113.317500", "140113.777500", "140114.237500", "140114.697500", "140115.157500", "140115.617500", "140116.077500", "140116.537500", "140116.997500", "140117.457500", "140117.917500", "140118.377500", "140118.837500", "140119.297500", "140119.757500", "140120.217500", "140120.677500", "140121.137500", "140121.597500", "140122.057500", "140122.517500", "140122.977500", "140123.437500", "140123.897500", "140124.357500", "140124.817500", "140125.277500", "140125.737500", "140126.197500", "140126.657500", "140127.117500", "140127.577500", "140128.037500", "140128.497500", "140128.957500", "140129.417500", "140129.877500", "140130.337500", "140130.797500", "140131.257500", "140131.717500", "140132.177500", "140132.637500", "140133.097500", "140133.557500", "140134.017500", "140134.477500", "140134.937500", "140135.397500", "140135.857500", "140136.317500", "140136.777500", "140137.237500", "140137.697500", "140138.157500", "140138.617500", "140139.077500", "140139.537500", "140139.997500", "140140.457500", "140140.917500", "140141.377500", "140141.837500", "140142.297500", "140142.757500", "140143.217500", "140143.677500", "140144.137500", "140144.597500", "140145.057500", "140145.517500", "140145.977500", "140146.437500", "140146.897500", "140147.357500", "140147.817500", "140148.277500", "140148.737500", "140149.197500", "140149.657500", "140150.117500", "140150.577500", "140151.037500", "140151.497500", "140151.957500", "140152.417500", "140152.877500", "140153.337500", "140153.797500", "140154.257500", "140154.717500", "140155.177500", "140155.637500", "140156.097500", "140156.557500", "140157.017500", "140157.477500", "140157.937500", "140158.397500", "140158.857500", "140159.317500", "140159.777500", "140200.237500", "140200.697500", "140201.157500", "140201.617500", "140202.077500", "140202.537500", "140202.997500", "140203.457500", "140203.917500", "140204.377500", "140204.837500", "140205.297500", "140205.757500", "140206.217500", "140206.677500", "140207.137500", "140207.597500", "140208.057500", "140208.517500", "140208.977500", "140209.437500", "140209.897500", "140210.357500", "140210.817500", "140211.277500", "140211.737500", "140212.197500", "140212.657500", "140213.117500", "140213.577500", "140214.037500", "140214.497500", "140214.957500", "140215.417500", "140215.877500", "140216.337500", "140216.797500", "140217.257500", "140217.717500", "140218.177500", "140218.637500", "140219.097500", "140219.557500", "140220.017500", "140220.477500", "140220.937500", "140221.397500", "140221.857500", "140222.317500", "140222.777500", "140223.237500", "140223.697500", "140224.157500", "140224.617500", "140225.077500", "140225.537500", "140225.997500", "140226.457500", "140226.917500", "140227.377500", "140227.837500", "140228.297500", "140228.757500", "140229.217500", "140229.677500", "140230.137500", "140230.597500", "140231.057500", "140231.517500", "140231.977500", "140232.437500", "140232.897500", "140233.357500", "140233.817500", "140234.277500", "140234.737500", "140235.197500", "140235.657500", "140236.117500", "140236.577500", "140237.037500", "140237.497500", "140237.957500", "140238.417500", "140238.877500", "140239.337500", "140239.797500", "140240.257500", "140240.717500", "140241.177500", "140241.637500", "140242.097500", "140242.557500", "140243.017500", "140243.477500", "140243.937500", "140244.397500", "140244.857500", "140245.317500", "140245.777500", "140246.237500", "140246.697500", "140247.157500", "140247.617500", "140248.077500", "140248.537500", "140248.997500", "140249.457500", "140249.917500", "140250.377500", "140250.837500", "140251.297500", "140251.757500", "140252.217500", "140252.677500", "140253.137500", "140253.597500", "140254.057500", "140254.517500", "140254.977500", "140255.437500", "140255.897500", "140256.357500", "140256.817500", "140257.277500", "140257.737500", "140258.197500", "140258.657500", "140259.117500", "140259.577500", "140300.037500", "140300.497500", "140300.957500", "140301.417500", "140301.877500", "140302.337500", "140302.797500", "140303.257500", "140303.717500", "140304.177500", "140304.637500", "140305.097500", "140305.557500", "140306.017500", "140306.477500", "140306.937500", "140307.397500", "140307.857500", "140308.317500", "140308.777500", "140309.237500", "140309.697500", "140310.157500", "140310.617500", "140311.077500", "140311.537500", "140311.997500", "140312.457500", "140312.917500", "140313.377500", "140313.837500", "140314.297500", "140314.757500", "140315.217500", "140315.677500", "140316.137500", "140316.597500", "140317.057500", "140317.517500", "140317.977500", "140318.437500", "140318.897500", "140319.357500", "140319.817500", "140320.277500", "140320.737500", "140321.197500", "140321.657500", "140322.117500", "140322.577500", "140323.037500", "140323.497500", "140323.957500", "140324.417500", "140324.877500", "140325.337500", "140325.797500", "140326.257500", "140326.717500", "140327.177500", "140327.637500", "140328.097500", "140328.557500", "140329.017500", "140329.477500", "140329.937500", "140330.397500", "140330.857500", "140331.317500", "140331.777500"],
