{
  "AcquisitionMatrixPE": 82,
  "AcquisitionNumber": 1,
  "AcquisitionTime": "13:11:41.342500",
  "BandwidthPerPixelPhaseEncode": 24.888,
  "BaseResolution": 82,
  "BodyPartExamined": "BRAIN",
  "ConsistencyInfo": "N4_VE11C_LATEST_20160120",
  "ConversionSoftware": "dcm2niix",
  "ConversionSoftwareVersion": "v1.0.20201102",
  "DerivedVendorReportedEchoSpacing": 0.00049,
  "DeviceSerialNumber": "66112",
  "DwellTime": 2e-06,
  "EchoTime": 0.0272,
  "EchoTrainLength": 82,
  "EffectiveEchoSpacing": 0.00049,
  "FlipAngle": 44,
  "ImageComments": "Unaliased MB8/PE3",
  "ImageOrientationPatientDICOM": [0.999661, 0.0220967, 0.0138045, -0.0225109, 0.999278, 0.0306117],
  "ImageType": [
    "ORIGINAL",
    "PRIMARY",
    "M",
    "MB",
    "ND",
    "NORM",
    "MOSAIC"
],
  "ImagingFrequency": 123.252,
  "InPlanePhaseEncodingDirectionDICOM": "COL",
  "InstitutionAddress": "Maynard 3,Hanover,NH,US,03755",
  "InstitutionName": "Dartmouth College - PBS",
  "InstitutionalDepartmentName": "Department",
  "MRAcquisitionType": "2D",
  "MagneticFieldStrength": 3,
  "Manufacturer": "Siemens",
  "ManufacturersModelName": "Prisma",
  "Modality": "MR",
  "MultibandAccelerationFactor": 8,
  "PartialFourier": 1,
  "PatientPosition": "HFS",
  "PercentPhaseFOV": 100,
  "PercentSampling": 100,
  "PhaseEncodingDirection": "j-",
  "PhaseEncodingSteps": 82,
  "PhaseResolution": 1,
  "PixelBandwidth": 3050,
  "ProcedureStepDescription": "Wager_Wager^1076_spacetop",
  "ProtocolName": "func_run-06_task-social_acq-ap-mb8",
  "PulseSequenceDetails": "%CustomerSeq%\\cmrr_mbep2d_bold",
  "ReceiveCoilActiveElements": "HEA;HEP",
  "ReceiveCoilName": "Head_32",
  "ReconMatrixPE": 82,
  "RepetitionTime": 0.46,
  "SAR": 0.0947843,
  "ScanOptions": "FS",
  "ScanningSequence": "EP",
  "SequenceName": "epfid2d1_82",
  "SequenceVariant": "SK\\SS",
  "SeriesDescription": "func_run-06_task-social_acq-ap-mb8",
  "SeriesNumber": 18,
  "ShimSetting": [4162, -7727, -7245, 608, -38, -95, 115, 54],
  "SliceThickness": 2.7,
  "SliceTiming": [0, 0.2525, 0.0625, 0.315, 0.1275, 0.3775, 0.19, 0, 0.2525, 0.0625, 0.315, 0.1275, 0.3775, 0.19, 0, 0.2525, 0.0625, 0.315, 0.1275, 0.3775, 0.19, 0, 0.2525, 0.0625, 0.315, 0.1275, 0.3775, 0.19, 0, 0.2525, 0.0625, 0.315, 0.1275, 0.3775, 0.19, 0, 0.2525, 0.0625, 0.315, 0.1275, 0.3775, 0.19, 0, 0.2525, 0.0625, 0.315, 0.1275, 0.3775, 0.19, 0, 0.2525, 0.0625, 0.315, 0.1275, 0.3775, 0.19],
  "SoftwareVersions": "syngo MR E11",
  "SpacingBetweenSlices": 2.7,
  "StationName": "AWP66112",
  "TaskName": "social",
  "TotalReadoutTime": 0.03969,
  "TxRefAmp": 242.109,
  "WipMemBlock": "471a6f68-9f8b-455c-b1ae-0b97db30e6cf||Sequence: R016 ve11c/master r/e634e98; Dec 19 2017 11:00:25 by eja",
  "dcmmeta_affine": [
    [-2.682016134262085, -0.060395170003175735, 0.03541898727416992, 116.84759521484375],
    [-0.05928372964262962, 2.6809892654418945, 0.08346246927976608, -85.62066650390625],
    [0.03703653812408447, -0.0821288600564003, 2.698477268218994, -38.0308837890625],
    [0.0, 0.0, 0.0, 1.0]
],
  "dcmmeta_reorient_transform": [
    [0.0, -1.0, 0.0, 81.0],
    [1.0, 0.0, 0.0, 0.0],
    [0.0, 0.0, 1.0, 0.0],
    [0.0, 0.0, 0.0, 1.0]
],
  "dcmmeta_shape": [82, 82, 56, 872],
  "dcmmeta_slice_dim": 2,
  "dcmmeta_version": 0.6,
  "global": {
    "const": {
      "AccessionNumber": "A003477",
      "AcquisitionMatrix": [82, 0, 0, 82],
      "AngioFlag": "N",
      "BitsAllocated": 16,
      "BitsStored": 16,
      "BodyPartExamined": "BRAIN",
      "Columns": 656,
      "EchoNumbers": 1,
      "EchoTime": 27.2,
      "EchoTrainLength": 82,
      "FlipAngle": 44.0,
      "HighBit": 15,
      "ImageOrientationPatient": [0.99966052864604, 0.02209666199279, 0.01380452809383, -0.0225109258827, 0.99927783132013, 0.03061166522817],
      "ImagePositionPatient": [-864.36079525033, -917.99784802085, -78.883789812577],
      "ImageType": [
        "ORIGINAL",
        "PRIMARY",
        "M",
        "MB",
        "ND",
        "NORM",
        "MOSAIC"
],
      "ImagedNucleus": "1H",
      "ImagingFrequency": 123.252116,
      "InPlanePhaseEncodingDirection": "COL",
      "MRAcquisitionType": "2D",
      "MagneticFieldStrength": 3.0,
      "Manufacturer": "SIEMENS",
      "ManufacturerModelName": "Prisma",
      "Modality": "MR",
      "NumberOfAverages": 1.0,
      "NumberOfPhaseEncodingSteps": 82,
      "PercentPhaseFieldOfView": 100.0,
      "PercentSampling": 100.0,
      "PerformedProcedureStepStartTime": "115233.178000",
      "PhotometricInterpretation": "MONOCHROME2",
      "PixelBandwidth": 3050.0,
      "PixelRepresentation": 0,
      "PixelSpacing": [2.6829268932343, 2.6829268932343],
      "ProtocolName": "func_run-06_task-social_acq-ap-mb8",
      "RepetitionTime": 460.0,
      "Rows": 656,
      "SAR": 0.09478434094173,
      "SamplesPerPixel": 1,
      "ScanOptions": "FS",
      "ScanningSequence": "EP",
      "SequenceName": "epfid2d1_82",
      "SequenceVariant": [
        "SK",
        "SS"
],
      "SeriesDescription": "func_run-06_task-social_acq-ap-mb8",
      "SeriesNumber": 18,
      "SeriesTime": "131205.360000",
      "SliceLocation": -39.123318805072,
      "SliceThickness": 2.7000000476837,
      "SmallestImagePixelValue": 0,
      "SoftwareVersions": "syngo MR E11",
      "SpacingBetweenSlices": 2.6999999145305,
      "SpecificCharacterSet": "ISO_IR 100",
      "StudyID": "1",
      "StudyTime": "115233.050000",
      "TransmitCoilName": "Body",
      "VariableFlipAngleFlag": "N",
      "WindowCenterWidthExplanation": "Algo1",
      "dBdt": 0.0},
    "slices": {}
  },
  "time": {
    "samples": {
      "AcquisitionNumber": [1, 2, 3, 4, 5, 6, 7, 8, 9, 10, 11, 12, 13, 14, 15, 16, 17, 18, 19, 20, 21, 22, 23, 24, 25, 26, 27, 28, 29, 30, 31, 32, 33, 34, 35, 36, 37, 38, 39, 40, 41, 42, 43, 44, 45, 46, 47, 48, 49, 50, 51, 52, 53, 54, 55, 56, 57, 58, 59, 60, 61, 62, 63, 64, 65, 66, 67, 68, 69, 70, 71, 72, 73, 74, 75, 76, 77, 78, 79, 80, 81, 82, 83, 84, 85, 86, 87, 88, 89, 90, 91, 92, 93, 94, 95, 96, 97, 98, 99, 100, 101, 102, 103, 104, 105, 106, 107, 108, 109, 110, 111, 112, 113, 114, 115, 116, 117, 118, 119, 120, 121, 122, 123, 124, 125, 126, 127, 128, 129, 130, 131, 132, 133, 134, 135, 136, 137, 138, 139, 140, 141, 142, 143, 144, 145, 146, 147, 148, 149, 150, 151, 152, 153, 154, 155, 156, 157, 158, 159, 160, 161, 162, 163, 164, 165, 166, 167, 168, 169, 170, 171, 172, 173, 174, 175, 176, 177, 178, 179, 180, 181, 182, 183, 184, 185, 186, 187, 188, 189, 190, 191, 192, 193, 194, 195, 196, 197, 198, 199, 200, 201, 202, 203, 204, 205, 206, 207, 208, 209, 210, 211, 212, 213, 214, 215, 216, 217, 218, 219, 220, 221, 222, 223, 224, 225, 226, 227, 228, 229, 230, 231, 232, 233, 234, 235, 236, 237, 238, 239, 240, 241, 242, 243, 244, 245, 246, 247, 248, 249, 250, 251, 252, 253, 254, 255, 256, 257, 258, 259, 260, 261, 262, 263, 264, 265, 266, 267, 268, 269, 270, 271, 272, 273, 274, 275, 276, 277, 278, 279, 280, 281, 282, 283, 284, 285, 286, 287, 288, 289, 290, 291, 292, 293, 294, 295, 296, 297, 298, 299, 300, 301, 302, 303, 304, 305, 306, 307, 308, 309, 310, 311, 312, 313, 314, 315, 316, 317, 318, 319, 320, 321, 322, 323, 324, 325, 326, 327, 328, 329, 330, 331, 332, 333, 334, 335, 336, 337, 338, 339, 340, 341, 342, 343, 344, 345, 346, 347, 348, 349, 350, 351, 352, 353, 354, 355, 356, 357, 358, 359, 360, 361, 362, 363, 364, 365, 366, 367, 368, 369, 370, 371, 372, 373, 374, 375, 376, 377, 378, 379, 380, 381, 382, 383, 384, 385, 386, 387, 388, 389, 390, 391, 392, 393, 394, 395, 396, 397, 398, 399, 400, 401, 402, 403, 404, 405, 406, 407, 408, 409, 410, 411, 412, 413, 414, 415, 416, 417, 418, 419, 420, 421, 422, 423, 424, 425, 426, 427, 428, 429, 430, 431, 432, 433, 434, 435, 436, 437, 438, 439, 440, 441, 442, 443, 444, 445, 446, 447, 448, 449, 450, 451, 452, 453, 454, 455, 456, 457, 458, 459, 460, 461, 462, 463, 464, 465, 466, 467, 468, 469, 470, 471, 472, 473, 474, 475, 476, 477, 478, 479, 480, 481, 482, 483, 484, 485, 486, 487, 488, 489, 490, 491, 492, 493, 494, 495, 496, 497, 498, 499, 500, 501, 502, 503, 504, 505, 506, 507, 508, 509, 510, 511, 512, 513, 514, 515, 516, 517, 518, 519, 520, 521, 522, 523, 524, 525, 526, 527, 528, 529, 530, 531, 532, 533, 534, 535, 536, 537, 538, 539, 540, 541, 542, 543, 544, 545, 546, 547, 548, 549, 550, 551, 552, 553, 554, 555, 556, 557, 558, 559, 560, 561, 562, 563, 564, 565, 566, 567, 568, 569, 570, 571, 572, 573, 574, 575, 576, 577, 578, 579, 580, 581, 582, 583, 584, 585, 586, 587, 588, 589, 590, 591, 592, 593, 594, 595, 596, 597, 598, 599, 600, 601, 602, 603, 604, 605, 606, 607, 608, 609, 610, 611, 612, 613, 614, 615, 616, 617, 618, 619, 620, 621, 622, 623, 624, 625, 626, 627, 628, 629, 630, 631, 632, 633, 634, 635, 636, 637, 638, 639, 640, 641, 642, 643, 644, 645, 646, 647, 648, 649, 650, 651, 652, 653, 654, 655, 656, 657, 658, 659, 660, 661, 662, 663, 664, 665, 666, 667, 668, 669, 670, 671, 672, 673, 674, 675, 676, 677, 678, 679, 680, 681, 682, 683, 684, 685, 686, 687, 688, 689, 690, 691, 692, 693, 694, 695, 696, 697, 698, 699, 700, 701, 702, 703, 704, 705, 706, 707, 708, 709, 710, 711, 712, 713, 714, 715, 716, 717, 718, 719, 720, 721, 722, 723, 724, 725, 726, 727, 728, 729, 730, 731, 732, 733, 734, 735, 736, 737, 738, 739, 740, 741, 742, 743, 744, 745, 746, 747, 748, 749, 750, 751, 752, 753, 754, 755, 756, 757, 758, 759, 760, 761, 762, 763, 764, 765, 766, 767, 768, 769, 770, 771, 772, 773, 774, 775, 776, 777, 778, 779, 780, 781, 782, 783, 784, 785, 786, 787, 788, 789, 790, 791, 792, 793, 794, 795, 796, 797, 798, 799, 800, 801, 802, 803, 804, 805, 806, 807, 808, 809, 810, 811, 812, 813, 814, 815, 816, 817, 818, 819, 820, 821, 822, 823, 824, 825, 826, 827, 828, 829, 830, 831, 832, 833, 834, 835, 836, 837, 838, 839, 840, 841, 842, 843, 844, 845, 846, 847, 848, 849, 850, 851, 852, 853, 854, 855, 856, 857, 858, 859, 860, 861, 862, 863, 864, 865, 866, 867, 868, 869, 870, 871, 872],
      "AcquisitionTime": ["131141.342500", "131141.802500", "131142.262500", "131142.722500", "131143.182500", "131143.642500", "131144.102500", "131144.562500", "131145.022500", "131145.482500", "131145.942500", "131146.402500", "131146.862500", "131147.322500", "131147.782500", "131148.242500", "131148.702500", "131149.162500", "131149.622500", "131150.082500", "131150.542500", "131151.002500", "131151.462500", "131151.922500", "131152.382500", "131152.842500", "131153.302500", "131153.762500", "131154.222500", "131154.682500", "131155.142500", "131155.602500", "131156.062500", "131156.522500", "131156.982500", "131157.442500", "131157.902500", "131158.362500", "131158.822500", "131159.282500", "131159.742500", "131200.202500", "131200.662500", "131201.122500", "131201.582500", "131202.042500", "131202.502500", "131202.962500", "131203.422500", "131203.882500", "131204.342500", "131204.802500", "131205.262500", "131205.722500", "131206.182500", "131206.642500", "131207.102500", "131207.562500", "131208.022500", "131208.482500", "131208.942500", "131209.402500", "131209.862500", "131210.322500", "131210.782500", "131211.242500", "131211.702500", "131212.162500", "131212.622500", "131213.082500", "131213.542500", "131214.002500", "131214.462500", "131214.922500", "131215.382500", "131215.842500", "131216.302500", "131216.762500", "131217.222500", "131217.682500", "131218.142500", "131218.602500", "131219.062500", "131219.522500", "131219.982500", "131220.442500", "131220.902500", "131221.362500", "131221.822500", "131222.282500", "131222.742500", "131223.202500", "131223.662500", "131224.122500", "131224.582500", "131225.042500", "131225.502500", "131225.962500", "131226.422500", "131226.882500", "131227.342500", "131227.802500", "131228.262500", "131228.722500", "131229.182500", "131229.642500", "131230.102500", "131230.562500", "131231.022500", "131231.482500", "131231.942500", "131232.402500", "131232.862500", "131233.322500", "131233.782500", "131234.242500", "131234.702500", "131235.162500", "131235.622500", "131236.082500", "131236.542500", "131237.002500", "131237.462500", "131237.922500", "131238.382500", "131238.842500", "131239.302500", "131239.762500", "131240.222500", "131240.682500", "131241.142500", "131241.602500", "131242.062500", "131242.522500", "131242.982500", "131243.442500", "131243.902500", "131244.362500", "131244.822500", "131245.282500", "131245.742500", "131246.202500", "131246.662500", "131247.122500", "131247.582500", "131248.042500", "131248.502500", "131248.962500", "131249.422500", "131249.882500", "131250.342500", "131250.802500", "131251.262500", "131251.722500", "131252.182500", "131252.642500", "131253.102500", "131253.562500", "131254.022500", "131254.482500", "131254.942500", "131255.402500", "131255.862500", "131256.322500", "131256.782500", "131257.242500", "131257.702500", "131258.162500", "131258.622500", "131259.082500", "131259.542500", "131300.002500", "131300.462500", "131300.922500", "131301.382500", "131301.842500", "131302.302500", "131302.762500", "131303.222500", "131303.682500", "131304.142500", "131304.602500", "131305.062500", "131305.522500", "131305.982500", "131306.442500", "131306.902500", "131307.362500", "131307.822500", "131308.282500", "131308.742500", "131309.202500", "131309.662500", "131310.122500", "131310.582500", "131311.042500", "131311.502500", "131311.962500", "131312.422500", "131312.882500", "131313.342500", "131313.802500", "131314.262500", "131314.722500", "131315.182500", "131315.642500", "131316.102500", "131316.562500", "131317.022500", "131317.482500", "131317.942500", "131318.402500", "131318.862500", "131319.322500", "131319.782500", "131320.242500", "131320.702500", "131321.162500", "131321.622500", "131322.082500", "131322.542500", "131323.002500", "131323.462500", "131323.922500", "131324.382500", "131324.842500", "131325.302500", "131325.762500", "131326.222500", "131326.682500", "131327.142500", "131327.602500", "131328.062500", "131328.522500", "131328.982500", "131329.442500", "131329.902500", "131330.362500", "131330.822500", "131331.282500", "131331.742500", "131332.202500", "131332.662500", "131333.122500", "131333.582500", "131334.042500", "131334.502500", "131334.962500", "131335.422500", "131335.882500", "131336.342500", "131336.802500", "131337.262500", "131337.722500", "131338.182500", "131338.642500", "131339.102500", "131339.562500", "131340.022500", "131340.482500", "131340.942500", "131341.402500", "131341.862500", "131342.322500", "131342.782500", "131343.242500", "131343.702500", "131344.162500", "131344.622500", "131345.082500", "131345.542500", "131346.002500", "131346.462500", "131346.922500", "131347.382500", "131347.842500", "131348.302500", "131348.762500", "131349.222500", "131349.682500", "131350.142500", "131350.602500", "131351.062500", "131351.522500", "131351.982500", "131352.442500", "131352.902500", "131353.362500", "131353.822500", "131354.282500", "131354.742500", "131355.202500", "131355.662500", "131356.122500", "131356.582500", "131357.042500", "131357.502500", "131357.962500", "131358.422500", "131358.882500", "131359.342500", "131359.802500", "131400.262500", "131400.722500", "131401.182500", "131401.642500", "131402.102500", "131402.562500", "131403.022500", "131403.482500", "131403.942500", "131404.402500", "131404.862500", "131405.322500", "131405.782500", "131406.242500", "131406.702500", "131407.162500", "131407.622500", "131408.082500", "131408.542500", "131409.002500", "131409.462500", "131409.922500", "131410.382500", "131410.842500", "131411.302500", "131411.762500", "131412.222500", "131412.682500", "131413.142500", "131413.602500", "131414.062500", "131414.522500", "131414.982500", "131415.442500", "131415.902500", "131416.362500", "131416.822500", "131417.282500", "131417.742500", "131418.202500", "131418.662500", "131419.122500", "131419.582500", "131420.042500", "131420.502500", "131420.962500", "131421.422500", "131421.882500", "131422.342500", "131422.802500", "131423.262500", "131423.722500", "131424.182500", "131424.642500", "131425.102500", "131425.562500", "131426.022500", "131426.482500", "131426.942500", "131427.402500", "131427.862500", "131428.322500", "131428.782500", "131429.242500", "131429.702500", "131430.162500", "131430.622500", "131431.082500", "131431.542500", "131432.002500", "131432.462500", "131432.922500", "131433.382500", "131433.842500", "131434.302500", "131434.762500", "131435.222500", "131435.682500", "131436.142500", "131436.602500", "131437.062500", "131437.522500", "131437.982500", "131438.442500", "131438.902500", "131439.362500", "131439.822500", "131440.282500", "131440.742500", "131441.202500", "131441.662500", "131442.122500", "131442.582500", "131443.042500", "131443.502500", "131443.962500", "131444.422500", "131444.882500", "131445.342500", "131445.802500", "131446.262500", "131446.722500", "131447.182500", "131447.642500", "131448.102500", "131448.562500", "131449.022500", "131449.482500", "131449.942500", "131450.402500", "131450.862500", "131451.322500", "131451.782500", "131452.242500", "131452.702500", "131453.162500", "131453.622500", "131454.082500", "131454.542500", "131455.002500", "131455.462500", "131455.922500", "131456.382500", "131456.842500", "131457.302500", "131457.762500", "131458.222500", "131458.682500", "131459.142500", "131459.602500", "131500.062500", "131500.522500", "131500.982500", "131501.442500", "131501.902500", "131502.362500", "131502.822500", "131503.282500", "131503.742500", "131504.202500", "131504.662500", "131505.122500", "131505.582500", "131506.042500", "131506.502500", "131506.962500", "131507.422500", "131507.882500", "131508.342500", "131508.802500", "131509.262500", "131509.722500", "131510.182500", "131510.642500", "131511.102500", "131511.562500", "131512.022500", "131512.482500", "131512.942500", "131513.402500", "131513.862500", "131514.322500", "131514.782500", "131515.242500", "131515.702500", "131516.162500", "131516.622500", "131517.082500", "131517.542500", "131518.002500", "131518.462500", "131518.922500", "131519.382500", "131519.842500", "131520.302500", "131520.762500", "131521.222500", "131521.682500", "131522.142500", "131522.602500", "131523.062500", "131523.522500", "131523.982500", "131524.442500", "131524.902500", "131525.362500", "131525.822500", "131526.282500", "131526.742500", "131527.202500", "131527.662500", "131528.122500", "131528.582500", "131529.042500", "131529.502500", "131529.962500", "131530.422500", "131530.882500", "131531.342500", "131531.802500", "131532.262500", "131532.722500", "131533.182500", "131533.642500", "131534.102500", "131534.562500", "131535.022500", "131535.482500", "131535.942500", "131536.402500", "131536.862500", "131537.322500", "131537.782500", "131538.242500", "131538.702500", "131539.162500", "131539.622500", "131540.082500", "131540.542500", "131541.002500", "131541.462500", "131541.922500", "131542.382500", "131542.842500", "131543.302500", "131543.762500", "131544.222500", "131544.682500", "131545.142500", "131545.602500", "131546.062500", "131546.522500", "131546.982500", "131547.442500", "131547.902500", "131548.362500", "131548.822500", "131549.282500", "131549.742500", "131550.202500", "131550.662500", "131551.122500", "131551.582500", "131552.042500", "131552.502500", "131552.962500", "131553.422500", "131553.882500", "131554.342500", "131554.802500", "131555.262500", "131555.722500", "131556.182500", "131556.642500", "131557.102500", "131557.562500", "131558.022500", "131558.482500", "131558.942500", "131559.402500", "131559.862500", "131600.322500", "131600.782500", "131601.242500", "131601.702500", "131602.162500", "131602.622500", "131603.082500", "131603.542500", "131604.002500", "131604.462500", "131604.922500", "131605.382500", "131605.842500", "131606.302500", "131606.762500", "131607.222500", "131607.682500", "131608.142500", "131608.602500", "131609.062500", "131609.522500", "131609.982500", "131610.442500", "131610.902500", "131611.362500", "131611.822500", "131612.282500", "131612.742500", "131613.202500", "131613.662500", "131614.122500", "131614.582500", "131615.042500", "131615.502500", "131615.962500", "131616.422500", "131616.882500", "131617.342500", "131617.802500", "131618.262500", "131618.722500", "131619.182500", "131619.642500", "131620.102500", "131620.562500", "131621.022500", "131621.482500", "131621.942500", "131622.402500", "131622.862500", "131623.322500", "131623.782500", "131624.242500", "131624.702500", "131625.162500", "131625.622500", "131626.082500", "131626.542500", "131627.002500", "131627.462500", "131627.922500", "131628.382500", "131628.842500", "131629.302500", "131629.762500", "131630.222500", "131630.682500", "131631.142500", "131631.602500", "131632.062500", "131632.522500", "131632.982500", "131633.442500", "131633.902500", "131634.362500", "131634.822500", "131635.282500", "131635.742500", "131636.202500", "131636.662500", "131637.122500", "131637.582500", "131638.042500", "131638.502500", "131638.962500", "131639.422500", "131639.882500", "131640.342500", "131640.802500", "131641.262500", "131641.722500", "131642.182500", "131642.642500", "131643.102500", "131643.562500", "131644.022500", "131644.482500", "131644.942500", "131645.402500", "131645.862500", "131646.322500", "131646.782500", "131647.242500", "131647.702500", "131648.162500", "131648.622500", "131649.082500", "131649.542500", "131650.002500", "131650.462500", "131650.922500", "131651.382500", "131651.842500", "131652.302500", "131652.762500", "131653.222500", "131653.682500", "131654.142500", "131654.602500", "131655.062500", "131655.522500", "131655.982500", "131656.442500", "131656.902500", "131657.362500", "131657.822500", "131658.282500", "131658.742500", "131659.202500", "131659.662500", "131700.122500", "131700.582500", "131701.042500", "131701.502500", "131701.962500", "131702.422500", "131702.882500", "131703.342500", "131703.802500", "131704.262500", "131704.722500", "131705.182500", "131705.642500", "131706.102500", "131706.562500", "131707.022500", "131707.482500", "131707.942500", "131708.402500", "131708.862500", "131709.322500", "131709.782500", "131710.242500", "131710.702500", "131711.162500", "131711.622500", "131712.082500", "131712.542500", "131713.002500", "131713.462500", "131713.922500", "131714.382500", "131714.842500", "131715.302500", "131715.762500", "131716.222500", "131716.682500", "131717.142500", "131717.602500", "131718.062500", "131718.522500", "131718.982500", "131719.442500", "131719.902500", "131720.362500", "131720.822500", "131721.282500", "131721.742500", "131722.202500", "131722.662500", "131723.122500", "131723.582500", "131724.042500", "131724.502500", "131724.962500", "131725.422500", "131725.882500", "131726.342500", "131726.802500", "131727.262500", "131727.722500", "131728.182500", "131728.642500", "131729.102500", "131729.562500", "131730.022500", "131730.482500", "131730.942500", "131731.402500", "131731.862500", "131732.322500", "131732.782500", "131733.242500", "131733.702500", "131734.162500", "131734.622500", "131735.082500", "131735.542500", "131736.002500", "131736.462500", "131736.922500", "131737.382500", "131737.842500", "131738.302500", "131738.762500", "131739.222500", "131739.682500", "131740.142500", "131740.602500", "131741.062500", "131741.522500", "131741.982500", "131742.442500", "131742.902500", "131743.362500", "131743.822500", "131744.282500", "131744.742500", "131745.202500", "131745.662500", "131746.122500", "131746.582500", "131747.042500", "131747.502500", "131747.962500", "131748.422500", "131748.882500", "131749.342500", "131749.802500", "131750.262500", "131750.722500", "131751.182500", "131751.642500", "131752.102500", "131752.562500", "131753.022500", "131753.482500", "131753.942500", "131754.402500", "131754.862500", "131755.322500", "131755.782500", "131756.242500", "131756.702500", "131757.162500", "131757.622500", "131758.082500", "131758.542500", "131759.002500", "131759.462500", "131759.922500", "131800.382500", "131800.842500", "131801.302500", "131801.762500", "131802.222500", "131802.682500", "131803.142500", "131803.602500", "131804.062500", "131804.522500", "131804.982500", "131805.442500", "131805.902500", "131806.362500", "131806.822500", "131807.282500", "131807.742500", "131808.202500", "131808.662500", "131809.122500", "131809.582500", "131810.042500", "131810.502500", "131810.962500", "131811.422500", "131811.882500", "131812.342500", "131812.802500", "131813.262500", "131813.722500", "131814.182500", "131814.642500", "131815.102500", "131815.562500", "131816.022500", "131816.482500", "131816.942500", "131817.402500", "131817.862500", "131818.322500", "131818.782500", "131819.242500", "131819.702500", "131820.162500", "131820.622500", "131821.082500", "131821.542500", "131822.002500"],
