{
  "AcquisitionMatrixPE": 140,
  "AcquisitionNumber": 1,
  "AcquisitionTime": "20:27:53.005000",
  "BandwidthPerPixelPhaseEncode": 10.352,
  "BaseResolution": 140,
  "BodyPartExamined": "BRAIN",
  "ConsistencyInfo": "N4_VE11E_LATEST_20181129",
  "ConversionSoftware": "dcm2niix",
  "ConversionSoftwareVersion": "v1.0.20201102",
  "DerivedVendorReportedEchoSpacing": 0.000689998,
  "DeviceSerialNumber": "66112",
  "DiffusionScheme": "Monopolar",
  "DwellTime": 2.1e-06,
  "EchoTime": 0.088,
  "EchoTrainLength": 105,
  "EffectiveEchoSpacing": 0.000689998,
  "FlipAngle": 90,
  "ImageComments": "Unaliased MB3/PE3",
  "ImageOrientationPatientDICOM": [0.997454, -0.00235373, 0.0712725, -0.0128833, 0.977062, 0.212567],
  "ImageType": [
    "ORIGINAL",
    "PRIMARY",
    "DIFFUSION",
    "NONE",
    "MB",
    "ND"
],
  "ImagingFrequency": 123.252,
  "InPlanePhaseEncodingDirectionDICOM": "COL",
  "InstitutionAddress": "Maynard 3,Hanover,NH,US,03755",
  "InstitutionName": "Dartmouth College - PBS",
  "InstitutionalDepartmentName": "Department",
  "IntendedFor": [
    "ses-01/dwi/sub-0066_ses-01_acq-96dirX6b0Xmb_dwi.nii.gz"
],
  "MRAcquisitionType": "2D",
  "MagneticFieldStrength": 3,
  "Manufacturer": "Siemens",
  "ManufacturersModelName": "Prisma",
  "Modality": "MR",
  "MultibandAccelerationFactor": 3,
  "PartialFourier": 0.75,
  "PatientPosition": "HFS",
  "PercentPhaseFOV": 100,
  "PercentSampling": 100,
  "PhaseEncodingDirection": "j-",
  "PhaseEncodingSteps": 105,
  "PhaseResolution": 1,
  "PixelBandwidth": 1700,
  "ProcedureStepDescription": "Wager_Wager^1076_spacetop",
  "ProtocolName": "dwi_acq-discorr-AP",
  "PulseSequenceDetails": "%CustomerSeq%\\cmrr_mbep2d_diff",
  "ReceiveCoilActiveElements": "HEA;HEP",
  "ReceiveCoilName": "Head_32",
  "ReconMatrixPE": 140,
  "RepetitionTime": 4.1,
  "SAR": 0.173804,
  "ScanOptions": "PFP\\FS",
  "ScanningSequence": "EP",
  "SequenceName": "ep_b0",
  "SequenceVariant": "SK\\SS",
  "SeriesDescription": "dwi_acq-discorr-AP",
  "SeriesNumber": 7,
  "ShimSetting": [4154, -7733, -7299, 498, -152, -60, 3, 94],
  "SliceThickness": 1.7,
  "SliceTiming": [0, 2.125, 0.15625, 2.26562, 0.3125, 2.42188, 0.45312, 2.57812, 0.60938, 2.71875, 0.76562, 2.875, 0.90625, 3.03125, 1.0625, 3.1875, 1.21875, 3.32812, 1.35938, 3.48438, 1.51562, 3.625, 1.67188, 3.78125, 1.8125, 3.9375, 1.96875, 0, 2.125, 0.15625, 2.26562, 0.3125, 2.42188, 0.45312, 2.57812, 0.60938, 2.71875, 0.76562, 2.875, 0.90625, 3.03125, 1.0625, 3.1875, 1.21875, 3.32812, 1.35938, 3.48438, 1.51562, 3.625, 1.67188, 3.78125, 1.8125, 3.9375, 1.96875, 0, 2.125, 0.15625, 2.26562, 0.3125, 2.42188, 0.45312, 2.57812, 0.60938, 2.71875, 0.76562, 2.875, 0.90625, 3.03125, 1.0625, 3.1875, 1.21875, 3.32812, 1.35938, 3.48438, 1.51562, 3.625, 1.67188, 3.78125, 1.8125, 3.9375, 1.96875],
  "SoftwareVersions": "syngo MR E11",
  "SpacingBetweenSlices": 1.7,
  "StationName": "AWP66112",
  "TotalReadoutTime": 0.0959097,
  "TxRefAmp": 276.243,
  "WipMemBlock": "2f548d50-4cf2-458f-9e31-4fa0a817b31d||Sequence: R016 ve11e/master r/434b28f1; Aug  7 2019 19:06:17 by eja",
  "dcmmeta_affine": [
    [-1.7099213600158691, -0.022085601463913918, 0.11923408508300781, 120.22843933105469],
    [0.004034960176795721, 1.6749626398086548, 0.3620033264160156, -96.78263092041016],
    [0.1221814975142479, -0.3644008934497833, 1.6567230224609375, -49.5423583984375],
    [0.0, 0.0, 0.0, 1.0]
],
  "dcmmeta_reorient_transform": [
    [0.0, -1.0, 0.0, 139.0],
    [1.0, 0.0, 0.0, 0.0],
    [0.0, 0.0, -1.0, 80.0],
    [0.0, 0.0, 0.0, 1.0]
],
  "dcmmeta_shape": [140, 140, 81],
  "dcmmeta_slice_dim": 2,
  "dcmmeta_version": 0.6,
  "global": {
    "const": {
      "AccessionNumber": "A003976",
      "AcquisitionMatrix": [140, 0, 0, 140],
      "AcquisitionNumber": 1,
      "AngioFlag": "N",
      "BitsAllocated": 16,
      "BitsStored": 16,
      "BodyPartExamined": "BRAIN",
      "Columns": 140,
      "EchoNumbers": 1,
      "EchoTime": 88.0,
      "EchoTrainLength": 105,
      "FlipAngle": 90.0,
      "HighBit": 15,
      "ImageOrientationPatient": [0.9974541017145, -0.0023537268605, 0.07127253989287, -0.0128832670107, 0.97706151881651, 0.21256718909348],
      "ImageType": [
        "ORIGINAL",
        "PRIMARY",
        "DIFFUSION",
        "NONE",
        "MB",
        "ND"
],
      "ImagedNucleus": "1H",
      "ImagingFrequency": 123.252193,
      "InPlanePhaseEncodingDirection": "COL",
      "MRAcquisitionType": "2D",
      "MagneticFieldStrength": 3.0,
      "Manufacturer": "SIEMENS",
      "ManufacturerModelName": "Prisma",
      "Modality": "MR",
      "NumberOfAverages": 1.0,
      "NumberOfPhaseEncodingSteps": 105,
      "PercentPhaseFieldOfView": 100.0,
      "PercentSampling": 100.0,
      "PerformedProcedureStepStartTime": "201744.659000",
      "PhotometricInterpretation": "MONOCHROME2",
      "PixelBandwidth": 1700.0,
      "PixelRepresentation": 0,
      "PixelSpacing": [1.7142857313156, 1.7142857313156],
      "ProtocolName": "dwi_acq-discorr-AP",
      "RepetitionTime": 4100.0,
      "Rows": 140,
      "SAR": 0.17380425459744,
      "SamplesPerPixel": 1,
      "ScanOptions": [
        "PFP",
        "FS"
],
      "ScanningSequence": "EP",
      "SequenceName": "ep_b0",
      "SequenceVariant": [
        "SK",
        "SS"
],
      "SeriesDescription": "dwi_acq-discorr-AP",
      "SeriesNumber": 7,
      "SeriesTime": "202757.730000",
      "SliceThickness": 1.7000000476837,
      "SmallestImagePixelValue": 0,
      "SoftwareVersions": "syngo MR E11",
      "SpacingBetweenSlices": 1.7,
      "SpecificCharacterSet": "ISO_IR 100",
      "StudyID": "1",
      "StudyTime": "201744.605000",
      "TransmitCoilName": "Body",
      "VariableFlipAngleFlag": "N",
      "WindowCenterWidthExplanation": "Algo1"
    },
    "slices": {
      "AcquisitionTime": ["202753.005000", "202755.122500", "202753.157500", "202755.272500", "202753.307500", "202755.425000", "202753.460000", "202755.575000", "202753.610000", "202755.725000", "202753.762500", "202755.877500", "202753.912500", "202756.027500", "202754.065000", "202756.180000", "202754.215000", "202756.330000", "202754.365000", "202756.482500", "202754.517500", "202756.632500", "202754.667500", "202756.785000", "202754.820000", "202756.935000", "202754.970000", "202753.005000", "202755.122500", "202753.157500", "202755.272500", "202753.307500", "202755.425000", "202753.460000", "202755.575000", "202753.610000", "202755.725000", "202753.762500", "202755.877500", "202753.912500", "202756.027500", "202754.065000", "202756.180000", "202754.215000", "202756.330000", "202754.365000", "202756.482500", "202754.517500", "202756.632500", "202754.667500", "202756.785000", "202754.820000", "202756.935000", "202754.970000", "202753.005000", "202755.122500", "202753.157500", "202755.272500", "202753.307500", "202755.425000", "202753.460000", "202755.575000", "202753.610000", "202755.725000", "202753.762500", "202755.877500", "202753.912500", "202756.027500", "202754.065000", "202756.180000", "202754.215000", "202756.330000", "202754.365000", "202756.482500", "202754.517500", "202756.632500", "202754.667500", "202756.785000", "202754.820000", "202756.935000", "202754.970000"],
      "ContentTime": ["202757.733000", "202757.820000", "202757.740000", "202757.825000", "202757.746000", "202757.835000", "202757.752000", "202757.841000", "202757.760000", "202757.847000", "202757.766000", "202757.854000", "202757.772000", "202757.861000", "202757.778000", "202757.868000", "202757.784000", "202757.874000", "202757.790000", "202757.880000", "202757.796000", "202757.887000", "202757.802000", "202757.893000", "202757.808000", "202757.899000", "202757.814000", "202757.736000", "202757.821000", "202757.742000", "202757.827000", "202757.748000", "202757.837000", "202757.754000", "202757.843000", "202757.762000", "202757.849000", "202757.768000", "202757.856000", "202757.774000", "202757.863000", "202757.780000", "202757.870000", "202757.786000", "202757.876000", "202757.792000", "202757.883000", "202757.798000", "202757.889000", "202757.804000", "202757.895000", "202757.810000", "202757.901000", "202757.816000", "202757.738000", "202757.823000", "202757.744000", "202757.829000", "202757.750000", "202757.839000", "202757.758000", "202757.845000", "202757.764000", "202757.852000", "202757.770000", "202757.859000", "202757.776000", "202757.865000", "202757.782000", "202757.872000", "202757.788000", "202757.878000", "202757.794000", "202757.885000", "202757.800000", "202757.891000", "202757.806000", "202757.897000", "202757.812000", "202757.903000", "202757.818000"],
      "CsaImage.GSWDDataType": [
        "predicted",
        "predicted",
        "predicted",
        "predicted",
        "predicted",
        "predicted",
        "predicted",
        "predicted",
        "predicted",
        "predicted",
        "predicted",
        "predicted",
        "predicted",
        "predicted",
        "predicted",
        "predicted",
        "predicted",
        "predicted",
        "predicted",
        "predicted",
        "predicted",
        "predicted",
        "predicted",
        "measured",
        "predicted",
        "measured",
        "predicted",
        "predicted",
        "predicted",
        "predicted",
        "predicted",
        "predicted",
        "predicted",
        "predicted",
        "predicted",
        "predicted",
        "predicted",
        "predicted",
        "predicted",
        "predicted",
        "predicted",
        "predicted",
        "predicted",
        "predicted",
        "predicted",
        "predicted",
        "predicted",
        "predicted",
        "predicted",
        "predicted",
        "measured",
        "predicted",
        "measured",
        "predicted",
        "predicted",
        "predicted",
        "predicted",
        "predicted",
        "predicted",
        "predicted",
        "predicted",
        "predicted",
        "predicted",
        "predicted",
        "predicted",
        "predicted",
        "predicted",
        "predicted",
        "predicted",
        "predicted",
        "predicted",
        "predicted",
        "predicted",
        "predicted",
        "predicted",
        "predicted",
        "predicted",
        "measured",
        "predicted",
        "measured",
        "predicted"
],
      "CsaImage.ICE_Dims": [
        "X_1_1_1_1_1_1_1_1_1_1_1_255",
        "X_1_1_1_1_1_1_42_1_1_2_1_255",
        "X_1_1_1_1_1_1_2_1_1_3_1_255",
        "X_1_1_1_1_1_1_43_1_1_4_1_255",
        "X_1_1_1_1_1_1_3_1_1_5_1_255",
        "X_1_1_1_1_1_1_44_1_1_6_1_255",
        "X_1_1_1_1_1_1_4_1_1_7_1_255",
        "X_1_1_1_1_1_1_45_1_1_8_1_255",
        "X_1_1_1_1_1_1_5_1_1_9_1_255",
        "X_1_1_1_1_1_1_46_1_1_10_1_255",
        "X_1_1_1_1_1_1_6_1_1_11_1_255",
        "X_1_1_1_1_1_1_47_1_1_12_1_255",
        "X_1_1_1_1_1_1_7_1_1_13_1_255",
        "X_1_1_1_1_1_1_48_1_1_14_1_255",
        "X_1_1_1_1_1_1_8_1_1_15_1_255",
        "X_1_1_1_1_1_1_49_1_1_16_1_255",
        "X_1_1_1_1_1_1_9_1_1_17_1_255",
        "X_1_1_1_1_1_1_50_1_1_18_1_255",
        "X_1_1_1_1_1_1_10_1_1_19_1_255",
        "X_1_1_1_1_1_1_51_1_1_20_1_255",
        "X_1_1_1_1_1_1_11_1_1_21_1_255",
        "X_1_1_1_1_1_1_52_1_1_22_1_255",
        "X_1_1_1_1_1_1_12_1_1_23_1_255",
        "X_1_1_1_1_1_1_53_1_1_24_1_255",
        "X_1_1_1_1_1_1_13_1_1_25_1_255",
        "X_1_1_1_1_1_1_54_1_1_26_1_255",
        "X_1_1_1_1_1_1_14_1_1_27_1_255",
        "X_1_1_1_1_1_1_55_1_1_28_1_255",
        "X_1_1_1_1_1_1_15_1_1_29_1_255",
        "X_1_1_1_1_1_1_56_1_1_30_1_255",
        "X_1_1_1_1_1_1_16_1_1_31_1_255",
        "X_1_1_1_1_1_1_57_1_1_32_1_255",
        "X_1_1_1_1_1_1_17_1_1_33_1_255",
        "X_1_1_1_1_1_1_58_1_1_34_1_255",
        "X_1_1_1_1_1_1_18_1_1_35_1_255",
        "X_1_1_1_1_1_1_59_1_1_36_1_255",
        "X_1_1_1_1_1_1_19_1_1_37_1_255",
        "X_1_1_1_1_1_1_60_1_1_38_1_255",
        "X_1_1_1_1_1_1_20_1_1_39_1_255",
        "X_1_1_1_1_1_1_61_1_1_40_1_255",
        "X_1_1_1_1_1_1_21_1_1_41_1_255",
        "X_1_1_1_1_1_1_62_1_1_42_1_255",
        "X_1_1_1_1_1_1_22_1_1_43_1_255",
        "X_1_1_1_1_1_1_63_1_1_44_1_255",
        "X_1_1_1_1_1_1_23_1_1_45_1_255",
        "X_1_1_1_1_1_1_64_1_1_46_1_255",
        "X_1_1_1_1_1_1_24_1_1_47_1_255",
        "X_1_1_1_1_1_1_65_1_1_48_1_255",
        "X_1_1_1_1_1_1_25_1_1_49_1_255",
        "X_1_1_1_1_1_1_66_1_1_50_1_255",
        "X_1_1_1_1_1_1_26_1_1_51_1_255",
        "X_1_1_1_1_1_1_67_1_1_52_1_255",
        "X_1_1_1_1_1_1_27_1_1_53_1_255",
        "X_1_1_1_1_1_1_68_1_1_54_1_255",
        "X_1_1_1_1_1_1_28_1_1_55_1_255",
        "X_1_1_1_1_1_1_69_1_1_56_1_255",
        "X_1_1_1_1_1_1_29_1_1_57_1_255",
        "X_1_1_1_1_1_1_70_1_1_58_1_255",
        "X_1_1_1_1_1_1_30_1_1_59_1_255",
        "X_1_1_1_1_1_1_71_1_1_60_1_255",
        "X_1_1_1_1_1_1_31_1_1_61_1_255",
        "X_1_1_1_1_1_1_72_1_1_62_1_255",
        "X_1_1_1_1_1_1_32_1_1_63_1_255",
        "X_1_1_1_1_1_1_73_1_1_64_1_255",
        "X_1_1_1_1_1_1_33_1_1_65_1_255",
        "X_1_1_1_1_1_1_74_1_1_66_1_255",
        "X_1_1_1_1_1_1_34_1_1_67_1_255",
        "X_1_1_1_1_1_1_75_1_1_68_1_255",
        "X_1_1_1_1_1_1_35_1_1_69_1_255",
        "X_1_1_1_1_1_1_76_1_1_70_1_255",
        "X_1_1_1_1_1_1_36_1_1_71_1_255",
        "X_1_1_1_1_1_1_77_1_1_72_1_255",
        "X_1_1_1_1_1_1_37_1_1_73_1_255",
        "X_1_1_1_1_1_1_78_1_1_74_1_255",
        "X_1_1_1_1_1_1_38_1_1_75_1_255",
        "X_1_1_1_1_1_1_79_1_1_76_1_255",
        "X_1_1_1_1_1_1_39_1_1_77_1_255",
        "X_1_1_1_1_1_1_80_1_1_78_1_255",
        "X_1_1_1_1_1_1_40_1_1_79_1_255",
        "X_1_1_1_1_1_1_81_1_1_80_1_255",
        "X_1_1_1_1_1_1_41_1_1_81_1_255"
],
      "CsaImage.ProtocolSliceNumber": [0, 1, 2, 3, 4, 5, 6, 7, 8, 9, 10, 11, 12, 13, 14, 15, 16, 17, 18, 19, 20, 21, 22, 23, 24, 25, 26, 27, 28, 29, 30, 31, 32, 33, 34, 35, 36, 37, 38, 39, 40, 41, 42, 43, 44, 45, 46, 47, 48, 49, 50, 51, 52, 53, 54, 55, 56, 57, 58, 59, 60, 61, 62, 63, 64, 65, 66, 67, 68, 69, 70, 71, 72, 73, 74, 75, 76, 77, 78, 79, 80],
      "CsaImage.RFSWDDataType": [
        "predicted",
        "predicted",
        "predicted",
        "predicted",
        "predicted",
        "predicted",
        "predicted",
        "predicted",
        "predicted",
        "predicted",
        "predicted",
        "predicted",
        "predicted",
        "predicted",
        "predicted",
        "predicted",
        "predicted",
        "predicted",
        "predicted",
        "predicted",
        "predicted",
        "predicted",
        "predicted",
        "measured",
        "predicted",
        "measured",
        "predicted",
        "predicted",
        "predicted",
        "predicted",
        "predicted",
        "predicted",
        "predicted",
        "predicted",
        "predicted",
        "predicted",
        "predicted",
        "predicted",
        "predicted",
        "predicted",
        "predicted",
        "predicted",
        "predicted",
        "predicted",
        "predicted",
        "predicted",
        "predicted",
        "predicted",
        "predicted",
        "predicted",
        "measured",
        "predicted",
        "measured",
        "predicted",
        "predicted",
        "predicted",
        "predicted",
        "predicted",
        "predicted",
        "predicted",
        "predicted",
        "predicted",
        "predicted",
        "predicted",
        "predicted",
        "predicted",
        "predicted",
        "predicted",
        "predicted",
        "predicted",
        "predicted",
        "predicted",
        "predicted",
        "predicted",
        "predicted",
        "predicted",
        "predicted",
        "measured",
        "predicted",
        "measured",
        "predicted"
],
      "CsaImage.SlicePosition_PCS": [
        [-117.158503, -136.03702253, -100.19418304],
        [-117.27773756, -136.39902776, -98.53746002],
        [-117.39697212, -136.761033, -96.88073699],
        [-117.51620668, -137.12303823, -95.22401016],
        [-117.63544119, -137.48504347, -93.56728713],
        [-117.75467578, -137.8470487, -91.91056411],
        [-117.87391034, -138.20905393, -90.25383727],
        [-117.99314489, -138.57105917, -88.59711425],
        [-118.11237944, -138.9330644, -86.94039123],
        [-118.231614, -139.29506963, -85.28366821],
        [-118.35084856, -139.65707487, -83.62694137],
        [-118.47008312, -140.0190801, -81.97021835],
        [-118.58931765, -140.38108534, -80.31349533],
        [-118.70855224, -140.74309057, -78.65676849],
        [-118.8277868, -141.1050958, -77.00004547],
        [-118.94702131, -141.46710104, -75.34332244],
        [-119.06625587, -141.82910627, -73.68659561],
        [-119.18549043, -142.1911115, -72.02987258],
        [-119.30472499, -142.55311674, -70.37314956],
        [-119.42395955, -142.91512197, -68.71642272],
        [-119.54319412, -143.27712721, -67.0596997],
        [-119.66242868, -143.63913244, -65.40297477],
        [-119.78166324, -144.00113767, -63.74625175],
        [-119.9008978, -144.36314291, -62.08952682],
        [-120.02013236, -144.72514814, -60.43280189],
        [-120.13936693, -145.08715338, -58.77607887],
        [-120.25860137, -145.44915861, -57.11935394],
        [-120.37783593, -145.81116384, -55.46262901],
        [-120.49707049, -146.17316908, -53.80590599],
        [-120.61630505, -146.53517431, -52.14918106],
        [-120.73553962, -146.89717954, -50.49245613],
        [-120.85477418, -147.25918478, -48.8357331],
        [-120.97400874, -147.62119001, -47.17900817],
        [-121.0932433, -147.98319525, -45.5222842],
        [-121.21247786, -148.34519857, -43.86556022],
        [-121.33171243, -148.70720381, -42.20883529],
        [-121.45094699, -149.06921095, -40.55211131],
        [-121.57018155, -149.43121427, -38.89538734],
        [-121.68941611, -149.79322141, -37.23866289],
        [-121.80865067, -150.15522474, -35.58193867],
        [-121.92788524, -150.51723188, -33.92521446],
        [-122.0471198, -150.87923521, -32.26849024],
        [-122.16635412, -151.24124235, -30.61176603],
        [-122.28558868, -151.60324568, -28.95504157],
        [-122.40482325, -151.96525282, -27.2983176],
        [-122.52405781, -152.32725614, -25.64159362],
        [-122.64329237, -152.68926328, -23.98486869],
        [-122.76252693, -153.05126661, -22.32814472],
        [-122.88176149, -153.41327375, -20.67142074],
        [-123.00099605, -153.77527708, -19.01469581],
        [-123.12023062, -154.13728422, -17.35797279],
        [-123.23946518, -154.49928755, -15.70124786],
        [-123.35869974, -154.86129087, -14.04452293],
        [-123.4779343, -155.22329801, -12.38779991],
        [-123.59716886, -155.58530134, -10.73107498],
        [-123.71640343, -155.94730848, -9.07435005],
        [-123.83563799, -156.30931181, -7.41762702],
        [-123.95487255, -156.67131895, -5.76090209],
        [-124.07410711, -157.03332227, -4.10417716],
        [-124.19334167, -157.39532942, -2.44745414],
        [-124.31257624, -157.75733274, -0.79072921],
        [-124.4318108, -158.11933988, 0.86599381],
        [-124.55104536, -158.48134321, 2.52272065],
        [-124.67027992, -158.84335035, 4.17944367],
        [-124.78951448, -159.20535368, 5.83616669],
        [-124.90874905, -159.56736082, 7.49289353],
        [-125.02798361, -159.92936414, 9.14961655],
        [-125.14721817, -160.29137129, 10.80633957],
        [-125.26645273, -160.65337461, 12.46306641],
        [-125.38568729, -161.01538175, 14.11978943],
        [-125.50492186, -161.37738508, 15.77651246],
        [-125.62415642, -161.73939222, 17.43323929],
        [-125.74339098, -162.10139555, 19.08996232],
        [-125.86262554, -162.46340269, 20.74668534],
        [-125.9818601, -162.82540601, 22.40340836],
        [-126.10109466, -163.18741316, 24.0601352],
        [-126.22032923, -163.54941648, 25.71685822],
        [-126.33956427, -163.91142362, 27.37358124],
        [-126.45879835, -164.27342695, 29.03030808],
        [-126.57803339, -164.63543409, 30.68703492],
        [-126.69726747, -164.99743742, 32.34375794]
],
      "CsaImage.TimeAfterStart": [16.4, 18.515, 16.5525, 18.6675, 16.7025, 18.8175, 16.855, 18.97, 17.005, 19.12, 17.155, 19.2725, 17.3075, 19.4225, 17.4575, 19.575, 17.61, 19.725, 17.76, 19.875, 17.9125, 20.0275, 18.0625, 20.1775, 18.215, 20.33, 18.365, 16.4, 18.515, 16.5525, 18.6675, 16.7025, 18.8175, 16.855, 18.97, 17.005, 19.12, 17.155, 19.2725, 17.3075, 19.4225, 17.4575, 19.575, 17.61, 19.725, 17.76, 19.875, 17.9125, 20.0275, 18.0625, 20.1775, 18.215, 20.33, 18.365, 16.4, 18.515, 16.5525, 18.6675, 16.7025, 18.8175, 16.855, 18.97, 17.005, 19.12, 17.155, 19.2725, 17.3075, 19.4225, 17.4575, 19.575, 17.61, 19.725, 17.76, 19.875, 17.9125, 20.0275, 18.0625, 20.1775, 18.215, 20.33, 18.365],
      "ImagePositionPatient": [
        [-117.15850299755, -136.03702253089, -100.19418303889],
        [-117.27773755947, -136.39902776465, -98.537460016432],
        [-117.39697212139, -136.76103299842, -96.880736993971],
        [-117.51620668331, -137.12303823218, -95.224010156813],
        [-117.63544118562, -137.48504346595, -93.567287134352],
        [-117.75467577734, -137.84704869971, -91.910564111891],
        [-117.87391033926, -138.20905393347, -90.253837274733],
        [-117.99314488628, -138.57105916724, -88.597114252272],
        [-118.11237944075, -138.933064401, -86.940391229811],
        [-118.23161399522, -139.29506963477, -85.28366820735],
        [-118.35084855714, -139.65707486853, -83.626941370192],
        [-118.47008311906, -140.0190801023, -81.970218347731],
        [-118.58931765118, -140.38108533606, -80.31349532527],
        [-118.7085522429, -140.74309056983, -78.656768488111],
        [-118.82778680482, -141.10509580359, -77.000045465651],
        [-118.94702130714, -141.46710103736, -75.34332244319],
        [-119.06625586906, -141.82910627112, -73.686595606031],
        [-119.18549043098, -142.19111150489, -72.02987258357],
        [-119.3047249929, -142.55311673865, -70.373149561109],
        [-119.42395955482, -142.91512197242, -68.716422723951],
        [-119.54319411674, -143.27712720618, -67.05969970149],
        [-119.66242867866, -143.63913243994, -65.402974771681],
        [-119.78166324058, -144.00113767371, -63.74625174922],
        [-119.9008978025, -144.36314290747, -62.08952681941],
        [-120.02013236442, -144.72514814124, -60.432801889601],
        [-120.13936692634, -145.087153375, -58.77607886714],
        [-120.25860136905, -145.44915860877, -57.11935393733],
        [-120.37783593097, -145.81116384253, -55.462629007521],
        [-120.49707049289, -146.1731690763, -53.80590598506],
        [-120.61630505481, -146.53517431006, -52.14918105525],
        [-120.73553961673, -146.89717954383, -50.492456125441],
        [-120.85477417865, -147.25918477759, -48.83573310298],
        [-120.97400874057, -147.62119001136, -47.17900817317],
        [-121.09324330249, -147.98319524512, -45.522284197035],
        [-121.21247786441, -148.34519857154, -43.8655602209],
        [-121.33171242633, -148.7072038053, -42.20883529109],
        [-121.45094698825, -149.06921094641, -40.552111314955],
        [-121.57018155017, -149.43121427283, -38.895387338819],
        [-121.68941611209, -149.79322141394, -37.238662885847],
        [-121.80865067401, -150.15522474036, -35.581938671293],
        [-121.92788523593, -150.51723188147, -33.925214456739],
        [-122.04711979785, -150.87923520789, -32.268490242186],
        [-122.16635412136, -151.241242349, -30.611766027632],
        [-122.28558868328, -151.60324567542, -28.955041574659],
        [-122.4048232452, -151.96525281653, -27.298317598524],
        [-122.52405780712, -152.32725614295, -25.641593622389],
        [-122.64329236904, -152.68926328406, -23.984868692579],
        [-122.76252693096, -153.05126661048, -22.328144716444],
        [-122.88176149288, -153.41327375159, -20.671420740309],
        [-123.0009960548, -153.77527707801, -19.014695810499],
        [-123.12023061672, -154.13728421912, -17.357972788038],
        [-123.23946517864, -154.49928754554, -15.701247858229],
        [-123.35869974056, -154.86129087195, -14.044522928419],
        [-123.47793430248, -155.22329801306, -12.387799905958],
        [-123.5971688644, -155.58530133948, -10.731074976149],
        [-123.71640342632, -155.94730848059, -9.074350046339],
        [-123.83563798824, -156.30931180701, -7.417627023878],
        [-123.95487255016, -156.67131894812, -5.7609020940685],
        [-124.07410711208, -157.03332227454, -4.1041771642589],
        [-124.193341674, -157.39532941565, -2.447454141798],
        [-124.31257623592, -157.75733274207, -0.7907292119884],
        [-124.43181079784, -158.11933988318, 0.86599381047254],
        [-124.55104535976, -158.4813432096, 2.5227206476307],
        [-124.67027992168, -158.84335035071, 4.1794436700917],
        [-124.7895144836, -159.20535367713, 5.8361666925526],
        [-124.90874904552, -159.56736081824, 7.4928935297108],
        [-125.02798360744, -159.92936414466, 9.1496165521718],
        [-125.14721816936, -160.29137128577, 10.806339574633],
        [-125.26645273128, -160.65337461219, 12.463066411791],
        [-125.3856872932, -161.0153817533, 14.119789434252],
        [-125.50492185512, -161.37738507971, 15.776512456713],
        [-125.62415641704, -161.73939222083, 17.433239293871],
        [-125.74339097896, -162.10139554724, 19.089962316332],
        [-125.86262554088, -162.46340268836, 20.746685338793],
        [-125.9818601028, -162.82540601477, 22.403408361254],
        [-126.10109466472, -163.18741315589, 24.060135198412],
        [-126.22032922664, -163.5494164823, 25.716858220873],
        [-126.3395642654, -163.91142362342, 27.373581243334],
        [-126.45879835048, -164.27342694983, 29.030308080492],
        [-126.57803338924, -164.63543409095, 30.68703491765],
        [-126.69726747432, -164.99743741736, 32.343757940111]
],
      "InstanceCreationTime": ["202757.733000", "202757.820000", "202757.740000", "202757.825000", "202757.746000", "202757.835000", "202757.752000", "202757.841000", "202757.760000", "202757.847000", "202757.766000", "202757.854000", "202757.772000", "202757.861000", "202757.778000", "202757.868000", "202757.784000", "202757.874000", "202757.790000", "202757.880000", "202757.796000", "202757.887000", "202757.802000", "202757.893000", "202757.808000", "202757.899000", "202757.814000", "202757.736000", "202757.821000", "202757.742000", "202757.827000", "202757.748000", "202757.837000", "202757.754000", "202757.843000", "202757.762000", "202757.849000", "202757.768000", "202757.856000", "202757.774000", "202757.863000", "202757.780000", "202757.870000", "202757.786000", "202757.876000", "202757.792000", "202757.883000", "202757.798000", "202757.889000", "202757.804000", "202757.895000", "202757.810000", "202757.901000", "202757.816000", "202757.738000", "202757.823000", "202757.744000", "202757.829000", "202757.750000", "202757.839000", "202757.758000", "202757.845000", "202757.764000", "202757.852000", "202757.770000", "202757.859000", "202757.776000", "202757.865000", "202757.782000", "202757.872000", "202757.788000", "202757.878000", "202757.794000", "202757.885000", "202757.800000", "202757.891000", "202757.806000", "202757.897000", "202757.812000", "202757.903000", "202757.818000"],
      "InstanceNumber": [1, 2, 3, 4, 5, 6, 7, 8, 9, 10, 11, 12, 13, 14, 15, 16, 17, 18, 19, 20, 21, 22, 23, 24, 25, 26, 27, 28, 29, 30, 31, 32, 33, 34, 35, 36, 37, 38, 39, 40, 41, 42, 43, 44, 45, 46, 47, 48, 49, 50, 51, 52, 53, 54, 55, 56, 57, 58, 59, 60, 61, 62, 63, 64, 65, 66, 67, 68, 69, 70, 71, 72, 73, 74, 75, 76, 77, 78, 79, 80, 81],
      "LargestImagePixelValue": [18716, 13295, 14254, 13664, 19022, 16629, 19216, 22492, 27206, 25174, 27825, 24714, 25620, 30025, 43686, 29094, 31081, 29552, 33940, 44663, 50688, 65535, 65535, 55399, 59078, 50287, 41177, 41423, 51886, 65535, 52646, 47231, 35958, 41201, 51879, 49154, 65535, 65535, 42567, 34643, 36223, 37521, 34779, 36630, 37199, 35786, 39971, 37548, 40069, 39664, 39202, 47447, 53940, 65535, 63884, 64984, 64445, 65535, 65535, 65535, 65535, 56513, 50398, 47739, 55187, 65535, 54608, 42986, 60637, 45267, 53159, 52259, 50409, 51518, 56189, 56673, 57989, 47180, 43575, 38808, 26136],
      "SliceLocation": [-60.458048488765, -58.758049711359, -57.058050933954, -55.358048438959, -53.658049665733, -51.958050886237, -50.258048391242, -48.558049614882, -46.858050837998, -45.158052061115, -43.45804956612, -41.758050788714, -40.058052013399, -38.358049516313, -36.658050738908, -34.958051965682, -33.258049470687, -31.558050693281, -29.858051915876, -28.158049420881, -26.458050643475, -24.758050007274, -23.058051229869, -21.358050593668, -19.658049957468, -17.958051180062, -16.258050552223, -14.558049916022, -12.858051138616, -11.158050502416, -9.4580498662156, -7.7580510888097, -6.0580504526093, -4.3580507458062, -2.658051445162, -0.9580508089616, 0.74194930400044, 2.4419486046447, 4.1419491823053, 5.8419487152989, 7.5419490606102, 9.2419485936037, 10.941948922193, 12.641948687536, 14.341948800498, 16.041948101142, 17.741949143501, 19.441948444146, 21.141948557108, 22.841948787149, 24.541947970714, 26.241948200755, 27.941948430797, 29.641947614362, 31.341947844403, 33.041948886762, 34.741947258009, 36.441948300369, 38.14194853041, 39.841947713975, 41.541947944016, 43.241947127581, 44.941949216417, 46.641948399982, 48.341946771229, 50.041949672383, 51.74194804363, 53.441947227194, 55.14194931603, 56.841948499595, 58.541946870842, 60.241949771996, 61.941948143243, 63.641947326808, 65.341945698055, 67.041948599208, 68.741946970455, 70.441946187465, 72.141948242856, 73.841951177455, 75.541949515257],
