{
  "AcquisitionMatrixPE": 82,
  "AcquisitionNumber": 1,
  "AcquisitionTime": "16:01:1.557500",
  "BandwidthPerPixelPhaseEncode": 24.888,
  "BaseResolution": 82,
  "BodyPartExamined": "BRAIN",
  "ConsistencyInfo": "N4_VE11C_LATEST_20160120",
  "ConversionSoftware": "dcm2niix",
  "ConversionSoftwareVersion": "v1.0.20201102",
  "DerivedVendorReportedEchoSpacing": 0.00049,
  "DeviceSerialNumber": "66112",
  "DwellTime": 2e-06,
  "EchoTime": 0.0272,
  "EchoTrainLength": 82,
  "EffectiveEchoSpacing": 0.00049,
  "FlipAngle": 44,
  "ImageComments": "Unaliased MB8/PE3",
  "ImageOrientationPatientDICOM": [0.997076, 0.00910967, 0.0758703, -0.0102677, 0.999836, 0.014887],
  "ImageType": [
    "ORIGINAL",
    "PRIMARY",
    "M",
    "MB",
    "ND",
    "NORM",
    "MOSAIC"
],
  "ImagingFrequency": 123.252,
  "InPlanePhaseEncodingDirectionDICOM": "COL",
  "InstitutionAddress": "Maynard 3,Hanover,NH,US,03755",
  "InstitutionName": "Dartmouth College - PBS",
  "InstitutionalDepartmentName": "Department",
  "MRAcquisitionType": "2D",
  "MagneticFieldStrength": 3,
  "Manufacturer": "Siemens",
  "ManufacturersModelName": "Prisma",
  "Modality": "MR",
  "MultibandAccelerationFactor": 8,
  "PartialFourier": 1,
  "PatientPosition": "HFS",
  "PercentPhaseFOV": 100,
  "PercentSampling": 100,
  "PhaseEncodingDirection": "j-",
  "PhaseEncodingSteps": 82,
  "PhaseResolution": 1,
  "PixelBandwidth": 3050,
  "ProcedureStepDescription": "Wager_Wager^1076_spacetop",
  "ProtocolName": "func_run-01_task-alignvideo_acq-ap-mb8",
  "PulseSequenceDetails": "%CustomerSeq%\\cmrr_mbep2d_bold",
  "ReceiveCoilActiveElements": "HEA;HEP",
  "ReceiveCoilName": "Head_32",
  "ReconMatrixPE": 82,
  "RepetitionTime": 0.46,
  "SAR": 0.0774032,
  "ScanOptions": "FS",
  "ScanningSequence": "EP",
  "SequenceName": "epfid2d1_82",
  "SequenceVariant": "SK\\SS",
  "SeriesDescription": "func_run-01_task-alignvideo_acq-ap-mb8",
  "SeriesNumber": 30,
  "ShimSetting": [4148, -7735, -7267, 659, -10, -204, 30, 63],
  "SliceThickness": 2.7,
  "SliceTiming": [0, 0.2525, 0.0625, 0.315, 0.125, 0.3775, 0.19, 0, 0.2525, 0.0625, 0.315, 0.125, 0.3775, 0.19, 0, 0.2525, 0.0625, 0.315, 0.125, 0.3775, 0.19, 0, 0.2525, 0.0625, 0.315, 0.125, 0.3775, 0.19, 0, 0.2525, 0.0625, 0.315, 0.125, 0.3775, 0.19, 0, 0.2525, 0.0625, 0.315, 0.125, 0.3775, 0.19, 0, 0.2525, 0.0625, 0.315, 0.125, 0.3775, 0.19, 0, 0.2525, 0.0625, 0.315, 0.125, 0.3775, 0.19],
  "SoftwareVersions": "syngo MR E11",
  "SpacingBetweenSlices": 2.7,
  "StationName": "AWP66112",
  "TaskName": "alignvideo",
  "TotalReadoutTime": 0.03969,
  "TxRefAmp": 226.791,
  "WipMemBlock": "c27e9f14-f4f4-4659-a93f-63d8ec0c8b82||Sequence: R016 ve11c/master r/e634e98; Dec 19 2017 11:00:25 by eja",
  "dcmmeta_affine": [
    [-2.675082206726074, -0.027547448873519897, 0.2044501006603241, 112.47640991210938],
    [-0.0244405809789896, 2.682488203048706, 0.042180776596069336, -99.13988494873047],
    [0.2035544216632843, -0.03994080051779747, 2.691917657852173, -78.34561920166016],
    [0.0, 0.0, 0.0, 1.0]
],
  "dcmmeta_reorient_transform": [
    [0.0, -1.0, 0.0, 81.0],
    [1.0, 0.0, 0.0, 0.0],
    [0.0, 0.0, 1.0, 0.0],
    [0.0, 0.0, 0.0, 1.0]
],
  "dcmmeta_shape": [82, 82, 56, 1073],
  "dcmmeta_slice_dim": 2,
  "dcmmeta_version": 0.6,
  "global": {
    "const": {
      "AccessionNumber": "A003468",
      "AcquisitionMatrix": [82, 0, 0, 82],
      "AngioFlag": "N",
      "BitsAllocated": 16,
      "BitsStored": 16,
      "BodyPartExamined": "BRAIN",
      "Columns": 656,
      "EchoNumbers": 1,
      "EchoTime": 27.2,
      "EchoTrainLength": 82,
      "FlipAngle": 44.0,
      "HighBit": 15,
      "ImageOrientationPatient": [0.99707608240867, 0.0091096706113, 0.0758702826536, -0.0102676855343, 0.9998364621805, 0.01488702549736],
      "ImagePositionPatient": [-870.08754750097, -895.03019649364, -151.46395199791],
      "ImageType": [
        "ORIGINAL",
        "PRIMARY",
        "M",
        "MB",
        "ND",
        "NORM",
        "MOSAIC"
],
      "ImagedNucleus": "1H",
      "ImagingFrequency": 123.252183,
      "InPlanePhaseEncodingDirection": "COL",
      "MRAcquisitionType": "2D",
      "MagneticFieldStrength": 3.0,
      "Manufacturer": "SIEMENS",
      "ManufacturerModelName": "Prisma",
      "Modality": "MR",
      "NumberOfAverages": 1.0,
      "NumberOfPhaseEncodingSteps": 82,
      "PercentPhaseFieldOfView": 100.0,
      "PercentSampling": 100.0,
      "PerformedProcedureStepStartTime": "142114.224000",
      "PhotometricInterpretation": "MONOCHROME2",
      "PixelBandwidth": 3050.0,
      "PixelRepresentation": 0,
      "PixelSpacing": [2.6829268932343, 2.6829268932343],
      "ProtocolName": "func_run-01_task-alignvideo_acq-ap-mb8",
      "RepetitionTime": 460.0,
      "Rows": 656,
      "SAR": 0.07740324302884,
      "SamplesPerPixel": 1,
      "ScanOptions": "FS",
      "ScanningSequence": "EP",
      "SequenceName": "epfid2d1_82",
      "SequenceVariant": [
        "SK",
        "SS"
],
      "SeriesDescription": "func_run-01_task-alignvideo_acq-ap-mb8",
      "SeriesNumber": 30,
      "SeriesTime": "160129.348000",
      "SliceLocation": -71.142941197425,
      "SliceThickness": 2.7000000476837,
      "SmallestImagePixelValue": 0,
      "SoftwareVersions": "syngo MR E11",
      "SpacingBetweenSlices": 2.6999999904767,
      "SpecificCharacterSet": "ISO_IR 100",
      "StudyID": "1",
      "StudyTime": "142114.141000",
      "TransmitCoilName": "Body",
      "VariableFlipAngleFlag": "N",
      "WindowCenterWidthExplanation": "Algo1",
      "dBdt": 0.0},
    "slices": {}
  },
  "time": {
    "samples": {
      "AcquisitionNumber": [1, 2, 3, 4, 5, 6, 7, 8, 9, 10, 11, 12, 13, 14, 15, 16, 17, 18, 19, 20, 21, 22, 23, 24, 25, 26, 27, 28, 29, 30, 31, 32, 33, 34, 35, 36, 37, 38, 39, 40, 41, 42, 43, 44, 45, 46, 47, 48, 49, 50, 51, 52, 53, 54, 55, 56, 57, 58, 59, 60, 61, 62, 63, 64, 65, 66, 67, 68, 69, 70, 71, 72, 73, 74, 75, 76, 77, 78, 79, 80, 81, 82, 83, 84, 85, 86, 87, 88, 89, 90, 91, 92, 93, 94, 95, 96, 97, 98, 99, 100, 101, 102, 103, 104, 105, 106, 107, 108, 109, 110, 111, 112, 113, 114, 115, 116, 117, 118, 119, 120, 121, 122, 123, 124, 125, 126, 127, 128, 129, 130, 131, 132, 133, 134, 135, 136, 137, 138, 139, 140, 141, 142, 143, 144, 145, 146, 147, 148, 149, 150, 151, 152, 153, 154, 155, 156, 157, 158, 159, 160, 161, 162, 163, 164, 165, 166, 167, 168, 169, 170, 171, 172, 173, 174, 175, 176, 177, 178, 179, 180, 181, 182, 183, 184, 185, 186, 187, 188, 189, 190, 191, 192, 193, 194, 195, 196, 197, 198, 199, 200, 201, 202, 203, 204, 205, 206, 207, 208, 209, 210, 211, 212, 213, 214, 215, 216, 217, 218, 219, 220, 221, 222, 223, 224, 225, 226, 227, 228, 229, 230, 231, 232, 233, 234, 235, 236, 237, 238, 239, 240, 241, 242, 243, 244, 245, 246, 247, 248, 249, 250, 251, 252, 253, 254, 255, 256, 257, 258, 259, 260, 261, 262, 263, 264, 265, 266, 267, 268, 269, 270, 271, 272, 273, 274, 275, 276, 277, 278, 279, 280, 281, 282, 283, 284, 285, 286, 287, 288, 289, 290, 291, 292, 293, 294, 295, 296, 297, 298, 299, 300, 301, 302, 303, 304, 305, 306, 307, 308, 309, 310, 311, 312, 313, 314, 315, 316, 317, 318, 319, 320, 321, 322, 323, 324, 325, 326, 327, 328, 329, 330, 331, 332, 333, 334, 335, 336, 337, 338, 339, 340, 341, 342, 343, 344, 345, 346, 347, 348, 349, 350, 351, 352, 353, 354, 355, 356, 357, 358, 359, 360, 361, 362, 363, 364, 365, 366, 367, 368, 369, 370, 371, 372, 373, 374, 375, 376, 377, 378, 379, 380, 381, 382, 383, 384, 385, 386, 387, 388, 389, 390, 391, 392, 393, 394, 395, 396, 397, 398, 399, 400, 401, 402, 403, 404, 405, 406, 407, 408, 409, 410, 411, 412, 413, 414, 415, 416, 417, 418, 419, 420, 421, 422, 423, 424, 425, 426, 427, 428, 429, 430, 431, 432, 433, 434, 435, 436, 437, 438, 439, 440, 441, 442, 443, 444, 445, 446, 447, 448, 449, 450, 451, 452, 453, 454, 455, 456, 457, 458, 459, 460, 461, 462, 463, 464, 465, 466, 467, 468, 469, 470, 471, 472, 473, 474, 475, 476, 477, 478, 479, 480, 481, 482, 483, 484, 485, 486, 487, 488, 489, 490, 491, 492, 493, 494, 495, 496, 497, 498, 499, 500, 501, 502, 503, 504, 505, 506, 507, 508, 509, 510, 511, 512, 513, 514, 515, 516, 517, 518, 519, 520, 521, 522, 523, 524, 525, 526, 527, 528, 529, 530, 531, 532, 533, 534, 535, 536, 537, 538, 539, 540, 541, 542, 543, 544, 545, 546, 547, 548, 549, 550, 551, 552, 553, 554, 555, 556, 557, 558, 559, 560, 561, 562, 563, 564, 565, 566, 567, 568, 569, 570, 571, 572, 573, 574, 575, 576, 577, 578, 579, 580, 581, 582, 583, 584, 585, 586, 587, 588, 589, 590, 591, 592, 593, 594, 595, 596, 597, 598, 599, 600, 601, 602, 603, 604, 605, 606, 607, 608, 609, 610, 611, 612, 613, 614, 615, 616, 617, 618, 619, 620, 621, 622, 623, 624, 625, 626, 627, 628, 629, 630, 631, 632, 633, 634, 635, 636, 637, 638, 639, 640, 641, 642, 643, 644, 645, 646, 647, 648, 649, 650, 651, 652, 653, 654, 655, 656, 657, 658, 659, 660, 661, 662, 663, 664, 665, 666, 667, 668, 669, 670, 671, 672, 673, 674, 675, 676, 677, 678, 679, 680, 681, 682, 683, 684, 685, 686, 687, 688, 689, 690, 691, 692, 693, 694, 695, 696, 697, 698, 699, 700, 701, 702, 703, 704, 705, 706, 707, 708, 709, 710, 711, 712, 713, 714, 715, 716, 717, 718, 719, 720, 721, 722, 723, 724, 725, 726, 727, 728, 729, 730, 731, 732, 733, 734, 735, 736, 737, 738, 739, 740, 741, 742, 743, 744, 745, 746, 747, 748, 749, 750, 751, 752, 753, 754, 755, 756, 757, 758, 759, 760, 761, 762, 763, 764, 765, 766, 767, 768, 769, 770, 771, 772, 773, 774, 775, 776, 777, 778, 779, 780, 781, 782, 783, 784, 785, 786, 787, 788, 789, 790, 791, 792, 793, 794, 795, 796, 797, 798, 799, 800, 801, 802, 803, 804, 805, 806, 807, 808, 809, 810, 811, 812, 813, 814, 815, 816, 817, 818, 819, 820, 821, 822, 823, 824, 825, 826, 827, 828, 829, 830, 831, 832, 833, 834, 835, 836, 837, 838, 839, 840, 841, 842, 843, 844, 845, 846, 847, 848, 849, 850, 851, 852, 853, 854, 855, 856, 857, 858, 859, 860, 861, 862, 863, 864, 865, 866, 867, 868, 869, 870, 871, 872, 873, 874, 875, 876, 877, 878, 879, 880, 881, 882, 883, 884, 885, 886, 887, 888, 889, 890, 891, 892, 893, 894, 895, 896, 897, 898, 899, 900, 901, 902, 903, 904, 905, 906, 907, 908, 909, 910, 911, 912, 913, 914, 915, 916, 917, 918, 919, 920, 921, 922, 923, 924, 925, 926, 927, 928, 929, 930, 931, 932, 933, 934, 935, 936, 937, 938, 939, 940, 941, 942, 943, 944, 945, 946, 947, 948, 949, 950, 951, 952, 953, 954, 955, 956, 957, 958, 959, 960, 961, 962, 963, 964, 965, 966, 967, 968, 969, 970, 971, 972, 973, 974, 975, 976, 977, 978, 979, 980, 981, 982, 983, 984, 985, 986, 987, 988, 989, 990, 991, 992, 993, 994, 995, 996, 997, 998, 999, 1000, 1001, 1002, 1003, 1004, 1005, 1006, 1007, 1008, 1009, 1010, 1011, 1012, 1013, 1014, 1015, 1016, 1017, 1018, 1019, 1020, 1021, 1022, 1023, 1024, 1025, 1026, 1027, 1028, 1029, 1030, 1031, 1032, 1033, 1034, 1035, 1036, 1037, 1038, 1039, 1040, 1041, 1042, 1043, 1044, 1045, 1046, 1047, 1048, 1049, 1050, 1051, 1052, 1053, 1054, 1055, 1056, 1057, 1058, 1059, 1060, 1061, 1062, 1063, 1064, 1065, 1066, 1067, 1068, 1069, 1070, 1071, 1072, 1073],
      "AcquisitionTime": ["160101.557500", "160102.017500", "160102.477500", "160102.937500", "160103.397500", "160103.857500", "160104.317500", "160104.777500", "160105.237500", "160105.697500", "160106.157500", "160106.617500", "160107.077500", "160107.537500", "160107.997500", "160108.457500", "160108.917500", "160109.377500", "160109.837500", "160110.297500", "160110.757500", "160111.217500", "160111.677500", "160112.137500", "160112.597500", "160113.057500", "160113.517500", "160113.977500", "160114.437500", "160114.897500", "160115.357500", "160115.817500", "160116.277500", "160116.737500", "160117.197500", "160117.657500", "160118.117500", "160118.577500", "160119.037500", "160119.497500", "160119.957500", "160120.417500", "160120.877500", "160121.337500", "160121.797500", "160122.257500", "160122.717500", "160123.177500", "160123.637500", "160124.097500", "160124.557500", "160125.017500", "160125.477500", "160125.937500", "160126.397500", "160126.857500", "160127.317500", "160127.777500", "160128.237500", "160128.697500", "160129.157500", "160129.617500", "160130.077500", "160130.537500", "160130.997500", "160131.457500", "160131.917500", "160132.377500", "160132.837500", "160133.297500", "160133.757500", "160134.217500", "160134.677500", "160135.137500", "160135.597500", "160136.057500", "160136.517500", "160136.977500", "160137.437500", "160137.897500", "160138.357500", "160138.817500", "160139.277500", "160139.737500", "160140.197500", "160140.657500", "160141.117500", "160141.577500", "160142.037500", "160142.497500", "160142.957500", "160143.417500", "160143.877500", "160144.337500", "160144.797500", "160145.257500", "160145.717500", "160146.177500", "160146.637500", "160147.097500", "160147.557500", "160148.017500", "160148.477500", "160148.937500", "160149.397500", "160149.857500", "160150.317500", "160150.777500", "160151.237500", "160151.697500", "160152.157500", "160152.617500", "160153.077500", "160153.537500", "160153.997500", "160154.457500", "160154.917500", "160155.377500", "160155.837500", "160156.297500", "160156.757500", "160157.217500", "160157.677500", "160158.137500", "160158.597500", "160159.057500", "160159.517500", "160159.977500", "160200.437500", "160200.897500", "160201.357500", "160201.817500", "160202.277500", "160202.737500", "160203.197500", "160203.657500", "160204.117500", "160204.577500", "160205.037500", "160205.497500", "160205.957500", "160206.417500", "160206.877500", "160207.337500", "160207.797500", "160208.257500", "160208.717500", "160209.177500", "160209.637500", "160210.097500", "160210.557500", "160211.017500", "160211.477500", "160211.937500", "160212.397500", "160212.857500", "160213.317500", "160213.777500", "160214.237500", "160214.697500", "160215.157500", "160215.617500", "160216.077500", "160216.537500", "160216.997500", "160217.457500", "160217.917500", "160218.377500", "160218.837500", "160219.297500", "160219.757500", "160220.217500", "160220.677500", "160221.137500", "160221.597500", "160222.057500", "160222.517500", "160222.977500", "160223.437500", "160223.897500", "160224.357500", "160224.817500", "160225.277500", "160225.737500", "160226.197500", "160226.657500", "160227.117500", "160227.577500", "160228.037500", "160228.497500", "160228.957500", "160229.417500", "160229.877500", "160230.337500", "160230.797500", "160231.257500", "160231.717500", "160232.177500", "160232.637500", "160233.097500", "160233.557500", "160234.017500", "160234.477500", "160234.937500", "160235.397500", "160235.857500", "160236.317500", "160236.777500", "160237.237500", "160237.697500", "160238.157500", "160238.617500", "160239.077500", "160239.537500", "160239.997500", "160240.457500", "160240.917500", "160241.377500", "160241.837500", "160242.297500", "160242.757500", "160243.217500", "160243.677500", "160244.137500", "160244.597500", "160245.057500", "160245.517500", "160245.977500", "160246.437500", "160246.897500", "160247.357500", "160247.817500", "160248.277500", "160248.737500", "160249.197500", "160249.657500", "160250.117500", "160250.577500", "160251.037500", "160251.497500", "160251.957500", "160252.417500", "160252.877500", "160253.337500", "160253.797500", "160254.257500", "160254.717500", "160255.177500", "160255.637500", "160256.097500", "160256.557500", "160257.017500", "160257.477500", "160257.937500", "160258.397500", "160258.857500", "160259.317500", "160259.777500", "160300.237500", "160300.697500", "160301.157500", "160301.617500", "160302.077500", "160302.537500", "160302.997500", "160303.457500", "160303.917500", "160304.377500", "160304.837500", "160305.297500", "160305.757500", "160306.217500", "160306.677500", "160307.137500", "160307.597500", "160308.057500", "160308.517500", "160308.977500", "160309.437500", "160309.897500", "160310.357500", "160310.817500", "160311.277500", "160311.737500", "160312.197500", "160312.657500", "160313.117500", "160313.577500", "160314.037500", "160314.497500", "160314.957500", "160315.417500", "160315.877500", "160316.337500", "160316.797500", "160317.257500", "160317.717500", "160318.177500", "160318.637500", "160319.097500", "160319.557500", "160320.017500", "160320.477500", "160320.937500", "160321.397500", "160321.857500", "160322.317500", "160322.777500", "160323.237500", "160323.697500", "160324.157500", "160324.617500", "160325.077500", "160325.537500", "160325.997500", "160326.457500", "160326.917500", "160327.377500", "160327.837500", "160328.297500", "160328.757500", "160329.217500", "160329.677500", "160330.137500", "160330.597500", "160331.057500", "160331.517500", "160331.977500", "160332.437500", "160332.897500", "160333.357500", "160333.817500", "160334.277500", "160334.737500", "160335.197500", "160335.657500", "160336.117500", "160336.577500", "160337.037500", "160337.497500", "160337.957500", "160338.417500", "160338.877500", "160339.337500", "160339.797500", "160340.257500", "160340.717500", "160341.177500", "160341.637500", "160342.097500", "160342.557500", "160343.017500", "160343.477500", "160343.937500", "160344.397500", "160344.857500", "160345.317500", "160345.777500", "160346.237500", "160346.697500", "160347.157500", "160347.617500", "160348.077500", "160348.537500", "160348.997500", "160349.457500", "160349.917500", "160350.377500", "160350.837500", "160351.297500", "160351.757500", "160352.217500", "160352.677500", "160353.137500", "160353.597500", "160354.057500", "160354.517500", "160354.977500", "160355.437500", "160355.897500", "160356.357500", "160356.817500", "160357.277500", "160357.737500", "160358.197500", "160358.657500", "160359.117500", "160359.577500", "160400.037500", "160400.497500", "160400.957500", "160401.417500", "160401.877500", "160402.337500", "160402.797500", "160403.257500", "160403.717500", "160404.177500", "160404.637500", "160405.097500", "160405.557500", "160406.017500", "160406.477500", "160406.937500", "160407.397500", "160407.857500", "160408.317500", "160408.777500", "160409.237500", "160409.697500", "160410.157500", "160410.617500", "160411.077500", "160411.537500", "160411.997500", "160412.457500", "160412.917500", "160413.377500", "160413.837500", "160414.297500", "160414.757500", "160415.217500", "160415.677500", "160416.137500", "160416.597500", "160417.057500", "160417.517500", "160417.977500", "160418.437500", "160418.897500", "160419.357500", "160419.817500", "160420.277500", "160420.737500", "160421.197500", "160421.657500", "160422.117500", "160422.577500", "160423.037500", "160423.497500", "160423.957500", "160424.417500", "160424.877500", "160425.337500", "160425.797500", "160426.257500", "160426.717500", "160427.177500", "160427.637500", "160428.097500", "160428.557500", "160429.017500", "160429.477500", "160429.937500", "160430.397500", "160430.857500", "160431.317500", "160431.777500", "160432.237500", "160432.697500", "160433.157500", "160433.617500", "160434.077500", "160434.537500", "160434.997500", "160435.457500", "160435.917500", "160436.377500", "160436.837500", "160437.297500", "160437.757500", "160438.217500", "160438.677500", "160439.137500", "160439.597500", "160440.057500", "160440.517500", "160440.977500", "160441.437500", "160441.897500", "160442.357500", "160442.817500", "160443.277500", "160443.737500", "160444.197500", "160444.657500", "160445.117500", "160445.577500", "160446.037500", "160446.497500", "160446.957500", "160447.417500", "160447.877500", "160448.337500", "160448.797500", "160449.257500", "160449.717500", "160450.177500", "160450.637500", "160451.097500", "160451.557500", "160452.017500", "160452.477500", "160452.937500", "160453.397500", "160453.857500", "160454.317500", "160454.777500", "160455.237500", "160455.697500", "160456.157500", "160456.617500", "160457.077500", "160457.537500", "160457.997500", "160458.457500", "160458.917500", "160459.377500", "160459.837500", "160500.297500", "160500.757500", "160501.217500", "160501.677500", "160502.137500", "160502.597500", "160503.057500", "160503.517500", "160503.977500", "160504.437500", "160504.897500", "160505.357500", "160505.817500", "160506.277500", "160506.737500", "160507.197500", "160507.657500", "160508.117500", "160508.577500", "160509.037500", "160509.497500", "160509.957500", "160510.417500", "160510.877500", "160511.337500", "160511.797500", "160512.257500", "160512.717500", "160513.177500", "160513.637500", "160514.097500", "160514.557500", "160515.017500", "160515.477500", "160515.937500", "160516.397500", "160516.857500", "160517.317500", "160517.777500", "160518.237500", "160518.697500", "160519.157500", "160519.617500", "160520.077500", "160520.537500", "160520.997500", "160521.457500", "160521.917500", "160522.377500", "160522.837500", "160523.297500", "160523.757500", "160524.217500", "160524.677500", "160525.137500", "160525.597500", "160526.057500", "160526.517500", "160526.977500", "160527.437500", "160527.897500", "160528.357500", "160528.817500", "160529.277500", "160529.737500", "160530.197500", "160530.657500", "160531.117500", "160531.577500", "160532.037500", "160532.497500", "160532.957500", "160533.417500", "160533.877500", "160534.337500", "160534.797500", "160535.257500", "160535.717500", "160536.177500", "160536.637500", "160537.097500", "160537.557500", "160538.017500", "160538.477500", "160538.937500", "160539.397500", "160539.857500", "160540.317500", "160540.777500", "160541.237500", "160541.697500", "160542.157500", "160542.617500", "160543.077500", "160543.537500", "160543.997500", "160544.457500", "160544.917500", "160545.377500", "160545.837500", "160546.297500", "160546.757500", "160547.217500", "160547.677500", "160548.137500", "160548.597500", "160549.057500", "160549.517500", "160549.977500", "160550.437500", "160550.897500", "160551.357500", "160551.817500", "160552.277500", "160552.737500", "160553.197500", "160553.657500", "160554.117500", "160554.577500", "160555.037500", "160555.497500", "160555.957500", "160556.417500", "160556.877500", "160557.337500", "160557.797500", "160558.257500", "160558.717500", "160559.177500", "160559.637500", "160600.097500", "160600.557500", "160601.017500", "160601.477500", "160601.937500", "160602.397500", "160602.857500", "160603.317500", "160603.777500", "160604.237500", "160604.697500", "160605.157500", "160605.617500", "160606.077500", "160606.537500", "160606.997500", "160607.457500", "160607.917500", "160608.377500", "160608.837500", "160609.297500", "160609.757500", "160610.217500", "160610.677500", "160611.137500", "160611.597500", "160612.057500", "160612.517500", "160612.977500", "160613.437500", "160613.897500", "160614.357500", "160614.817500", "160615.277500", "160615.737500", "160616.197500", "160616.657500", "160617.117500", "160617.577500", "160618.037500", "160618.497500", "160618.957500", "160619.417500", "160619.877500", "160620.337500", "160620.797500", "160621.257500", "160621.717500", "160622.177500", "160622.637500", "160623.097500", "160623.557500", "160624.017500", "160624.477500", "160624.937500", "160625.397500", "160625.857500", "160626.317500", "160626.777500", "160627.237500", "160627.697500", "160628.157500", "160628.617500", "160629.077500", "160629.537500", "160629.997500", "160630.457500", "160630.917500", "160631.377500", "160631.837500", "160632.297500", "160632.757500", "160633.217500", "160633.677500", "160634.137500", "160634.597500", "160635.057500", "160635.517500", "160635.977500", "160636.437500", "160636.897500", "160637.357500", "160637.817500", "160638.277500", "160638.737500", "160639.197500", "160639.657500", "160640.117500", "160640.577500", "160641.037500", "160641.497500", "160641.957500", "160642.417500", "160642.877500", "160643.337500", "160643.797500", "160644.257500", "160644.717500", "160645.177500", "160645.637500", "160646.097500", "160646.557500", "160647.017500", "160647.477500", "160647.937500", "160648.397500", "160648.857500", "160649.317500", "160649.777500", "160650.237500", "160650.697500", "160651.157500", "160651.617500", "160652.077500", "160652.537500", "160652.997500", "160653.457500", "160653.917500", "160654.377500", "160654.837500", "160655.297500", "160655.757500", "160656.217500", "160656.677500", "160657.137500", "160657.597500", "160658.057500", "160658.517500", "160658.977500", "160659.437500", "160659.897500", "160700.357500", "160700.817500", "160701.277500", "160701.737500", "160702.197500", "160702.657500", "160703.117500", "160703.577500", "160704.037500", "160704.497500", "160704.957500", "160705.417500", "160705.877500", "160706.337500", "160706.797500", "160707.257500", "160707.717500", "160708.177500", "160708.637500", "160709.097500", "160709.557500", "160710.017500", "160710.477500", "160710.937500", "160711.397500", "160711.857500", "160712.317500", "160712.777500", "160713.237500", "160713.697500", "160714.157500", "160714.617500", "160715.077500", "160715.537500", "160715.997500", "160716.457500", "160716.917500", "160717.377500", "160717.837500", "160718.297500", "160718.757500", "160719.217500", "160719.677500", "160720.137500", "160720.597500", "160721.057500", "160721.517500", "160721.977500", "160722.437500", "160722.897500", "160723.357500", "160723.817500", "160724.277500", "160724.737500", "160725.197500", "160725.657500", "160726.117500", "160726.577500", "160727.037500", "160727.497500", "160727.957500", "160728.417500", "160728.877500", "160729.337500", "160729.797500", "160730.257500", "160730.717500", "160731.177500", "160731.637500", "160732.097500", "160732.557500", "160733.017500", "160733.477500", "160733.937500", "160734.397500", "160734.857500", "160735.317500", "160735.777500", "160736.237500", "160736.697500", "160737.157500", "160737.617500", "160738.077500", "160738.537500", "160738.997500", "160739.457500", "160739.917500", "160740.377500", "160740.837500", "160741.297500", "160741.757500", "160742.217500", "160742.677500", "160743.137500", "160743.597500", "160744.057500", "160744.517500", "160744.977500", "160745.437500", "160745.897500", "160746.357500", "160746.817500", "160747.277500", "160747.737500", "160748.197500", "160748.657500", "160749.117500", "160749.577500", "160750.037500", "160750.497500", "160750.957500", "160751.417500", "160751.877500", "160752.337500", "160752.797500", "160753.257500", "160753.717500", "160754.177500", "160754.637500", "160755.097500", "160755.557500", "160756.017500", "160756.477500", "160756.937500", "160757.397500", "160757.857500", "160758.317500", "160758.777500", "160759.237500", "160759.697500", "160800.157500", "160800.617500", "160801.077500", "160801.537500", "160801.997500", "160802.457500", "160802.917500", "160803.377500", "160803.837500", "160804.297500", "160804.757500", "160805.217500", "160805.677500", "160806.137500", "160806.597500", "160807.057500", "160807.517500", "160807.977500", "160808.437500", "160808.897500", "160809.357500", "160809.817500", "160810.277500", "160810.737500", "160811.197500", "160811.657500", "160812.117500", "160812.577500", "160813.037500", "160813.497500", "160813.957500", "160814.417500", "160814.877500", "160815.337500", "160815.797500", "160816.257500", "160816.717500", "160817.177500", "160817.637500", "160818.097500", "160818.557500", "160819.017500", "160819.477500", "160819.937500", "160820.397500", "160820.857500", "160821.317500", "160821.777500", "160822.237500", "160822.697500", "160823.157500", "160823.617500", "160824.077500", "160824.537500", "160824.997500", "160825.457500", "160825.917500", "160826.377500", "160826.837500", "160827.297500", "160827.757500", "160828.217500", "160828.677500", "160829.137500", "160829.597500", "160830.057500", "160830.517500", "160830.977500", "160831.437500", "160831.897500", "160832.357500", "160832.817500", "160833.277500", "160833.737500", "160834.197500", "160834.657500", "160835.117500", "160835.577500", "160836.037500", "160836.497500", "160836.957500", "160837.417500", "160837.877500", "160838.337500", "160838.797500", "160839.257500", "160839.717500", "160840.177500", "160840.637500", "160841.097500", "160841.557500", "160842.017500", "160842.477500", "160842.937500", "160843.397500", "160843.857500", "160844.317500", "160844.777500", "160845.237500", "160845.697500", "160846.157500", "160846.617500", "160847.077500", "160847.537500", "160847.997500", "160848.457500", "160848.917500", "160849.377500", "160849.837500", "160850.297500", "160850.757500", "160851.217500", "160851.677500", "160852.137500", "160852.597500", "160853.057500", "160853.517500", "160853.977500", "160854.437500", "160854.897500", "160855.357500", "160855.817500", "160856.277500", "160856.737500", "160857.197500", "160857.657500", "160858.117500", "160858.577500", "160859.037500", "160859.497500", "160859.957500", "160900.417500", "160900.877500", "160901.337500", "160901.797500", "160902.257500", "160902.717500", "160903.177500", "160903.637500", "160904.097500", "160904.557500", "160905.017500", "160905.477500", "160905.937500", "160906.397500", "160906.857500", "160907.317500", "160907.777500", "160908.237500", "160908.697500", "160909.157500", "160909.617500", "160910.077500", "160910.537500", "160910.997500", "160911.457500", "160911.917500", "160912.377500", "160912.837500", "160913.297500", "160913.757500", "160914.217500", "160914.677500"],
