{
  "AcquisitionMatrixPE": 82,
  "AcquisitionNumber": 1,
  "AcquisitionTime": "15:51:11.610000",
  "BandwidthPerPixelPhaseEncode": 24.888,
  "BaseResolution": 82,
  "BodyPartExamined": "BRAIN",
  "ConsistencyInfo": "N4_VE11C_LATEST_20160120",
  "ConversionSoftware": "dcm2niix",
  "ConversionSoftwareVersion": "v1.0.20201102",
  "DerivedVendorReportedEchoSpacing": 0.00049,
  "DeviceSerialNumber": "66112",
  "DwellTime": 2e-06,
  "EchoTime": 0.0272,
  "EchoTrainLength": 82,
  "EffectiveEchoSpacing": 0.00049,
  "FlipAngle": 44,
  "ImageComments": "Unaliased MB8/PE3",
  "ImageOrientationPatientDICOM": [0.99971, 0.00513746, 0.0235341, -0.00697936, 0.996861, 0.0788641],
  "ImageType": [
    "ORIGINAL",
    "PRIMARY",
    "M",
    "MB",
    "ND",
    "NORM",
    "MOSAIC"
],
  "ImagingFrequency": 123.252,
  "InPlanePhaseEncodingDirectionDICOM": "COL",
  "InstitutionAddress": "Maynard 3,Hanover,NH,US,03755",
  "InstitutionName": "Dartmouth College - PBS",
  "InstitutionalDepartmentName": "Department",
  "MRAcquisitionType": "2D",
  "MagneticFieldStrength": 3,
  "Manufacturer": "Siemens",
  "ManufacturersModelName": "Prisma",
  "Modality": "MR",
  "MultibandAccelerationFactor": 8,
  "PartialFourier": 1,
  "PatientPosition": "HFS",
  "PercentPhaseFOV": 100,
  "PercentSampling": 100,
  "PhaseEncodingDirection": "j-",
  "PhaseEncodingSteps": 82,
  "PhaseResolution": 1,
  "PixelBandwidth": 3050,
  "ProcedureStepDescription": "Wager_Wager^1076_spacetop",
  "ProtocolName": "func_run-06_task-social_acq-ap-mb8",
  "PulseSequenceDetails": "%CustomerSeq%\\cmrr_mbep2d_bold",
  "ReceiveCoilActiveElements": "HEA;HEP",
  "ReceiveCoilName": "Head_32",
  "ReconMatrixPE": 82,
  "RepetitionTime": 0.46,
  "SAR": 0.0773131,
  "ScanOptions": "FS",
  "ScanningSequence": "EP",
  "SequenceName": "epfid2d1_82",
  "SequenceVariant": "SK\\SS",
  "SeriesDescription": "func_run-06_task-social_acq-ap-mb8",
  "SeriesNumber": 22,
  "ShimSetting": [4149, -7736, -7270, 645, -8, -215, 33, 62],
  "SliceThickness": 2.7,
  "SliceTiming": [0, 0.25, 0.0625, 0.3125, 0.125, 0.375, 0.1875, 0, 0.25, 0.0625, 0.3125, 0.125, 0.375, 0.1875, 0, 0.25, 0.0625, 0.3125, 0.125, 0.375, 0.1875, 0, 0.25, 0.0625, 0.3125, 0.125, 0.375, 0.1875, 0, 0.25, 0.0625, 0.3125, 0.125, 0.375, 0.1875, 0, 0.25, 0.0625, 0.3125, 0.125, 0.375, 0.1875, 0, 0.25, 0.0625, 0.3125, 0.125, 0.375, 0.1875, 0, 0.25, 0.0625, 0.3125, 0.125, 0.375, 0.1875],
  "SoftwareVersions": "syngo MR E11",
  "SpacingBetweenSlices": 2.7,
  "StationName": "AWP66112",
  "TaskName": "social",
  "TotalReadoutTime": 0.03969,
  "TxRefAmp": 226.791,
  "WipMemBlock": "294641a7-8237-41e0-91a9-72bb3305113e||Sequence: R016 ve11c/master r/e634e98; Dec 19 2017 11:00:25 by eja",
  "dcmmeta_affine": [
    [-2.6821484565734863, -0.018725106492638588, 0.062248680740594864, 115.79949188232422],
    [-0.013783436268568039, 2.6745049953460693, 0.21331483125686646, -102.56494140625],
    [0.06314028054475784, -0.21158668398857117, 2.690840244293213, -68.00231170654297],
    [0.0, 0.0, 0.0, 1.0]
],
  "dcmmeta_reorient_transform": [
    [0.0, -1.0, 0.0, 81.0],
    [1.0, 0.0, 0.0, 0.0],
    [0.0, 0.0, 1.0, 0.0],
    [0.0, 0.0, 0.0, 1.0]
],
  "dcmmeta_shape": [82, 82, 56, 872],
  "dcmmeta_slice_dim": 2,
  "dcmmeta_version": 0.6,
  "global": {
    "const": {
      "AccessionNumber": "A003468",
      "AcquisitionMatrix": [82, 0, 0, 82],
      "AngioFlag": "N",
      "BitsAllocated": 16,
      "BitsStored": 16,
      "BodyPartExamined": "BRAIN",
      "Columns": 656,
      "EchoNumbers": 1,
      "EchoTime": 27.2,
      "EchoTrainLength": 82,
      "FlipAngle": 44.0,
      "HighBit": 15,
      "ImageOrientationPatient": [0.99970983411396, 0.00513746263487, 0.02353410405147, -0.0069793575448, 0.99686094231517, 0.07886412527108],
      "ImagePositionPatient": [-878.68524148479, -885.60875651988, -163.98747337119],
      "ImageType": [
        "ORIGINAL",
        "PRIMARY",
        "M",
        "MB",
        "ND",
        "NORM",
        "MOSAIC"
],
      "ImagedNucleus": "1H",
      "ImagingFrequency": 123.252187,
      "InPlanePhaseEncodingDirection": "COL",
      "MRAcquisitionType": "2D",
      "MagneticFieldStrength": 3.0,
      "Manufacturer": "SIEMENS",
      "ManufacturerModelName": "Prisma",
      "Modality": "MR",
      "NumberOfAverages": 1.0,
      "NumberOfPhaseEncodingSteps": 82,
      "PercentPhaseFieldOfView": 100.0,
      "PercentSampling": 100.0,
      "PerformedProcedureStepStartTime": "142114.224000",
      "PhotometricInterpretation": "MONOCHROME2",
      "PixelBandwidth": 3050.0,
      "PixelRepresentation": 0,
      "PixelSpacing": [2.6829268932343, 2.6829268932343],
      "ProtocolName": "func_run-06_task-social_acq-ap-mb8",
      "RepetitionTime": 460.0,
      "Rows": 656,
      "SAR": 0.07731308243049,
      "SamplesPerPixel": 1,
      "ScanOptions": "FS",
      "ScanningSequence": "EP",
      "SequenceName": "epfid2d1_82",
      "SequenceVariant": [
        "SK",
        "SS"
],
      "SeriesDescription": "func_run-06_task-social_acq-ap-mb8",
      "SeriesNumber": 22,
      "SeriesTime": "155129.275000",
      "SliceLocation": -73.205047555706,
      "SliceThickness": 2.7000000476837,
      "SmallestImagePixelValue": 0,
      "SoftwareVersions": "syngo MR E11",
      "SpacingBetweenSlices": 2.6999999199457,
      "SpecificCharacterSet": "ISO_IR 100",
      "StudyID": "1",
      "StudyTime": "142114.141000",
      "TransmitCoilName": "Body",
      "VariableFlipAngleFlag": "N",
      "WindowCenterWidthExplanation": "Algo1",
      "dBdt": 0.0},
    "slices": {}
  },
  "time": {
    "samples": {
      "AcquisitionNumber": [1, 2, 3, 4, 5, 6, 7, 8, 9, 10, 11, 12, 13, 14, 15, 16, 17, 18, 19, 20, 21, 22, 23, 24, 25, 26, 27, 28, 29, 30, 31, 32, 33, 34, 35, 36, 37, 38, 39, 40, 41, 42, 43, 44, 45, 46, 47, 48, 49, 50, 51, 52, 53, 54, 55, 56, 57, 58, 59, 60, 61, 62, 63, 64, 65, 66, 67, 68, 69, 70, 71, 72, 73, 74, 75, 76, 77, 78, 79, 80, 81, 82, 83, 84, 85, 86, 87, 88, 89, 90, 91, 92, 93, 94, 95, 96, 97, 98, 99, 100, 101, 102, 103, 104, 105, 106, 107, 108, 109, 110, 111, 112, 113, 114, 115, 116, 117, 118, 119, 120, 121, 122, 123, 124, 125, 126, 127, 128, 129, 130, 131, 132, 133, 134, 135, 136, 137, 138, 139, 140, 141, 142, 143, 144, 145, 146, 147, 148, 149, 150, 151, 152, 153, 154, 155, 156, 157, 158, 159, 160, 161, 162, 163, 164, 165, 166, 167, 168, 169, 170, 171, 172, 173, 174, 175, 176, 177, 178, 179, 180, 181, 182, 183, 184, 185, 186, 187, 188, 189, 190, 191, 192, 193, 194, 195, 196, 197, 198, 199, 200, 201, 202, 203, 204, 205, 206, 207, 208, 209, 210, 211, 212, 213, 214, 215, 216, 217, 218, 219, 220, 221, 222, 223, 224, 225, 226, 227, 228, 229, 230, 231, 232, 233, 234, 235, 236, 237, 238, 239, 240, 241, 242, 243, 244, 245, 246, 247, 248, 249, 250, 251, 252, 253, 254, 255, 256, 257, 258, 259, 260, 261, 262, 263, 264, 265, 266, 267, 268, 269, 270, 271, 272, 273, 274, 275, 276, 277, 278, 279, 280, 281, 282, 283, 284, 285, 286, 287, 288, 289, 290, 291, 292, 293, 294, 295, 296, 297, 298, 299, 300, 301, 302, 303, 304, 305, 306, 307, 308, 309, 310, 311, 312, 313, 314, 315, 316, 317, 318, 319, 320, 321, 322, 323, 324, 325, 326, 327, 328, 329, 330, 331, 332, 333, 334, 335, 336, 337, 338, 339, 340, 341, 342, 343, 344, 345, 346, 347, 348, 349, 350, 351, 352, 353, 354, 355, 356, 357, 358, 359, 360, 361, 362, 363, 364, 365, 366, 367, 368, 369, 370, 371, 372, 373, 374, 375, 376, 377, 378, 379, 380, 381, 382, 383, 384, 385, 386, 387, 388, 389, 390, 391, 392, 393, 394, 395, 396, 397, 398, 399, 400, 401, 402, 403, 404, 405, 406, 407, 408, 409, 410, 411, 412, 413, 414, 415, 416, 417, 418, 419, 420, 421, 422, 423, 424, 425, 426, 427, 428, 429, 430, 431, 432, 433, 434, 435, 436, 437, 438, 439, 440, 441, 442, 443, 444, 445, 446, 447, 448, 449, 450, 451, 452, 453, 454, 455, 456, 457, 458, 459, 460, 461, 462, 463, 464, 465, 466, 467, 468, 469, 470, 471, 472, 473, 474, 475, 476, 477, 478, 479, 480, 481, 482, 483, 484, 485, 486, 487, 488, 489, 490, 491, 492, 493, 494, 495, 496, 497, 498, 499, 500, 501, 502, 503, 504, 505, 506, 507, 508, 509, 510, 511, 512, 513, 514, 515, 516, 517, 518, 519, 520, 521, 522, 523, 524, 525, 526, 527, 528, 529, 530, 531, 532, 533, 534, 535, 536, 537, 538, 539, 540, 541, 542, 543, 544, 545, 546, 547, 548, 549, 550, 551, 552, 553, 554, 555, 556, 557, 558, 559, 560, 561, 562, 563, 564, 565, 566, 567, 568, 569, 570, 571, 572, 573, 574, 575, 576, 577, 578, 579, 580, 581, 582, 583, 584, 585, 586, 587, 588, 589, 590, 591, 592, 593, 594, 595, 596, 597, 598, 599, 600, 601, 602, 603, 604, 605, 606, 607, 608, 609, 610, 611, 612, 613, 614, 615, 616, 617, 618, 619, 620, 621, 622, 623, 624, 625, 626, 627, 628, 629, 630, 631, 632, 633, 634, 635, 636, 637, 638, 639, 640, 641, 642, 643, 644, 645, 646, 647, 648, 649, 650, 651, 652, 653, 654, 655, 656, 657, 658, 659, 660, 661, 662, 663, 664, 665, 666, 667, 668, 669, 670, 671, 672, 673, 674, 675, 676, 677, 678, 679, 680, 681, 682, 683, 684, 685, 686, 687, 688, 689, 690, 691, 692, 693, 694, 695, 696, 697, 698, 699, 700, 701, 702, 703, 704, 705, 706, 707, 708, 709, 710, 711, 712, 713, 714, 715, 716, 717, 718, 719, 720, 721, 722, 723, 724, 725, 726, 727, 728, 729, 730, 731, 732, 733, 734, 735, 736, 737, 738, 739, 740, 741, 742, 743, 744, 745, 746, 747, 748, 749, 750, 751, 752, 753, 754, 755, 756, 757, 758, 759, 760, 761, 762, 763, 764, 765, 766, 767, 768, 769, 770, 771, 772, 773, 774, 775, 776, 777, 778, 779, 780, 781, 782, 783, 784, 785, 786, 787, 788, 789, 790, 791, 792, 793, 794, 795, 796, 797, 798, 799, 800, 801, 802, 803, 804, 805, 806, 807, 808, 809, 810, 811, 812, 813, 814, 815, 816, 817, 818, 819, 820, 821, 822, 823, 824, 825, 826, 827, 828, 829, 830, 831, 832, 833, 834, 835, 836, 837, 838, 839, 840, 841, 842, 843, 844, 845, 846, 847, 848, 849, 850, 851, 852, 853, 854, 855, 856, 857, 858, 859, 860, 861, 862, 863, 864, 865, 866, 867, 868, 869, 870, 871, 872],
      "AcquisitionTime": ["155111.610000", "155112.070000", "155112.530000", "155112.990000", "155113.450000", "155113.910000", "155114.370000", "155114.830000", "155115.290000", "155115.750000", "155116.210000", "155116.670000", "155117.130000", "155117.590000", "155118.050000", "155118.510000", "155118.970000", "155119.430000", "155119.890000", "155120.350000", "155120.810000", "155121.270000", "155121.730000", "155122.190000", "155122.650000", "155123.110000", "155123.570000", "155124.030000", "155124.490000", "155124.950000", "155125.410000", "155125.870000", "155126.330000", "155126.790000", "155127.250000", "155127.710000", "155128.170000", "155128.630000", "155129.090000", "155129.550000", "155130.010000", "155130.470000", "155130.930000", "155131.390000", "155131.850000", "155132.310000", "155132.770000", "155133.230000", "155133.690000", "155134.150000", "155134.610000", "155135.070000", "155135.530000", "155135.990000", "155136.450000", "155136.910000", "155137.370000", "155137.830000", "155138.290000", "155138.750000", "155139.210000", "155139.670000", "155140.130000", "155140.590000", "155141.050000", "155141.510000", "155141.970000", "155142.430000", "155142.890000", "155143.350000", "155143.810000", "155144.270000", "155144.730000", "155145.190000", "155145.650000", "155146.110000", "155146.570000", "155147.030000", "155147.490000", "155147.950000", "155148.410000", "155148.870000", "155149.330000", "155149.790000", "155150.250000", "155150.710000", "155151.170000", "155151.630000", "155152.090000", "155152.550000", "155153.010000", "155153.470000", "155153.930000", "155154.390000", "155154.850000", "155155.310000", "155155.770000", "155156.230000", "155156.690000", "155157.150000", "155157.610000", "155158.070000", "155158.530000", "155158.990000", "155159.450000", "155159.910000", "155200.370000", "155200.830000", "155201.290000", "155201.750000", "155202.210000", "155202.670000", "155203.130000", "155203.590000", "155204.050000", "155204.510000", "155204.970000", "155205.430000", "155205.890000", "155206.350000", "155206.810000", "155207.270000", "155207.730000", "155208.190000", "155208.650000", "155209.110000", "155209.570000", "155210.030000", "155210.490000", "155210.950000", "155211.410000", "155211.870000", "155212.330000", "155212.790000", "155213.250000", "155213.710000", "155214.170000", "155214.630000", "155215.090000", "155215.550000", "155216.010000", "155216.470000", "155216.930000", "155217.390000", "155217.850000", "155218.310000", "155218.770000", "155219.230000", "155219.690000", "155220.150000", "155220.610000", "155221.070000", "155221.530000", "155221.990000", "155222.450000", "155222.910000", "155223.370000", "155223.830000", "155224.290000", "155224.750000", "155225.210000", "155225.670000", "155226.130000", "155226.590000", "155227.050000", "155227.510000", "155227.970000", "155228.430000", "155228.890000", "155229.350000", "155229.810000", "155230.270000", "155230.730000", "155231.190000", "155231.650000", "155232.110000", "155232.570000", "155233.030000", "155233.490000", "155233.950000", "155234.410000", "155234.870000", "155235.330000", "155235.790000", "155236.250000", "155236.710000", "155237.170000", "155237.630000", "155238.090000", "155238.550000", "155239.010000", "155239.470000", "155239.930000", "155240.390000", "155240.850000", "155241.310000", "155241.770000", "155242.230000", "155242.690000", "155243.150000", "155243.610000", "155244.070000", "155244.530000", "155244.990000", "155245.450000", "155245.910000", "155246.370000", "155246.830000", "155247.290000", "155247.750000", "155248.210000", "155248.670000", "155249.130000", "155249.590000", "155250.050000", "155250.510000", "155250.970000", "155251.430000", "155251.890000", "155252.350000", "155252.810000", "155253.270000", "155253.730000", "155254.190000", "155254.650000", "155255.110000", "155255.570000", "155256.030000", "155256.490000", "155256.950000", "155257.410000", "155257.870000", "155258.330000", "155258.790000", "155259.250000", "155259.710000", "155300.170000", "155300.630000", "155301.090000", "155301.550000", "155302.010000", "155302.470000", "155302.930000", "155303.390000", "155303.850000", "155304.310000", "155304.770000", "155305.230000", "155305.690000", "155306.150000", "155306.610000", "155307.070000", "155307.530000", "155307.990000", "155308.450000", "155308.910000", "155309.370000", "155309.830000", "155310.290000", "155310.750000", "155311.210000", "155311.670000", "155312.130000", "155312.590000", "155313.050000", "155313.510000", "155313.970000", "155314.430000", "155314.890000", "155315.350000", "155315.810000", "155316.270000", "155316.730000", "155317.190000", "155317.650000", "155318.110000", "155318.570000", "155319.030000", "155319.490000", "155319.950000", "155320.410000", "155320.870000", "155321.330000", "155321.790000", "155322.250000", "155322.710000", "155323.170000", "155323.630000", "155324.090000", "155324.550000", "155325.010000", "155325.470000", "155325.930000", "155326.390000", "155326.850000", "155327.310000", "155327.770000", "155328.230000", "155328.690000", "155329.150000", "155329.610000", "155330.070000", "155330.530000", "155330.990000", "155331.450000", "155331.910000", "155332.370000", "155332.830000", "155333.290000", "155333.750000", "155334.210000", "155334.670000", "155335.130000", "155335.590000", "155336.050000", "155336.510000", "155336.970000", "155337.430000", "155337.890000", "155338.350000", "155338.810000", "155339.270000", "155339.730000", "155340.190000", "155340.650000", "155341.110000", "155341.570000", "155342.030000", "155342.490000", "155342.950000", "155343.410000", "155343.870000", "155344.330000", "155344.790000", "155345.250000", "155345.710000", "155346.170000", "155346.630000", "155347.090000", "155347.550000", "155348.010000", "155348.470000", "155348.930000", "155349.390000", "155349.850000", "155350.310000", "155350.770000", "155351.230000", "155351.690000", "155352.150000", "155352.610000", "155353.070000", "155353.530000", "155353.990000", "155354.450000", "155354.910000", "155355.370000", "155355.830000", "155356.290000", "155356.750000", "155357.210000", "155357.670000", "155358.130000", "155358.590000", "155359.050000", "155359.510000", "155359.970000", "155400.430000", "155400.890000", "155401.350000", "155401.810000", "155402.270000", "155402.730000", "155403.190000", "155403.650000", "155404.110000", "155404.570000", "155405.030000", "155405.490000", "155405.950000", "155406.410000", "155406.870000", "155407.330000", "155407.790000", "155408.250000", "155408.710000", "155409.170000", "155409.630000", "155410.090000", "155410.550000", "155411.010000", "155411.470000", "155411.930000", "155412.390000", "155412.850000", "155413.310000", "155413.770000", "155414.230000", "155414.690000", "155415.150000", "155415.610000", "155416.070000", "155416.530000", "155416.990000", "155417.450000", "155417.910000", "155418.370000", "155418.830000", "155419.290000", "155419.750000", "155420.210000", "155420.670000", "155421.130000", "155421.590000", "155422.050000", "155422.510000", "155422.970000", "155423.430000", "155423.890000", "155424.350000", "155424.810000", "155425.270000", "155425.730000", "155426.190000", "155426.650000", "155427.110000", "155427.570000", "155428.030000", "155428.490000", "155428.950000", "155429.410000", "155429.870000", "155430.330000", "155430.790000", "155431.250000", "155431.710000", "155432.170000", "155432.630000", "155433.090000", "155433.550000", "155434.010000", "155434.470000", "155434.930000", "155435.390000", "155435.850000", "155436.310000", "155436.770000", "155437.230000", "155437.690000", "155438.150000", "155438.610000", "155439.070000", "155439.530000", "155439.990000", "155440.450000", "155440.910000", "155441.370000", "155441.830000", "155442.290000", "155442.750000", "155443.210000", "155443.670000", "155444.130000", "155444.590000", "155445.050000", "155445.510000", "155445.970000", "155446.430000", "155446.890000", "155447.350000", "155447.810000", "155448.270000", "155448.730000", "155449.190000", "155449.650000", "155450.110000", "155450.570000", "155451.030000", "155451.490000", "155451.950000", "155452.410000", "155452.870000", "155453.330000", "155453.790000", "155454.250000", "155454.710000", "155455.170000", "155455.630000", "155456.090000", "155456.550000", "155457.010000", "155457.470000", "155457.930000", "155458.390000", "155458.850000", "155459.310000", "155459.770000", "155500.230000", "155500.690000", "155501.150000", "155501.610000", "155502.070000", "155502.530000", "155502.990000", "155503.450000", "155503.910000", "155504.370000", "155504.830000", "155505.290000", "155505.750000", "155506.210000", "155506.670000", "155507.130000", "155507.590000", "155508.050000", "155508.510000", "155508.970000", "155509.430000", "155509.890000", "155510.350000", "155510.810000", "155511.270000", "155511.730000", "155512.190000", "155512.650000", "155513.110000", "155513.570000", "155514.030000", "155514.490000", "155514.950000", "155515.410000", "155515.870000", "155516.330000", "155516.790000", "155517.250000", "155517.710000", "155518.170000", "155518.630000", "155519.090000", "155519.550000", "155520.010000", "155520.470000", "155520.930000", "155521.390000", "155521.850000", "155522.310000", "155522.770000", "155523.230000", "155523.690000", "155524.150000", "155524.610000", "155525.070000", "155525.530000", "155525.990000", "155526.450000", "155526.910000", "155527.370000", "155527.830000", "155528.290000", "155528.750000", "155529.210000", "155529.670000", "155530.130000", "155530.590000", "155531.050000", "155531.510000", "155531.970000", "155532.430000", "155532.890000", "155533.350000", "155533.810000", "155534.270000", "155534.730000", "155535.190000", "155535.650000", "155536.110000", "155536.570000", "155537.030000", "155537.490000", "155537.950000", "155538.410000", "155538.870000", "155539.330000", "155539.790000", "155540.250000", "155540.710000", "155541.170000", "155541.630000", "155542.090000", "155542.550000", "155543.010000", "155543.470000", "155543.930000", "155544.390000", "155544.850000", "155545.310000", "155545.770000", "155546.230000", "155546.690000", "155547.150000", "155547.610000", "155548.070000", "155548.530000", "155548.990000", "155549.450000", "155549.910000", "155550.370000", "155550.830000", "155551.290000", "155551.750000", "155552.210000", "155552.670000", "155553.130000", "155553.590000", "155554.050000", "155554.510000", "155554.970000", "155555.430000", "155555.890000", "155556.350000", "155556.810000", "155557.270000", "155557.730000", "155558.190000", "155558.650000", "155559.110000", "155559.570000", "155600.030000", "155600.490000", "155600.950000", "155601.410000", "155601.870000", "155602.330000", "155602.790000", "155603.250000", "155603.710000", "155604.170000", "155604.630000", "155605.090000", "155605.550000", "155606.010000", "155606.470000", "155606.930000", "155607.390000", "155607.850000", "155608.310000", "155608.770000", "155609.230000", "155609.690000", "155610.150000", "155610.610000", "155611.070000", "155611.530000", "155611.990000", "155612.450000", "155612.910000", "155613.370000", "155613.830000", "155614.290000", "155614.750000", "155615.210000", "155615.670000", "155616.130000", "155616.590000", "155617.050000", "155617.510000", "155617.970000", "155618.430000", "155618.890000", "155619.350000", "155619.810000", "155620.270000", "155620.730000", "155621.190000", "155621.650000", "155622.110000", "155622.570000", "155623.030000", "155623.490000", "155623.950000", "155624.410000", "155624.870000", "155625.330000", "155625.790000", "155626.250000", "155626.710000", "155627.170000", "155627.630000", "155628.090000", "155628.550000", "155629.010000", "155629.470000", "155629.930000", "155630.390000", "155630.850000", "155631.310000", "155631.770000", "155632.230000", "155632.690000", "155633.150000", "155633.610000", "155634.070000", "155634.530000", "155634.990000", "155635.450000", "155635.910000", "155636.370000", "155636.830000", "155637.290000", "155637.750000", "155638.210000", "155638.670000", "155639.130000", "155639.590000", "155640.050000", "155640.510000", "155640.970000", "155641.430000", "155641.890000", "155642.350000", "155642.810000", "155643.270000", "155643.730000", "155644.190000", "155644.650000", "155645.110000", "155645.570000", "155646.030000", "155646.490000", "155646.950000", "155647.410000", "155647.870000", "155648.330000", "155648.790000", "155649.250000", "155649.710000", "155650.170000", "155650.630000", "155651.090000", "155651.550000", "155652.010000", "155652.470000", "155652.930000", "155653.390000", "155653.850000", "155654.310000", "155654.770000", "155655.230000", "155655.690000", "155656.150000", "155656.610000", "155657.070000", "155657.530000", "155657.990000", "155658.450000", "155658.910000", "155659.370000", "155659.830000", "155700.290000", "155700.750000", "155701.210000", "155701.670000", "155702.130000", "155702.590000", "155703.050000", "155703.510000", "155703.970000", "155704.430000", "155704.890000", "155705.350000", "155705.810000", "155706.270000", "155706.730000", "155707.190000", "155707.650000", "155708.110000", "155708.570000", "155709.030000", "155709.490000", "155709.950000", "155710.410000", "155710.870000", "155711.330000", "155711.790000", "155712.250000", "155712.710000", "155713.170000", "155713.630000", "155714.090000", "155714.550000", "155715.010000", "155715.470000", "155715.930000", "155716.390000", "155716.850000", "155717.310000", "155717.770000", "155718.230000", "155718.690000", "155719.150000", "155719.610000", "155720.070000", "155720.530000", "155720.990000", "155721.450000", "155721.910000", "155722.370000", "155722.830000", "155723.290000", "155723.750000", "155724.210000", "155724.670000", "155725.130000", "155725.590000", "155726.050000", "155726.510000", "155726.970000", "155727.430000", "155727.890000", "155728.350000", "155728.810000", "155729.270000", "155729.730000", "155730.190000", "155730.650000", "155731.110000", "155731.570000", "155732.030000", "155732.490000", "155732.950000", "155733.410000", "155733.870000", "155734.330000", "155734.790000", "155735.250000", "155735.710000", "155736.170000", "155736.630000", "155737.090000", "155737.550000", "155738.010000", "155738.470000", "155738.930000", "155739.390000", "155739.850000", "155740.310000", "155740.770000", "155741.230000", "155741.690000", "155742.150000", "155742.610000", "155743.070000", "155743.530000", "155743.990000", "155744.450000", "155744.910000", "155745.370000", "155745.830000", "155746.290000", "155746.750000", "155747.210000", "155747.670000", "155748.130000", "155748.590000", "155749.050000", "155749.510000", "155749.970000", "155750.430000", "155750.890000", "155751.350000", "155751.810000", "155752.270000"],
