{
  "AcquisitionMatrixPE": 82,
  "AcquisitionNumber": 1,
  "AcquisitionTime": "15:44:8.847500",
  "BandwidthPerPixelPhaseEncode": 24.888,
  "BaseResolution": 82,
  "BodyPartExamined": "BRAIN",
  "ConsistencyInfo": "N4_VE11C_LATEST_20160120",
  "ConversionSoftware": "dcm2niix",
  "ConversionSoftwareVersion": "v1.0.20201102",
  "DerivedVendorReportedEchoSpacing": 0.00049,
  "DeviceSerialNumber": "66112",
  "DwellTime": 2e-06,
  "EchoTime": 0.0272,
  "EchoTrainLength": 82,
  "EffectiveEchoSpacing": 0.00049,
  "FlipAngle": 44,
  "ImageComments": "Unaliased MB8/PE3",
  "ImageOrientationPatientDICOM": [0.99971, 0.00513746, 0.0235341, -0.00697936, 0.996861, 0.0788641],
  "ImageType": [
    "ORIGINAL",
    "PRIMARY",
    "M",
    "MB",
    "ND",
    "NORM",
    "MOSAIC"
],
  "ImagingFrequency": 123.252,
  "InPlanePhaseEncodingDirectionDICOM": "COL",
  "InstitutionAddress": "Maynard 3,Hanover,NH,US,03755",
  "InstitutionName": "Dartmouth College - PBS",
  "InstitutionalDepartmentName": "Department",
  "MRAcquisitionType": "2D",
  "MagneticFieldStrength": 3,
  "Manufacturer": "Siemens",
  "ManufacturersModelName": "Prisma",
  "Modality": "MR",
  "MultibandAccelerationFactor": 8,
  "PartialFourier": 1,
  "PatientPosition": "HFS",
  "PercentPhaseFOV": 100,
  "PercentSampling": 100,
  "PhaseEncodingDirection": "j-",
  "PhaseEncodingSteps": 82,
  "PhaseResolution": 1,
  "PixelBandwidth": 3050,
  "ProcedureStepDescription": "Wager_Wager^1076_spacetop",
  "ProtocolName": "func_run-05_task-social_acq-ap-mb8",
  "PulseSequenceDetails": "%CustomerSeq%\\cmrr_mbep2d_bold",
  "ReceiveCoilActiveElements": "HEA;HEP",
  "ReceiveCoilName": "Head_32",
  "ReconMatrixPE": 82,
  "RepetitionTime": 0.46,
  "SAR": 0.0773131,
  "ScanOptions": "FS",
  "ScanningSequence": "EP",
  "SequenceName": "epfid2d1_82",
  "SequenceVariant": "SK\\SS",
  "SeriesDescription": "func_run-05_task-social_acq-ap-mb8",
  "SeriesNumber": 20,
  "ShimSetting": [4149, -7736, -7270, 645, -8, -215, 33, 62],
  "SliceThickness": 2.7,
  "SliceTiming": [0, 0.25, 0.0625, 0.3125, 0.125, 0.3775, 0.1875, 0, 0.25, 0.0625, 0.3125, 0.125, 0.3775, 0.1875, 0, 0.25, 0.0625, 0.3125, 0.125, 0.3775, 0.1875, 0, 0.25, 0.0625, 0.3125, 0.125, 0.3775, 0.1875, 0, 0.25, 0.0625, 0.3125, 0.125, 0.3775, 0.1875, 0, 0.25, 0.0625, 0.3125, 0.125, 0.3775, 0.1875, 0, 0.25, 0.0625, 0.3125, 0.125, 0.3775, 0.1875, 0, 0.25, 0.0625, 0.3125, 0.125, 0.3775, 0.1875],
  "SoftwareVersions": "syngo MR E11",
  "SpacingBetweenSlices": 2.7,
  "StationName": "AWP66112",
  "TaskName": "social",
  "TotalReadoutTime": 0.03969,
  "TxRefAmp": 226.791,
  "WipMemBlock": "934fbb4d-35b5-429e-8e34-ad611a10a8eb||Sequence: R016 ve11c/master r/e634e98; Dec 19 2017 11:00:25 by eja",
  "dcmmeta_affine": [
    [-2.6821484565734863, -0.018725106492638588, 0.062248680740594864, 115.79949188232422],
    [-0.013783436268568039, 2.6745049953460693, 0.21331483125686646, -102.56494140625],
    [0.06314028054475784, -0.21158668398857117, 2.690840244293213, -68.00231170654297],
    [0.0, 0.0, 0.0, 1.0]
],
  "dcmmeta_reorient_transform": [
    [0.0, -1.0, 0.0, 81.0],
    [1.0, 0.0, 0.0, 0.0],
    [0.0, 0.0, 1.0, 0.0],
    [0.0, 0.0, 0.0, 1.0]
],
  "dcmmeta_shape": [82, 82, 56, 872],
  "dcmmeta_slice_dim": 2,
  "dcmmeta_version": 0.6,
  "global": {
    "const": {
      "AccessionNumber": "A003468",
      "AcquisitionMatrix": [82, 0, 0, 82],
      "AngioFlag": "N",
      "BitsAllocated": 16,
      "BitsStored": 16,
      "BodyPartExamined": "BRAIN",
      "Columns": 656,
      "EchoNumbers": 1,
      "EchoTime": 27.2,
      "EchoTrainLength": 82,
      "FlipAngle": 44.0,
      "HighBit": 15,
      "ImageOrientationPatient": [0.99970983411396, 0.00513746263487, 0.02353410405147, -0.0069793575448, 0.99686094231517, 0.07886412527108],
      "ImagePositionPatient": [-878.68524148479, -885.60875651988, -163.98747337119],
      "ImageType": [
        "ORIGINAL",
        "PRIMARY",
        "M",
        "MB",
        "ND",
        "NORM",
        "MOSAIC"
],
      "ImagedNucleus": "1H",
      "ImagingFrequency": 123.252184,
      "InPlanePhaseEncodingDirection": "COL",
      "MRAcquisitionType": "2D",
      "MagneticFieldStrength": 3.0,
      "Manufacturer": "SIEMENS",
      "ManufacturerModelName": "Prisma",
      "Modality": "MR",
      "NumberOfAverages": 1.0,
      "NumberOfPhaseEncodingSteps": 82,
      "PercentPhaseFieldOfView": 100.0,
      "PercentSampling": 100.0,
      "PerformedProcedureStepStartTime": "142114.224000",
      "PhotometricInterpretation": "MONOCHROME2",
      "PixelBandwidth": 3050.0,
      "PixelRepresentation": 0,
      "PixelSpacing": [2.6829268932343, 2.6829268932343],
      "ProtocolName": "func_run-05_task-social_acq-ap-mb8",
      "RepetitionTime": 460.0,
      "Rows": 656,
      "SAR": 0.07731308243049,
      "SamplesPerPixel": 1,
      "ScanOptions": "FS",
      "ScanningSequence": "EP",
      "SequenceName": "epfid2d1_82",
      "SequenceVariant": [
        "SK",
        "SS"
],
      "SeriesDescription": "func_run-05_task-social_acq-ap-mb8",
      "SeriesNumber": 20,
      "SeriesTime": "154429.208000",
      "SliceLocation": -73.205047555706,
      "SliceThickness": 2.7000000476837,
      "SmallestImagePixelValue": 0,
      "SoftwareVersions": "syngo MR E11",
      "SpacingBetweenSlices": 2.6999999199457,
      "SpecificCharacterSet": "ISO_IR 100",
      "StudyID": "1",
      "StudyTime": "142114.141000",
      "TransmitCoilName": "Body",
      "VariableFlipAngleFlag": "N",
      "WindowCenterWidthExplanation": "Algo1",
      "dBdt": 0.0},
    "slices": {}
  },
  "time": {
    "samples": {
      "AcquisitionNumber": [1, 2, 3, 4, 5, 6, 7, 8, 9, 10, 11, 12, 13, 14, 15, 16, 17, 18, 19, 20, 21, 22, 23, 24, 25, 26, 27, 28, 29, 30, 31, 32, 33, 34, 35, 36, 37, 38, 39, 40, 41, 42, 43, 44, 45, 46, 47, 48, 49, 50, 51, 52, 53, 54, 55, 56, 57, 58, 59, 60, 61, 62, 63, 64, 65, 66, 67, 68, 69, 70, 71, 72, 73, 74, 75, 76, 77, 78, 79, 80, 81, 82, 83, 84, 85, 86, 87, 88, 89, 90, 91, 92, 93, 94, 95, 96, 97, 98, 99, 100, 101, 102, 103, 104, 105, 106, 107, 108, 109, 110, 111, 112, 113, 114, 115, 116, 117, 118, 119, 120, 121, 122, 123, 124, 125, 126, 127, 128, 129, 130, 131, 132, 133, 134, 135, 136, 137, 138, 139, 140, 141, 142, 143, 144, 145, 146, 147, 148, 149, 150, 151, 152, 153, 154, 155, 156, 157, 158, 159, 160, 161, 162, 163, 164, 165, 166, 167, 168, 169, 170, 171, 172, 173, 174, 175, 176, 177, 178, 179, 180, 181, 182, 183, 184, 185, 186, 187, 188, 189, 190, 191, 192, 193, 194, 195, 196, 197, 198, 199, 200, 201, 202, 203, 204, 205, 206, 207, 208, 209, 210, 211, 212, 213, 214, 215, 216, 217, 218, 219, 220, 221, 222, 223, 224, 225, 226, 227, 228, 229, 230, 231, 232, 233, 234, 235, 236, 237, 238, 239, 240, 241, 242, 243, 244, 245, 246, 247, 248, 249, 250, 251, 252, 253, 254, 255, 256, 257, 258, 259, 260, 261, 262, 263, 264, 265, 266, 267, 268, 269, 270, 271, 272, 273, 274, 275, 276, 277, 278, 279, 280, 281, 282, 283, 284, 285, 286, 287, 288, 289, 290, 291, 292, 293, 294, 295, 296, 297, 298, 299, 300, 301, 302, 303, 304, 305, 306, 307, 308, 309, 310, 311, 312, 313, 314, 315, 316, 317, 318, 319, 320, 321, 322, 323, 324, 325, 326, 327, 328, 329, 330, 331, 332, 333, 334, 335, 336, 337, 338, 339, 340, 341, 342, 343, 344, 345, 346, 347, 348, 349, 350, 351, 352, 353, 354, 355, 356, 357, 358, 359, 360, 361, 362, 363, 364, 365, 366, 367, 368, 369, 370, 371, 372, 373, 374, 375, 376, 377, 378, 379, 380, 381, 382, 383, 384, 385, 386, 387, 388, 389, 390, 391, 392, 393, 394, 395, 396, 397, 398, 399, 400, 401, 402, 403, 404, 405, 406, 407, 408, 409, 410, 411, 412, 413, 414, 415, 416, 417, 418, 419, 420, 421, 422, 423, 424, 425, 426, 427, 428, 429, 430, 431, 432, 433, 434, 435, 436, 437, 438, 439, 440, 441, 442, 443, 444, 445, 446, 447, 448, 449, 450, 451, 452, 453, 454, 455, 456, 457, 458, 459, 460, 461, 462, 463, 464, 465, 466, 467, 468, 469, 470, 471, 472, 473, 474, 475, 476, 477, 478, 479, 480, 481, 482, 483, 484, 485, 486, 487, 488, 489, 490, 491, 492, 493, 494, 495, 496, 497, 498, 499, 500, 501, 502, 503, 504, 505, 506, 507, 508, 509, 510, 511, 512, 513, 514, 515, 516, 517, 518, 519, 520, 521, 522, 523, 524, 525, 526, 527, 528, 529, 530, 531, 532, 533, 534, 535, 536, 537, 538, 539, 540, 541, 542, 543, 544, 545, 546, 547, 548, 549, 550, 551, 552, 553, 554, 555, 556, 557, 558, 559, 560, 561, 562, 563, 564, 565, 566, 567, 568, 569, 570, 571, 572, 573, 574, 575, 576, 577, 578, 579, 580, 581, 582, 583, 584, 585, 586, 587, 588, 589, 590, 591, 592, 593, 594, 595, 596, 597, 598, 599, 600, 601, 602, 603, 604, 605, 606, 607, 608, 609, 610, 611, 612, 613, 614, 615, 616, 617, 618, 619, 620, 621, 622, 623, 624, 625, 626, 627, 628, 629, 630, 631, 632, 633, 634, 635, 636, 637, 638, 639, 640, 641, 642, 643, 644, 645, 646, 647, 648, 649, 650, 651, 652, 653, 654, 655, 656, 657, 658, 659, 660, 661, 662, 663, 664, 665, 666, 667, 668, 669, 670, 671, 672, 673, 674, 675, 676, 677, 678, 679, 680, 681, 682, 683, 684, 685, 686, 687, 688, 689, 690, 691, 692, 693, 694, 695, 696, 697, 698, 699, 700, 701, 702, 703, 704, 705, 706, 707, 708, 709, 710, 711, 712, 713, 714, 715, 716, 717, 718, 719, 720, 721, 722, 723, 724, 725, 726, 727, 728, 729, 730, 731, 732, 733, 734, 735, 736, 737, 738, 739, 740, 741, 742, 743, 744, 745, 746, 747, 748, 749, 750, 751, 752, 753, 754, 755, 756, 757, 758, 759, 760, 761, 762, 763, 764, 765, 766, 767, 768, 769, 770, 771, 772, 773, 774, 775, 776, 777, 778, 779, 780, 781, 782, 783, 784, 785, 786, 787, 788, 789, 790, 791, 792, 793, 794, 795, 796, 797, 798, 799, 800, 801, 802, 803, 804, 805, 806, 807, 808, 809, 810, 811, 812, 813, 814, 815, 816, 817, 818, 819, 820, 821, 822, 823, 824, 825, 826, 827, 828, 829, 830, 831, 832, 833, 834, 835, 836, 837, 838, 839, 840, 841, 842, 843, 844, 845, 846, 847, 848, 849, 850, 851, 852, 853, 854, 855, 856, 857, 858, 859, 860, 861, 862, 863, 864, 865, 866, 867, 868, 869, 870, 871, 872],
      "AcquisitionTime": ["154408.847500", "154409.307500", "154409.767500", "154410.227500", "154410.687500", "154411.147500", "154411.607500", "154412.067500", "154412.527500", "154412.987500", "154413.447500", "154413.907500", "154414.367500", "154414.827500", "154415.287500", "154415.747500", "154416.207500", "154416.667500", "154417.127500", "154417.587500", "154418.047500", "154418.507500", "154418.967500", "154419.427500", "154419.887500", "154420.347500", "154420.807500", "154421.267500", "154421.727500", "154422.187500", "154422.647500", "154423.107500", "154423.567500", "154424.027500", "154424.487500", "154424.947500", "154425.407500", "154425.867500", "154426.327500", "154426.787500", "154427.247500", "154427.707500", "154428.167500", "154428.627500", "154429.087500", "154429.547500", "154430.007500", "154430.467500", "154430.927500", "154431.387500", "154431.847500", "154432.307500", "154432.767500", "154433.227500", "154433.687500", "154434.147500", "154434.607500", "154435.067500", "154435.527500", "154435.987500", "154436.447500", "154436.907500", "154437.367500", "154437.827500", "154438.287500", "154438.747500", "154439.207500", "154439.667500", "154440.127500", "154440.587500", "154441.047500", "154441.507500", "154441.967500", "154442.427500", "154442.887500", "154443.347500", "154443.807500", "154444.267500", "154444.727500", "154445.187500", "154445.647500", "154446.107500", "154446.567500", "154447.027500", "154447.487500", "154447.947500", "154448.407500", "154448.867500", "154449.327500", "154449.787500", "154450.247500", "154450.707500", "154451.167500", "154451.627500", "154452.087500", "154452.547500", "154453.007500", "154453.467500", "154453.927500", "154454.387500", "154454.847500", "154455.307500", "154455.767500", "154456.227500", "154456.687500", "154457.147500", "154457.607500", "154458.067500", "154458.527500", "154458.987500", "154459.447500", "154459.907500", "154500.367500", "154500.827500", "154501.287500", "154501.747500", "154502.207500", "154502.667500", "154503.127500", "154503.587500", "154504.047500", "154504.507500", "154504.967500", "154505.427500", "154505.887500", "154506.347500", "154506.807500", "154507.267500", "154507.727500", "154508.187500", "154508.647500", "154509.107500", "154509.567500", "154510.027500", "154510.487500", "154510.947500", "154511.407500", "154511.867500", "154512.327500", "154512.787500", "154513.247500", "154513.707500", "154514.167500", "154514.627500", "154515.087500", "154515.547500", "154516.007500", "154516.467500", "154516.927500", "154517.387500", "154517.847500", "154518.307500", "154518.767500", "154519.227500", "154519.687500", "154520.147500", "154520.607500", "154521.067500", "154521.527500", "154521.987500", "154522.447500", "154522.907500", "154523.367500", "154523.827500", "154524.287500", "154524.747500", "154525.207500", "154525.667500", "154526.127500", "154526.587500", "154527.047500", "154527.507500", "154527.967500", "154528.427500", "154528.887500", "154529.347500", "154529.807500", "154530.267500", "154530.727500", "154531.187500", "154531.647500", "154532.107500", "154532.567500", "154533.027500", "154533.487500", "154533.947500", "154534.407500", "154534.867500", "154535.327500", "154535.787500", "154536.247500", "154536.707500", "154537.167500", "154537.627500", "154538.087500", "154538.547500", "154539.007500", "154539.467500", "154539.927500", "154540.387500", "154540.847500", "154541.307500", "154541.767500", "154542.227500", "154542.687500", "154543.147500", "154543.607500", "154544.067500", "154544.527500", "154544.987500", "154545.447500", "154545.907500", "154546.367500", "154546.827500", "154547.287500", "154547.747500", "154548.207500", "154548.667500", "154549.127500", "154549.587500", "154550.047500", "154550.507500", "154550.967500", "154551.427500", "154551.887500", "154552.347500", "154552.807500", "154553.267500", "154553.727500", "154554.187500", "154554.647500", "154555.107500", "154555.567500", "154556.027500", "154556.487500", "154556.947500", "154557.407500", "154557.867500", "154558.327500", "154558.787500", "154559.247500", "154559.707500", "154600.167500", "154600.627500", "154601.087500", "154601.547500", "154602.007500", "154602.467500", "154602.927500", "154603.387500", "154603.847500", "154604.307500", "154604.767500", "154605.227500", "154605.687500", "154606.147500", "154606.607500", "154607.067500", "154607.527500", "154607.987500", "154608.447500", "154608.907500", "154609.367500", "154609.827500", "154610.287500", "154610.747500", "154611.207500", "154611.667500", "154612.127500", "154612.587500", "154613.047500", "154613.507500", "154613.967500", "154614.427500", "154614.887500", "154615.347500", "154615.807500", "154616.267500", "154616.727500", "154617.187500", "154617.647500", "154618.107500", "154618.567500", "154619.027500", "154619.487500", "154619.947500", "154620.407500", "154620.867500", "154621.327500", "154621.787500", "154622.247500", "154622.707500", "154623.167500", "154623.627500", "154624.087500", "154624.547500", "154625.007500", "154625.467500", "154625.927500", "154626.387500", "154626.847500", "154627.307500", "154627.767500", "154628.227500", "154628.687500", "154629.147500", "154629.607500", "154630.067500", "154630.527500", "154630.987500", "154631.447500", "154631.907500", "154632.367500", "154632.827500", "154633.287500", "154633.747500", "154634.207500", "154634.667500", "154635.127500", "154635.587500", "154636.047500", "154636.507500", "154636.967500", "154637.427500", "154637.887500", "154638.347500", "154638.807500", "154639.267500", "154639.727500", "154640.187500", "154640.647500", "154641.107500", "154641.567500", "154642.027500", "154642.487500", "154642.947500", "154643.407500", "154643.867500", "154644.327500", "154644.787500", "154645.247500", "154645.707500", "154646.167500", "154646.627500", "154647.087500", "154647.547500", "154648.007500", "154648.467500", "154648.927500", "154649.387500", "154649.847500", "154650.307500", "154650.767500", "154651.227500", "154651.687500", "154652.147500", "154652.607500", "154653.067500", "154653.527500", "154653.987500", "154654.447500", "154654.907500", "154655.367500", "154655.827500", "154656.287500", "154656.747500", "154657.207500", "154657.667500", "154658.127500", "154658.587500", "154659.047500", "154659.507500", "154659.967500", "154700.427500", "154700.887500", "154701.347500", "154701.807500", "154702.267500", "154702.727500", "154703.187500", "154703.647500", "154704.107500", "154704.567500", "154705.027500", "154705.487500", "154705.947500", "154706.407500", "154706.867500", "154707.327500", "154707.787500", "154708.247500", "154708.707500", "154709.167500", "154709.627500", "154710.087500", "154710.547500", "154711.007500", "154711.467500", "154711.927500", "154712.387500", "154712.847500", "154713.307500", "154713.767500", "154714.227500", "154714.687500", "154715.147500", "154715.607500", "154716.067500", "154716.527500", "154716.987500", "154717.447500", "154717.907500", "154718.367500", "154718.827500", "154719.287500", "154719.747500", "154720.207500", "154720.667500", "154721.127500", "154721.587500", "154722.047500", "154722.507500", "154722.967500", "154723.427500", "154723.887500", "154724.347500", "154724.807500", "154725.267500", "154725.727500", "154726.187500", "154726.647500", "154727.107500", "154727.567500", "154728.027500", "154728.487500", "154728.947500", "154729.407500", "154729.867500", "154730.327500", "154730.787500", "154731.247500", "154731.707500", "154732.167500", "154732.627500", "154733.087500", "154733.547500", "154734.007500", "154734.467500", "154734.927500", "154735.387500", "154735.847500", "154736.307500", "154736.767500", "154737.227500", "154737.687500", "154738.147500", "154738.607500", "154739.067500", "154739.527500", "154739.987500", "154740.447500", "154740.907500", "154741.367500", "154741.827500", "154742.287500", "154742.747500", "154743.207500", "154743.667500", "154744.127500", "154744.587500", "154745.047500", "154745.507500", "154745.967500", "154746.427500", "154746.887500", "154747.347500", "154747.807500", "154748.267500", "154748.727500", "154749.187500", "154749.647500", "154750.107500", "154750.567500", "154751.027500", "154751.487500", "154751.947500", "154752.407500", "154752.867500", "154753.327500", "154753.787500", "154754.247500", "154754.707500", "154755.167500", "154755.627500", "154756.087500", "154756.547500", "154757.007500", "154757.467500", "154757.927500", "154758.387500", "154758.847500", "154759.307500", "154759.767500", "154800.227500", "154800.687500", "154801.147500", "154801.607500", "154802.067500", "154802.527500", "154802.987500", "154803.447500", "154803.907500", "154804.367500", "154804.827500", "154805.287500", "154805.747500", "154806.207500", "154806.667500", "154807.127500", "154807.587500", "154808.047500", "154808.507500", "154808.967500", "154809.427500", "154809.887500", "154810.347500", "154810.807500", "154811.267500", "154811.727500", "154812.187500", "154812.647500", "154813.107500", "154813.567500", "154814.027500", "154814.487500", "154814.947500", "154815.407500", "154815.867500", "154816.327500", "154816.787500", "154817.247500", "154817.707500", "154818.167500", "154818.627500", "154819.087500", "154819.547500", "154820.007500", "154820.467500", "154820.927500", "154821.387500", "154821.847500", "154822.307500", "154822.767500", "154823.227500", "154823.687500", "154824.147500", "154824.607500", "154825.067500", "154825.527500", "154825.987500", "154826.447500", "154826.907500", "154827.367500", "154827.827500", "154828.287500", "154828.747500", "154829.207500", "154829.667500", "154830.127500", "154830.587500", "154831.047500", "154831.507500", "154831.967500", "154832.427500", "154832.887500", "154833.347500", "154833.807500", "154834.267500", "154834.727500", "154835.187500", "154835.647500", "154836.107500", "154836.567500", "154837.027500", "154837.487500", "154837.947500", "154838.407500", "154838.867500", "154839.327500", "154839.787500", "154840.247500", "154840.707500", "154841.167500", "154841.627500", "154842.087500", "154842.547500", "154843.007500", "154843.467500", "154843.927500", "154844.387500", "154844.847500", "154845.307500", "154845.767500", "154846.227500", "154846.687500", "154847.147500", "154847.607500", "154848.067500", "154848.527500", "154848.987500", "154849.447500", "154849.907500", "154850.367500", "154850.827500", "154851.287500", "154851.747500", "154852.207500", "154852.667500", "154853.127500", "154853.587500", "154854.047500", "154854.507500", "154854.967500", "154855.427500", "154855.887500", "154856.347500", "154856.807500", "154857.267500", "154857.727500", "154858.187500", "154858.647500", "154859.107500", "154859.567500", "154900.027500", "154900.487500", "154900.947500", "154901.407500", "154901.867500", "154902.327500", "154902.787500", "154903.247500", "154903.707500", "154904.167500", "154904.627500", "154905.087500", "154905.547500", "154906.007500", "154906.467500", "154906.927500", "154907.387500", "154907.847500", "154908.307500", "154908.767500", "154909.227500", "154909.687500", "154910.147500", "154910.607500", "154911.067500", "154911.527500", "154911.987500", "154912.447500", "154912.907500", "154913.367500", "154913.827500", "154914.287500", "154914.747500", "154915.207500", "154915.667500", "154916.127500", "154916.587500", "154917.047500", "154917.507500", "154917.967500", "154918.427500", "154918.887500", "154919.347500", "154919.807500", "154920.267500", "154920.727500", "154921.187500", "154921.647500", "154922.107500", "154922.567500", "154923.027500", "154923.487500", "154923.947500", "154924.407500", "154924.867500", "154925.327500", "154925.787500", "154926.247500", "154926.707500", "154927.167500", "154927.627500", "154928.087500", "154928.547500", "154929.007500", "154929.467500", "154929.927500", "154930.387500", "154930.847500", "154931.307500", "154931.767500", "154932.227500", "154932.687500", "154933.147500", "154933.607500", "154934.067500", "154934.527500", "154934.987500", "154935.447500", "154935.907500", "154936.367500", "154936.827500", "154937.287500", "154937.747500", "154938.207500", "154938.667500", "154939.127500", "154939.587500", "154940.047500", "154940.507500", "154940.967500", "154941.427500", "154941.887500", "154942.347500", "154942.807500", "154943.267500", "154943.727500", "154944.187500", "154944.647500", "154945.107500", "154945.567500", "154946.027500", "154946.487500", "154946.947500", "154947.407500", "154947.867500", "154948.327500", "154948.787500", "154949.247500", "154949.707500", "154950.167500", "154950.627500", "154951.087500", "154951.547500", "154952.007500", "154952.467500", "154952.927500", "154953.387500", "154953.847500", "154954.307500", "154954.767500", "154955.227500", "154955.687500", "154956.147500", "154956.607500", "154957.067500", "154957.527500", "154957.987500", "154958.447500", "154958.907500", "154959.367500", "154959.827500", "155000.287500", "155000.747500", "155001.207500", "155001.667500", "155002.127500", "155002.587500", "155003.047500", "155003.507500", "155003.967500", "155004.427500", "155004.887500", "155005.347500", "155005.807500", "155006.267500", "155006.727500", "155007.187500", "155007.647500", "155008.107500", "155008.567500", "155009.027500", "155009.487500", "155009.947500", "155010.407500", "155010.867500", "155011.327500", "155011.787500", "155012.247500", "155012.707500", "155013.167500", "155013.627500", "155014.087500", "155014.547500", "155015.007500", "155015.467500", "155015.927500", "155016.387500", "155016.847500", "155017.307500", "155017.767500", "155018.227500", "155018.687500", "155019.147500", "155019.607500", "155020.067500", "155020.527500", "155020.987500", "155021.447500", "155021.907500", "155022.367500", "155022.827500", "155023.287500", "155023.747500", "155024.207500", "155024.667500", "155025.127500", "155025.587500", "155026.047500", "155026.507500", "155026.967500", "155027.427500", "155027.887500", "155028.347500", "155028.807500", "155029.267500", "155029.727500", "155030.187500", "155030.647500", "155031.107500", "155031.567500", "155032.027500", "155032.487500", "155032.947500", "155033.407500", "155033.867500", "155034.327500", "155034.787500", "155035.247500", "155035.707500", "155036.167500", "155036.627500", "155037.087500", "155037.547500", "155038.007500", "155038.467500", "155038.927500", "155039.387500", "155039.847500", "155040.307500", "155040.767500", "155041.227500", "155041.687500", "155042.147500", "155042.607500", "155043.067500", "155043.527500", "155043.987500", "155044.447500", "155044.907500", "155045.367500", "155045.827500", "155046.287500", "155046.747500", "155047.207500", "155047.667500", "155048.127500", "155048.587500", "155049.047500", "155049.507500"],
