{
  "AcquisitionMatrixPE": 82,
  "AcquisitionNumber": 1,
  "AcquisitionTime": "15:21:10.362500",
  "BandwidthPerPixelPhaseEncode": 24.888,
  "BaseResolution": 82,
  "BodyPartExamined": "BRAIN",
  "ConsistencyInfo": "N4_VE11C_LATEST_20160120",
  "ConversionSoftware": "dcm2niix",
  "ConversionSoftwareVersion": "v1.0.20201102",
  "DerivedVendorReportedEchoSpacing": 0.00049,
  "DeviceSerialNumber": "66112",
  "DwellTime": 2e-06,
  "EchoTime": 0.0272,
  "EchoTrainLength": 82,
  "EffectiveEchoSpacing": 0.00049,
  "FlipAngle": 44,
  "ImageComments": "Unaliased MB8/PE3",
  "ImageOrientationPatientDICOM": [0.99971, 0.00513746, 0.0235341, -0.00697936, 0.996861, 0.0788641],
  "ImageType": [
    "ORIGINAL",
    "PRIMARY",
    "M",
    "MB",
    "ND",
    "NORM",
    "MOSAIC"
],
  "ImagingFrequency": 123.252,
  "InPlanePhaseEncodingDirectionDICOM": "COL",
  "InstitutionAddress": "Maynard 3,Hanover,NH,US,03755",
  "InstitutionName": "Dartmouth College - PBS",
  "InstitutionalDepartmentName": "Department",
  "MRAcquisitionType": "2D",
  "MagneticFieldStrength": 3,
  "Manufacturer": "Siemens",
  "ManufacturersModelName": "Prisma",
  "Modality": "MR",
  "MultibandAccelerationFactor": 8,
  "PartialFourier": 1,
  "PatientPosition": "HFS",
  "PercentPhaseFOV": 100,
  "PercentSampling": 100,
  "PhaseEncodingDirection": "j-",
  "PhaseEncodingSteps": 82,
  "PhaseResolution": 1,
  "PixelBandwidth": 3050,
  "ProcedureStepDescription": "Wager_Wager^1076_spacetop",
  "ProtocolName": "func_run-02_task-social_acq-ap-mb8",
  "PulseSequenceDetails": "%CustomerSeq%\\cmrr_mbep2d_bold",
  "ReceiveCoilActiveElements": "HEA;HEP",
  "ReceiveCoilName": "Head_32",
  "ReconMatrixPE": 82,
  "RepetitionTime": 0.46,
  "SAR": 0.0773131,
  "ScanOptions": "FS",
  "ScanningSequence": "EP",
  "SequenceName": "epfid2d1_82",
  "SequenceVariant": "SK\\SS",
  "SeriesDescription": "func_run-02_task-social_acq-ap-mb8",
  "SeriesNumber": 14,
  "ShimSetting": [4149, -7736, -7270, 645, -8, -215, 33, 62],
  "SliceThickness": 2.7,
  "SliceTiming": [0, 0.2525, 0.0625, 0.315, 0.125, 0.3775, 0.19, 0, 0.2525, 0.0625, 0.315, 0.125, 0.3775, 0.19, 0, 0.2525, 0.0625, 0.315, 0.125, 0.3775, 0.19, 0, 0.2525, 0.0625, 0.315, 0.125, 0.3775, 0.19, 0, 0.2525, 0.0625, 0.315, 0.125, 0.3775, 0.19, 0, 0.2525, 0.0625, 0.315, 0.125, 0.3775, 0.19, 0, 0.2525, 0.0625, 0.315, 0.125, 0.3775, 0.19, 0, 0.2525, 0.0625, 0.315, 0.125, 0.3775, 0.19],
  "SoftwareVersions": "syngo MR E11",
  "SpacingBetweenSlices": 2.7,
  "StationName": "AWP66112",
  "TaskName": "social",
  "TotalReadoutTime": 0.03969,
  "TxRefAmp": 226.791,
  "WipMemBlock": "4812c650-1d41-4cbd-b161-e77a9da9af0e||Sequence: R016 ve11c/master r/e634e98; Dec 19 2017 11:00:25 by eja",
  "dcmmeta_affine": [
    [-2.6821484565734863, -0.018725106492638588, 0.062248680740594864, 115.79949188232422],
    [-0.013783436268568039, 2.6745049953460693, 0.21331483125686646, -102.56494140625],
    [0.06314028054475784, -0.21158668398857117, 2.690840244293213, -68.00231170654297],
    [0.0, 0.0, 0.0, 1.0]
],
  "dcmmeta_reorient_transform": [
    [0.0, -1.0, 0.0, 81.0],
    [1.0, 0.0, 0.0, 0.0],
    [0.0, 0.0, 1.0, 0.0],
    [0.0, 0.0, 0.0, 1.0]
],
  "dcmmeta_shape": [82, 82, 56, 872],
  "dcmmeta_slice_dim": 2,
  "dcmmeta_version": 0.6,
  "global": {
    "const": {
      "AccessionNumber": "A003468",
      "AcquisitionMatrix": [82, 0, 0, 82],
      "AngioFlag": "N",
      "BitsAllocated": 16,
      "BitsStored": 16,
      "BodyPartExamined": "BRAIN",
      "Columns": 656,
      "EchoNumbers": 1,
      "EchoTime": 27.2,
      "EchoTrainLength": 82,
      "FlipAngle": 44.0,
      "HighBit": 15,
      "ImageOrientationPatient": [0.99970983411396, 0.00513746263487, 0.02353410405147, -0.0069793575448, 0.99686094231517, 0.07886412527108],
      "ImagePositionPatient": [-878.68524148479, -885.60875651988, -163.98747337119],
      "ImageType": [
        "ORIGINAL",
        "PRIMARY",
        "M",
        "MB",
        "ND",
        "NORM",
        "MOSAIC"
],
      "ImagedNucleus": "1H",
      "ImagingFrequency": 123.252175,
      "InPlanePhaseEncodingDirection": "COL",
      "MRAcquisitionType": "2D",
      "MagneticFieldStrength": 3.0,
      "Manufacturer": "SIEMENS",
      "ManufacturerModelName": "Prisma",
      "Modality": "MR",
      "NumberOfAverages": 1.0,
      "NumberOfPhaseEncodingSteps": 82,
      "PercentPhaseFieldOfView": 100.0,
      "PercentSampling": 100.0,
      "PerformedProcedureStepStartTime": "142114.224000",
      "PhotometricInterpretation": "MONOCHROME2",
      "PixelBandwidth": 3050.0,
      "PixelRepresentation": 0,
      "PixelSpacing": [2.6829268932343, 2.6829268932343],
      "ProtocolName": "func_run-02_task-social_acq-ap-mb8",
      "RepetitionTime": 460.0,
      "Rows": 656,
      "SAR": 0.07731308243049,
      "SamplesPerPixel": 1,
      "ScanOptions": "FS",
      "ScanningSequence": "EP",
      "SequenceName": "epfid2d1_82",
      "SequenceVariant": [
        "SK",
        "SS"
],
      "SeriesDescription": "func_run-02_task-social_acq-ap-mb8",
      "SeriesNumber": 14,
      "SeriesTime": "152129.212000",
      "SliceLocation": -73.205047555706,
      "SliceThickness": 2.7000000476837,
      "SmallestImagePixelValue": 0,
      "SoftwareVersions": "syngo MR E11",
      "SpacingBetweenSlices": 2.6999999199457,
      "SpecificCharacterSet": "ISO_IR 100",
      "StudyID": "1",
      "StudyTime": "142114.141000",
      "TransmitCoilName": "Body",
      "VariableFlipAngleFlag": "N",
      "WindowCenterWidthExplanation": "Algo1",
      "dBdt": 0.0},
    "slices": {}
  },
  "time": {
    "samples": {
      "AcquisitionNumber": [1, 2, 3, 4, 5, 6, 7, 8, 9, 10, 11, 12, 13, 14, 15, 16, 17, 18, 19, 20, 21, 22, 23, 24, 25, 26, 27, 28, 29, 30, 31, 32, 33, 34, 35, 36, 37, 38, 39, 40, 41, 42, 43, 44, 45, 46, 47, 48, 49, 50, 51, 52, 53, 54, 55, 56, 57, 58, 59, 60, 61, 62, 63, 64, 65, 66, 67, 68, 69, 70, 71, 72, 73, 74, 75, 76, 77, 78, 79, 80, 81, 82, 83, 84, 85, 86, 87, 88, 89, 90, 91, 92, 93, 94, 95, 96, 97, 98, 99, 100, 101, 102, 103, 104, 105, 106, 107, 108, 109, 110, 111, 112, 113, 114, 115, 116, 117, 118, 119, 120, 121, 122, 123, 124, 125, 126, 127, 128, 129, 130, 131, 132, 133, 134, 135, 136, 137, 138, 139, 140, 141, 142, 143, 144, 145, 146, 147, 148, 149, 150, 151, 152, 153, 154, 155, 156, 157, 158, 159, 160, 161, 162, 163, 164, 165, 166, 167, 168, 169, 170, 171, 172, 173, 174, 175, 176, 177, 178, 179, 180, 181, 182, 183, 184, 185, 186, 187, 188, 189, 190, 191, 192, 193, 194, 195, 196, 197, 198, 199, 200, 201, 202, 203, 204, 205, 206, 207, 208, 209, 210, 211, 212, 213, 214, 215, 216, 217, 218, 219, 220, 221, 222, 223, 224, 225, 226, 227, 228, 229, 230, 231, 232, 233, 234, 235, 236, 237, 238, 239, 240, 241, 242, 243, 244, 245, 246, 247, 248, 249, 250, 251, 252, 253, 254, 255, 256, 257, 258, 259, 260, 261, 262, 263, 264, 265, 266, 267, 268, 269, 270, 271, 272, 273, 274, 275, 276, 277, 278, 279, 280, 281, 282, 283, 284, 285, 286, 287, 288, 289, 290, 291, 292, 293, 294, 295, 296, 297, 298, 299, 300, 301, 302, 303, 304, 305, 306, 307, 308, 309, 310, 311, 312, 313, 314, 315, 316, 317, 318, 319, 320, 321, 322, 323, 324, 325, 326, 327, 328, 329, 330, 331, 332, 333, 334, 335, 336, 337, 338, 339, 340, 341, 342, 343, 344, 345, 346, 347, 348, 349, 350, 351, 352, 353, 354, 355, 356, 357, 358, 359, 360, 361, 362, 363, 364, 365, 366, 367, 368, 369, 370, 371, 372, 373, 374, 375, 376, 377, 378, 379, 380, 381, 382, 383, 384, 385, 386, 387, 388, 389, 390, 391, 392, 393, 394, 395, 396, 397, 398, 399, 400, 401, 402, 403, 404, 405, 406, 407, 408, 409, 410, 411, 412, 413, 414, 415, 416, 417, 418, 419, 420, 421, 422, 423, 424, 425, 426, 427, 428, 429, 430, 431, 432, 433, 434, 435, 436, 437, 438, 439, 440, 441, 442, 443, 444, 445, 446, 447, 448, 449, 450, 451, 452, 453, 454, 455, 456, 457, 458, 459, 460, 461, 462, 463, 464, 465, 466, 467, 468, 469, 470, 471, 472, 473, 474, 475, 476, 477, 478, 479, 480, 481, 482, 483, 484, 485, 486, 487, 488, 489, 490, 491, 492, 493, 494, 495, 496, 497, 498, 499, 500, 501, 502, 503, 504, 505, 506, 507, 508, 509, 510, 511, 512, 513, 514, 515, 516, 517, 518, 519, 520, 521, 522, 523, 524, 525, 526, 527, 528, 529, 530, 531, 532, 533, 534, 535, 536, 537, 538, 539, 540, 541, 542, 543, 544, 545, 546, 547, 548, 549, 550, 551, 552, 553, 554, 555, 556, 557, 558, 559, 560, 561, 562, 563, 564, 565, 566, 567, 568, 569, 570, 571, 572, 573, 574, 575, 576, 577, 578, 579, 580, 581, 582, 583, 584, 585, 586, 587, 588, 589, 590, 591, 592, 593, 594, 595, 596, 597, 598, 599, 600, 601, 602, 603, 604, 605, 606, 607, 608, 609, 610, 611, 612, 613, 614, 615, 616, 617, 618, 619, 620, 621, 622, 623, 624, 625, 626, 627, 628, 629, 630, 631, 632, 633, 634, 635, 636, 637, 638, 639, 640, 641, 642, 643, 644, 645, 646, 647, 648, 649, 650, 651, 652, 653, 654, 655, 656, 657, 658, 659, 660, 661, 662, 663, 664, 665, 666, 667, 668, 669, 670, 671, 672, 673, 674, 675, 676, 677, 678, 679, 680, 681, 682, 683, 684, 685, 686, 687, 688, 689, 690, 691, 692, 693, 694, 695, 696, 697, 698, 699, 700, 701, 702, 703, 704, 705, 706, 707, 708, 709, 710, 711, 712, 713, 714, 715, 716, 717, 718, 719, 720, 721, 722, 723, 724, 725, 726, 727, 728, 729, 730, 731, 732, 733, 734, 735, 736, 737, 738, 739, 740, 741, 742, 743, 744, 745, 746, 747, 748, 749, 750, 751, 752, 753, 754, 755, 756, 757, 758, 759, 760, 761, 762, 763, 764, 765, 766, 767, 768, 769, 770, 771, 772, 773, 774, 775, 776, 777, 778, 779, 780, 781, 782, 783, 784, 785, 786, 787, 788, 789, 790, 791, 792, 793, 794, 795, 796, 797, 798, 799, 800, 801, 802, 803, 804, 805, 806, 807, 808, 809, 810, 811, 812, 813, 814, 815, 816, 817, 818, 819, 820, 821, 822, 823, 824, 825, 826, 827, 828, 829, 830, 831, 832, 833, 834, 835, 836, 837, 838, 839, 840, 841, 842, 843, 844, 845, 846, 847, 848, 849, 850, 851, 852, 853, 854, 855, 856, 857, 858, 859, 860, 861, 862, 863, 864, 865, 866, 867, 868, 869, 870, 871, 872],
      "AcquisitionTime": ["152110.362500", "152110.822500", "152111.282500", "152111.742500", "152112.202500", "152112.662500", "152113.122500", "152113.582500", "152114.042500", "152114.502500", "152114.962500", "152115.422500", "152115.882500", "152116.342500", "152116.802500", "152117.262500", "152117.722500", "152118.182500", "152118.642500", "152119.102500", "152119.562500", "152120.022500", "152120.482500", "152120.942500", "152121.402500", "152121.862500", "152122.322500", "152122.782500", "152123.242500", "152123.702500", "152124.162500", "152124.622500", "152125.082500", "152125.542500", "152126.002500", "152126.462500", "152126.922500", "152127.382500", "152127.842500", "152128.302500", "152128.762500", "152129.222500", "152129.682500", "152130.142500", "152130.602500", "152131.062500", "152131.522500", "152131.982500", "152132.442500", "152132.902500", "152133.362500", "152133.822500", "152134.282500", "152134.742500", "152135.202500", "152135.662500", "152136.122500", "152136.582500", "152137.042500", "152137.502500", "152137.962500", "152138.422500", "152138.882500", "152139.342500", "152139.802500", "152140.262500", "152140.722500", "152141.182500", "152141.642500", "152142.102500", "152142.562500", "152143.022500", "152143.482500", "152143.942500", "152144.402500", "152144.862500", "152145.322500", "152145.782500", "152146.242500", "152146.702500", "152147.162500", "152147.622500", "152148.082500", "152148.542500", "152149.002500", "152149.462500", "152149.922500", "152150.382500", "152150.842500", "152151.302500", "152151.762500", "152152.222500", "152152.682500", "152153.142500", "152153.602500", "152154.062500", "152154.522500", "152154.982500", "152155.442500", "152155.902500", "152156.362500", "152156.822500", "152157.282500", "152157.742500", "152158.202500", "152158.662500", "152159.122500", "152159.582500", "152200.042500", "152200.502500", "152200.962500", "152201.422500", "152201.882500", "152202.342500", "152202.802500", "152203.262500", "152203.722500", "152204.182500", "152204.642500", "152205.102500", "152205.562500", "152206.022500", "152206.482500", "152206.942500", "152207.402500", "152207.862500", "152208.322500", "152208.782500", "152209.242500", "152209.702500", "152210.162500", "152210.622500", "152211.082500", "152211.542500", "152212.002500", "152212.462500", "152212.922500", "152213.382500", "152213.842500", "152214.302500", "152214.762500", "152215.222500", "152215.682500", "152216.142500", "152216.602500", "152217.062500", "152217.522500", "152217.982500", "152218.442500", "152218.902500", "152219.362500", "152219.822500", "152220.282500", "152220.742500", "152221.202500", "152221.662500", "152222.122500", "152222.582500", "152223.042500", "152223.502500", "152223.962500", "152224.422500", "152224.882500", "152225.342500", "152225.802500", "152226.262500", "152226.722500", "152227.182500", "152227.642500", "152228.102500", "152228.562500", "152229.022500", "152229.482500", "152229.942500", "152230.402500", "152230.862500", "152231.322500", "152231.782500", "152232.242500", "152232.702500", "152233.162500", "152233.622500", "152234.082500", "152234.542500", "152235.002500", "152235.462500", "152235.922500", "152236.382500", "152236.842500", "152237.302500", "152237.762500", "152238.222500", "152238.682500", "152239.142500", "152239.602500", "152240.062500", "152240.522500", "152240.982500", "152241.442500", "152241.902500", "152242.362500", "152242.822500", "152243.282500", "152243.742500", "152244.202500", "152244.662500", "152245.122500", "152245.582500", "152246.042500", "152246.502500", "152246.962500", "152247.422500", "152247.882500", "152248.342500", "152248.802500", "152249.262500", "152249.722500", "152250.182500", "152250.642500", "152251.102500", "152251.562500", "152252.022500", "152252.482500", "152252.942500", "152253.402500", "152253.862500", "152254.322500", "152254.782500", "152255.242500", "152255.702500", "152256.162500", "152256.622500", "152257.082500", "152257.542500", "152258.002500", "152258.462500", "152258.922500", "152259.382500", "152259.842500", "152300.302500", "152300.762500", "152301.222500", "152301.682500", "152302.142500", "152302.602500", "152303.062500", "152303.522500", "152303.982500", "152304.442500", "152304.902500", "152305.362500", "152305.822500", "152306.282500", "152306.742500", "152307.202500", "152307.662500", "152308.122500", "152308.582500", "152309.042500", "152309.502500", "152309.962500", "152310.422500", "152310.882500", "152311.342500", "152311.802500", "152312.262500", "152312.722500", "152313.182500", "152313.642500", "152314.102500", "152314.562500", "152315.022500", "152315.482500", "152315.942500", "152316.402500", "152316.862500", "152317.322500", "152317.782500", "152318.242500", "152318.702500", "152319.162500", "152319.622500", "152320.082500", "152320.542500", "152321.002500", "152321.462500", "152321.922500", "152322.382500", "152322.842500", "152323.302500", "152323.762500", "152324.222500", "152324.682500", "152325.142500", "152325.602500", "152326.062500", "152326.522500", "152326.982500", "152327.442500", "152327.902500", "152328.362500", "152328.822500", "152329.282500", "152329.742500", "152330.202500", "152330.662500", "152331.122500", "152331.582500", "152332.042500", "152332.502500", "152332.962500", "152333.422500", "152333.882500", "152334.342500", "152334.802500", "152335.262500", "152335.722500", "152336.182500", "152336.642500", "152337.102500", "152337.562500", "152338.022500", "152338.482500", "152338.942500", "152339.402500", "152339.862500", "152340.322500", "152340.782500", "152341.242500", "152341.702500", "152342.162500", "152342.622500", "152343.082500", "152343.542500", "152344.002500", "152344.462500", "152344.922500", "152345.382500", "152345.842500", "152346.302500", "152346.762500", "152347.222500", "152347.682500", "152348.142500", "152348.602500", "152349.062500", "152349.522500", "152349.982500", "152350.442500", "152350.902500", "152351.362500", "152351.822500", "152352.282500", "152352.742500", "152353.202500", "152353.662500", "152354.122500", "152354.582500", "152355.042500", "152355.502500", "152355.962500", "152356.422500", "152356.882500", "152357.342500", "152357.802500", "152358.262500", "152358.722500", "152359.182500", "152359.642500", "152400.102500", "152400.562500", "152401.022500", "152401.482500", "152401.942500", "152402.402500", "152402.862500", "152403.322500", "152403.782500", "152404.242500", "152404.702500", "152405.162500", "152405.622500", "152406.082500", "152406.542500", "152407.002500", "152407.462500", "152407.922500", "152408.382500", "152408.842500", "152409.302500", "152409.762500", "152410.222500", "152410.682500", "152411.142500", "152411.602500", "152412.062500", "152412.522500", "152412.982500", "152413.442500", "152413.902500", "152414.362500", "152414.822500", "152415.282500", "152415.742500", "152416.202500", "152416.662500", "152417.122500", "152417.582500", "152418.042500", "152418.502500", "152418.962500", "152419.422500", "152419.882500", "152420.342500", "152420.802500", "152421.262500", "152421.722500", "152422.182500", "152422.642500", "152423.102500", "152423.562500", "152424.022500", "152424.482500", "152424.942500", "152425.402500", "152425.862500", "152426.322500", "152426.782500", "152427.242500", "152427.702500", "152428.162500", "152428.622500", "152429.082500", "152429.542500", "152430.002500", "152430.462500", "152430.922500", "152431.382500", "152431.842500", "152432.302500", "152432.762500", "152433.222500", "152433.682500", "152434.142500", "152434.602500", "152435.062500", "152435.522500", "152435.982500", "152436.442500", "152436.902500", "152437.362500", "152437.822500", "152438.282500", "152438.742500", "152439.202500", "152439.662500", "152440.122500", "152440.582500", "152441.042500", "152441.502500", "152441.962500", "152442.422500", "152442.882500", "152443.342500", "152443.802500", "152444.262500", "152444.722500", "152445.182500", "152445.642500", "152446.102500", "152446.562500", "152447.022500", "152447.482500", "152447.942500", "152448.402500", "152448.862500", "152449.322500", "152449.782500", "152450.242500", "152450.702500", "152451.162500", "152451.622500", "152452.082500", "152452.542500", "152453.002500", "152453.462500", "152453.922500", "152454.382500", "152454.842500", "152455.302500", "152455.762500", "152456.222500", "152456.682500", "152457.142500", "152457.602500", "152458.062500", "152458.522500", "152458.982500", "152459.442500", "152459.902500", "152500.362500", "152500.822500", "152501.282500", "152501.742500", "152502.202500", "152502.662500", "152503.122500", "152503.582500", "152504.042500", "152504.502500", "152504.962500", "152505.422500", "152505.882500", "152506.342500", "152506.802500", "152507.262500", "152507.722500", "152508.182500", "152508.642500", "152509.102500", "152509.562500", "152510.022500", "152510.482500", "152510.942500", "152511.402500", "152511.862500", "152512.322500", "152512.782500", "152513.242500", "152513.702500", "152514.162500", "152514.622500", "152515.082500", "152515.542500", "152516.002500", "152516.462500", "152516.922500", "152517.382500", "152517.842500", "152518.302500", "152518.762500", "152519.222500", "152519.682500", "152520.142500", "152520.602500", "152521.062500", "152521.522500", "152521.982500", "152522.442500", "152522.902500", "152523.362500", "152523.822500", "152524.282500", "152524.742500", "152525.202500", "152525.662500", "152526.122500", "152526.582500", "152527.042500", "152527.502500", "152527.962500", "152528.422500", "152528.882500", "152529.342500", "152529.802500", "152530.262500", "152530.722500", "152531.182500", "152531.642500", "152532.102500", "152532.562500", "152533.022500", "152533.482500", "152533.942500", "152534.402500", "152534.862500", "152535.322500", "152535.782500", "152536.242500", "152536.702500", "152537.162500", "152537.622500", "152538.082500", "152538.542500", "152539.002500", "152539.462500", "152539.922500", "152540.382500", "152540.842500", "152541.302500", "152541.762500", "152542.222500", "152542.682500", "152543.142500", "152543.602500", "152544.062500", "152544.522500", "152544.982500", "152545.442500", "152545.902500", "152546.362500", "152546.822500", "152547.282500", "152547.742500", "152548.202500", "152548.662500", "152549.122500", "152549.582500", "152550.042500", "152550.502500", "152550.962500", "152551.422500", "152551.882500", "152552.342500", "152552.802500", "152553.262500", "152553.722500", "152554.182500", "152554.642500", "152555.102500", "152555.562500", "152556.022500", "152556.482500", "152556.942500", "152557.402500", "152557.862500", "152558.322500", "152558.782500", "152559.242500", "152559.702500", "152600.162500", "152600.622500", "152601.082500", "152601.542500", "152602.002500", "152602.462500", "152602.922500", "152603.382500", "152603.842500", "152604.302500", "152604.762500", "152605.222500", "152605.682500", "152606.142500", "152606.602500", "152607.062500", "152607.522500", "152607.982500", "152608.442500", "152608.902500", "152609.362500", "152609.822500", "152610.282500", "152610.742500", "152611.202500", "152611.662500", "152612.122500", "152612.582500", "152613.042500", "152613.502500", "152613.962500", "152614.422500", "152614.882500", "152615.342500", "152615.802500", "152616.262500", "152616.722500", "152617.182500", "152617.642500", "152618.102500", "152618.562500", "152619.022500", "152619.482500", "152619.942500", "152620.402500", "152620.862500", "152621.322500", "152621.782500", "152622.242500", "152622.702500", "152623.162500", "152623.622500", "152624.082500", "152624.542500", "152625.002500", "152625.462500", "152625.922500", "152626.382500", "152626.842500", "152627.302500", "152627.762500", "152628.222500", "152628.682500", "152629.142500", "152629.602500", "152630.062500", "152630.522500", "152630.982500", "152631.442500", "152631.902500", "152632.362500", "152632.822500", "152633.282500", "152633.742500", "152634.202500", "152634.662500", "152635.122500", "152635.582500", "152636.042500", "152636.502500", "152636.962500", "152637.422500", "152637.882500", "152638.342500", "152638.802500", "152639.262500", "152639.722500", "152640.182500", "152640.642500", "152641.102500", "152641.562500", "152642.022500", "152642.482500", "152642.942500", "152643.402500", "152643.862500", "152644.322500", "152644.782500", "152645.242500", "152645.702500", "152646.162500", "152646.622500", "152647.082500", "152647.542500", "152648.002500", "152648.462500", "152648.922500", "152649.382500", "152649.842500", "152650.302500", "152650.762500", "152651.222500", "152651.682500", "152652.142500", "152652.602500", "152653.062500", "152653.522500", "152653.982500", "152654.442500", "152654.902500", "152655.362500", "152655.822500", "152656.282500", "152656.742500", "152657.202500", "152657.662500", "152658.122500", "152658.582500", "152659.042500", "152659.502500", "152659.962500", "152700.422500", "152700.882500", "152701.342500", "152701.802500", "152702.262500", "152702.722500", "152703.182500", "152703.642500", "152704.102500", "152704.562500", "152705.022500", "152705.482500", "152705.942500", "152706.402500", "152706.862500", "152707.322500", "152707.782500", "152708.242500", "152708.702500", "152709.162500", "152709.622500", "152710.082500", "152710.542500", "152711.002500", "152711.462500", "152711.922500", "152712.382500", "152712.842500", "152713.302500", "152713.762500", "152714.222500", "152714.682500", "152715.142500", "152715.602500", "152716.062500", "152716.522500", "152716.982500", "152717.442500", "152717.902500", "152718.362500", "152718.822500", "152719.282500", "152719.742500", "152720.202500", "152720.662500", "152721.122500", "152721.582500", "152722.042500", "152722.502500", "152722.962500", "152723.422500", "152723.882500", "152724.342500", "152724.802500", "152725.262500", "152725.722500", "152726.182500", "152726.642500", "152727.102500", "152727.562500", "152728.022500", "152728.482500", "152728.942500", "152729.402500", "152729.862500", "152730.322500", "152730.782500", "152731.242500", "152731.702500", "152732.162500", "152732.622500", "152733.082500", "152733.542500", "152734.002500", "152734.462500", "152734.922500", "152735.382500", "152735.842500", "152736.302500", "152736.762500", "152737.222500", "152737.682500", "152738.142500", "152738.602500", "152739.062500", "152739.522500", "152739.982500", "152740.442500", "152740.902500", "152741.362500", "152741.822500", "152742.282500", "152742.742500", "152743.202500", "152743.662500", "152744.122500", "152744.582500", "152745.042500", "152745.502500", "152745.962500", "152746.422500", "152746.882500", "152747.342500", "152747.802500", "152748.262500", "152748.722500", "152749.182500", "152749.642500", "152750.102500", "152750.562500", "152751.022500"],
