{
  "AcquisitionMatrixPE": 82,
  "AcquisitionNumber": 1,
  "AcquisitionTime": "15:35:9.345000",
  "BandwidthPerPixelPhaseEncode": 24.888,
  "BaseResolution": 82,
  "BodyPartExamined": "BRAIN",
  "ConsistencyInfo": "N4_VE11C_LATEST_20160120",
  "ConversionSoftware": "dcm2niix",
  "ConversionSoftwareVersion": "v1.0.20201102",
  "DerivedVendorReportedEchoSpacing": 0.00049,
  "DeviceSerialNumber": "66112",
  "DwellTime": 2e-06,
  "EchoTime": 0.0272,
  "EchoTrainLength": 82,
  "EffectiveEchoSpacing": 0.00049,
  "FlipAngle": 44,
  "ImageComments": "Unaliased MB8/PE3",
  "ImageOrientationPatientDICOM": [0.99971, 0.00513746, 0.0235341, -0.00697936, 0.996861, 0.0788641],
  "ImageType": [
    "ORIGINAL",
    "PRIMARY",
    "M",
    "MB",
    "ND",
    "NORM",
    "MOSAIC"
],
  "ImagingFrequency": 123.252,
  "InPlanePhaseEncodingDirectionDICOM": "COL",
  "InstitutionAddress": "Maynard 3,Hanover,NH,US,03755",
  "InstitutionName": "Dartmouth College - PBS",
  "InstitutionalDepartmentName": "Department",
  "MRAcquisitionType": "2D",
  "MagneticFieldStrength": 3,
  "Manufacturer": "Siemens",
  "ManufacturersModelName": "Prisma",
  "Modality": "MR",
  "MultibandAccelerationFactor": 8,
  "PartialFourier": 1,
  "PatientPosition": "HFS",
  "PercentPhaseFOV": 100,
  "PercentSampling": 100,
  "PhaseEncodingDirection": "j-",
  "PhaseEncodingSteps": 82,
  "PhaseResolution": 1,
  "PixelBandwidth": 3050,
  "ProcedureStepDescription": "Wager_Wager^1076_spacetop",
  "ProtocolName": "func_run-04_task-social_acq-ap-mb8",
  "PulseSequenceDetails": "%CustomerSeq%\\cmrr_mbep2d_bold",
  "ReceiveCoilActiveElements": "HEA;HEP",
  "ReceiveCoilName": "Head_32",
  "ReconMatrixPE": 82,
  "RepetitionTime": 0.46,
  "SAR": 0.0773131,
  "ScanOptions": "FS",
  "ScanningSequence": "EP",
  "SequenceName": "epfid2d1_82",
  "SequenceVariant": "SK\\SS",
  "SeriesDescription": "func_run-04_task-social_acq-ap-mb8",
  "SeriesNumber": 18,
  "ShimSetting": [4149, -7736, -7270, 645, -8, -215, 33, 62],
  "SliceThickness": 2.7,
  "SliceTiming": [0, 0.25, 0.0625, 0.315, 0.125, 0.3775, 0.1875, 0, 0.25, 0.0625, 0.315, 0.125, 0.3775, 0.1875, 0, 0.25, 0.0625, 0.315, 0.125, 0.3775, 0.1875, 0, 0.25, 0.0625, 0.315, 0.125, 0.3775, 0.1875, 0, 0.25, 0.0625, 0.315, 0.125, 0.3775, 0.1875, 0, 0.25, 0.0625, 0.315, 0.125, 0.3775, 0.1875, 0, 0.25, 0.0625, 0.315, 0.125, 0.3775, 0.1875, 0, 0.25, 0.0625, 0.315, 0.125, 0.3775, 0.1875],
  "SoftwareVersions": "syngo MR E11",
  "SpacingBetweenSlices": 2.7,
  "StationName": "AWP66112",
  "TaskName": "social",
  "TotalReadoutTime": 0.03969,
  "TxRefAmp": 226.791,
  "WipMemBlock": "fa43cedf-2eec-49a9-aa9d-f31b80ebb7e3||Sequence: R016 ve11c/master r/e634e98; Dec 19 2017 11:00:25 by eja",
  "dcmmeta_affine": [
    [-2.6821484565734863, -0.018725106492638588, 0.062248680740594864, 115.79949188232422],
    [-0.013783436268568039, 2.6745049953460693, 0.21331483125686646, -102.56494140625],
    [0.06314028054475784, -0.21158668398857117, 2.690840244293213, -68.00231170654297],
    [0.0, 0.0, 0.0, 1.0]
],
  "dcmmeta_reorient_transform": [
    [0.0, -1.0, 0.0, 81.0],
    [1.0, 0.0, 0.0, 0.0],
    [0.0, 0.0, 1.0, 0.0],
    [0.0, 0.0, 0.0, 1.0]
],
  "dcmmeta_shape": [82, 82, 56, 872],
  "dcmmeta_slice_dim": 2,
  "dcmmeta_version": 0.6,
  "global": {
    "const": {
      "AccessionNumber": "A003468",
      "AcquisitionMatrix": [82, 0, 0, 82],
      "AngioFlag": "N",
      "BitsAllocated": 16,
      "BitsStored": 16,
      "BodyPartExamined": "BRAIN",
      "Columns": 656,
      "EchoNumbers": 1,
      "EchoTime": 27.2,
      "EchoTrainLength": 82,
      "FlipAngle": 44.0,
      "HighBit": 15,
      "ImageOrientationPatient": [0.99970983411396, 0.00513746263487, 0.02353410405147, -0.0069793575448, 0.99686094231517, 0.07886412527108],
      "ImagePositionPatient": [-878.68524148479, -885.60875651988, -163.98747337119],
      "ImageType": [
        "ORIGINAL",
        "PRIMARY",
        "M",
        "MB",
        "ND",
        "NORM",
        "MOSAIC"
],
      "ImagedNucleus": "1H",
      "ImagingFrequency": 123.252181,
      "InPlanePhaseEncodingDirection": "COL",
      "MRAcquisitionType": "2D",
      "MagneticFieldStrength": 3.0,
      "Manufacturer": "SIEMENS",
      "ManufacturerModelName": "Prisma",
      "Modality": "MR",
      "NumberOfAverages": 1.0,
      "NumberOfPhaseEncodingSteps": 82,
      "PercentPhaseFieldOfView": 100.0,
      "PercentSampling": 100.0,
      "PerformedProcedureStepStartTime": "142114.224000",
      "PhotometricInterpretation": "MONOCHROME2",
      "PixelBandwidth": 3050.0,
      "PixelRepresentation": 0,
      "PixelSpacing": [2.6829268932343, 2.6829268932343],
      "ProtocolName": "func_run-04_task-social_acq-ap-mb8",
      "RepetitionTime": 460.0,
      "Rows": 656,
      "SAR": 0.07731308243049,
      "SamplesPerPixel": 1,
      "ScanOptions": "FS",
      "ScanningSequence": "EP",
      "SequenceName": "epfid2d1_82",
      "SequenceVariant": [
        "SK",
        "SS"
],
      "SeriesDescription": "func_run-04_task-social_acq-ap-mb8",
      "SeriesNumber": 18,
      "SeriesTime": "153529.343000",
      "SliceLocation": -73.205047555706,
      "SliceThickness": 2.7000000476837,
      "SmallestImagePixelValue": 0,
      "SoftwareVersions": "syngo MR E11",
      "SpacingBetweenSlices": 2.6999999199457,
      "SpecificCharacterSet": "ISO_IR 100",
      "StudyID": "1",
      "StudyTime": "142114.141000",
      "TransmitCoilName": "Body",
      "VariableFlipAngleFlag": "N",
      "WindowCenterWidthExplanation": "Algo1",
      "dBdt": 0.0},
    "slices": {}
  },
  "time": {
    "samples": {
      "AcquisitionNumber": [1, 2, 3, 4, 5, 6, 7, 8, 9, 10, 11, 12, 13, 14, 15, 16, 17, 18, 19, 20, 21, 22, 23, 24, 25, 26, 27, 28, 29, 30, 31, 32, 33, 34, 35, 36, 37, 38, 39, 40, 41, 42, 43, 44, 45, 46, 47, 48, 49, 50, 51, 52, 53, 54, 55, 56, 57, 58, 59, 60, 61, 62, 63, 64, 65, 66, 67, 68, 69, 70, 71, 72, 73, 74, 75, 76, 77, 78, 79, 80, 81, 82, 83, 84, 85, 86, 87, 88, 89, 90, 91, 92, 93, 94, 95, 96, 97, 98, 99, 100, 101, 102, 103, 104, 105, 106, 107, 108, 109, 110, 111, 112, 113, 114, 115, 116, 117, 118, 119, 120, 121, 122, 123, 124, 125, 126, 127, 128, 129, 130, 131, 132, 133, 134, 135, 136, 137, 138, 139, 140, 141, 142, 143, 144, 145, 146, 147, 148, 149, 150, 151, 152, 153, 154, 155, 156, 157, 158, 159, 160, 161, 162, 163, 164, 165, 166, 167, 168, 169, 170, 171, 172, 173, 174, 175, 176, 177, 178, 179, 180, 181, 182, 183, 184, 185, 186, 187, 188, 189, 190, 191, 192, 193, 194, 195, 196, 197, 198, 199, 200, 201, 202, 203, 204, 205, 206, 207, 208, 209, 210, 211, 212, 213, 214, 215, 216, 217, 218, 219, 220, 221, 222, 223, 224, 225, 226, 227, 228, 229, 230, 231, 232, 233, 234, 235, 236, 237, 238, 239, 240, 241, 242, 243, 244, 245, 246, 247, 248, 249, 250, 251, 252, 253, 254, 255, 256, 257, 258, 259, 260, 261, 262, 263, 264, 265, 266, 267, 268, 269, 270, 271, 272, 273, 274, 275, 276, 277, 278, 279, 280, 281, 282, 283, 284, 285, 286, 287, 288, 289, 290, 291, 292, 293, 294, 295, 296, 297, 298, 299, 300, 301, 302, 303, 304, 305, 306, 307, 308, 309, 310, 311, 312, 313, 314, 315, 316, 317, 318, 319, 320, 321, 322, 323, 324, 325, 326, 327, 328, 329, 330, 331, 332, 333, 334, 335, 336, 337, 338, 339, 340, 341, 342, 343, 344, 345, 346, 347, 348, 349, 350, 351, 352, 353, 354, 355, 356, 357, 358, 359, 360, 361, 362, 363, 364, 365, 366, 367, 368, 369, 370, 371, 372, 373, 374, 375, 376, 377, 378, 379, 380, 381, 382, 383, 384, 385, 386, 387, 388, 389, 390, 391, 392, 393, 394, 395, 396, 397, 398, 399, 400, 401, 402, 403, 404, 405, 406, 407, 408, 409, 410, 411, 412, 413, 414, 415, 416, 417, 418, 419, 420, 421, 422, 423, 424, 425, 426, 427, 428, 429, 430, 431, 432, 433, 434, 435, 436, 437, 438, 439, 440, 441, 442, 443, 444, 445, 446, 447, 448, 449, 450, 451, 452, 453, 454, 455, 456, 457, 458, 459, 460, 461, 462, 463, 464, 465, 466, 467, 468, 469, 470, 471, 472, 473, 474, 475, 476, 477, 478, 479, 480, 481, 482, 483, 484, 485, 486, 487, 488, 489, 490, 491, 492, 493, 494, 495, 496, 497, 498, 499, 500, 501, 502, 503, 504, 505, 506, 507, 508, 509, 510, 511, 512, 513, 514, 515, 516, 517, 518, 519, 520, 521, 522, 523, 524, 525, 526, 527, 528, 529, 530, 531, 532, 533, 534, 535, 536, 537, 538, 539, 540, 541, 542, 543, 544, 545, 546, 547, 548, 549, 550, 551, 552, 553, 554, 555, 556, 557, 558, 559, 560, 561, 562, 563, 564, 565, 566, 567, 568, 569, 570, 571, 572, 573, 574, 575, 576, 577, 578, 579, 580, 581, 582, 583, 584, 585, 586, 587, 588, 589, 590, 591, 592, 593, 594, 595, 596, 597, 598, 599, 600, 601, 602, 603, 604, 605, 606, 607, 608, 609, 610, 611, 612, 613, 614, 615, 616, 617, 618, 619, 620, 621, 622, 623, 624, 625, 626, 627, 628, 629, 630, 631, 632, 633, 634, 635, 636, 637, 638, 639, 640, 641, 642, 643, 644, 645, 646, 647, 648, 649, 650, 651, 652, 653, 654, 655, 656, 657, 658, 659, 660, 661, 662, 663, 664, 665, 666, 667, 668, 669, 670, 671, 672, 673, 674, 675, 676, 677, 678, 679, 680, 681, 682, 683, 684, 685, 686, 687, 688, 689, 690, 691, 692, 693, 694, 695, 696, 697, 698, 699, 700, 701, 702, 703, 704, 705, 706, 707, 708, 709, 710, 711, 712, 713, 714, 715, 716, 717, 718, 719, 720, 721, 722, 723, 724, 725, 726, 727, 728, 729, 730, 731, 732, 733, 734, 735, 736, 737, 738, 739, 740, 741, 742, 743, 744, 745, 746, 747, 748, 749, 750, 751, 752, 753, 754, 755, 756, 757, 758, 759, 760, 761, 762, 763, 764, 765, 766, 767, 768, 769, 770, 771, 772, 773, 774, 775, 776, 777, 778, 779, 780, 781, 782, 783, 784, 785, 786, 787, 788, 789, 790, 791, 792, 793, 794, 795, 796, 797, 798, 799, 800, 801, 802, 803, 804, 805, 806, 807, 808, 809, 810, 811, 812, 813, 814, 815, 816, 817, 818, 819, 820, 821, 822, 823, 824, 825, 826, 827, 828, 829, 830, 831, 832, 833, 834, 835, 836, 837, 838, 839, 840, 841, 842, 843, 844, 845, 846, 847, 848, 849, 850, 851, 852, 853, 854, 855, 856, 857, 858, 859, 860, 861, 862, 863, 864, 865, 866, 867, 868, 869, 870, 871, 872],
      "AcquisitionTime": ["153509.345000", "153509.805000", "153510.265000", "153510.725000", "153511.185000", "153511.645000", "153512.105000", "153512.565000", "153513.025000", "153513.485000", "153513.945000", "153514.405000", "153514.865000", "153515.325000", "153515.785000", "153516.245000", "153516.705000", "153517.165000", "153517.625000", "153518.085000", "153518.545000", "153519.005000", "153519.465000", "153519.925000", "153520.385000", "153520.845000", "153521.305000", "153521.765000", "153522.225000", "153522.685000", "153523.145000", "153523.605000", "153524.065000", "153524.525000", "153524.985000", "153525.445000", "153525.905000", "153526.365000", "153526.825000", "153527.285000", "153527.745000", "153528.205000", "153528.665000", "153529.125000", "153529.585000", "153530.045000", "153530.505000", "153530.965000", "153531.425000", "153531.885000", "153532.345000", "153532.805000", "153533.265000", "153533.725000", "153534.185000", "153534.645000", "153535.105000", "153535.565000", "153536.025000", "153536.485000", "153536.945000", "153537.405000", "153537.865000", "153538.325000", "153538.785000", "153539.245000", "153539.705000", "153540.165000", "153540.625000", "153541.085000", "153541.545000", "153542.005000", "153542.465000", "153542.925000", "153543.385000", "153543.845000", "153544.305000", "153544.765000", "153545.225000", "153545.685000", "153546.145000", "153546.605000", "153547.065000", "153547.525000", "153547.985000", "153548.445000", "153548.905000", "153549.365000", "153549.825000", "153550.285000", "153550.745000", "153551.205000", "153551.665000", "153552.125000", "153552.585000", "153553.045000", "153553.505000", "153553.965000", "153554.425000", "153554.885000", "153555.345000", "153555.805000", "153556.265000", "153556.725000", "153557.185000", "153557.645000", "153558.105000", "153558.565000", "153559.025000", "153559.485000", "153559.945000", "153600.405000", "153600.865000", "153601.325000", "153601.785000", "153602.245000", "153602.705000", "153603.165000", "153603.625000", "153604.085000", "153604.545000", "153605.005000", "153605.465000", "153605.925000", "153606.385000", "153606.845000", "153607.305000", "153607.765000", "153608.225000", "153608.685000", "153609.145000", "153609.605000", "153610.065000", "153610.525000", "153610.985000", "153611.445000", "153611.905000", "153612.365000", "153612.825000", "153613.285000", "153613.745000", "153614.205000", "153614.665000", "153615.125000", "153615.585000", "153616.045000", "153616.505000", "153616.965000", "153617.425000", "153617.885000", "153618.345000", "153618.805000", "153619.265000", "153619.725000", "153620.185000", "153620.645000", "153621.105000", "153621.565000", "153622.025000", "153622.485000", "153622.945000", "153623.405000", "153623.865000", "153624.325000", "153624.785000", "153625.245000", "153625.705000", "153626.165000", "153626.625000", "153627.085000", "153627.545000", "153628.005000", "153628.465000", "153628.925000", "153629.385000", "153629.845000", "153630.305000", "153630.765000", "153631.225000", "153631.685000", "153632.145000", "153632.605000", "153633.065000", "153633.525000", "153633.985000", "153634.445000", "153634.905000", "153635.365000", "153635.825000", "153636.285000", "153636.745000", "153637.205000", "153637.665000", "153638.125000", "153638.585000", "153639.045000", "153639.505000", "153639.965000", "153640.425000", "153640.885000", "153641.345000", "153641.805000", "153642.265000", "153642.725000", "153643.185000", "153643.645000", "153644.105000", "153644.565000", "153645.025000", "153645.485000", "153645.945000", "153646.405000", "153646.865000", "153647.325000", "153647.785000", "153648.245000", "153648.705000", "153649.165000", "153649.625000", "153650.085000", "153650.545000", "153651.005000", "153651.465000", "153651.925000", "153652.385000", "153652.845000", "153653.305000", "153653.765000", "153654.225000", "153654.685000", "153655.145000", "153655.605000", "153656.065000", "153656.525000", "153656.985000", "153657.445000", "153657.905000", "153658.365000", "153658.825000", "153659.285000", "153659.745000", "153700.205000", "153700.665000", "153701.125000", "153701.585000", "153702.045000", "153702.505000", "153702.965000", "153703.425000", "153703.885000", "153704.345000", "153704.805000", "153705.265000", "153705.725000", "153706.185000", "153706.645000", "153707.105000", "153707.565000", "153708.025000", "153708.485000", "153708.945000", "153709.405000", "153709.865000", "153710.325000", "153710.785000", "153711.245000", "153711.705000", "153712.165000", "153712.625000", "153713.085000", "153713.545000", "153714.005000", "153714.465000", "153714.925000", "153715.385000", "153715.845000", "153716.305000", "153716.765000", "153717.225000", "153717.685000", "153718.145000", "153718.605000", "153719.065000", "153719.525000", "153719.985000", "153720.445000", "153720.905000", "153721.365000", "153721.825000", "153722.285000", "153722.745000", "153723.205000", "153723.665000", "153724.125000", "153724.585000", "153725.045000", "153725.505000", "153725.965000", "153726.425000", "153726.885000", "153727.345000", "153727.805000", "153728.265000", "153728.725000", "153729.185000", "153729.645000", "153730.105000", "153730.565000", "153731.025000", "153731.485000", "153731.945000", "153732.405000", "153732.865000", "153733.325000", "153733.785000", "153734.245000", "153734.705000", "153735.165000", "153735.625000", "153736.085000", "153736.545000", "153737.005000", "153737.465000", "153737.925000", "153738.385000", "153738.845000", "153739.305000", "153739.765000", "153740.225000", "153740.685000", "153741.145000", "153741.605000", "153742.065000", "153742.525000", "153742.985000", "153743.445000", "153743.905000", "153744.365000", "153744.825000", "153745.285000", "153745.745000", "153746.205000", "153746.665000", "153747.125000", "153747.585000", "153748.045000", "153748.505000", "153748.965000", "153749.425000", "153749.885000", "153750.345000", "153750.805000", "153751.265000", "153751.725000", "153752.185000", "153752.645000", "153753.105000", "153753.565000", "153754.025000", "153754.485000", "153754.945000", "153755.405000", "153755.865000", "153756.325000", "153756.785000", "153757.245000", "153757.705000", "153758.165000", "153758.625000", "153759.085000", "153759.545000", "153800.005000", "153800.465000", "153800.925000", "153801.385000", "153801.845000", "153802.305000", "153802.765000", "153803.225000", "153803.685000", "153804.145000", "153804.605000", "153805.065000", "153805.525000", "153805.985000", "153806.445000", "153806.905000", "153807.365000", "153807.825000", "153808.285000", "153808.745000", "153809.205000", "153809.665000", "153810.125000", "153810.585000", "153811.045000", "153811.505000", "153811.965000", "153812.425000", "153812.885000", "153813.345000", "153813.805000", "153814.265000", "153814.725000", "153815.185000", "153815.645000", "153816.105000", "153816.565000", "153817.025000", "153817.485000", "153817.945000", "153818.405000", "153818.865000", "153819.325000", "153819.785000", "153820.245000", "153820.705000", "153821.165000", "153821.625000", "153822.085000", "153822.545000", "153823.005000", "153823.465000", "153823.925000", "153824.385000", "153824.845000", "153825.305000", "153825.765000", "153826.225000", "153826.685000", "153827.145000", "153827.605000", "153828.065000", "153828.525000", "153828.985000", "153829.445000", "153829.905000", "153830.365000", "153830.825000", "153831.285000", "153831.745000", "153832.205000", "153832.665000", "153833.125000", "153833.585000", "153834.045000", "153834.505000", "153834.965000", "153835.425000", "153835.885000", "153836.345000", "153836.805000", "153837.265000", "153837.725000", "153838.185000", "153838.645000", "153839.105000", "153839.565000", "153840.025000", "153840.485000", "153840.945000", "153841.405000", "153841.865000", "153842.325000", "153842.785000", "153843.245000", "153843.705000", "153844.165000", "153844.625000", "153845.085000", "153845.545000", "153846.005000", "153846.465000", "153846.925000", "153847.385000", "153847.845000", "153848.305000", "153848.765000", "153849.225000", "153849.685000", "153850.145000", "153850.605000", "153851.065000", "153851.525000", "153851.985000", "153852.445000", "153852.905000", "153853.365000", "153853.825000", "153854.285000", "153854.745000", "153855.205000", "153855.665000", "153856.125000", "153856.585000", "153857.045000", "153857.505000", "153857.965000", "153858.425000", "153858.885000", "153859.345000", "153859.805000", "153900.265000", "153900.725000", "153901.185000", "153901.645000", "153902.105000", "153902.565000", "153903.025000", "153903.485000", "153903.945000", "153904.405000", "153904.865000", "153905.325000", "153905.785000", "153906.245000", "153906.705000", "153907.165000", "153907.625000", "153908.085000", "153908.545000", "153909.005000", "153909.465000", "153909.925000", "153910.385000", "153910.845000", "153911.305000", "153911.765000", "153912.225000", "153912.685000", "153913.145000", "153913.605000", "153914.065000", "153914.525000", "153914.985000", "153915.445000", "153915.905000", "153916.365000", "153916.825000", "153917.285000", "153917.745000", "153918.205000", "153918.665000", "153919.125000", "153919.585000", "153920.045000", "153920.505000", "153920.965000", "153921.425000", "153921.885000", "153922.345000", "153922.805000", "153923.265000", "153923.725000", "153924.185000", "153924.645000", "153925.105000", "153925.565000", "153926.025000", "153926.485000", "153926.945000", "153927.405000", "153927.865000", "153928.325000", "153928.785000", "153929.245000", "153929.705000", "153930.165000", "153930.625000", "153931.085000", "153931.545000", "153932.005000", "153932.465000", "153932.925000", "153933.385000", "153933.845000", "153934.305000", "153934.765000", "153935.225000", "153935.685000", "153936.145000", "153936.605000", "153937.065000", "153937.525000", "153937.985000", "153938.445000", "153938.905000", "153939.365000", "153939.825000", "153940.285000", "153940.745000", "153941.205000", "153941.665000", "153942.125000", "153942.585000", "153943.045000", "153943.505000", "153943.965000", "153944.425000", "153944.885000", "153945.345000", "153945.805000", "153946.265000", "153946.725000", "153947.185000", "153947.645000", "153948.105000", "153948.565000", "153949.025000", "153949.485000", "153949.945000", "153950.405000", "153950.865000", "153951.325000", "153951.785000", "153952.245000", "153952.705000", "153953.165000", "153953.625000", "153954.085000", "153954.545000", "153955.005000", "153955.465000", "153955.925000", "153956.385000", "153956.845000", "153957.305000", "153957.765000", "153958.225000", "153958.685000", "153959.145000", "153959.605000", "154000.065000", "154000.525000", "154000.985000", "154001.445000", "154001.905000", "154002.365000", "154002.825000", "154003.285000", "154003.745000", "154004.205000", "154004.665000", "154005.125000", "154005.585000", "154006.045000", "154006.505000", "154006.965000", "154007.425000", "154007.885000", "154008.345000", "154008.805000", "154009.265000", "154009.725000", "154010.185000", "154010.645000", "154011.105000", "154011.565000", "154012.025000", "154012.485000", "154012.945000", "154013.405000", "154013.865000", "154014.325000", "154014.785000", "154015.245000", "154015.705000", "154016.165000", "154016.625000", "154017.085000", "154017.545000", "154018.005000", "154018.465000", "154018.925000", "154019.385000", "154019.845000", "154020.305000", "154020.765000", "154021.225000", "154021.685000", "154022.145000", "154022.605000", "154023.065000", "154023.525000", "154023.985000", "154024.445000", "154024.905000", "154025.365000", "154025.825000", "154026.285000", "154026.745000", "154027.205000", "154027.665000", "154028.125000", "154028.585000", "154029.045000", "154029.505000", "154029.965000", "154030.425000", "154030.885000", "154031.345000", "154031.805000", "154032.265000", "154032.725000", "154033.185000", "154033.645000", "154034.105000", "154034.565000", "154035.025000", "154035.485000", "154035.945000", "154036.405000", "154036.865000", "154037.325000", "154037.785000", "154038.245000", "154038.705000", "154039.165000", "154039.625000", "154040.085000", "154040.545000", "154041.005000", "154041.465000", "154041.925000", "154042.385000", "154042.845000", "154043.305000", "154043.765000", "154044.225000", "154044.685000", "154045.145000", "154045.605000", "154046.065000", "154046.525000", "154046.985000", "154047.445000", "154047.905000", "154048.365000", "154048.825000", "154049.285000", "154049.745000", "154050.205000", "154050.665000", "154051.125000", "154051.585000", "154052.045000", "154052.505000", "154052.965000", "154053.425000", "154053.885000", "154054.345000", "154054.805000", "154055.265000", "154055.725000", "154056.185000", "154056.645000", "154057.105000", "154057.565000", "154058.025000", "154058.485000", "154058.945000", "154059.405000", "154059.865000", "154100.325000", "154100.785000", "154101.245000", "154101.705000", "154102.165000", "154102.625000", "154103.085000", "154103.545000", "154104.005000", "154104.465000", "154104.925000", "154105.385000", "154105.845000", "154106.305000", "154106.765000", "154107.225000", "154107.685000", "154108.145000", "154108.605000", "154109.065000", "154109.525000", "154109.985000", "154110.445000", "154110.905000", "154111.365000", "154111.825000", "154112.285000", "154112.745000", "154113.205000", "154113.665000", "154114.125000", "154114.585000", "154115.045000", "154115.505000", "154115.965000", "154116.425000", "154116.885000", "154117.345000", "154117.805000", "154118.265000", "154118.725000", "154119.185000", "154119.645000", "154120.105000", "154120.565000", "154121.025000", "154121.485000", "154121.945000", "154122.405000", "154122.865000", "154123.325000", "154123.785000", "154124.245000", "154124.705000", "154125.165000", "154125.625000", "154126.085000", "154126.545000", "154127.005000", "154127.465000", "154127.925000", "154128.385000", "154128.845000", "154129.305000", "154129.765000", "154130.225000", "154130.685000", "154131.145000", "154131.605000", "154132.065000", "154132.525000", "154132.985000", "154133.445000", "154133.905000", "154134.365000", "154134.825000", "154135.285000", "154135.745000", "154136.205000", "154136.665000", "154137.125000", "154137.585000", "154138.045000", "154138.505000", "154138.965000", "154139.425000", "154139.885000", "154140.345000", "154140.805000", "154141.265000", "154141.725000", "154142.185000", "154142.645000", "154143.105000", "154143.565000", "154144.025000", "154144.485000", "154144.945000", "154145.405000", "154145.865000", "154146.325000", "154146.785000", "154147.245000", "154147.705000", "154148.165000", "154148.625000", "154149.085000", "154149.545000", "154150.005000"],
