{
  "AcquisitionMatrixPE": 82,
  "AcquisitionNumber": 1,
  "AcquisitionTime": "15:33:51.492500",
  "BandwidthPerPixelPhaseEncode": 24.888,
  "BaseResolution": 82,
  "BodyPartExamined": "BRAIN",
  "ConsistencyInfo": "N4_VE11E_LATEST_20181129",
  "ConversionSoftware": "dcm2niix",
  "ConversionSoftwareVersion": "v1.0.20201102",
  "DerivedVendorReportedEchoSpacing": 0.00049,
  "DeviceSerialNumber": "66112",
  "DwellTime": 2e-06,
  "EchoTime": 0.0272,
  "EchoTrainLength": 82,
  "EffectiveEchoSpacing": 0.00049,
  "FlipAngle": 44,
  "ImageComments": "Unaliased MB8/PE3",
  "ImageOrientationPatientDICOM": [0.998781, 0.0301899, 0.0390562, -0.0315625, 0.998888, 0.0350189],
  "ImageType": [
    "ORIGINAL",
    "PRIMARY",
    "M",
    "MB",
    "ND",
    "NORM",
    "MOSAIC"
],
  "ImagingFrequency": 123.252,
  "InPlanePhaseEncodingDirectionDICOM": "COL",
  "InstitutionAddress": "Maynard 3,Hanover,NH,US,03755",
  "InstitutionName": "Dartmouth College - PBS",
  "InstitutionalDepartmentName": "Department",
  "MRAcquisitionType": "2D",
  "MagneticFieldStrength": 3,
  "Manufacturer": "Siemens",
  "ManufacturersModelName": "Prisma",
  "Modality": "MR",
  "MultibandAccelerationFactor": 8,
  "PartialFourier": 1,
  "PatientPosition": "HFS",
  "PercentPhaseFOV": 100,
  "PercentSampling": 100,
  "PhaseEncodingDirection": "j-",
  "PhaseEncodingSteps": 82,
  "PhaseResolution": 1,
  "PixelBandwidth": 3050,
  "ProcedureStepDescription": "Wager_Wager^1076_spacetop",
  "ProtocolName": "func_run-06_task-social_acq-ap-mb8",
  "PulseSequenceDetails": "%CustomerSeq%\\cmrr_mbep2d_bold",
  "ReceiveCoilActiveElements": "HEA;HEP",
  "ReceiveCoilName": "Head_32",
  "ReconMatrixPE": 82,
  "RepetitionTime": 0.46,
  "SAR": 0.0856444,
  "ScanOptions": "FS",
  "ScanningSequence": "EP",
  "SequenceName": "epfid2d1_82",
  "SequenceVariant": "SK\\SS",
  "SeriesDescription": "func_run-06_task-social_acq-ap-mb8",
  "SeriesNumber": 18,
  "ShimSetting": [4162, -7779, -7193, 525, 4, -124, 30, 54],
  "SliceThickness": 2.7,
  "SliceTiming": [0, 0.25, 0.0625, 0.315, 0.125, 0.3775, 0.1875, 0, 0.25, 0.0625, 0.315, 0.125, 0.3775, 0.1875, 0, 0.25, 0.0625, 0.315, 0.125, 0.3775, 0.1875, 0, 0.25, 0.0625, 0.315, 0.125, 0.3775, 0.1875, 0, 0.25, 0.0625, 0.315, 0.125, 0.3775, 0.1875, 0, 0.25, 0.0625, 0.315, 0.125, 0.3775, 0.1875, 0, 0.25, 0.0625, 0.315, 0.125, 0.3775, 0.1875, 0, 0.25, 0.0625, 0.315, 0.125, 0.3775, 0.1875],
  "SoftwareVersions": "syngo MR E11",
  "SpacingBetweenSlices": 2.7,
  "StationName": "AWP66112",
  "TaskName": "social",
  "TotalReadoutTime": 0.03969,
  "TxRefAmp": 253.132,
  "WipMemBlock": "a4b7492a-6a9f-43e8-8842-d430ce7eddc2||Sequence: R016 ve11e/master r/434b28f1; Aug  7 2019 18:53:46 by eja",
  "dcmmeta_affine": [
    [-2.6796560287475586, -0.08467990159988403, 0.10248000919818878, 116.60674285888672],
    [-0.0809972733259201, 2.679943799972534, 0.09776397049427032, -94.74284362792969],
    [0.10478492826223373, -0.09395303577184677, 2.6962826251983643, -62.48627853393555],
    [0.0, 0.0, 0.0, 1.0]
],
  "dcmmeta_reorient_transform": [
    [0.0, -1.0, 0.0, 81.0],
    [1.0, 0.0, 0.0, 0.0],
    [0.0, 0.0, 1.0, 0.0],
    [0.0, 0.0, 0.0, 1.0]
],
  "dcmmeta_shape": [82, 82, 56, 872],
  "dcmmeta_slice_dim": 2,
  "dcmmeta_version": 0.6,
  "global": {
    "const": {
      "AccessionNumber": "A004154",
      "AcquisitionMatrix": [82, 0, 0, 82],
      "AngioFlag": "N",
      "BitsAllocated": 16,
      "BitsStored": 16,
      "BodyPartExamined": "BRAIN",
      "Columns": 656,
      "EchoNumbers": 1,
      "EchoTime": 27.2,
      "EchoTrainLength": 82,
      "FlipAngle": 44.0,
      "HighBit": 15,
      "ImageOrientationPatient": [0.99878084861687, 0.03018989298621, 0.03905620050194, -0.0315625086555, 0.99888812566477, 0.03501885853774],
      "ImagePositionPatient": [-854.50581026739, -914.72269690179, -127.13427280839],
      "ImageType": [
        "ORIGINAL",
        "PRIMARY",
        "M",
        "MB",
        "ND",
        "NORM",
        "MOSAIC"
],
      "ImagedNucleus": "1H",
      "ImagingFrequency": 123.252155,
      "InPlanePhaseEncodingDirection": "COL",
      "MRAcquisitionType": "2D",
      "MagneticFieldStrength": 3.0,
      "Manufacturer": "SIEMENS",
      "ManufacturerModelName": "Prisma",
      "Modality": "MR",
      "NumberOfAverages": 1.0,
      "NumberOfPhaseEncodingSteps": 82,
      "PercentPhaseFieldOfView": 100.0,
      "PercentSampling": 100.0,
      "PerformedProcedureStepStartTime": "144158.143000",
      "PhotometricInterpretation": "MONOCHROME2",
      "PixelBandwidth": 3050.0,
      "PixelRepresentation": 0,
      "PixelSpacing": [2.6829268932343, 2.6829268932343],
      "ProtocolName": "func_run-06_task-social_acq-ap-mb8",
      "RepetitionTime": 460.0,
      "Rows": 656,
      "SAR": 0.0856444431318,
      "SamplesPerPixel": 1,
      "ScanOptions": "FS",
      "ScanningSequence": "EP",
      "SequenceName": "epfid2d1_82",
      "SequenceVariant": [
        "SK",
        "SS"
],
      "SeriesDescription": "func_run-06_task-social_acq-ap-mb8",
      "SeriesNumber": 18,
      "SeriesTime": "153404.643000",
      "SliceLocation": -61.404906645017,
      "SliceThickness": 2.7000000476837,
      "SmallestImagePixelValue": 0,
      "SoftwareVersions": "syngo MR E11",
      "SpacingBetweenSlices": 2.7000000450836,
      "SpecificCharacterSet": "ISO_IR 100",
      "StudyID": "3",
      "StudyTime": "144158.088000",
      "TransmitCoilName": "Body",
      "VariableFlipAngleFlag": "N",
      "WindowCenterWidthExplanation": "Algo1"
    },
    "slices": {}
  },
  "time": {
    "samples": {
      "AcquisitionNumber": [1, 2, 3, 4, 5, 6, 7, 8, 9, 10, 11, 12, 13, 14, 15, 16, 17, 18, 19, 20, 21, 22, 23, 24, 25, 26, 27, 28, 29, 30, 31, 32, 33, 34, 35, 36, 37, 38, 39, 40, 41, 42, 43, 44, 45, 46, 47, 48, 49, 50, 51, 52, 53, 54, 55, 56, 57, 58, 59, 60, 61, 62, 63, 64, 65, 66, 67, 68, 69, 70, 71, 72, 73, 74, 75, 76, 77, 78, 79, 80, 81, 82, 83, 84, 85, 86, 87, 88, 89, 90, 91, 92, 93, 94, 95, 96, 97, 98, 99, 100, 101, 102, 103, 104, 105, 106, 107, 108, 109, 110, 111, 112, 113, 114, 115, 116, 117, 118, 119, 120, 121, 122, 123, 124, 125, 126, 127, 128, 129, 130, 131, 132, 133, 134, 135, 136, 137, 138, 139, 140, 141, 142, 143, 144, 145, 146, 147, 148, 149, 150, 151, 152, 153, 154, 155, 156, 157, 158, 159, 160, 161, 162, 163, 164, 165, 166, 167, 168, 169, 170, 171, 172, 173, 174, 175, 176, 177, 178, 179, 180, 181, 182, 183, 184, 185, 186, 187, 188, 189, 190, 191, 192, 193, 194, 195, 196, 197, 198, 199, 200, 201, 202, 203, 204, 205, 206, 207, 208, 209, 210, 211, 212, 213, 214, 215, 216, 217, 218, 219, 220, 221, 222, 223, 224, 225, 226, 227, 228, 229, 230, 231, 232, 233, 234, 235, 236, 237, 238, 239, 240, 241, 242, 243, 244, 245, 246, 247, 248, 249, 250, 251, 252, 253, 254, 255, 256, 257, 258, 259, 260, 261, 262, 263, 264, 265, 266, 267, 268, 269, 270, 271, 272, 273, 274, 275, 276, 277, 278, 279, 280, 281, 282, 283, 284, 285, 286, 287, 288, 289, 290, 291, 292, 293, 294, 295, 296, 297, 298, 299, 300, 301, 302, 303, 304, 305, 306, 307, 308, 309, 310, 311, 312, 313, 314, 315, 316, 317, 318, 319, 320, 321, 322, 323, 324, 325, 326, 327, 328, 329, 330, 331, 332, 333, 334, 335, 336, 337, 338, 339, 340, 341, 342, 343, 344, 345, 346, 347, 348, 349, 350, 351, 352, 353, 354, 355, 356, 357, 358, 359, 360, 361, 362, 363, 364, 365, 366, 367, 368, 369, 370, 371, 372, 373, 374, 375, 376, 377, 378, 379, 380, 381, 382, 383, 384, 385, 386, 387, 388, 389, 390, 391, 392, 393, 394, 395, 396, 397, 398, 399, 400, 401, 402, 403, 404, 405, 406, 407, 408, 409, 410, 411, 412, 413, 414, 415, 416, 417, 418, 419, 420, 421, 422, 423, 424, 425, 426, 427, 428, 429, 430, 431, 432, 433, 434, 435, 436, 437, 438, 439, 440, 441, 442, 443, 444, 445, 446, 447, 448, 449, 450, 451, 452, 453, 454, 455, 456, 457, 458, 459, 460, 461, 462, 463, 464, 465, 466, 467, 468, 469, 470, 471, 472, 473, 474, 475, 476, 477, 478, 479, 480, 481, 482, 483, 484, 485, 486, 487, 488, 489, 490, 491, 492, 493, 494, 495, 496, 497, 498, 499, 500, 501, 502, 503, 504, 505, 506, 507, 508, 509, 510, 511, 512, 513, 514, 515, 516, 517, 518, 519, 520, 521, 522, 523, 524, 525, 526, 527, 528, 529, 530, 531, 532, 533, 534, 535, 536, 537, 538, 539, 540, 541, 542, 543, 544, 545, 546, 547, 548, 549, 550, 551, 552, 553, 554, 555, 556, 557, 558, 559, 560, 561, 562, 563, 564, 565, 566, 567, 568, 569, 570, 571, 572, 573, 574, 575, 576, 577, 578, 579, 580, 581, 582, 583, 584, 585, 586, 587, 588, 589, 590, 591, 592, 593, 594, 595, 596, 597, 598, 599, 600, 601, 602, 603, 604, 605, 606, 607, 608, 609, 610, 611, 612, 613, 614, 615, 616, 617, 618, 619, 620, 621, 622, 623, 624, 625, 626, 627, 628, 629, 630, 631, 632, 633, 634, 635, 636, 637, 638, 639, 640, 641, 642, 643, 644, 645, 646, 647, 648, 649, 650, 651, 652, 653, 654, 655, 656, 657, 658, 659, 660, 661, 662, 663, 664, 665, 666, 667, 668, 669, 670, 671, 672, 673, 674, 675, 676, 677, 678, 679, 680, 681, 682, 683, 684, 685, 686, 687, 688, 689, 690, 691, 692, 693, 694, 695, 696, 697, 698, 699, 700, 701, 702, 703, 704, 705, 706, 707, 708, 709, 710, 711, 712, 713, 714, 715, 716, 717, 718, 719, 720, 721, 722, 723, 724, 725, 726, 727, 728, 729, 730, 731, 732, 733, 734, 735, 736, 737, 738, 739, 740, 741, 742, 743, 744, 745, 746, 747, 748, 749, 750, 751, 752, 753, 754, 755, 756, 757, 758, 759, 760, 761, 762, 763, 764, 765, 766, 767, 768, 769, 770, 771, 772, 773, 774, 775, 776, 777, 778, 779, 780, 781, 782, 783, 784, 785, 786, 787, 788, 789, 790, 791, 792, 793, 794, 795, 796, 797, 798, 799, 800, 801, 802, 803, 804, 805, 806, 807, 808, 809, 810, 811, 812, 813, 814, 815, 816, 817, 818, 819, 820, 821, 822, 823, 824, 825, 826, 827, 828, 829, 830, 831, 832, 833, 834, 835, 836, 837, 838, 839, 840, 841, 842, 843, 844, 845, 846, 847, 848, 849, 850, 851, 852, 853, 854, 855, 856, 857, 858, 859, 860, 861, 862, 863, 864, 865, 866, 867, 868, 869, 870, 871, 872],
      "AcquisitionTime": ["153351.492500", "153351.952500", "153352.412500", "153352.872500", "153353.332500", "153353.792500", "153354.252500", "153354.712500", "153355.172500", "153355.632500", "153356.092500", "153356.552500", "153357.012500", "153357.472500", "153357.932500", "153358.392500", "153358.852500", "153359.312500", "153359.772500", "153400.232500", "153400.692500", "153401.152500", "153401.612500", "153402.072500", "153402.532500", "153402.992500", "153403.452500", "153403.912500", "153404.372500", "153404.832500", "153405.292500", "153405.752500", "153406.212500", "153406.672500", "153407.132500", "153407.592500", "153408.052500", "153408.512500", "153408.972500", "153409.432500", "153409.892500", "153410.352500", "153410.812500", "153411.272500", "153411.732500", "153412.192500", "153412.652500", "153413.112500", "153413.572500", "153414.032500", "153414.492500", "153414.952500", "153415.412500", "153415.872500", "153416.332500", "153416.792500", "153417.252500", "153417.712500", "153418.172500", "153418.632500", "153419.092500", "153419.552500", "153420.012500", "153420.472500", "153420.932500", "153421.392500", "153421.852500", "153422.312500", "153422.772500", "153423.232500", "153423.692500", "153424.152500", "153424.612500", "153425.072500", "153425.532500", "153425.992500", "153426.452500", "153426.912500", "153427.372500", "153427.832500", "153428.292500", "153428.752500", "153429.212500", "153429.672500", "153430.132500", "153430.592500", "153431.052500", "153431.512500", "153431.972500", "153432.432500", "153432.892500", "153433.352500", "153433.812500", "153434.272500", "153434.732500", "153435.192500", "153435.652500", "153436.112500", "153436.572500", "153437.032500", "153437.492500", "153437.952500", "153438.412500", "153438.872500", "153439.332500", "153439.792500", "153440.252500", "153440.712500", "153441.172500", "153441.632500", "153442.092500", "153442.552500", "153443.012500", "153443.472500", "153443.932500", "153444.392500", "153444.852500", "153445.312500", "153445.772500", "153446.232500", "153446.692500", "153447.152500", "153447.612500", "153448.072500", "153448.532500", "153448.992500", "153449.452500", "153449.912500", "153450.372500", "153450.832500", "153451.292500", "153451.752500", "153452.212500", "153452.672500", "153453.132500", "153453.592500", "153454.052500", "153454.512500", "153454.972500", "153455.432500", "153455.892500", "153456.352500", "153456.812500", "153457.272500", "153457.732500", "153458.192500", "153458.652500", "153459.112500", "153459.572500", "153500.032500", "153500.492500", "153500.952500", "153501.412500", "153501.872500", "153502.332500", "153502.792500", "153503.252500", "153503.712500", "153504.172500", "153504.632500", "153505.092500", "153505.552500", "153506.012500", "153506.472500", "153506.932500", "153507.392500", "153507.852500", "153508.312500", "153508.772500", "153509.232500", "153509.692500", "153510.152500", "153510.612500", "153511.072500", "153511.532500", "153511.992500", "153512.452500", "153512.912500", "153513.372500", "153513.832500", "153514.292500", "153514.752500", "153515.212500", "153515.672500", "153516.132500", "153516.592500", "153517.052500", "153517.512500", "153517.972500", "153518.432500", "153518.892500", "153519.352500", "153519.812500", "153520.272500", "153520.732500", "153521.192500", "153521.652500", "153522.112500", "153522.572500", "153523.032500", "153523.492500", "153523.952500", "153524.412500", "153524.872500", "153525.332500", "153525.792500", "153526.252500", "153526.712500", "153527.172500", "153527.632500", "153528.092500", "153528.552500", "153529.012500", "153529.472500", "153529.932500", "153530.392500", "153530.852500", "153531.312500", "153531.772500", "153532.232500", "153532.692500", "153533.152500", "153533.612500", "153534.072500", "153534.532500", "153534.992500", "153535.452500", "153535.912500", "153536.372500", "153536.832500", "153537.292500", "153537.752500", "153538.212500", "153538.672500", "153539.132500", "153539.592500", "153540.052500", "153540.512500", "153540.972500", "153541.432500", "153541.892500", "153542.352500", "153542.812500", "153543.272500", "153543.732500", "153544.192500", "153544.652500", "153545.112500", "153545.572500", "153546.032500", "153546.492500", "153546.952500", "153547.412500", "153547.872500", "153548.332500", "153548.792500", "153549.252500", "153549.712500", "153550.172500", "153550.632500", "153551.092500", "153551.552500", "153552.012500", "153552.472500", "153552.932500", "153553.392500", "153553.852500", "153554.312500", "153554.772500", "153555.232500", "153555.692500", "153556.152500", "153556.612500", "153557.072500", "153557.532500", "153557.992500", "153558.452500", "153558.912500", "153559.372500", "153559.832500", "153600.292500", "153600.752500", "153601.212500", "153601.672500", "153602.132500", "153602.592500", "153603.052500", "153603.512500", "153603.972500", "153604.432500", "153604.892500", "153605.352500", "153605.812500", "153606.272500", "153606.732500", "153607.192500", "153607.652500", "153608.112500", "153608.572500", "153609.032500", "153609.492500", "153609.952500", "153610.412500", "153610.872500", "153611.332500", "153611.792500", "153612.252500", "153612.712500", "153613.172500", "153613.632500", "153614.092500", "153614.552500", "153615.012500", "153615.472500", "153615.932500", "153616.392500", "153616.852500", "153617.312500", "153617.772500", "153618.232500", "153618.692500", "153619.152500", "153619.612500", "153620.072500", "153620.532500", "153620.992500", "153621.452500", "153621.912500", "153622.372500", "153622.832500", "153623.292500", "153623.752500", "153624.212500", "153624.672500", "153625.132500", "153625.592500", "153626.052500", "153626.512500", "153626.972500", "153627.432500", "153627.892500", "153628.352500", "153628.812500", "153629.272500", "153629.732500", "153630.192500", "153630.652500", "153631.112500", "153631.572500", "153632.032500", "153632.492500", "153632.952500", "153633.412500", "153633.872500", "153634.332500", "153634.792500", "153635.252500", "153635.712500", "153636.172500", "153636.632500", "153637.092500", "153637.552500", "153638.012500", "153638.472500", "153638.932500", "153639.392500", "153639.852500", "153640.312500", "153640.772500", "153641.232500", "153641.692500", "153642.152500", "153642.612500", "153643.072500", "153643.532500", "153643.992500", "153644.452500", "153644.912500", "153645.372500", "153645.832500", "153646.292500", "153646.752500", "153647.212500", "153647.672500", "153648.132500", "153648.592500", "153649.052500", "153649.512500", "153649.972500", "153650.432500", "153650.892500", "153651.352500", "153651.812500", "153652.272500", "153652.732500", "153653.192500", "153653.652500", "153654.112500", "153654.572500", "153655.032500", "153655.492500", "153655.952500", "153656.412500", "153656.872500", "153657.332500", "153657.792500", "153658.252500", "153658.712500", "153659.172500", "153659.632500", "153700.092500", "153700.552500", "153701.012500", "153701.472500", "153701.932500", "153702.392500", "153702.852500", "153703.312500", "153703.772500", "153704.232500", "153704.692500", "153705.152500", "153705.612500", "153706.072500", "153706.532500", "153706.992500", "153707.452500", "153707.912500", "153708.372500", "153708.832500", "153709.292500", "153709.752500", "153710.212500", "153710.672500", "153711.132500", "153711.592500", "153712.052500", "153712.512500", "153712.972500", "153713.432500", "153713.892500", "153714.352500", "153714.812500", "153715.272500", "153715.732500", "153716.192500", "153716.652500", "153717.112500", "153717.572500", "153718.032500", "153718.492500", "153718.952500", "153719.412500", "153719.872500", "153720.332500", "153720.792500", "153721.252500", "153721.712500", "153722.172500", "153722.632500", "153723.092500", "153723.552500", "153724.012500", "153724.472500", "153724.932500", "153725.392500", "153725.852500", "153726.312500", "153726.772500", "153727.232500", "153727.692500", "153728.152500", "153728.612500", "153729.072500", "153729.532500", "153729.992500", "153730.452500", "153730.912500", "153731.372500", "153731.832500", "153732.292500", "153732.752500", "153733.212500", "153733.672500", "153734.132500", "153734.592500", "153735.052500", "153735.512500", "153735.972500", "153736.432500", "153736.892500", "153737.352500", "153737.812500", "153738.272500", "153738.732500", "153739.192500", "153739.652500", "153740.112500", "153740.572500", "153741.032500", "153741.492500", "153741.952500", "153742.412500", "153742.872500", "153743.332500", "153743.792500", "153744.252500", "153744.712500", "153745.172500", "153745.632500", "153746.092500", "153746.552500", "153747.012500", "153747.472500", "153747.932500", "153748.392500", "153748.852500", "153749.312500", "153749.772500", "153750.232500", "153750.692500", "153751.152500", "153751.612500", "153752.072500", "153752.532500", "153752.992500", "153753.452500", "153753.912500", "153754.372500", "153754.832500", "153755.292500", "153755.752500", "153756.212500", "153756.672500", "153757.132500", "153757.592500", "153758.052500", "153758.512500", "153758.972500", "153759.432500", "153759.892500", "153800.352500", "153800.812500", "153801.272500", "153801.732500", "153802.192500", "153802.652500", "153803.112500", "153803.572500", "153804.032500", "153804.492500", "153804.952500", "153805.412500", "153805.872500", "153806.332500", "153806.792500", "153807.252500", "153807.712500", "153808.172500", "153808.632500", "153809.092500", "153809.552500", "153810.012500", "153810.472500", "153810.932500", "153811.392500", "153811.852500", "153812.312500", "153812.772500", "153813.232500", "153813.692500", "153814.152500", "153814.612500", "153815.072500", "153815.532500", "153815.992500", "153816.452500", "153816.912500", "153817.372500", "153817.832500", "153818.292500", "153818.752500", "153819.212500", "153819.672500", "153820.132500", "153820.592500", "153821.052500", "153821.512500", "153821.972500", "153822.432500", "153822.892500", "153823.352500", "153823.812500", "153824.272500", "153824.732500", "153825.192500", "153825.652500", "153826.112500", "153826.572500", "153827.032500", "153827.492500", "153827.952500", "153828.412500", "153828.872500", "153829.332500", "153829.792500", "153830.252500", "153830.712500", "153831.172500", "153831.632500", "153832.092500", "153832.552500", "153833.012500", "153833.472500", "153833.932500", "153834.392500", "153834.852500", "153835.312500", "153835.772500", "153836.232500", "153836.692500", "153837.152500", "153837.612500", "153838.072500", "153838.532500", "153838.992500", "153839.452500", "153839.912500", "153840.372500", "153840.832500", "153841.292500", "153841.752500", "153842.212500", "153842.672500", "153843.132500", "153843.592500", "153844.052500", "153844.512500", "153844.972500", "153845.432500", "153845.892500", "153846.352500", "153846.812500", "153847.272500", "153847.732500", "153848.192500", "153848.652500", "153849.112500", "153849.572500", "153850.032500", "153850.492500", "153850.952500", "153851.412500", "153851.872500", "153852.332500", "153852.792500", "153853.252500", "153853.712500", "153854.172500", "153854.632500", "153855.092500", "153855.552500", "153856.012500", "153856.472500", "153856.932500", "153857.392500", "153857.852500", "153858.312500", "153858.772500", "153859.232500", "153859.692500", "153900.152500", "153900.612500", "153901.072500", "153901.532500", "153901.992500", "153902.452500", "153902.912500", "153903.372500", "153903.832500", "153904.292500", "153904.752500", "153905.212500", "153905.672500", "153906.132500", "153906.592500", "153907.052500", "153907.512500", "153907.972500", "153908.432500", "153908.892500", "153909.352500", "153909.812500", "153910.272500", "153910.732500", "153911.192500", "153911.652500", "153912.112500", "153912.572500", "153913.032500", "153913.492500", "153913.952500", "153914.412500", "153914.872500", "153915.332500", "153915.792500", "153916.252500", "153916.712500", "153917.172500", "153917.632500", "153918.092500", "153918.552500", "153919.012500", "153919.472500", "153919.932500", "153920.392500", "153920.852500", "153921.312500", "153921.772500", "153922.232500", "153922.692500", "153923.152500", "153923.612500", "153924.072500", "153924.532500", "153924.992500", "153925.452500", "153925.912500", "153926.372500", "153926.832500", "153927.292500", "153927.752500", "153928.212500", "153928.672500", "153929.132500", "153929.592500", "153930.052500", "153930.512500", "153930.972500", "153931.432500", "153931.892500", "153932.352500", "153932.812500", "153933.272500", "153933.732500", "153934.192500", "153934.652500", "153935.112500", "153935.572500", "153936.032500", "153936.492500", "153936.952500", "153937.412500", "153937.872500", "153938.332500", "153938.792500", "153939.252500", "153939.712500", "153940.172500", "153940.632500", "153941.092500", "153941.552500", "153942.012500", "153942.472500", "153942.932500", "153943.392500", "153943.852500", "153944.312500", "153944.772500", "153945.232500", "153945.692500", "153946.152500", "153946.612500", "153947.072500", "153947.532500", "153947.992500", "153948.452500", "153948.912500", "153949.372500", "153949.832500", "153950.292500", "153950.752500", "153951.212500", "153951.672500", "153952.132500", "153952.592500", "153953.052500", "153953.512500", "153953.972500", "153954.432500", "153954.892500", "153955.352500", "153955.812500", "153956.272500", "153956.732500", "153957.192500", "153957.652500", "153958.112500", "153958.572500", "153959.032500", "153959.492500", "153959.952500", "154000.412500", "154000.872500", "154001.332500", "154001.792500", "154002.252500", "154002.712500", "154003.172500", "154003.632500", "154004.092500", "154004.552500", "154005.012500", "154005.472500", "154005.932500", "154006.392500", "154006.852500", "154007.312500", "154007.772500", "154008.232500", "154008.692500", "154009.152500", "154009.612500", "154010.072500", "154010.532500", "154010.992500", "154011.452500", "154011.912500", "154012.372500", "154012.832500", "154013.292500", "154013.752500", "154014.212500", "154014.672500", "154015.132500", "154015.592500", "154016.052500", "154016.512500", "154016.972500", "154017.432500", "154017.892500", "154018.352500", "154018.812500", "154019.272500", "154019.732500", "154020.192500", "154020.652500", "154021.112500", "154021.572500", "154022.032500", "154022.492500", "154022.952500", "154023.412500", "154023.872500", "154024.332500", "154024.792500", "154025.252500", "154025.712500", "154026.172500", "154026.632500", "154027.092500", "154027.552500", "154028.012500", "154028.472500", "154028.932500", "154029.392500", "154029.852500", "154030.312500", "154030.772500", "154031.232500", "154031.692500", "154032.152500"],
