{
  "AcquisitionMatrixPE": 82,
  "AcquisitionNumber": 1,
  "AcquisitionTime": "17:51:9.180000",
  "BandwidthPerPixelPhaseEncode": 24.888,
  "BaseResolution": 82,
  "BodyPartExamined": "BRAIN",
  "ConsistencyInfo": "N4_VE11E_LATEST_20181129",
  "ConversionSoftware": "dcm2niix",
  "ConversionSoftwareVersion": "v1.0.20201102",
  "DerivedVendorReportedEchoSpacing": 0.00049,
  "DeviceSerialNumber": "66112",
  "DwellTime": 2e-06,
  "EchoTime": 0.0272,
  "EchoTrainLength": 82,
  "EffectiveEchoSpacing": 0.00049,
  "FlipAngle": 44,
  "ImageComments": "Unaliased MB8/PE3",
  "ImageOrientationPatientDICOM": [0.996857, -0.023855, 0.0755405, 0.0127015, 0.989376, 0.144822],
  "ImageType": [
    "ORIGINAL",
    "PRIMARY",
    "M",
    "MB",
    "ND",
    "NORM",
    "MOSAIC"
],
  "ImagingFrequency": 123.252,
  "InPlanePhaseEncodingDirectionDICOM": "COL",
  "InstitutionAddress": "Maynard 3,Hanover,NH,US,03755",
  "InstitutionName": "Dartmouth College - PBS",
  "InstitutionalDepartmentName": "Department",
  "MRAcquisitionType": "2D",
  "MagneticFieldStrength": 3,
  "Manufacturer": "Siemens",
  "ManufacturersModelName": "Prisma",
  "Modality": "MR",
  "MultibandAccelerationFactor": 8,
  "PartialFourier": 1,
  "PatientPosition": "HFS",
  "PercentPhaseFOV": 100,
  "PercentSampling": 100,
  "PhaseEncodingDirection": "j-",
  "PhaseEncodingSteps": 82,
  "PhaseResolution": 1,
  "PixelBandwidth": 3050,
  "ProcedureStepDescription": "Wager_Wager^1076_spacetop",
  "ProtocolName": "func_run-04_task-social_acq-ap-mb8",
  "PulseSequenceDetails": "%CustomerSeq%\\cmrr_mbep2d_bold",
  "ReceiveCoilActiveElements": "HEA;HEP",
  "ReceiveCoilName": "Head_32",
  "ReconMatrixPE": 82,
  "RepetitionTime": 0.46,
  "SAR": 0.0816743,
  "ScanOptions": "FS",
  "ScanningSequence": "EP",
  "SequenceName": "epfid2d1_82",
  "SequenceVariant": "SK\\SS",
  "SeriesDescription": "func_run-04_task-social_acq-ap-mb8",
  "SeriesNumber": 14,
  "ShimSetting": [4166, -7743, -7362, 656, -75, -258, -23, 98],
  "SliceThickness": 2.7,
  "SliceTiming": [0, 0.25, 0.0625, 0.315, 0.125, 0.3775, 0.1875, 0, 0.25, 0.0625, 0.315, 0.125, 0.3775, 0.1875, 0, 0.25, 0.0625, 0.315, 0.125, 0.3775, 0.1875, 0, 0.25, 0.0625, 0.315, 0.125, 0.3775, 0.1875, 0, 0.25, 0.0625, 0.315, 0.125, 0.3775, 0.1875, 0, 0.25, 0.0625, 0.315, 0.125, 0.3775, 0.1875, 0, 0.25, 0.0625, 0.315, 0.125, 0.3775, 0.1875, 0, 0.25, 0.0625, 0.315, 0.125, 0.3775, 0.1875],
  "SoftwareVersions": "syngo MR E11",
  "SpacingBetweenSlices": 2.7,
  "StationName": "AWP66112",
  "TaskName": "social",
  "TotalReadoutTime": 0.03969,
  "TxRefAmp": 239.733,
  "WipMemBlock": "54148a65-66c9-445b-aa97-867a02a2464c||Sequence: R016 ve11e/master r/434b28f1; Aug  7 2019 18:53:46 by eja",
  "dcmmeta_affine": [
    [-2.6744954586029053, 0.034077238291502, 0.2111203819513321, 103.19356536865234],
    [0.0640011802315712, 2.654423952102661, 0.3872007429599762, -108.7084732055664],
    [0.20266972482204437, -0.3885475993156433, 2.66373872756958, -99.0783920288086],
    [0.0, 0.0, 0.0, 1.0]
],
  "dcmmeta_reorient_transform": [
    [0.0, -1.0, 0.0, 81.0],
    [1.0, 0.0, 0.0, 0.0],
    [0.0, 0.0, 1.0, 0.0],
    [0.0, 0.0, 0.0, 1.0]
],
  "dcmmeta_shape": [82, 82, 56, 872],
  "dcmmeta_slice_dim": 2,
  "dcmmeta_version": 0.6,
  "global": {
    "const": {
      "AccessionNumber": "A003966",
      "AcquisitionMatrix": [82, 0, 0, 82],
      "AngioFlag": "N",
      "BitsAllocated": 16,
      "BitsStored": 16,
      "BodyPartExamined": "BRAIN",
      "Columns": 656,
      "EchoNumbers": 1,
      "EchoTime": 27.2,
      "EchoTrainLength": 82,
      "FlipAngle": 44.0,
      "HighBit": 15,
      "ImageOrientationPatient": [0.99685734577844, -0.0238549834642, 0.07554053171306, 0.01270151562617, 0.98937615510938, 0.14482228834603],
      "ImagePositionPatient": [-883.31416249061, -849.75118006561, -300.23012306739],
      "ImageType": [
        "ORIGINAL",
        "PRIMARY",
        "M",
        "MB",
        "ND",
        "NORM",
        "MOSAIC"
],
      "ImagedNucleus": "1H",
      "ImagingFrequency": 123.252248,
      "InPlanePhaseEncodingDirection": "COL",
      "MRAcquisitionType": "2D",
      "MagneticFieldStrength": 3.0,
      "Manufacturer": "SIEMENS",
      "ManufacturerModelName": "Prisma",
      "Modality": "MR",
      "NumberOfAverages": 1.0,
      "NumberOfPhaseEncodingSteps": 82,
      "PercentPhaseFieldOfView": 100.0,
      "PercentSampling": 100.0,
      "PerformedProcedureStepStartTime": "172238.234000",
      "PhotometricInterpretation": "MONOCHROME2",
      "PixelBandwidth": 3050.0,
      "PixelRepresentation": 0,
      "PixelSpacing": [2.6829268932343, 2.6829268932343],
      "ProtocolName": "func_run-04_task-social_acq-ap-mb8",
      "RepetitionTime": 460.0,
      "Rows": 656,
      "SAR": 0.0816742803111,
      "SamplesPerPixel": 1,
      "ScanOptions": "FS",
      "ScanningSequence": "EP",
      "SequenceName": "epfid2d1_82",
      "SequenceVariant": [
        "SK",
        "SS"
],
      "SeriesDescription": "func_run-04_task-social_acq-ap-mb8",
      "SeriesNumber": 14,
      "SeriesTime": "175125.239000",
      "SliceLocation": -105.26840013408,
      "SliceThickness": 2.7000000476837,
      "SmallestImagePixelValue": 0,
      "SoftwareVersions": "syngo MR E11",
      "SpacingBetweenSlices": 2.7000000571948,
      "SpecificCharacterSet": "ISO_IR 100",
      "StudyID": "1",
      "StudyTime": "172238.178000",
      "TransmitCoilName": "Body",
      "VariableFlipAngleFlag": "N",
      "WindowCenterWidthExplanation": "Algo1"
    },
    "slices": {}
  },
  "time": {
    "samples": {
      "AcquisitionNumber": [1, 2, 3, 4, 5, 6, 7, 8, 9, 10, 11, 12, 13, 14, 15, 16, 17, 18, 19, 20, 21, 22, 23, 24, 25, 26, 27, 28, 29, 30, 31, 32, 33, 34, 35, 36, 37, 38, 39, 40, 41, 42, 43, 44, 45, 46, 47, 48, 49, 50, 51, 52, 53, 54, 55, 56, 57, 58, 59, 60, 61, 62, 63, 64, 65, 66, 67, 68, 69, 70, 71, 72, 73, 74, 75, 76, 77, 78, 79, 80, 81, 82, 83, 84, 85, 86, 87, 88, 89, 90, 91, 92, 93, 94, 95, 96, 97, 98, 99, 100, 101, 102, 103, 104, 105, 106, 107, 108, 109, 110, 111, 112, 113, 114, 115, 116, 117, 118, 119, 120, 121, 122, 123, 124, 125, 126, 127, 128, 129, 130, 131, 132, 133, 134, 135, 136, 137, 138, 139, 140, 141, 142, 143, 144, 145, 146, 147, 148, 149, 150, 151, 152, 153, 154, 155, 156, 157, 158, 159, 160, 161, 162, 163, 164, 165, 166, 167, 168, 169, 170, 171, 172, 173, 174, 175, 176, 177, 178, 179, 180, 181, 182, 183, 184, 185, 186, 187, 188, 189, 190, 191, 192, 193, 194, 195, 196, 197, 198, 199, 200, 201, 202, 203, 204, 205, 206, 207, 208, 209, 210, 211, 212, 213, 214, 215, 216, 217, 218, 219, 220, 221, 222, 223, 224, 225, 226, 227, 228, 229, 230, 231, 232, 233, 234, 235, 236, 237, 238, 239, 240, 241, 242, 243, 244, 245, 246, 247, 248, 249, 250, 251, 252, 253, 254, 255, 256, 257, 258, 259, 260, 261, 262, 263, 264, 265, 266, 267, 268, 269, 270, 271, 272, 273, 274, 275, 276, 277, 278, 279, 280, 281, 282, 283, 284, 285, 286, 287, 288, 289, 290, 291, 292, 293, 294, 295, 296, 297, 298, 299, 300, 301, 302, 303, 304, 305, 306, 307, 308, 309, 310, 311, 312, 313, 314, 315, 316, 317, 318, 319, 320, 321, 322, 323, 324, 325, 326, 327, 328, 329, 330, 331, 332, 333, 334, 335, 336, 337, 338, 339, 340, 341, 342, 343, 344, 345, 346, 347, 348, 349, 350, 351, 352, 353, 354, 355, 356, 357, 358, 359, 360, 361, 362, 363, 364, 365, 366, 367, 368, 369, 370, 371, 372, 373, 374, 375, 376, 377, 378, 379, 380, 381, 382, 383, 384, 385, 386, 387, 388, 389, 390, 391, 392, 393, 394, 395, 396, 397, 398, 399, 400, 401, 402, 403, 404, 405, 406, 407, 408, 409, 410, 411, 412, 413, 414, 415, 416, 417, 418, 419, 420, 421, 422, 423, 424, 425, 426, 427, 428, 429, 430, 431, 432, 433, 434, 435, 436, 437, 438, 439, 440, 441, 442, 443, 444, 445, 446, 447, 448, 449, 450, 451, 452, 453, 454, 455, 456, 457, 458, 459, 460, 461, 462, 463, 464, 465, 466, 467, 468, 469, 470, 471, 472, 473, 474, 475, 476, 477, 478, 479, 480, 481, 482, 483, 484, 485, 486, 487, 488, 489, 490, 491, 492, 493, 494, 495, 496, 497, 498, 499, 500, 501, 502, 503, 504, 505, 506, 507, 508, 509, 510, 511, 512, 513, 514, 515, 516, 517, 518, 519, 520, 521, 522, 523, 524, 525, 526, 527, 528, 529, 530, 531, 532, 533, 534, 535, 536, 537, 538, 539, 540, 541, 542, 543, 544, 545, 546, 547, 548, 549, 550, 551, 552, 553, 554, 555, 556, 557, 558, 559, 560, 561, 562, 563, 564, 565, 566, 567, 568, 569, 570, 571, 572, 573, 574, 575, 576, 577, 578, 579, 580, 581, 582, 583, 584, 585, 586, 587, 588, 589, 590, 591, 592, 593, 594, 595, 596, 597, 598, 599, 600, 601, 602, 603, 604, 605, 606, 607, 608, 609, 610, 611, 612, 613, 614, 615, 616, 617, 618, 619, 620, 621, 622, 623, 624, 625, 626, 627, 628, 629, 630, 631, 632, 633, 634, 635, 636, 637, 638, 639, 640, 641, 642, 643, 644, 645, 646, 647, 648, 649, 650, 651, 652, 653, 654, 655, 656, 657, 658, 659, 660, 661, 662, 663, 664, 665, 666, 667, 668, 669, 670, 671, 672, 673, 674, 675, 676, 677, 678, 679, 680, 681, 682, 683, 684, 685, 686, 687, 688, 689, 690, 691, 692, 693, 694, 695, 696, 697, 698, 699, 700, 701, 702, 703, 704, 705, 706, 707, 708, 709, 710, 711, 712, 713, 714, 715, 716, 717, 718, 719, 720, 721, 722, 723, 724, 725, 726, 727, 728, 729, 730, 731, 732, 733, 734, 735, 736, 737, 738, 739, 740, 741, 742, 743, 744, 745, 746, 747, 748, 749, 750, 751, 752, 753, 754, 755, 756, 757, 758, 759, 760, 761, 762, 763, 764, 765, 766, 767, 768, 769, 770, 771, 772, 773, 774, 775, 776, 777, 778, 779, 780, 781, 782, 783, 784, 785, 786, 787, 788, 789, 790, 791, 792, 793, 794, 795, 796, 797, 798, 799, 800, 801, 802, 803, 804, 805, 806, 807, 808, 809, 810, 811, 812, 813, 814, 815, 816, 817, 818, 819, 820, 821, 822, 823, 824, 825, 826, 827, 828, 829, 830, 831, 832, 833, 834, 835, 836, 837, 838, 839, 840, 841, 842, 843, 844, 845, 846, 847, 848, 849, 850, 851, 852, 853, 854, 855, 856, 857, 858, 859, 860, 861, 862, 863, 864, 865, 866, 867, 868, 869, 870, 871, 872],
      "AcquisitionTime": ["175109.180000", "175109.640000", "175110.100000", "175110.560000", "175111.020000", "175111.480000", "175111.940000", "175112.400000", "175112.860000", "175113.320000", "175113.780000", "175114.240000", "175114.700000", "175115.160000", "175115.620000", "175116.080000", "175116.540000", "175117.000000", "175117.460000", "175117.920000", "175118.380000", "175118.840000", "175119.300000", "175119.760000", "175120.220000", "175120.680000", "175121.140000", "175121.600000", "175122.060000", "175122.520000", "175122.980000", "175123.440000", "175123.900000", "175124.360000", "175124.820000", "175125.280000", "175125.740000", "175126.200000", "175126.660000", "175127.120000", "175127.580000", "175128.040000", "175128.500000", "175128.960000", "175129.420000", "175129.880000", "175130.340000", "175130.800000", "175131.260000", "175131.720000", "175132.180000", "175132.640000", "175133.100000", "175133.560000", "175134.020000", "175134.480000", "175134.940000", "175135.400000", "175135.860000", "175136.320000", "175136.780000", "175137.240000", "175137.700000", "175138.160000", "175138.620000", "175139.080000", "175139.540000", "175140.000000", "175140.460000", "175140.920000", "175141.380000", "175141.840000", "175142.300000", "175142.760000", "175143.220000", "175143.680000", "175144.140000", "175144.600000", "175145.060000", "175145.520000", "175145.980000", "175146.440000", "175146.900000", "175147.360000", "175147.820000", "175148.280000", "175148.740000", "175149.200000", "175149.660000", "175150.120000", "175150.580000", "175151.040000", "175151.500000", "175151.960000", "175152.420000", "175152.880000", "175153.340000", "175153.800000", "175154.260000", "175154.720000", "175155.180000", "175155.640000", "175156.100000", "175156.560000", "175157.020000", "175157.480000", "175157.940000", "175158.400000", "175158.860000", "175159.320000", "175159.780000", "175200.240000", "175200.700000", "175201.160000", "175201.620000", "175202.080000", "175202.540000", "175203.000000", "175203.460000", "175203.920000", "175204.380000", "175204.840000", "175205.300000", "175205.760000", "175206.220000", "175206.680000", "175207.140000", "175207.600000", "175208.060000", "175208.520000", "175208.980000", "175209.440000", "175209.900000", "175210.360000", "175210.820000", "175211.280000", "175211.740000", "175212.200000", "175212.660000", "175213.120000", "175213.580000", "175214.040000", "175214.500000", "175214.960000", "175215.420000", "175215.880000", "175216.340000", "175216.800000", "175217.260000", "175217.720000", "175218.180000", "175218.640000", "175219.100000", "175219.560000", "175220.020000", "175220.480000", "175220.940000", "175221.400000", "175221.860000", "175222.320000", "175222.780000", "175223.240000", "175223.700000", "175224.160000", "175224.620000", "175225.080000", "175225.540000", "175226.000000", "175226.460000", "175226.920000", "175227.380000", "175227.840000", "175228.300000", "175228.760000", "175229.220000", "175229.680000", "175230.140000", "175230.600000", "175231.060000", "175231.520000", "175231.980000", "175232.440000", "175232.900000", "175233.360000", "175233.820000", "175234.280000", "175234.740000", "175235.200000", "175235.660000", "175236.120000", "175236.580000", "175237.040000", "175237.500000", "175237.960000", "175238.420000", "175238.880000", "175239.340000", "175239.800000", "175240.260000", "175240.720000", "175241.180000", "175241.640000", "175242.100000", "175242.560000", "175243.020000", "175243.480000", "175243.940000", "175244.400000", "175244.860000", "175245.320000", "175245.780000", "175246.240000", "175246.700000", "175247.160000", "175247.620000", "175248.080000", "175248.540000", "175249.000000", "175249.460000", "175249.920000", "175250.380000", "175250.840000", "175251.300000", "175251.760000", "175252.220000", "175252.680000", "175253.140000", "175253.600000", "175254.060000", "175254.520000", "175254.980000", "175255.440000", "175255.900000", "175256.360000", "175256.820000", "175257.280000", "175257.740000", "175258.200000", "175258.660000", "175259.120000", "175259.580000", "175300.040000", "175300.500000", "175300.960000", "175301.420000", "175301.880000", "175302.340000", "175302.800000", "175303.260000", "175303.720000", "175304.180000", "175304.640000", "175305.100000", "175305.560000", "175306.020000", "175306.480000", "175306.940000", "175307.400000", "175307.860000", "175308.320000", "175308.780000", "175309.240000", "175309.700000", "175310.160000", "175310.620000", "175311.080000", "175311.540000", "175312.000000", "175312.460000", "175312.920000", "175313.380000", "175313.840000", "175314.300000", "175314.760000", "175315.220000", "175315.680000", "175316.140000", "175316.600000", "175317.060000", "175317.520000", "175317.980000", "175318.440000", "175318.900000", "175319.360000", "175319.820000", "175320.280000", "175320.740000", "175321.200000", "175321.660000", "175322.120000", "175322.580000", "175323.040000", "175323.500000", "175323.960000", "175324.420000", "175324.880000", "175325.340000", "175325.800000", "175326.260000", "175326.720000", "175327.180000", "175327.640000", "175328.100000", "175328.560000", "175329.020000", "175329.480000", "175329.940000", "175330.400000", "175330.860000", "175331.320000", "175331.780000", "175332.240000", "175332.700000", "175333.160000", "175333.620000", "175334.080000", "175334.540000", "175335.000000", "175335.460000", "175335.920000", "175336.380000", "175336.840000", "175337.300000", "175337.760000", "175338.220000", "175338.680000", "175339.140000", "175339.600000", "175340.060000", "175340.520000", "175340.980000", "175341.440000", "175341.900000", "175342.360000", "175342.820000", "175343.280000", "175343.740000", "175344.200000", "175344.660000", "175345.120000", "175345.580000", "175346.040000", "175346.500000", "175346.960000", "175347.420000", "175347.880000", "175348.340000", "175348.800000", "175349.260000", "175349.720000", "175350.180000", "175350.640000", "175351.100000", "175351.560000", "175352.020000", "175352.480000", "175352.940000", "175353.400000", "175353.860000", "175354.320000", "175354.780000", "175355.240000", "175355.700000", "175356.160000", "175356.620000", "175357.080000", "175357.540000", "175358.000000", "175358.460000", "175358.920000", "175359.380000", "175359.840000", "175400.300000", "175400.760000", "175401.220000", "175401.680000", "175402.140000", "175402.600000", "175403.060000", "175403.520000", "175403.980000", "175404.440000", "175404.900000", "175405.360000", "175405.820000", "175406.280000", "175406.740000", "175407.200000", "175407.660000", "175408.120000", "175408.580000", "175409.040000", "175409.500000", "175409.960000", "175410.420000", "175410.880000", "175411.340000", "175411.800000", "175412.260000", "175412.720000", "175413.180000", "175413.640000", "175414.100000", "175414.560000", "175415.020000", "175415.480000", "175415.940000", "175416.400000", "175416.860000", "175417.320000", "175417.780000", "175418.240000", "175418.700000", "175419.160000", "175419.620000", "175420.080000", "175420.540000", "175421.000000", "175421.460000", "175421.920000", "175422.380000", "175422.840000", "175423.300000", "175423.760000", "175424.220000", "175424.680000", "175425.140000", "175425.600000", "175426.060000", "175426.520000", "175426.980000", "175427.440000", "175427.900000", "175428.360000", "175428.820000", "175429.280000", "175429.740000", "175430.200000", "175430.660000", "175431.120000", "175431.580000", "175432.040000", "175432.500000", "175432.960000", "175433.420000", "175433.880000", "175434.340000", "175434.800000", "175435.260000", "175435.720000", "175436.180000", "175436.640000", "175437.100000", "175437.560000", "175438.020000", "175438.480000", "175438.940000", "175439.400000", "175439.860000", "175440.320000", "175440.780000", "175441.240000", "175441.700000", "175442.160000", "175442.620000", "175443.080000", "175443.540000", "175444.000000", "175444.460000", "175444.920000", "175445.380000", "175445.840000", "175446.300000", "175446.760000", "175447.220000", "175447.680000", "175448.140000", "175448.600000", "175449.060000", "175449.520000", "175449.980000", "175450.440000", "175450.900000", "175451.360000", "175451.820000", "175452.280000", "175452.740000", "175453.200000", "175453.660000", "175454.120000", "175454.580000", "175455.040000", "175455.500000", "175455.960000", "175456.420000", "175456.880000", "175457.340000", "175457.800000", "175458.260000", "175458.720000", "175459.180000", "175459.640000", "175500.100000", "175500.560000", "175501.020000", "175501.480000", "175501.940000", "175502.400000", "175502.860000", "175503.320000", "175503.780000", "175504.240000", "175504.700000", "175505.160000", "175505.620000", "175506.080000", "175506.540000", "175507.000000", "175507.460000", "175507.920000", "175508.380000", "175508.840000", "175509.300000", "175509.760000", "175510.220000", "175510.680000", "175511.140000", "175511.600000", "175512.060000", "175512.520000", "175512.980000", "175513.440000", "175513.900000", "175514.360000", "175514.820000", "175515.280000", "175515.740000", "175516.200000", "175516.660000", "175517.120000", "175517.580000", "175518.040000", "175518.500000", "175518.960000", "175519.420000", "175519.880000", "175520.340000", "175520.800000", "175521.260000", "175521.720000", "175522.180000", "175522.640000", "175523.100000", "175523.560000", "175524.020000", "175524.480000", "175524.940000", "175525.400000", "175525.860000", "175526.320000", "175526.780000", "175527.240000", "175527.700000", "175528.160000", "175528.620000", "175529.080000", "175529.540000", "175530.000000", "175530.460000", "175530.920000", "175531.380000", "175531.840000", "175532.300000", "175532.760000", "175533.220000", "175533.680000", "175534.140000", "175534.600000", "175535.060000", "175535.520000", "175535.980000", "175536.440000", "175536.900000", "175537.360000", "175537.820000", "175538.280000", "175538.740000", "175539.200000", "175539.660000", "175540.120000", "175540.580000", "175541.040000", "175541.500000", "175541.960000", "175542.420000", "175542.880000", "175543.340000", "175543.800000", "175544.260000", "175544.720000", "175545.180000", "175545.640000", "175546.100000", "175546.560000", "175547.020000", "175547.480000", "175547.940000", "175548.400000", "175548.860000", "175549.320000", "175549.780000", "175550.240000", "175550.700000", "175551.160000", "175551.620000", "175552.080000", "175552.540000", "175553.000000", "175553.460000", "175553.920000", "175554.380000", "175554.840000", "175555.300000", "175555.760000", "175556.220000", "175556.680000", "175557.140000", "175557.600000", "175558.060000", "175558.520000", "175558.980000", "175559.440000", "175559.900000", "175600.360000", "175600.820000", "175601.280000", "175601.740000", "175602.200000", "175602.660000", "175603.120000", "175603.580000", "175604.040000", "175604.500000", "175604.960000", "175605.420000", "175605.880000", "175606.340000", "175606.800000", "175607.260000", "175607.720000", "175608.180000", "175608.640000", "175609.100000", "175609.560000", "175610.020000", "175610.480000", "175610.940000", "175611.400000", "175611.860000", "175612.320000", "175612.780000", "175613.240000", "175613.700000", "175614.160000", "175614.620000", "175615.080000", "175615.540000", "175616.000000", "175616.460000", "175616.920000", "175617.380000", "175617.840000", "175618.300000", "175618.760000", "175619.220000", "175619.680000", "175620.140000", "175620.600000", "175621.060000", "175621.520000", "175621.980000", "175622.440000", "175622.900000", "175623.360000", "175623.820000", "175624.280000", "175624.740000", "175625.200000", "175625.660000", "175626.120000", "175626.580000", "175627.040000", "175627.500000", "175627.960000", "175628.420000", "175628.880000", "175629.340000", "175629.800000", "175630.260000", "175630.720000", "175631.180000", "175631.640000", "175632.100000", "175632.560000", "175633.020000", "175633.480000", "175633.940000", "175634.400000", "175634.860000", "175635.320000", "175635.780000", "175636.240000", "175636.700000", "175637.160000", "175637.620000", "175638.080000", "175638.540000", "175639.000000", "175639.460000", "175639.920000", "175640.380000", "175640.840000", "175641.300000", "175641.760000", "175642.220000", "175642.680000", "175643.140000", "175643.600000", "175644.060000", "175644.520000", "175644.980000", "175645.440000", "175645.900000", "175646.360000", "175646.820000", "175647.280000", "175647.740000", "175648.200000", "175648.660000", "175649.120000", "175649.580000", "175650.040000", "175650.500000", "175650.960000", "175651.420000", "175651.880000", "175652.340000", "175652.800000", "175653.260000", "175653.720000", "175654.180000", "175654.640000", "175655.100000", "175655.560000", "175656.020000", "175656.480000", "175656.940000", "175657.400000", "175657.860000", "175658.320000", "175658.780000", "175659.240000", "175659.700000", "175700.160000", "175700.620000", "175701.080000", "175701.540000", "175702.000000", "175702.460000", "175702.920000", "175703.380000", "175703.840000", "175704.300000", "175704.760000", "175705.220000", "175705.680000", "175706.140000", "175706.600000", "175707.060000", "175707.520000", "175707.980000", "175708.440000", "175708.900000", "175709.360000", "175709.820000", "175710.280000", "175710.740000", "175711.200000", "175711.660000", "175712.120000", "175712.580000", "175713.040000", "175713.500000", "175713.960000", "175714.420000", "175714.880000", "175715.340000", "175715.800000", "175716.260000", "175716.720000", "175717.180000", "175717.640000", "175718.100000", "175718.560000", "175719.020000", "175719.480000", "175719.940000", "175720.400000", "175720.860000", "175721.320000", "175721.780000", "175722.240000", "175722.700000", "175723.160000", "175723.620000", "175724.080000", "175724.540000", "175725.000000", "175725.460000", "175725.920000", "175726.380000", "175726.840000", "175727.300000", "175727.760000", "175728.220000", "175728.680000", "175729.140000", "175729.600000", "175730.060000", "175730.520000", "175730.980000", "175731.440000", "175731.900000", "175732.360000", "175732.820000", "175733.280000", "175733.740000", "175734.200000", "175734.660000", "175735.120000", "175735.580000", "175736.040000", "175736.500000", "175736.960000", "175737.420000", "175737.880000", "175738.340000", "175738.800000", "175739.260000", "175739.720000", "175740.180000", "175740.640000", "175741.100000", "175741.560000", "175742.020000", "175742.480000", "175742.940000", "175743.400000", "175743.860000", "175744.320000", "175744.780000", "175745.240000", "175745.700000", "175746.160000", "175746.620000", "175747.080000", "175747.540000", "175748.000000", "175748.460000", "175748.920000", "175749.380000", "175749.840000"],
