{
  "AcquisitionMatrixPE": 82,
  "AcquisitionNumber": 1,
  "AcquisitionTime": "17:37:2.722500",
  "BandwidthPerPixelPhaseEncode": 24.888,
  "BaseResolution": 82,
  "BodyPartExamined": "BRAIN",
  "ConsistencyInfo": "N4_VE11E_LATEST_20181129",
  "ConversionSoftware": "dcm2niix",
  "ConversionSoftwareVersion": "v1.0.20201102",
  "DerivedVendorReportedEchoSpacing": 0.00049,
  "DeviceSerialNumber": "66112",
  "DwellTime": 2e-06,
  "EchoTime": 0.0272,
  "EchoTrainLength": 82,
  "EffectiveEchoSpacing": 0.00049,
  "FlipAngle": 44,
  "ImageComments": "Unaliased MB8/PE3",
  "ImageOrientationPatientDICOM": [0.996857, -0.023855, 0.0755405, 0.0127015, 0.989376, 0.144822],
  "ImageType": [
    "ORIGINAL",
    "PRIMARY",
    "M",
    "MB",
    "ND",
    "NORM",
    "MOSAIC"
],
  "ImagingFrequency": 123.252,
  "InPlanePhaseEncodingDirectionDICOM": "COL",
  "InstitutionAddress": "Maynard 3,Hanover,NH,US,03755",
  "InstitutionName": "Dartmouth College - PBS",
  "InstitutionalDepartmentName": "Department",
  "MRAcquisitionType": "2D",
  "MagneticFieldStrength": 3,
  "Manufacturer": "Siemens",
  "ManufacturersModelName": "Prisma",
  "Modality": "MR",
  "MultibandAccelerationFactor": 8,
  "PartialFourier": 1,
  "PatientPosition": "HFS",
  "PercentPhaseFOV": 100,
  "PercentSampling": 100,
  "PhaseEncodingDirection": "j-",
  "PhaseEncodingSteps": 82,
  "PhaseResolution": 1,
  "PixelBandwidth": 3050,
  "ProcedureStepDescription": "Wager_Wager^1076_spacetop",
  "ProtocolName": "func_run-02_task-social_acq-ap-mb8",
  "PulseSequenceDetails": "%CustomerSeq%\\cmrr_mbep2d_bold",
  "ReceiveCoilActiveElements": "HEA;HEP",
  "ReceiveCoilName": "Head_32",
  "ReconMatrixPE": 82,
  "RepetitionTime": 0.46,
  "SAR": 0.0816743,
  "ScanOptions": "FS",
  "ScanningSequence": "EP",
  "SequenceName": "epfid2d1_82",
  "SequenceVariant": "SK\\SS",
  "SeriesDescription": "func_run-02_task-social_acq-ap-mb8",
  "SeriesNumber": 10,
  "ShimSetting": [4166, -7743, -7362, 656, -75, -258, -23, 98],
  "SliceThickness": 2.7,
  "SliceTiming": [0, 0.2525, 0.0625, 0.315, 0.125, 0.3775, 0.19, 0, 0.2525, 0.0625, 0.315, 0.125, 0.3775, 0.19, 0, 0.2525, 0.0625, 0.315, 0.125, 0.3775, 0.19, 0, 0.2525, 0.0625, 0.315, 0.125, 0.3775, 0.19, 0, 0.2525, 0.0625, 0.315, 0.125, 0.3775, 0.19, 0, 0.2525, 0.0625, 0.315, 0.125, 0.3775, 0.19, 0, 0.2525, 0.0625, 0.315, 0.125, 0.3775, 0.19, 0, 0.2525, 0.0625, 0.315, 0.125, 0.3775, 0.19],
  "SoftwareVersions": "syngo MR E11",
  "SpacingBetweenSlices": 2.7,
  "StationName": "AWP66112",
  "TaskName": "social",
  "TotalReadoutTime": 0.03969,
  "TxRefAmp": 239.733,
  "WipMemBlock": "0b83a8c6-5aa9-4e6a-98d7-6bd01da26e46||Sequence: R016 ve11e/master r/434b28f1; Aug  7 2019 18:53:46 by eja",
  "dcmmeta_affine": [
    [-2.6744954586029053, 0.034077238291502, 0.2111203819513321, 103.19356536865234],
    [0.0640011802315712, 2.654423952102661, 0.3872007429599762, -108.7084732055664],
    [0.20266972482204437, -0.3885475993156433, 2.66373872756958, -99.0783920288086],
    [0.0, 0.0, 0.0, 1.0]
],
  "dcmmeta_reorient_transform": [
    [0.0, -1.0, 0.0, 81.0],
    [1.0, 0.0, 0.0, 0.0],
    [0.0, 0.0, 1.0, 0.0],
    [0.0, 0.0, 0.0, 1.0]
],
  "dcmmeta_shape": [82, 82, 56, 872],
  "dcmmeta_slice_dim": 2,
  "dcmmeta_version": 0.6,
  "global": {
    "const": {
      "AccessionNumber": "A003966",
      "AcquisitionMatrix": [82, 0, 0, 82],
      "AngioFlag": "N",
      "BitsAllocated": 16,
      "BitsStored": 16,
      "BodyPartExamined": "BRAIN",
      "Columns": 656,
      "EchoNumbers": 1,
      "EchoTime": 27.2,
      "EchoTrainLength": 82,
      "FlipAngle": 44.0,
      "HighBit": 15,
      "ImageOrientationPatient": [0.99685734577844, -0.0238549834642, 0.07554053171306, 0.01270151562617, 0.98937615510938, 0.14482228834603],
      "ImagePositionPatient": [-883.31416249061, -849.75118006561, -300.23012306739],
      "ImageType": [
        "ORIGINAL",
        "PRIMARY",
        "M",
        "MB",
        "ND",
        "NORM",
        "MOSAIC"
],
      "ImagedNucleus": "1H",
      "ImagingFrequency": 123.252242,
      "InPlanePhaseEncodingDirection": "COL",
      "MRAcquisitionType": "2D",
      "MagneticFieldStrength": 3.0,
      "Manufacturer": "SIEMENS",
      "ManufacturerModelName": "Prisma",
      "Modality": "MR",
      "NumberOfAverages": 1.0,
      "NumberOfPhaseEncodingSteps": 82,
      "PercentPhaseFieldOfView": 100.0,
      "PercentSampling": 100.0,
      "PerformedProcedureStepStartTime": "172238.234000",
      "PhotometricInterpretation": "MONOCHROME2",
      "PixelBandwidth": 3050.0,
      "PixelRepresentation": 0,
      "PixelSpacing": [2.6829268932343, 2.6829268932343],
      "ProtocolName": "func_run-02_task-social_acq-ap-mb8",
      "RepetitionTime": 460.0,
      "Rows": 656,
      "SAR": 0.0816742803111,
      "SamplesPerPixel": 1,
      "ScanOptions": "FS",
      "ScanningSequence": "EP",
      "SequenceName": "epfid2d1_82",
      "SequenceVariant": [
        "SK",
        "SS"
],
      "SeriesDescription": "func_run-02_task-social_acq-ap-mb8",
      "SeriesNumber": 10,
      "SeriesTime": "173725.306000",
      "SliceLocation": -105.26840013408,
      "SliceThickness": 2.7000000476837,
      "SmallestImagePixelValue": 0,
      "SoftwareVersions": "syngo MR E11",
      "SpacingBetweenSlices": 2.7000000571948,
      "SpecificCharacterSet": "ISO_IR 100",
      "StudyID": "1",
      "StudyTime": "172238.178000",
      "TransmitCoilName": "Body",
      "VariableFlipAngleFlag": "N",
      "WindowCenterWidthExplanation": "Algo1"
    },
    "slices": {}
  },
  "time": {
    "samples": {
      "AcquisitionNumber": [1, 2, 3, 4, 5, 6, 7, 8, 9, 10, 11, 12, 13, 14, 15, 16, 17, 18, 19, 20, 21, 22, 23, 24, 25, 26, 27, 28, 29, 30, 31, 32, 33, 34, 35, 36, 37, 38, 39, 40, 41, 42, 43, 44, 45, 46, 47, 48, 49, 50, 51, 52, 53, 54, 55, 56, 57, 58, 59, 60, 61, 62, 63, 64, 65, 66, 67, 68, 69, 70, 71, 72, 73, 74, 75, 76, 77, 78, 79, 80, 81, 82, 83, 84, 85, 86, 87, 88, 89, 90, 91, 92, 93, 94, 95, 96, 97, 98, 99, 100, 101, 102, 103, 104, 105, 106, 107, 108, 109, 110, 111, 112, 113, 114, 115, 116, 117, 118, 119, 120, 121, 122, 123, 124, 125, 126, 127, 128, 129, 130, 131, 132, 133, 134, 135, 136, 137, 138, 139, 140, 141, 142, 143, 144, 145, 146, 147, 148, 149, 150, 151, 152, 153, 154, 155, 156, 157, 158, 159, 160, 161, 162, 163, 164, 165, 166, 167, 168, 169, 170, 171, 172, 173, 174, 175, 176, 177, 178, 179, 180, 181, 182, 183, 184, 185, 186, 187, 188, 189, 190, 191, 192, 193, 194, 195, 196, 197, 198, 199, 200, 201, 202, 203, 204, 205, 206, 207, 208, 209, 210, 211, 212, 213, 214, 215, 216, 217, 218, 219, 220, 221, 222, 223, 224, 225, 226, 227, 228, 229, 230, 231, 232, 233, 234, 235, 236, 237, 238, 239, 240, 241, 242, 243, 244, 245, 246, 247, 248, 249, 250, 251, 252, 253, 254, 255, 256, 257, 258, 259, 260, 261, 262, 263, 264, 265, 266, 267, 268, 269, 270, 271, 272, 273, 274, 275, 276, 277, 278, 279, 280, 281, 282, 283, 284, 285, 286, 287, 288, 289, 290, 291, 292, 293, 294, 295, 296, 297, 298, 299, 300, 301, 302, 303, 304, 305, 306, 307, 308, 309, 310, 311, 312, 313, 314, 315, 316, 317, 318, 319, 320, 321, 322, 323, 324, 325, 326, 327, 328, 329, 330, 331, 332, 333, 334, 335, 336, 337, 338, 339, 340, 341, 342, 343, 344, 345, 346, 347, 348, 349, 350, 351, 352, 353, 354, 355, 356, 357, 358, 359, 360, 361, 362, 363, 364, 365, 366, 367, 368, 369, 370, 371, 372, 373, 374, 375, 376, 377, 378, 379, 380, 381, 382, 383, 384, 385, 386, 387, 388, 389, 390, 391, 392, 393, 394, 395, 396, 397, 398, 399, 400, 401, 402, 403, 404, 405, 406, 407, 408, 409, 410, 411, 412, 413, 414, 415, 416, 417, 418, 419, 420, 421, 422, 423, 424, 425, 426, 427, 428, 429, 430, 431, 432, 433, 434, 435, 436, 437, 438, 439, 440, 441, 442, 443, 444, 445, 446, 447, 448, 449, 450, 451, 452, 453, 454, 455, 456, 457, 458, 459, 460, 461, 462, 463, 464, 465, 466, 467, 468, 469, 470, 471, 472, 473, 474, 475, 476, 477, 478, 479, 480, 481, 482, 483, 484, 485, 486, 487, 488, 489, 490, 491, 492, 493, 494, 495, 496, 497, 498, 499, 500, 501, 502, 503, 504, 505, 506, 507, 508, 509, 510, 511, 512, 513, 514, 515, 516, 517, 518, 519, 520, 521, 522, 523, 524, 525, 526, 527, 528, 529, 530, 531, 532, 533, 534, 535, 536, 537, 538, 539, 540, 541, 542, 543, 544, 545, 546, 547, 548, 549, 550, 551, 552, 553, 554, 555, 556, 557, 558, 559, 560, 561, 562, 563, 564, 565, 566, 567, 568, 569, 570, 571, 572, 573, 574, 575, 576, 577, 578, 579, 580, 581, 582, 583, 584, 585, 586, 587, 588, 589, 590, 591, 592, 593, 594, 595, 596, 597, 598, 599, 600, 601, 602, 603, 604, 605, 606, 607, 608, 609, 610, 611, 612, 613, 614, 615, 616, 617, 618, 619, 620, 621, 622, 623, 624, 625, 626, 627, 628, 629, 630, 631, 632, 633, 634, 635, 636, 637, 638, 639, 640, 641, 642, 643, 644, 645, 646, 647, 648, 649, 650, 651, 652, 653, 654, 655, 656, 657, 658, 659, 660, 661, 662, 663, 664, 665, 666, 667, 668, 669, 670, 671, 672, 673, 674, 675, 676, 677, 678, 679, 680, 681, 682, 683, 684, 685, 686, 687, 688, 689, 690, 691, 692, 693, 694, 695, 696, 697, 698, 699, 700, 701, 702, 703, 704, 705, 706, 707, 708, 709, 710, 711, 712, 713, 714, 715, 716, 717, 718, 719, 720, 721, 722, 723, 724, 725, 726, 727, 728, 729, 730, 731, 732, 733, 734, 735, 736, 737, 738, 739, 740, 741, 742, 743, 744, 745, 746, 747, 748, 749, 750, 751, 752, 753, 754, 755, 756, 757, 758, 759, 760, 761, 762, 763, 764, 765, 766, 767, 768, 769, 770, 771, 772, 773, 774, 775, 776, 777, 778, 779, 780, 781, 782, 783, 784, 785, 786, 787, 788, 789, 790, 791, 792, 793, 794, 795, 796, 797, 798, 799, 800, 801, 802, 803, 804, 805, 806, 807, 808, 809, 810, 811, 812, 813, 814, 815, 816, 817, 818, 819, 820, 821, 822, 823, 824, 825, 826, 827, 828, 829, 830, 831, 832, 833, 834, 835, 836, 837, 838, 839, 840, 841, 842, 843, 844, 845, 846, 847, 848, 849, 850, 851, 852, 853, 854, 855, 856, 857, 858, 859, 860, 861, 862, 863, 864, 865, 866, 867, 868, 869, 870, 871, 872],
      "AcquisitionTime": ["173702.722500", "173703.182500", "173703.642500", "173704.102500", "173704.562500", "173705.022500", "173705.482500", "173705.942500", "173706.402500", "173706.862500", "173707.322500", "173707.782500", "173708.242500", "173708.702500", "173709.162500", "173709.622500", "173710.082500", "173710.542500", "173711.002500", "173711.462500", "173711.922500", "173712.382500", "173712.842500", "173713.302500", "173713.762500", "173714.222500", "173714.682500", "173715.142500", "173715.602500", "173716.062500", "173716.522500", "173716.982500", "173717.442500", "173717.902500", "173718.362500", "173718.822500", "173719.282500", "173719.742500", "173720.202500", "173720.662500", "173721.122500", "173721.582500", "173722.042500", "173722.502500", "173722.962500", "173723.422500", "173723.882500", "173724.342500", "173724.802500", "173725.262500", "173725.722500", "173726.182500", "173726.642500", "173727.102500", "173727.562500", "173728.022500", "173728.482500", "173728.942500", "173729.402500", "173729.862500", "173730.322500", "173730.782500", "173731.242500", "173731.702500", "173732.162500", "173732.622500", "173733.082500", "173733.542500", "173734.002500", "173734.462500", "173734.922500", "173735.382500", "173735.842500", "173736.302500", "173736.762500", "173737.222500", "173737.682500", "173738.142500", "173738.602500", "173739.062500", "173739.522500", "173739.982500", "173740.442500", "173740.902500", "173741.362500", "173741.822500", "173742.282500", "173742.742500", "173743.202500", "173743.662500", "173744.122500", "173744.582500", "173745.042500", "173745.502500", "173745.962500", "173746.422500", "173746.882500", "173747.342500", "173747.802500", "173748.262500", "173748.722500", "173749.182500", "173749.642500", "173750.102500", "173750.562500", "173751.022500", "173751.482500", "173751.942500", "173752.402500", "173752.862500", "173753.322500", "173753.782500", "173754.242500", "173754.702500", "173755.162500", "173755.622500", "173756.082500", "173756.542500", "173757.002500", "173757.462500", "173757.922500", "173758.382500", "173758.842500", "173759.302500", "173759.762500", "173800.222500", "173800.682500", "173801.142500", "173801.602500", "173802.062500", "173802.522500", "173802.982500", "173803.442500", "173803.902500", "173804.362500", "173804.822500", "173805.282500", "173805.742500", "173806.202500", "173806.662500", "173807.122500", "173807.582500", "173808.042500", "173808.502500", "173808.962500", "173809.422500", "173809.882500", "173810.342500", "173810.802500", "173811.262500", "173811.722500", "173812.182500", "173812.642500", "173813.102500", "173813.562500", "173814.022500", "173814.482500", "173814.942500", "173815.402500", "173815.862500", "173816.322500", "173816.782500", "173817.242500", "173817.702500", "173818.162500", "173818.622500", "173819.082500", "173819.542500", "173820.002500", "173820.462500", "173820.922500", "173821.382500", "173821.842500", "173822.302500", "173822.762500", "173823.222500", "173823.682500", "173824.142500", "173824.602500", "173825.062500", "173825.522500", "173825.982500", "173826.442500", "173826.902500", "173827.362500", "173827.822500", "173828.282500", "173828.742500", "173829.202500", "173829.662500", "173830.122500", "173830.582500", "173831.042500", "173831.502500", "173831.962500", "173832.422500", "173832.882500", "173833.342500", "173833.802500", "173834.262500", "173834.722500", "173835.182500", "173835.642500", "173836.102500", "173836.562500", "173837.022500", "173837.482500", "173837.942500", "173838.402500", "173838.862500", "173839.322500", "173839.782500", "173840.242500", "173840.702500", "173841.162500", "173841.622500", "173842.082500", "173842.542500", "173843.002500", "173843.462500", "173843.922500", "173844.382500", "173844.842500", "173845.302500", "173845.762500", "173846.222500", "173846.682500", "173847.142500", "173847.602500", "173848.062500", "173848.522500", "173848.982500", "173849.442500", "173849.902500", "173850.362500", "173850.822500", "173851.282500", "173851.742500", "173852.202500", "173852.662500", "173853.122500", "173853.582500", "173854.042500", "173854.502500", "173854.962500", "173855.422500", "173855.882500", "173856.342500", "173856.802500", "173857.262500", "173857.722500", "173858.182500", "173858.642500", "173859.102500", "173859.562500", "173900.022500", "173900.482500", "173900.942500", "173901.402500", "173901.862500", "173902.322500", "173902.782500", "173903.242500", "173903.702500", "173904.162500", "173904.622500", "173905.082500", "173905.542500", "173906.002500", "173906.462500", "173906.922500", "173907.382500", "173907.842500", "173908.302500", "173908.762500", "173909.222500", "173909.682500", "173910.142500", "173910.602500", "173911.062500", "173911.522500", "173911.982500", "173912.442500", "173912.902500", "173913.362500", "173913.822500", "173914.282500", "173914.742500", "173915.202500", "173915.662500", "173916.122500", "173916.582500", "173917.042500", "173917.502500", "173917.962500", "173918.422500", "173918.882500", "173919.342500", "173919.802500", "173920.262500", "173920.722500", "173921.182500", "173921.642500", "173922.102500", "173922.562500", "173923.022500", "173923.482500", "173923.942500", "173924.402500", "173924.862500", "173925.322500", "173925.782500", "173926.242500", "173926.702500", "173927.162500", "173927.622500", "173928.082500", "173928.542500", "173929.002500", "173929.462500", "173929.922500", "173930.382500", "173930.842500", "173931.302500", "173931.762500", "173932.222500", "173932.682500", "173933.142500", "173933.602500", "173934.062500", "173934.522500", "173934.982500", "173935.442500", "173935.902500", "173936.362500", "173936.822500", "173937.282500", "173937.742500", "173938.202500", "173938.662500", "173939.122500", "173939.582500", "173940.042500", "173940.502500", "173940.962500", "173941.422500", "173941.882500", "173942.342500", "173942.802500", "173943.262500", "173943.722500", "173944.182500", "173944.642500", "173945.102500", "173945.562500", "173946.022500", "173946.482500", "173946.942500", "173947.402500", "173947.862500", "173948.322500", "173948.782500", "173949.242500", "173949.702500", "173950.162500", "173950.622500", "173951.082500", "173951.542500", "173952.002500", "173952.462500", "173952.922500", "173953.382500", "173953.842500", "173954.302500", "173954.762500", "173955.222500", "173955.682500", "173956.142500", "173956.602500", "173957.062500", "173957.522500", "173957.982500", "173958.442500", "173958.902500", "173959.362500", "173959.822500", "174000.282500", "174000.742500", "174001.202500", "174001.662500", "174002.122500", "174002.582500", "174003.042500", "174003.502500", "174003.962500", "174004.422500", "174004.882500", "174005.342500", "174005.802500", "174006.262500", "174006.722500", "174007.182500", "174007.642500", "174008.102500", "174008.562500", "174009.022500", "174009.482500", "174009.942500", "174010.402500", "174010.862500", "174011.322500", "174011.782500", "174012.242500", "174012.702500", "174013.162500", "174013.622500", "174014.082500", "174014.542500", "174015.002500", "174015.462500", "174015.922500", "174016.382500", "174016.842500", "174017.302500", "174017.762500", "174018.222500", "174018.682500", "174019.142500", "174019.602500", "174020.062500", "174020.522500", "174020.982500", "174021.442500", "174021.902500", "174022.362500", "174022.822500", "174023.282500", "174023.742500", "174024.202500", "174024.662500", "174025.122500", "174025.582500", "174026.042500", "174026.502500", "174026.962500", "174027.422500", "174027.882500", "174028.342500", "174028.802500", "174029.262500", "174029.722500", "174030.182500", "174030.642500", "174031.102500", "174031.562500", "174032.022500", "174032.482500", "174032.942500", "174033.402500", "174033.862500", "174034.322500", "174034.782500", "174035.242500", "174035.702500", "174036.162500", "174036.622500", "174037.082500", "174037.542500", "174038.002500", "174038.462500", "174038.922500", "174039.382500", "174039.842500", "174040.302500", "174040.762500", "174041.222500", "174041.682500", "174042.142500", "174042.602500", "174043.062500", "174043.522500", "174043.982500", "174044.442500", "174044.902500", "174045.362500", "174045.822500", "174046.282500", "174046.742500", "174047.202500", "174047.662500", "174048.122500", "174048.582500", "174049.042500", "174049.502500", "174049.962500", "174050.422500", "174050.882500", "174051.342500", "174051.802500", "174052.262500", "174052.722500", "174053.182500", "174053.642500", "174054.102500", "174054.562500", "174055.022500", "174055.482500", "174055.942500", "174056.402500", "174056.862500", "174057.322500", "174057.782500", "174058.242500", "174058.702500", "174059.162500", "174059.622500", "174100.082500", "174100.542500", "174101.002500", "174101.462500", "174101.922500", "174102.382500", "174102.842500", "174103.302500", "174103.762500", "174104.222500", "174104.682500", "174105.142500", "174105.602500", "174106.062500", "174106.522500", "174106.982500", "174107.442500", "174107.902500", "174108.362500", "174108.822500", "174109.282500", "174109.742500", "174110.202500", "174110.662500", "174111.122500", "174111.582500", "174112.042500", "174112.502500", "174112.962500", "174113.422500", "174113.882500", "174114.342500", "174114.802500", "174115.262500", "174115.722500", "174116.182500", "174116.642500", "174117.102500", "174117.562500", "174118.022500", "174118.482500", "174118.942500", "174119.402500", "174119.862500", "174120.322500", "174120.782500", "174121.242500", "174121.702500", "174122.162500", "174122.622500", "174123.082500", "174123.542500", "174124.002500", "174124.462500", "174124.922500", "174125.382500", "174125.842500", "174126.302500", "174126.762500", "174127.222500", "174127.682500", "174128.142500", "174128.602500", "174129.062500", "174129.522500", "174129.982500", "174130.442500", "174130.902500", "174131.362500", "174131.822500", "174132.282500", "174132.742500", "174133.202500", "174133.662500", "174134.122500", "174134.582500", "174135.042500", "174135.502500", "174135.962500", "174136.422500", "174136.882500", "174137.342500", "174137.802500", "174138.262500", "174138.722500", "174139.182500", "174139.642500", "174140.102500", "174140.562500", "174141.022500", "174141.482500", "174141.942500", "174142.402500", "174142.862500", "174143.322500", "174143.782500", "174144.242500", "174144.702500", "174145.162500", "174145.622500", "174146.082500", "174146.542500", "174147.002500", "174147.462500", "174147.922500", "174148.382500", "174148.842500", "174149.302500", "174149.762500", "174150.222500", "174150.682500", "174151.142500", "174151.602500", "174152.062500", "174152.522500", "174152.982500", "174153.442500", "174153.902500", "174154.362500", "174154.822500", "174155.282500", "174155.742500", "174156.202500", "174156.662500", "174157.122500", "174157.582500", "174158.042500", "174158.502500", "174158.962500", "174159.422500", "174159.882500", "174200.342500", "174200.802500", "174201.262500", "174201.722500", "174202.182500", "174202.642500", "174203.102500", "174203.562500", "174204.022500", "174204.482500", "174204.942500", "174205.402500", "174205.862500", "174206.322500", "174206.782500", "174207.242500", "174207.702500", "174208.162500", "174208.622500", "174209.082500", "174209.542500", "174210.002500", "174210.462500", "174210.922500", "174211.382500", "174211.842500", "174212.302500", "174212.762500", "174213.222500", "174213.682500", "174214.142500", "174214.602500", "174215.062500", "174215.522500", "174215.982500", "174216.442500", "174216.902500", "174217.362500", "174217.822500", "174218.282500", "174218.742500", "174219.202500", "174219.662500", "174220.122500", "174220.582500", "174221.042500", "174221.502500", "174221.962500", "174222.422500", "174222.882500", "174223.342500", "174223.802500", "174224.262500", "174224.722500", "174225.182500", "174225.642500", "174226.102500", "174226.562500", "174227.022500", "174227.482500", "174227.942500", "174228.402500", "174228.862500", "174229.322500", "174229.782500", "174230.242500", "174230.702500", "174231.162500", "174231.622500", "174232.082500", "174232.542500", "174233.002500", "174233.462500", "174233.922500", "174234.382500", "174234.842500", "174235.302500", "174235.762500", "174236.222500", "174236.682500", "174237.142500", "174237.602500", "174238.062500", "174238.522500", "174238.982500", "174239.442500", "174239.902500", "174240.362500", "174240.822500", "174241.282500", "174241.742500", "174242.202500", "174242.662500", "174243.122500", "174243.582500", "174244.042500", "174244.502500", "174244.962500", "174245.422500", "174245.882500", "174246.342500", "174246.802500", "174247.262500", "174247.722500", "174248.182500", "174248.642500", "174249.102500", "174249.562500", "174250.022500", "174250.482500", "174250.942500", "174251.402500", "174251.862500", "174252.322500", "174252.782500", "174253.242500", "174253.702500", "174254.162500", "174254.622500", "174255.082500", "174255.542500", "174256.002500", "174256.462500", "174256.922500", "174257.382500", "174257.842500", "174258.302500", "174258.762500", "174259.222500", "174259.682500", "174300.142500", "174300.602500", "174301.062500", "174301.522500", "174301.982500", "174302.442500", "174302.902500", "174303.362500", "174303.822500", "174304.282500", "174304.742500", "174305.202500", "174305.662500", "174306.122500", "174306.582500", "174307.042500", "174307.502500", "174307.962500", "174308.422500", "174308.882500", "174309.342500", "174309.802500", "174310.262500", "174310.722500", "174311.182500", "174311.642500", "174312.102500", "174312.562500", "174313.022500", "174313.482500", "174313.942500", "174314.402500", "174314.862500", "174315.322500", "174315.782500", "174316.242500", "174316.702500", "174317.162500", "174317.622500", "174318.082500", "174318.542500", "174319.002500", "174319.462500", "174319.922500", "174320.382500", "174320.842500", "174321.302500", "174321.762500", "174322.222500", "174322.682500", "174323.142500", "174323.602500", "174324.062500", "174324.522500", "174324.982500", "174325.442500", "174325.902500", "174326.362500", "174326.822500", "174327.282500", "174327.742500", "174328.202500", "174328.662500", "174329.122500", "174329.582500", "174330.042500", "174330.502500", "174330.962500", "174331.422500", "174331.882500", "174332.342500", "174332.802500", "174333.262500", "174333.722500", "174334.182500", "174334.642500", "174335.102500", "174335.562500", "174336.022500", "174336.482500", "174336.942500", "174337.402500", "174337.862500", "174338.322500", "174338.782500", "174339.242500", "174339.702500", "174340.162500", "174340.622500", "174341.082500", "174341.542500", "174342.002500", "174342.462500", "174342.922500", "174343.382500"],
