{
  "AcquisitionMatrixPE": 82,
  "AcquisitionNumber": 1,
  "AcquisitionTime": "17:59:13.912500",
  "BandwidthPerPixelPhaseEncode": 24.888,
  "BaseResolution": 82,
  "BodyPartExamined": "BRAIN",
  "ConsistencyInfo": "N4_VE11E_LATEST_20181129",
  "ConversionSoftware": "dcm2niix",
  "ConversionSoftwareVersion": "v1.0.20201102",
  "DerivedVendorReportedEchoSpacing": 0.00049,
  "DeviceSerialNumber": "66112",
  "DwellTime": 2e-06,
  "EchoTime": 0.0272,
  "EchoTrainLength": 82,
  "EffectiveEchoSpacing": 0.00049,
  "FlipAngle": 44,
  "ImageComments": "Unaliased MB8/PE3",
  "ImageOrientationPatientDICOM": [0.996857, -0.023855, 0.0755405, 0.0127015, 0.989376, 0.144822],
  "ImageType": [
    "ORIGINAL",
    "PRIMARY",
    "M",
    "MB",
    "ND",
    "NORM",
    "MOSAIC"
],
  "ImagingFrequency": 123.252,
  "InPlanePhaseEncodingDirectionDICOM": "COL",
  "InstitutionAddress": "Maynard 3,Hanover,NH,US,03755",
  "InstitutionName": "Dartmouth College - PBS",
  "InstitutionalDepartmentName": "Department",
  "MRAcquisitionType": "2D",
  "MagneticFieldStrength": 3,
  "Manufacturer": "Siemens",
  "ManufacturersModelName": "Prisma",
  "Modality": "MR",
  "MultibandAccelerationFactor": 8,
  "PartialFourier": 1,
  "PatientPosition": "HFS",
  "PercentPhaseFOV": 100,
  "PercentSampling": 100,
  "PhaseEncodingDirection": "j-",
  "PhaseEncodingSteps": 82,
  "PhaseResolution": 1,
  "PixelBandwidth": 3050,
  "ProcedureStepDescription": "Wager_Wager^1076_spacetop",
  "ProtocolName": "func_run-05_task-social_acq-ap-mb8",
  "PulseSequenceDetails": "%CustomerSeq%\\cmrr_mbep2d_bold",
  "ReceiveCoilActiveElements": "HEA;HEP",
  "ReceiveCoilName": "Head_32",
  "ReconMatrixPE": 82,
  "RepetitionTime": 0.46,
  "SAR": 0.0816743,
  "ScanOptions": "FS",
  "ScanningSequence": "EP",
  "SequenceName": "epfid2d1_82",
  "SequenceVariant": "SK\\SS",
  "SeriesDescription": "func_run-05_task-social_acq-ap-mb8",
  "SeriesNumber": 16,
  "ShimSetting": [4166, -7743, -7362, 656, -75, -258, -23, 98],
  "SliceThickness": 2.7,
  "SliceTiming": [0, 0.25, 0.0625, 0.3125, 0.125, 0.3775, 0.1875, 0, 0.25, 0.0625, 0.3125, 0.125, 0.3775, 0.1875, 0, 0.25, 0.0625, 0.3125, 0.125, 0.3775, 0.1875, 0, 0.25, 0.0625, 0.3125, 0.125, 0.3775, 0.1875, 0, 0.25, 0.0625, 0.3125, 0.125, 0.3775, 0.1875, 0, 0.25, 0.0625, 0.3125, 0.125, 0.3775, 0.1875, 0, 0.25, 0.0625, 0.3125, 0.125, 0.3775, 0.1875, 0, 0.25, 0.0625, 0.3125, 0.125, 0.3775, 0.1875],
  "SoftwareVersions": "syngo MR E11",
  "SpacingBetweenSlices": 2.7,
  "StationName": "AWP66112",
  "TaskName": "social",
  "TotalReadoutTime": 0.03969,
  "TxRefAmp": 239.733,
  "WipMemBlock": "994d1542-2144-48dc-96f6-7d4ed4f0e4e2||Sequence: R016 ve11e/master r/434b28f1; Aug  7 2019 18:53:46 by eja",
  "dcmmeta_affine": [
    [-2.6744954586029053, 0.034077238291502, 0.2111203819513321, 103.19356536865234],
    [0.0640011802315712, 2.654423952102661, 0.3872007429599762, -108.7084732055664],
    [0.20266972482204437, -0.3885475993156433, 2.66373872756958, -99.0783920288086],
    [0.0, 0.0, 0.0, 1.0]
],
  "dcmmeta_reorient_transform": [
    [0.0, -1.0, 0.0, 81.0],
    [1.0, 0.0, 0.0, 0.0],
    [0.0, 0.0, 1.0, 0.0],
    [0.0, 0.0, 0.0, 1.0]
],
  "dcmmeta_shape": [82, 82, 56, 872],
  "dcmmeta_slice_dim": 2,
  "dcmmeta_version": 0.6,
  "global": {
    "const": {
      "AccessionNumber": "A003966",
      "AcquisitionMatrix": [82, 0, 0, 82],
      "AngioFlag": "N",
      "BitsAllocated": 16,
      "BitsStored": 16,
      "BodyPartExamined": "BRAIN",
      "Columns": 656,
      "EchoNumbers": 1,
      "EchoTime": 27.2,
      "EchoTrainLength": 82,
      "FlipAngle": 44.0,
      "HighBit": 15,
      "ImageOrientationPatient": [0.99685734577844, -0.0238549834642, 0.07554053171306, 0.01270151562617, 0.98937615510938, 0.14482228834603],
      "ImagePositionPatient": [-883.31416249061, -849.75118006561, -300.23012306739],
      "ImageType": [
        "ORIGINAL",
        "PRIMARY",
        "M",
        "MB",
        "ND",
        "NORM",
        "MOSAIC"
],
      "ImagedNucleus": "1H",
      "ImagingFrequency": 123.252251,
      "InPlanePhaseEncodingDirection": "COL",
      "MRAcquisitionType": "2D",
      "MagneticFieldStrength": 3.0,
      "Manufacturer": "SIEMENS",
      "ManufacturerModelName": "Prisma",
      "Modality": "MR",
      "NumberOfAverages": 1.0,
      "NumberOfPhaseEncodingSteps": 82,
      "PercentPhaseFieldOfView": 100.0,
      "PercentSampling": 100.0,
      "PerformedProcedureStepStartTime": "172238.234000",
      "PhotometricInterpretation": "MONOCHROME2",
      "PixelBandwidth": 3050.0,
      "PixelRepresentation": 0,
      "PixelSpacing": [2.6829268932343, 2.6829268932343],
      "ProtocolName": "func_run-05_task-social_acq-ap-mb8",
      "RepetitionTime": 460.0,
      "Rows": 656,
      "SAR": 0.0816742803111,
      "SamplesPerPixel": 1,
      "ScanOptions": "FS",
      "ScanningSequence": "EP",
      "SequenceName": "epfid2d1_82",
      "SequenceVariant": [
        "SK",
        "SS"
],
      "SeriesDescription": "func_run-05_task-social_acq-ap-mb8",
      "SeriesNumber": 16,
      "SeriesTime": "175925.314000",
      "SliceLocation": -105.26840013408,
      "SliceThickness": 2.7000000476837,
      "SmallestImagePixelValue": 0,
      "SoftwareVersions": "syngo MR E11",
      "SpacingBetweenSlices": 2.7000000571948,
      "SpecificCharacterSet": "ISO_IR 100",
      "StudyID": "1",
      "StudyTime": "172238.178000",
      "TransmitCoilName": "Body",
      "VariableFlipAngleFlag": "N",
      "WindowCenterWidthExplanation": "Algo1"
    },
    "slices": {}
  },
  "time": {
    "samples": {
      "AcquisitionNumber": [1, 2, 3, 4, 5, 6, 7, 8, 9, 10, 11, 12, 13, 14, 15, 16, 17, 18, 19, 20, 21, 22, 23, 24, 25, 26, 27, 28, 29, 30, 31, 32, 33, 34, 35, 36, 37, 38, 39, 40, 41, 42, 43, 44, 45, 46, 47, 48, 49, 50, 51, 52, 53, 54, 55, 56, 57, 58, 59, 60, 61, 62, 63, 64, 65, 66, 67, 68, 69, 70, 71, 72, 73, 74, 75, 76, 77, 78, 79, 80, 81, 82, 83, 84, 85, 86, 87, 88, 89, 90, 91, 92, 93, 94, 95, 96, 97, 98, 99, 100, 101, 102, 103, 104, 105, 106, 107, 108, 109, 110, 111, 112, 113, 114, 115, 116, 117, 118, 119, 120, 121, 122, 123, 124, 125, 126, 127, 128, 129, 130, 131, 132, 133, 134, 135, 136, 137, 138, 139, 140, 141, 142, 143, 144, 145, 146, 147, 148, 149, 150, 151, 152, 153, 154, 155, 156, 157, 158, 159, 160, 161, 162, 163, 164, 165, 166, 167, 168, 169, 170, 171, 172, 173, 174, 175, 176, 177, 178, 179, 180, 181, 182, 183, 184, 185, 186, 187, 188, 189, 190, 191, 192, 193, 194, 195, 196, 197, 198, 199, 200, 201, 202, 203, 204, 205, 206, 207, 208, 209, 210, 211, 212, 213, 214, 215, 216, 217, 218, 219, 220, 221, 222, 223, 224, 225, 226, 227, 228, 229, 230, 231, 232, 233, 234, 235, 236, 237, 238, 239, 240, 241, 242, 243, 244, 245, 246, 247, 248, 249, 250, 251, 252, 253, 254, 255, 256, 257, 258, 259, 260, 261, 262, 263, 264, 265, 266, 267, 268, 269, 270, 271, 272, 273, 274, 275, 276, 277, 278, 279, 280, 281, 282, 283, 284, 285, 286, 287, 288, 289, 290, 291, 292, 293, 294, 295, 296, 297, 298, 299, 300, 301, 302, 303, 304, 305, 306, 307, 308, 309, 310, 311, 312, 313, 314, 315, 316, 317, 318, 319, 320, 321, 322, 323, 324, 325, 326, 327, 328, 329, 330, 331, 332, 333, 334, 335, 336, 337, 338, 339, 340, 341, 342, 343, 344, 345, 346, 347, 348, 349, 350, 351, 352, 353, 354, 355, 356, 357, 358, 359, 360, 361, 362, 363, 364, 365, 366, 367, 368, 369, 370, 371, 372, 373, 374, 375, 376, 377, 378, 379, 380, 381, 382, 383, 384, 385, 386, 387, 388, 389, 390, 391, 392, 393, 394, 395, 396, 397, 398, 399, 400, 401, 402, 403, 404, 405, 406, 407, 408, 409, 410, 411, 412, 413, 414, 415, 416, 417, 418, 419, 420, 421, 422, 423, 424, 425, 426, 427, 428, 429, 430, 431, 432, 433, 434, 435, 436, 437, 438, 439, 440, 441, 442, 443, 444, 445, 446, 447, 448, 449, 450, 451, 452, 453, 454, 455, 456, 457, 458, 459, 460, 461, 462, 463, 464, 465, 466, 467, 468, 469, 470, 471, 472, 473, 474, 475, 476, 477, 478, 479, 480, 481, 482, 483, 484, 485, 486, 487, 488, 489, 490, 491, 492, 493, 494, 495, 496, 497, 498, 499, 500, 501, 502, 503, 504, 505, 506, 507, 508, 509, 510, 511, 512, 513, 514, 515, 516, 517, 518, 519, 520, 521, 522, 523, 524, 525, 526, 527, 528, 529, 530, 531, 532, 533, 534, 535, 536, 537, 538, 539, 540, 541, 542, 543, 544, 545, 546, 547, 548, 549, 550, 551, 552, 553, 554, 555, 556, 557, 558, 559, 560, 561, 562, 563, 564, 565, 566, 567, 568, 569, 570, 571, 572, 573, 574, 575, 576, 577, 578, 579, 580, 581, 582, 583, 584, 585, 586, 587, 588, 589, 590, 591, 592, 593, 594, 595, 596, 597, 598, 599, 600, 601, 602, 603, 604, 605, 606, 607, 608, 609, 610, 611, 612, 613, 614, 615, 616, 617, 618, 619, 620, 621, 622, 623, 624, 625, 626, 627, 628, 629, 630, 631, 632, 633, 634, 635, 636, 637, 638, 639, 640, 641, 642, 643, 644, 645, 646, 647, 648, 649, 650, 651, 652, 653, 654, 655, 656, 657, 658, 659, 660, 661, 662, 663, 664, 665, 666, 667, 668, 669, 670, 671, 672, 673, 674, 675, 676, 677, 678, 679, 680, 681, 682, 683, 684, 685, 686, 687, 688, 689, 690, 691, 692, 693, 694, 695, 696, 697, 698, 699, 700, 701, 702, 703, 704, 705, 706, 707, 708, 709, 710, 711, 712, 713, 714, 715, 716, 717, 718, 719, 720, 721, 722, 723, 724, 725, 726, 727, 728, 729, 730, 731, 732, 733, 734, 735, 736, 737, 738, 739, 740, 741, 742, 743, 744, 745, 746, 747, 748, 749, 750, 751, 752, 753, 754, 755, 756, 757, 758, 759, 760, 761, 762, 763, 764, 765, 766, 767, 768, 769, 770, 771, 772, 773, 774, 775, 776, 777, 778, 779, 780, 781, 782, 783, 784, 785, 786, 787, 788, 789, 790, 791, 792, 793, 794, 795, 796, 797, 798, 799, 800, 801, 802, 803, 804, 805, 806, 807, 808, 809, 810, 811, 812, 813, 814, 815, 816, 817, 818, 819, 820, 821, 822, 823, 824, 825, 826, 827, 828, 829, 830, 831, 832, 833, 834, 835, 836, 837, 838, 839, 840, 841, 842, 843, 844, 845, 846, 847, 848, 849, 850, 851, 852, 853, 854, 855, 856, 857, 858, 859, 860, 861, 862, 863, 864, 865, 866, 867, 868, 869, 870, 871, 872],
      "AcquisitionTime": ["175913.912500", "175914.372500", "175914.832500", "175915.292500", "175915.752500", "175916.212500", "175916.672500", "175917.132500", "175917.592500", "175918.052500", "175918.512500", "175918.972500", "175919.432500", "175919.892500", "175920.352500", "175920.812500", "175921.272500", "175921.732500", "175922.192500", "175922.652500", "175923.112500", "175923.572500", "175924.032500", "175924.492500", "175924.952500", "175925.412500", "175925.872500", "175926.332500", "175926.792500", "175927.252500", "175927.712500", "175928.172500", "175928.632500", "175929.092500", "175929.552500", "175930.012500", "175930.472500", "175930.932500", "175931.392500", "175931.852500", "175932.312500", "175932.772500", "175933.232500", "175933.692500", "175934.152500", "175934.612500", "175935.072500", "175935.532500", "175935.992500", "175936.452500", "175936.912500", "175937.372500", "175937.832500", "175938.292500", "175938.752500", "175939.212500", "175939.672500", "175940.132500", "175940.592500", "175941.052500", "175941.512500", "175941.972500", "175942.432500", "175942.892500", "175943.352500", "175943.812500", "175944.272500", "175944.732500", "175945.192500", "175945.652500", "175946.112500", "175946.572500", "175947.032500", "175947.492500", "175947.952500", "175948.412500", "175948.872500", "175949.332500", "175949.792500", "175950.252500", "175950.712500", "175951.172500", "175951.632500", "175952.092500", "175952.552500", "175953.012500", "175953.472500", "175953.932500", "175954.392500", "175954.852500", "175955.312500", "175955.772500", "175956.232500", "175956.692500", "175957.152500", "175957.612500", "175958.072500", "175958.532500", "175958.992500", "175959.452500", "175959.912500", "180000.372500", "180000.832500", "180001.292500", "180001.752500", "180002.212500", "180002.672500", "180003.132500", "180003.592500", "180004.052500", "180004.512500", "180004.972500", "180005.432500", "180005.892500", "180006.352500", "180006.812500", "180007.272500", "180007.732500", "180008.192500", "180008.652500", "180009.112500", "180009.572500", "180010.032500", "180010.492500", "180010.952500", "180011.412500", "180011.872500", "180012.332500", "180012.792500", "180013.252500", "180013.712500", "180014.172500", "180014.632500", "180015.092500", "180015.552500", "180016.012500", "180016.472500", "180016.932500", "180017.392500", "180017.852500", "180018.312500", "180018.772500", "180019.232500", "180019.692500", "180020.152500", "180020.612500", "180021.072500", "180021.532500", "180021.992500", "180022.452500", "180022.912500", "180023.372500", "180023.832500", "180024.292500", "180024.752500", "180025.212500", "180025.672500", "180026.132500", "180026.592500", "180027.052500", "180027.512500", "180027.972500", "180028.432500", "180028.892500", "180029.352500", "180029.812500", "180030.272500", "180030.732500", "180031.192500", "180031.652500", "180032.112500", "180032.572500", "180033.032500", "180033.492500", "180033.952500", "180034.412500", "180034.872500", "180035.332500", "180035.792500", "180036.252500", "180036.712500", "180037.172500", "180037.632500", "180038.092500", "180038.552500", "180039.012500", "180039.472500", "180039.932500", "180040.392500", "180040.852500", "180041.312500", "180041.772500", "180042.232500", "180042.692500", "180043.152500", "180043.612500", "180044.072500", "180044.532500", "180044.992500", "180045.452500", "180045.912500", "180046.372500", "180046.832500", "180047.292500", "180047.752500", "180048.212500", "180048.672500", "180049.132500", "180049.592500", "180050.052500", "180050.512500", "180050.972500", "180051.432500", "180051.892500", "180052.352500", "180052.812500", "180053.272500", "180053.732500", "180054.192500", "180054.652500", "180055.112500", "180055.572500", "180056.032500", "180056.492500", "180056.952500", "180057.412500", "180057.872500", "180058.332500", "180058.792500", "180059.252500", "180059.712500", "180100.172500", "180100.632500", "180101.092500", "180101.552500", "180102.012500", "180102.472500", "180102.932500", "180103.392500", "180103.852500", "180104.312500", "180104.772500", "180105.232500", "180105.692500", "180106.152500", "180106.612500", "180107.072500", "180107.532500", "180107.992500", "180108.452500", "180108.912500", "180109.372500", "180109.832500", "180110.292500", "180110.752500", "180111.212500", "180111.672500", "180112.132500", "180112.592500", "180113.052500", "180113.512500", "180113.972500", "180114.432500", "180114.892500", "180115.352500", "180115.812500", "180116.272500", "180116.732500", "180117.192500", "180117.652500", "180118.112500", "180118.572500", "180119.032500", "180119.492500", "180119.952500", "180120.412500", "180120.872500", "180121.332500", "180121.792500", "180122.252500", "180122.712500", "180123.172500", "180123.632500", "180124.092500", "180124.552500", "180125.012500", "180125.472500", "180125.932500", "180126.392500", "180126.852500", "180127.312500", "180127.772500", "180128.232500", "180128.692500", "180129.152500", "180129.612500", "180130.072500", "180130.532500", "180130.992500", "180131.452500", "180131.912500", "180132.372500", "180132.832500", "180133.292500", "180133.752500", "180134.212500", "180134.672500", "180135.132500", "180135.592500", "180136.052500", "180136.512500", "180136.972500", "180137.432500", "180137.892500", "180138.352500", "180138.812500", "180139.272500", "180139.732500", "180140.192500", "180140.652500", "180141.112500", "180141.572500", "180142.032500", "180142.492500", "180142.952500", "180143.412500", "180143.872500", "180144.332500", "180144.792500", "180145.252500", "180145.712500", "180146.172500", "180146.632500", "180147.092500", "180147.552500", "180148.012500", "180148.472500", "180148.932500", "180149.392500", "180149.852500", "180150.312500", "180150.772500", "180151.232500", "180151.692500", "180152.152500", "180152.612500", "180153.072500", "180153.532500", "180153.992500", "180154.452500", "180154.912500", "180155.372500", "180155.832500", "180156.292500", "180156.752500", "180157.212500", "180157.672500", "180158.132500", "180158.592500", "180159.052500", "180159.512500", "180159.972500", "180200.432500", "180200.892500", "180201.352500", "180201.812500", "180202.272500", "180202.732500", "180203.192500", "180203.652500", "180204.112500", "180204.572500", "180205.032500", "180205.492500", "180205.952500", "180206.412500", "180206.872500", "180207.332500", "180207.792500", "180208.252500", "180208.712500", "180209.172500", "180209.632500", "180210.092500", "180210.552500", "180211.012500", "180211.472500", "180211.932500", "180212.392500", "180212.852500", "180213.312500", "180213.772500", "180214.232500", "180214.692500", "180215.152500", "180215.612500", "180216.072500", "180216.532500", "180216.992500", "180217.452500", "180217.912500", "180218.372500", "180218.832500", "180219.292500", "180219.752500", "180220.212500", "180220.672500", "180221.132500", "180221.592500", "180222.052500", "180222.512500", "180222.972500", "180223.432500", "180223.892500", "180224.352500", "180224.812500", "180225.272500", "180225.732500", "180226.192500", "180226.652500", "180227.112500", "180227.572500", "180228.032500", "180228.492500", "180228.952500", "180229.412500", "180229.872500", "180230.332500", "180230.792500", "180231.252500", "180231.712500", "180232.172500", "180232.632500", "180233.092500", "180233.552500", "180234.012500", "180234.472500", "180234.932500", "180235.392500", "180235.852500", "180236.312500", "180236.772500", "180237.232500", "180237.692500", "180238.152500", "180238.612500", "180239.072500", "180239.532500", "180239.992500", "180240.452500", "180240.912500", "180241.372500", "180241.832500", "180242.292500", "180242.752500", "180243.212500", "180243.672500", "180244.132500", "180244.592500", "180245.052500", "180245.512500", "180245.972500", "180246.432500", "180246.892500", "180247.352500", "180247.812500", "180248.272500", "180248.732500", "180249.192500", "180249.652500", "180250.112500", "180250.572500", "180251.032500", "180251.492500", "180251.952500", "180252.412500", "180252.872500", "180253.332500", "180253.792500", "180254.252500", "180254.712500", "180255.172500", "180255.632500", "180256.092500", "180256.552500", "180257.012500", "180257.472500", "180257.932500", "180258.392500", "180258.852500", "180259.312500", "180259.772500", "180300.232500", "180300.692500", "180301.152500", "180301.612500", "180302.072500", "180302.532500", "180302.992500", "180303.452500", "180303.912500", "180304.372500", "180304.832500", "180305.292500", "180305.752500", "180306.212500", "180306.672500", "180307.132500", "180307.592500", "180308.052500", "180308.512500", "180308.972500", "180309.432500", "180309.892500", "180310.352500", "180310.812500", "180311.272500", "180311.732500", "180312.192500", "180312.652500", "180313.112500", "180313.572500", "180314.032500", "180314.492500", "180314.952500", "180315.412500", "180315.872500", "180316.332500", "180316.792500", "180317.252500", "180317.712500", "180318.172500", "180318.632500", "180319.092500", "180319.552500", "180320.012500", "180320.472500", "180320.932500", "180321.392500", "180321.852500", "180322.312500", "180322.772500", "180323.232500", "180323.692500", "180324.152500", "180324.612500", "180325.072500", "180325.532500", "180325.992500", "180326.452500", "180326.912500", "180327.372500", "180327.832500", "180328.292500", "180328.752500", "180329.212500", "180329.672500", "180330.132500", "180330.592500", "180331.052500", "180331.512500", "180331.972500", "180332.432500", "180332.892500", "180333.352500", "180333.812500", "180334.272500", "180334.732500", "180335.192500", "180335.652500", "180336.112500", "180336.572500", "180337.032500", "180337.492500", "180337.952500", "180338.412500", "180338.872500", "180339.332500", "180339.792500", "180340.252500", "180340.712500", "180341.172500", "180341.632500", "180342.092500", "180342.552500", "180343.012500", "180343.472500", "180343.932500", "180344.392500", "180344.852500", "180345.312500", "180345.772500", "180346.232500", "180346.692500", "180347.152500", "180347.612500", "180348.072500", "180348.532500", "180348.992500", "180349.452500", "180349.912500", "180350.372500", "180350.832500", "180351.292500", "180351.752500", "180352.212500", "180352.672500", "180353.132500", "180353.592500", "180354.052500", "180354.512500", "180354.972500", "180355.432500", "180355.892500", "180356.352500", "180356.812500", "180357.272500", "180357.732500", "180358.192500", "180358.652500", "180359.112500", "180359.572500", "180400.032500", "180400.492500", "180400.952500", "180401.412500", "180401.872500", "180402.332500", "180402.792500", "180403.252500", "180403.712500", "180404.172500", "180404.632500", "180405.092500", "180405.552500", "180406.012500", "180406.472500", "180406.932500", "180407.392500", "180407.852500", "180408.312500", "180408.772500", "180409.232500", "180409.692500", "180410.152500", "180410.612500", "180411.072500", "180411.532500", "180411.992500", "180412.452500", "180412.912500", "180413.372500", "180413.832500", "180414.292500", "180414.752500", "180415.212500", "180415.672500", "180416.132500", "180416.592500", "180417.052500", "180417.512500", "180417.972500", "180418.432500", "180418.892500", "180419.352500", "180419.812500", "180420.272500", "180420.732500", "180421.192500", "180421.652500", "180422.112500", "180422.572500", "180423.032500", "180423.492500", "180423.952500", "180424.412500", "180424.872500", "180425.332500", "180425.792500", "180426.252500", "180426.712500", "180427.172500", "180427.632500", "180428.092500", "180428.552500", "180429.012500", "180429.472500", "180429.932500", "180430.392500", "180430.852500", "180431.312500", "180431.772500", "180432.232500", "180432.692500", "180433.152500", "180433.612500", "180434.072500", "180434.532500", "180434.992500", "180435.452500", "180435.912500", "180436.372500", "180436.832500", "180437.292500", "180437.752500", "180438.212500", "180438.672500", "180439.132500", "180439.592500", "180440.052500", "180440.512500", "180440.972500", "180441.432500", "180441.892500", "180442.352500", "180442.812500", "180443.272500", "180443.732500", "180444.192500", "180444.652500", "180445.112500", "180445.572500", "180446.032500", "180446.492500", "180446.952500", "180447.412500", "180447.872500", "180448.332500", "180448.792500", "180449.252500", "180449.712500", "180450.172500", "180450.632500", "180451.092500", "180451.552500", "180452.012500", "180452.472500", "180452.932500", "180453.392500", "180453.852500", "180454.312500", "180454.772500", "180455.232500", "180455.692500", "180456.152500", "180456.612500", "180457.072500", "180457.532500", "180457.992500", "180458.452500", "180458.912500", "180459.372500", "180459.832500", "180500.292500", "180500.752500", "180501.212500", "180501.672500", "180502.132500", "180502.592500", "180503.052500", "180503.512500", "180503.972500", "180504.432500", "180504.892500", "180505.352500", "180505.812500", "180506.272500", "180506.732500", "180507.192500", "180507.652500", "180508.112500", "180508.572500", "180509.032500", "180509.492500", "180509.952500", "180510.412500", "180510.872500", "180511.332500", "180511.792500", "180512.252500", "180512.712500", "180513.172500", "180513.632500", "180514.092500", "180514.552500", "180515.012500", "180515.472500", "180515.932500", "180516.392500", "180516.852500", "180517.312500", "180517.772500", "180518.232500", "180518.692500", "180519.152500", "180519.612500", "180520.072500", "180520.532500", "180520.992500", "180521.452500", "180521.912500", "180522.372500", "180522.832500", "180523.292500", "180523.752500", "180524.212500", "180524.672500", "180525.132500", "180525.592500", "180526.052500", "180526.512500", "180526.972500", "180527.432500", "180527.892500", "180528.352500", "180528.812500", "180529.272500", "180529.732500", "180530.192500", "180530.652500", "180531.112500", "180531.572500", "180532.032500", "180532.492500", "180532.952500", "180533.412500", "180533.872500", "180534.332500", "180534.792500", "180535.252500", "180535.712500", "180536.172500", "180536.632500", "180537.092500", "180537.552500", "180538.012500", "180538.472500", "180538.932500", "180539.392500", "180539.852500", "180540.312500", "180540.772500", "180541.232500", "180541.692500", "180542.152500", "180542.612500", "180543.072500", "180543.532500", "180543.992500", "180544.452500", "180544.912500", "180545.372500", "180545.832500", "180546.292500", "180546.752500", "180547.212500", "180547.672500", "180548.132500", "180548.592500", "180549.052500", "180549.512500", "180549.972500", "180550.432500", "180550.892500", "180551.352500", "180551.812500", "180552.272500", "180552.732500", "180553.192500", "180553.652500", "180554.112500", "180554.572500"],
