{
  "AcquisitionMatrixPE": 82,
  "AcquisitionNumber": 1,
  "AcquisitionTime": "18:06:12.590000",
  "BandwidthPerPixelPhaseEncode": 24.888,
  "BaseResolution": 82,
  "BodyPartExamined": "BRAIN",
  "ConsistencyInfo": "N4_VE11E_LATEST_20181129",
  "ConversionSoftware": "dcm2niix",
  "ConversionSoftwareVersion": "v1.0.20201102",
  "DerivedVendorReportedEchoSpacing": 0.00049,
  "DeviceSerialNumber": "66112",
  "DwellTime": 2e-06,
  "EchoTime": 0.0272,
  "EchoTrainLength": 82,
  "EffectiveEchoSpacing": 0.00049,
  "FlipAngle": 44,
  "ImageComments": "Unaliased MB8/PE3",
  "ImageOrientationPatientDICOM": [0.996857, -0.023855, 0.0755405, 0.0127015, 0.989376, 0.144822],
  "ImageType": [
    "ORIGINAL",
    "PRIMARY",
    "M",
    "MB",
    "ND",
    "NORM",
    "MOSAIC"
],
  "ImagingFrequency": 123.252,
  "InPlanePhaseEncodingDirectionDICOM": "COL",
  "InstitutionAddress": "Maynard 3,Hanover,NH,US,03755",
  "InstitutionName": "Dartmouth College - PBS",
  "InstitutionalDepartmentName": "Department",
  "MRAcquisitionType": "2D",
  "MagneticFieldStrength": 3,
  "Manufacturer": "Siemens",
  "ManufacturersModelName": "Prisma",
  "Modality": "MR",
  "MultibandAccelerationFactor": 8,
  "PartialFourier": 1,
  "PatientPosition": "HFS",
  "PercentPhaseFOV": 100,
  "PercentSampling": 100,
  "PhaseEncodingDirection": "j-",
  "PhaseEncodingSteps": 82,
  "PhaseResolution": 1,
  "PixelBandwidth": 3050,
  "ProcedureStepDescription": "Wager_Wager^1076_spacetop",
  "ProtocolName": "func_run-06_task-social_acq-ap-mb8",
  "PulseSequenceDetails": "%CustomerSeq%\\cmrr_mbep2d_bold",
  "ReceiveCoilActiveElements": "HEA;HEP",
  "ReceiveCoilName": "Head_32",
  "ReconMatrixPE": 82,
  "RepetitionTime": 0.46,
  "SAR": 0.0816743,
  "ScanOptions": "FS",
  "ScanningSequence": "EP",
  "SequenceName": "epfid2d1_82",
  "SequenceVariant": "SK\\SS",
  "SeriesDescription": "func_run-06_task-social_acq-ap-mb8",
  "SeriesNumber": 18,
  "ShimSetting": [4166, -7743, -7362, 656, -75, -258, -23, 98],
  "SliceThickness": 2.7,
  "SliceTiming": [0, 0.2525, 0.0625, 0.315, 0.125, 0.3775, 0.19, 0, 0.2525, 0.0625, 0.315, 0.125, 0.3775, 0.19, 0, 0.2525, 0.0625, 0.315, 0.125, 0.3775, 0.19, 0, 0.2525, 0.0625, 0.315, 0.125, 0.3775, 0.19, 0, 0.2525, 0.0625, 0.315, 0.125, 0.3775, 0.19, 0, 0.2525, 0.0625, 0.315, 0.125, 0.3775, 0.19, 0, 0.2525, 0.0625, 0.315, 0.125, 0.3775, 0.19, 0, 0.2525, 0.0625, 0.315, 0.125, 0.3775, 0.19],
  "SoftwareVersions": "syngo MR E11",
  "SpacingBetweenSlices": 2.7,
  "StationName": "AWP66112",
  "TaskName": "social",
  "TotalReadoutTime": 0.03969,
  "TxRefAmp": 239.733,
  "WipMemBlock": "aa2c1aeb-efa2-4375-a04d-4296fd4cc7b5||Sequence: R016 ve11e/master r/434b28f1; Aug  7 2019 18:53:46 by eja",
  "dcmmeta_affine": [
    [-2.6744954586029053, 0.034077238291502, 0.2111203819513321, 103.19356536865234],
    [0.0640011802315712, 2.654423952102661, 0.3872007429599762, -108.7084732055664],
    [0.20266972482204437, -0.3885475993156433, 2.66373872756958, -99.0783920288086],
    [0.0, 0.0, 0.0, 1.0]
],
  "dcmmeta_reorient_transform": [
    [0.0, -1.0, 0.0, 81.0],
    [1.0, 0.0, 0.0, 0.0],
    [0.0, 0.0, 1.0, 0.0],
    [0.0, 0.0, 0.0, 1.0]
],
  "dcmmeta_shape": [82, 82, 56, 872],
  "dcmmeta_slice_dim": 2,
  "dcmmeta_version": 0.6,
  "global": {
    "const": {
      "AccessionNumber": "A003966",
      "AcquisitionMatrix": [82, 0, 0, 82],
      "AngioFlag": "N",
      "BitsAllocated": 16,
      "BitsStored": 16,
      "BodyPartExamined": "BRAIN",
      "Columns": 656,
      "EchoNumbers": 1,
      "EchoTime": 27.2,
      "EchoTrainLength": 82,
      "FlipAngle": 44.0,
      "HighBit": 15,
      "ImageOrientationPatient": [0.99685734577844, -0.0238549834642, 0.07554053171306, 0.01270151562617, 0.98937615510938, 0.14482228834603],
      "ImagePositionPatient": [-883.31416249061, -849.75118006561, -300.23012306739],
      "ImageType": [
        "ORIGINAL",
        "PRIMARY",
        "M",
        "MB",
        "ND",
        "NORM",
        "MOSAIC"
],
      "ImagedNucleus": "1H",
      "ImagingFrequency": 123.252249,
      "InPlanePhaseEncodingDirection": "COL",
      "MRAcquisitionType": "2D",
      "MagneticFieldStrength": 3.0,
      "Manufacturer": "SIEMENS",
      "ManufacturerModelName": "Prisma",
      "Modality": "MR",
      "NumberOfAverages": 1.0,
      "NumberOfPhaseEncodingSteps": 82,
      "PercentPhaseFieldOfView": 100.0,
      "PercentSampling": 100.0,
      "PerformedProcedureStepStartTime": "172238.234000",
      "PhotometricInterpretation": "MONOCHROME2",
      "PixelBandwidth": 3050.0,
      "PixelRepresentation": 0,
      "PixelSpacing": [2.6829268932343, 2.6829268932343],
      "ProtocolName": "func_run-06_task-social_acq-ap-mb8",
      "RepetitionTime": 460.0,
      "Rows": 656,
      "SAR": 0.0816742803111,
      "SamplesPerPixel": 1,
      "ScanOptions": "FS",
      "ScanningSequence": "EP",
      "SequenceName": "epfid2d1_82",
      "SequenceVariant": [
        "SK",
        "SS"
],
      "SeriesDescription": "func_run-06_task-social_acq-ap-mb8",
      "SeriesNumber": 18,
      "SeriesTime": "180625.135000",
      "SliceLocation": -105.26840013408,
      "SliceThickness": 2.7000000476837,
      "SmallestImagePixelValue": 0,
      "SoftwareVersions": "syngo MR E11",
      "SpacingBetweenSlices": 2.7000000571948,
      "SpecificCharacterSet": "ISO_IR 100",
      "StudyID": "1",
      "StudyTime": "172238.178000",
      "TransmitCoilName": "Body",
      "VariableFlipAngleFlag": "N",
      "WindowCenterWidthExplanation": "Algo1"
    },
    "slices": {}
  },
  "time": {
    "samples": {
      "AcquisitionNumber": [1, 2, 3, 4, 5, 6, 7, 8, 9, 10, 11, 12, 13, 14, 15, 16, 17, 18, 19, 20, 21, 22, 23, 24, 25, 26, 27, 28, 29, 30, 31, 32, 33, 34, 35, 36, 37, 38, 39, 40, 41, 42, 43, 44, 45, 46, 47, 48, 49, 50, 51, 52, 53, 54, 55, 56, 57, 58, 59, 60, 61, 62, 63, 64, 65, 66, 67, 68, 69, 70, 71, 72, 73, 74, 75, 76, 77, 78, 79, 80, 81, 82, 83, 84, 85, 86, 87, 88, 89, 90, 91, 92, 93, 94, 95, 96, 97, 98, 99, 100, 101, 102, 103, 104, 105, 106, 107, 108, 109, 110, 111, 112, 113, 114, 115, 116, 117, 118, 119, 120, 121, 122, 123, 124, 125, 126, 127, 128, 129, 130, 131, 132, 133, 134, 135, 136, 137, 138, 139, 140, 141, 142, 143, 144, 145, 146, 147, 148, 149, 150, 151, 152, 153, 154, 155, 156, 157, 158, 159, 160, 161, 162, 163, 164, 165, 166, 167, 168, 169, 170, 171, 172, 173, 174, 175, 176, 177, 178, 179, 180, 181, 182, 183, 184, 185, 186, 187, 188, 189, 190, 191, 192, 193, 194, 195, 196, 197, 198, 199, 200, 201, 202, 203, 204, 205, 206, 207, 208, 209, 210, 211, 212, 213, 214, 215, 216, 217, 218, 219, 220, 221, 222, 223, 224, 225, 226, 227, 228, 229, 230, 231, 232, 233, 234, 235, 236, 237, 238, 239, 240, 241, 242, 243, 244, 245, 246, 247, 248, 249, 250, 251, 252, 253, 254, 255, 256, 257, 258, 259, 260, 261, 262, 263, 264, 265, 266, 267, 268, 269, 270, 271, 272, 273, 274, 275, 276, 277, 278, 279, 280, 281, 282, 283, 284, 285, 286, 287, 288, 289, 290, 291, 292, 293, 294, 295, 296, 297, 298, 299, 300, 301, 302, 303, 304, 305, 306, 307, 308, 309, 310, 311, 312, 313, 314, 315, 316, 317, 318, 319, 320, 321, 322, 323, 324, 325, 326, 327, 328, 329, 330, 331, 332, 333, 334, 335, 336, 337, 338, 339, 340, 341, 342, 343, 344, 345, 346, 347, 348, 349, 350, 351, 352, 353, 354, 355, 356, 357, 358, 359, 360, 361, 362, 363, 364, 365, 366, 367, 368, 369, 370, 371, 372, 373, 374, 375, 376, 377, 378, 379, 380, 381, 382, 383, 384, 385, 386, 387, 388, 389, 390, 391, 392, 393, 394, 395, 396, 397, 398, 399, 400, 401, 402, 403, 404, 405, 406, 407, 408, 409, 410, 411, 412, 413, 414, 415, 416, 417, 418, 419, 420, 421, 422, 423, 424, 425, 426, 427, 428, 429, 430, 431, 432, 433, 434, 435, 436, 437, 438, 439, 440, 441, 442, 443, 444, 445, 446, 447, 448, 449, 450, 451, 452, 453, 454, 455, 456, 457, 458, 459, 460, 461, 462, 463, 464, 465, 466, 467, 468, 469, 470, 471, 472, 473, 474, 475, 476, 477, 478, 479, 480, 481, 482, 483, 484, 485, 486, 487, 488, 489, 490, 491, 492, 493, 494, 495, 496, 497, 498, 499, 500, 501, 502, 503, 504, 505, 506, 507, 508, 509, 510, 511, 512, 513, 514, 515, 516, 517, 518, 519, 520, 521, 522, 523, 524, 525, 526, 527, 528, 529, 530, 531, 532, 533, 534, 535, 536, 537, 538, 539, 540, 541, 542, 543, 544, 545, 546, 547, 548, 549, 550, 551, 552, 553, 554, 555, 556, 557, 558, 559, 560, 561, 562, 563, 564, 565, 566, 567, 568, 569, 570, 571, 572, 573, 574, 575, 576, 577, 578, 579, 580, 581, 582, 583, 584, 585, 586, 587, 588, 589, 590, 591, 592, 593, 594, 595, 596, 597, 598, 599, 600, 601, 602, 603, 604, 605, 606, 607, 608, 609, 610, 611, 612, 613, 614, 615, 616, 617, 618, 619, 620, 621, 622, 623, 624, 625, 626, 627, 628, 629, 630, 631, 632, 633, 634, 635, 636, 637, 638, 639, 640, 641, 642, 643, 644, 645, 646, 647, 648, 649, 650, 651, 652, 653, 654, 655, 656, 657, 658, 659, 660, 661, 662, 663, 664, 665, 666, 667, 668, 669, 670, 671, 672, 673, 674, 675, 676, 677, 678, 679, 680, 681, 682, 683, 684, 685, 686, 687, 688, 689, 690, 691, 692, 693, 694, 695, 696, 697, 698, 699, 700, 701, 702, 703, 704, 705, 706, 707, 708, 709, 710, 711, 712, 713, 714, 715, 716, 717, 718, 719, 720, 721, 722, 723, 724, 725, 726, 727, 728, 729, 730, 731, 732, 733, 734, 735, 736, 737, 738, 739, 740, 741, 742, 743, 744, 745, 746, 747, 748, 749, 750, 751, 752, 753, 754, 755, 756, 757, 758, 759, 760, 761, 762, 763, 764, 765, 766, 767, 768, 769, 770, 771, 772, 773, 774, 775, 776, 777, 778, 779, 780, 781, 782, 783, 784, 785, 786, 787, 788, 789, 790, 791, 792, 793, 794, 795, 796, 797, 798, 799, 800, 801, 802, 803, 804, 805, 806, 807, 808, 809, 810, 811, 812, 813, 814, 815, 816, 817, 818, 819, 820, 821, 822, 823, 824, 825, 826, 827, 828, 829, 830, 831, 832, 833, 834, 835, 836, 837, 838, 839, 840, 841, 842, 843, 844, 845, 846, 847, 848, 849, 850, 851, 852, 853, 854, 855, 856, 857, 858, 859, 860, 861, 862, 863, 864, 865, 866, 867, 868, 869, 870, 871, 872],
      "AcquisitionTime": ["180612.590000", "180613.050000", "180613.510000", "180613.970000", "180614.430000", "180614.890000", "180615.350000", "180615.810000", "180616.270000", "180616.730000", "180617.190000", "180617.650000", "180618.110000", "180618.570000", "180619.030000", "180619.490000", "180619.950000", "180620.410000", "180620.870000", "180621.330000", "180621.790000", "180622.250000", "180622.710000", "180623.170000", "180623.630000", "180624.090000", "180624.550000", "180625.010000", "180625.470000", "180625.930000", "180626.390000", "180626.850000", "180627.310000", "180627.770000", "180628.230000", "180628.690000", "180629.150000", "180629.610000", "180630.070000", "180630.530000", "180630.990000", "180631.450000", "180631.910000", "180632.370000", "180632.830000", "180633.290000", "180633.750000", "180634.210000", "180634.670000", "180635.130000", "180635.590000", "180636.050000", "180636.510000", "180636.970000", "180637.430000", "180637.890000", "180638.350000", "180638.810000", "180639.270000", "180639.730000", "180640.190000", "180640.650000", "180641.110000", "180641.570000", "180642.030000", "180642.490000", "180642.950000", "180643.410000", "180643.870000", "180644.330000", "180644.790000", "180645.250000", "180645.710000", "180646.170000", "180646.630000", "180647.090000", "180647.550000", "180648.010000", "180648.470000", "180648.930000", "180649.390000", "180649.850000", "180650.310000", "180650.770000", "180651.230000", "180651.690000", "180652.150000", "180652.610000", "180653.070000", "180653.530000", "180653.990000", "180654.450000", "180654.910000", "180655.370000", "180655.830000", "180656.290000", "180656.750000", "180657.210000", "180657.670000", "180658.130000", "180658.590000", "180659.050000", "180659.510000", "180659.970000", "180700.430000", "180700.890000", "180701.350000", "180701.810000", "180702.270000", "180702.730000", "180703.190000", "180703.650000", "180704.110000", "180704.570000", "180705.030000", "180705.490000", "180705.950000", "180706.410000", "180706.870000", "180707.330000", "180707.790000", "180708.250000", "180708.710000", "180709.170000", "180709.630000", "180710.090000", "180710.550000", "180711.010000", "180711.470000", "180711.930000", "180712.390000", "180712.850000", "180713.310000", "180713.770000", "180714.230000", "180714.690000", "180715.150000", "180715.610000", "180716.070000", "180716.530000", "180716.990000", "180717.450000", "180717.910000", "180718.370000", "180718.830000", "180719.290000", "180719.750000", "180720.210000", "180720.670000", "180721.130000", "180721.590000", "180722.050000", "180722.510000", "180722.970000", "180723.430000", "180723.890000", "180724.350000", "180724.810000", "180725.270000", "180725.730000", "180726.190000", "180726.650000", "180727.110000", "180727.570000", "180728.030000", "180728.490000", "180728.950000", "180729.410000", "180729.870000", "180730.330000", "180730.790000", "180731.250000", "180731.710000", "180732.170000", "180732.630000", "180733.090000", "180733.550000", "180734.010000", "180734.470000", "180734.930000", "180735.390000", "180735.850000", "180736.310000", "180736.770000", "180737.230000", "180737.690000", "180738.150000", "180738.610000", "180739.070000", "180739.530000", "180739.990000", "180740.450000", "180740.910000", "180741.370000", "180741.830000", "180742.290000", "180742.750000", "180743.210000", "180743.670000", "180744.130000", "180744.590000", "180745.050000", "180745.510000", "180745.970000", "180746.430000", "180746.890000", "180747.350000", "180747.810000", "180748.270000", "180748.730000", "180749.190000", "180749.650000", "180750.110000", "180750.570000", "180751.030000", "180751.490000", "180751.950000", "180752.410000", "180752.870000", "180753.330000", "180753.790000", "180754.250000", "180754.710000", "180755.170000", "180755.630000", "180756.090000", "180756.550000", "180757.010000", "180757.470000", "180757.930000", "180758.390000", "180758.850000", "180759.310000", "180759.770000", "180800.230000", "180800.690000", "180801.150000", "180801.610000", "180802.070000", "180802.530000", "180802.990000", "180803.450000", "180803.910000", "180804.370000", "180804.830000", "180805.290000", "180805.750000", "180806.210000", "180806.670000", "180807.130000", "180807.590000", "180808.050000", "180808.510000", "180808.970000", "180809.430000", "180809.890000", "180810.350000", "180810.810000", "180811.270000", "180811.730000", "180812.190000", "180812.650000", "180813.110000", "180813.570000", "180814.030000", "180814.490000", "180814.950000", "180815.410000", "180815.870000", "180816.330000", "180816.790000", "180817.250000", "180817.710000", "180818.170000", "180818.630000", "180819.090000", "180819.550000", "180820.010000", "180820.470000", "180820.930000", "180821.390000", "180821.850000", "180822.310000", "180822.770000", "180823.230000", "180823.690000", "180824.150000", "180824.610000", "180825.070000", "180825.530000", "180825.990000", "180826.450000", "180826.910000", "180827.370000", "180827.830000", "180828.290000", "180828.750000", "180829.210000", "180829.670000", "180830.130000", "180830.590000", "180831.050000", "180831.510000", "180831.970000", "180832.430000", "180832.890000", "180833.350000", "180833.810000", "180834.270000", "180834.730000", "180835.190000", "180835.650000", "180836.110000", "180836.570000", "180837.030000", "180837.490000", "180837.950000", "180838.410000", "180838.870000", "180839.330000", "180839.790000", "180840.250000", "180840.710000", "180841.170000", "180841.630000", "180842.090000", "180842.550000", "180843.010000", "180843.470000", "180843.930000", "180844.390000", "180844.850000", "180845.310000", "180845.770000", "180846.230000", "180846.690000", "180847.150000", "180847.610000", "180848.070000", "180848.530000", "180848.990000", "180849.450000", "180849.910000", "180850.370000", "180850.830000", "180851.290000", "180851.750000", "180852.210000", "180852.670000", "180853.130000", "180853.590000", "180854.050000", "180854.510000", "180854.970000", "180855.430000", "180855.890000", "180856.350000", "180856.810000", "180857.270000", "180857.730000", "180858.190000", "180858.650000", "180859.110000", "180859.570000", "180900.030000", "180900.490000", "180900.950000", "180901.410000", "180901.870000", "180902.330000", "180902.790000", "180903.250000", "180903.710000", "180904.170000", "180904.630000", "180905.090000", "180905.550000", "180906.010000", "180906.470000", "180906.930000", "180907.390000", "180907.850000", "180908.310000", "180908.770000", "180909.230000", "180909.690000", "180910.150000", "180910.610000", "180911.070000", "180911.530000", "180911.990000", "180912.450000", "180912.910000", "180913.370000", "180913.830000", "180914.290000", "180914.750000", "180915.210000", "180915.670000", "180916.130000", "180916.590000", "180917.050000", "180917.510000", "180917.970000", "180918.430000", "180918.890000", "180919.350000", "180919.810000", "180920.270000", "180920.730000", "180921.190000", "180921.650000", "180922.110000", "180922.570000", "180923.030000", "180923.490000", "180923.950000", "180924.410000", "180924.870000", "180925.330000", "180925.790000", "180926.250000", "180926.710000", "180927.170000", "180927.630000", "180928.090000", "180928.550000", "180929.010000", "180929.470000", "180929.930000", "180930.390000", "180930.850000", "180931.310000", "180931.770000", "180932.230000", "180932.690000", "180933.150000", "180933.610000", "180934.070000", "180934.530000", "180934.990000", "180935.450000", "180935.910000", "180936.370000", "180936.830000", "180937.290000", "180937.750000", "180938.210000", "180938.670000", "180939.130000", "180939.590000", "180940.050000", "180940.510000", "180940.970000", "180941.430000", "180941.890000", "180942.350000", "180942.810000", "180943.270000", "180943.730000", "180944.190000", "180944.650000", "180945.110000", "180945.570000", "180946.030000", "180946.490000", "180946.950000", "180947.410000", "180947.870000", "180948.330000", "180948.790000", "180949.250000", "180949.710000", "180950.170000", "180950.630000", "180951.090000", "180951.550000", "180952.010000", "180952.470000", "180952.930000", "180953.390000", "180953.850000", "180954.310000", "180954.770000", "180955.230000", "180955.690000", "180956.150000", "180956.610000", "180957.070000", "180957.530000", "180957.990000", "180958.450000", "180958.910000", "180959.370000", "180959.830000", "181000.290000", "181000.750000", "181001.210000", "181001.670000", "181002.130000", "181002.590000", "181003.050000", "181003.510000", "181003.970000", "181004.430000", "181004.890000", "181005.350000", "181005.810000", "181006.270000", "181006.730000", "181007.190000", "181007.650000", "181008.110000", "181008.570000", "181009.030000", "181009.490000", "181009.950000", "181010.410000", "181010.870000", "181011.330000", "181011.790000", "181012.250000", "181012.710000", "181013.170000", "181013.630000", "181014.090000", "181014.550000", "181015.010000", "181015.470000", "181015.930000", "181016.390000", "181016.850000", "181017.310000", "181017.770000", "181018.230000", "181018.690000", "181019.150000", "181019.610000", "181020.070000", "181020.530000", "181020.990000", "181021.450000", "181021.910000", "181022.370000", "181022.830000", "181023.290000", "181023.750000", "181024.210000", "181024.670000", "181025.130000", "181025.590000", "181026.050000", "181026.510000", "181026.970000", "181027.430000", "181027.890000", "181028.350000", "181028.810000", "181029.270000", "181029.730000", "181030.190000", "181030.650000", "181031.110000", "181031.570000", "181032.030000", "181032.490000", "181032.950000", "181033.410000", "181033.870000", "181034.330000", "181034.790000", "181035.250000", "181035.710000", "181036.170000", "181036.630000", "181037.090000", "181037.550000", "181038.010000", "181038.470000", "181038.930000", "181039.390000", "181039.850000", "181040.310000", "181040.770000", "181041.230000", "181041.690000", "181042.150000", "181042.610000", "181043.070000", "181043.530000", "181043.990000", "181044.450000", "181044.910000", "181045.370000", "181045.830000", "181046.290000", "181046.750000", "181047.210000", "181047.670000", "181048.130000", "181048.590000", "181049.050000", "181049.510000", "181049.970000", "181050.430000", "181050.890000", "181051.350000", "181051.810000", "181052.270000", "181052.730000", "181053.190000", "181053.650000", "181054.110000", "181054.570000", "181055.030000", "181055.490000", "181055.950000", "181056.410000", "181056.870000", "181057.330000", "181057.790000", "181058.250000", "181058.710000", "181059.170000", "181059.630000", "181100.090000", "181100.550000", "181101.010000", "181101.470000", "181101.930000", "181102.390000", "181102.850000", "181103.310000", "181103.770000", "181104.230000", "181104.690000", "181105.150000", "181105.610000", "181106.070000", "181106.530000", "181106.990000", "181107.450000", "181107.910000", "181108.370000", "181108.830000", "181109.290000", "181109.750000", "181110.210000", "181110.670000", "181111.130000", "181111.590000", "181112.050000", "181112.510000", "181112.970000", "181113.430000", "181113.890000", "181114.350000", "181114.810000", "181115.270000", "181115.730000", "181116.190000", "181116.650000", "181117.110000", "181117.570000", "181118.030000", "181118.490000", "181118.950000", "181119.410000", "181119.870000", "181120.330000", "181120.790000", "181121.250000", "181121.710000", "181122.170000", "181122.630000", "181123.090000", "181123.550000", "181124.010000", "181124.470000", "181124.930000", "181125.390000", "181125.850000", "181126.310000", "181126.770000", "181127.230000", "181127.690000", "181128.150000", "181128.610000", "181129.070000", "181129.530000", "181129.990000", "181130.450000", "181130.910000", "181131.370000", "181131.830000", "181132.290000", "181132.750000", "181133.210000", "181133.670000", "181134.130000", "181134.590000", "181135.050000", "181135.510000", "181135.970000", "181136.430000", "181136.890000", "181137.350000", "181137.810000", "181138.270000", "181138.730000", "181139.190000", "181139.650000", "181140.110000", "181140.570000", "181141.030000", "181141.490000", "181141.950000", "181142.410000", "181142.870000", "181143.330000", "181143.790000", "181144.250000", "181144.710000", "181145.170000", "181145.630000", "181146.090000", "181146.550000", "181147.010000", "181147.470000", "181147.930000", "181148.390000", "181148.850000", "181149.310000", "181149.770000", "181150.230000", "181150.690000", "181151.150000", "181151.610000", "181152.070000", "181152.530000", "181152.990000", "181153.450000", "181153.910000", "181154.370000", "181154.830000", "181155.290000", "181155.750000", "181156.210000", "181156.670000", "181157.130000", "181157.590000", "181158.050000", "181158.510000", "181158.970000", "181159.430000", "181159.890000", "181200.350000", "181200.810000", "181201.270000", "181201.730000", "181202.190000", "181202.650000", "181203.110000", "181203.570000", "181204.030000", "181204.490000", "181204.950000", "181205.410000", "181205.870000", "181206.330000", "181206.790000", "181207.250000", "181207.710000", "181208.170000", "181208.630000", "181209.090000", "181209.550000", "181210.010000", "181210.470000", "181210.930000", "181211.390000", "181211.850000", "181212.310000", "181212.770000", "181213.230000", "181213.690000", "181214.150000", "181214.610000", "181215.070000", "181215.530000", "181215.990000", "181216.450000", "181216.910000", "181217.370000", "181217.830000", "181218.290000", "181218.750000", "181219.210000", "181219.670000", "181220.130000", "181220.590000", "181221.050000", "181221.510000", "181221.970000", "181222.430000", "181222.890000", "181223.350000", "181223.810000", "181224.270000", "181224.730000", "181225.190000", "181225.650000", "181226.110000", "181226.570000", "181227.030000", "181227.490000", "181227.950000", "181228.410000", "181228.870000", "181229.330000", "181229.790000", "181230.250000", "181230.710000", "181231.170000", "181231.630000", "181232.090000", "181232.550000", "181233.010000", "181233.470000", "181233.930000", "181234.390000", "181234.850000", "181235.310000", "181235.770000", "181236.230000", "181236.690000", "181237.150000", "181237.610000", "181238.070000", "181238.530000", "181238.990000", "181239.450000", "181239.910000", "181240.370000", "181240.830000", "181241.290000", "181241.750000", "181242.210000", "181242.670000", "181243.130000", "181243.590000", "181244.050000", "181244.510000", "181244.970000", "181245.430000", "181245.890000", "181246.350000", "181246.810000", "181247.270000", "181247.730000", "181248.190000", "181248.650000", "181249.110000", "181249.570000", "181250.030000", "181250.490000", "181250.950000", "181251.410000", "181251.870000", "181252.330000", "181252.790000", "181253.250000"],
