{
  "AcquisitionMatrixPE": 82,
  "AcquisitionNumber": 1,
  "AcquisitionTime": "17:44:11.032500",
  "BandwidthPerPixelPhaseEncode": 24.888,
  "BaseResolution": 82,
  "BodyPartExamined": "BRAIN",
  "ConsistencyInfo": "N4_VE11E_LATEST_20181129",
  "ConversionSoftware": "dcm2niix",
  "ConversionSoftwareVersion": "v1.0.20201102",
  "DerivedVendorReportedEchoSpacing": 0.00049,
  "DeviceSerialNumber": "66112",
  "DwellTime": 2e-06,
  "EchoTime": 0.0272,
  "EchoTrainLength": 82,
  "EffectiveEchoSpacing": 0.00049,
  "FlipAngle": 44,
  "ImageComments": "Unaliased MB8/PE3",
  "ImageOrientationPatientDICOM": [0.996857, -0.023855, 0.0755405, 0.0127015, 0.989376, 0.144822],
  "ImageType": [
    "ORIGINAL",
    "PRIMARY",
    "M",
    "MB",
    "ND",
    "NORM",
    "MOSAIC"
],
  "ImagingFrequency": 123.252,
  "InPlanePhaseEncodingDirectionDICOM": "COL",
  "InstitutionAddress": "Maynard 3,Hanover,NH,US,03755",
  "InstitutionName": "Dartmouth College - PBS",
  "InstitutionalDepartmentName": "Department",
  "MRAcquisitionType": "2D",
  "MagneticFieldStrength": 3,
  "Manufacturer": "Siemens",
  "ManufacturersModelName": "Prisma",
  "Modality": "MR",
  "MultibandAccelerationFactor": 8,
  "PartialFourier": 1,
  "PatientPosition": "HFS",
  "PercentPhaseFOV": 100,
  "PercentSampling": 100,
  "PhaseEncodingDirection": "j-",
  "PhaseEncodingSteps": 82,
  "PhaseResolution": 1,
  "PixelBandwidth": 3050,
  "ProcedureStepDescription": "Wager_Wager^1076_spacetop",
  "ProtocolName": "func_run-03_task-social_acq-ap-mb8",
  "PulseSequenceDetails": "%CustomerSeq%\\cmrr_mbep2d_bold",
  "ReceiveCoilActiveElements": "HEA;HEP",
  "ReceiveCoilName": "Head_32",
  "ReconMatrixPE": 82,
  "RepetitionTime": 0.46,
  "SAR": 0.0816743,
  "ScanOptions": "FS",
  "ScanningSequence": "EP",
  "SequenceName": "epfid2d1_82",
  "SequenceVariant": "SK\\SS",
  "SeriesDescription": "func_run-03_task-social_acq-ap-mb8",
  "SeriesNumber": 12,
  "ShimSetting": [4166, -7743, -7362, 656, -75, -258, -23, 98],
  "SliceThickness": 2.7,
  "SliceTiming": [0, 0.25, 0.0625, 0.3125, 0.125, 0.375, 0.1875, 0, 0.25, 0.0625, 0.3125, 0.125, 0.375, 0.1875, 0, 0.25, 0.0625, 0.3125, 0.125, 0.375, 0.1875, 0, 0.25, 0.0625, 0.3125, 0.125, 0.375, 0.1875, 0, 0.25, 0.0625, 0.3125, 0.125, 0.375, 0.1875, 0, 0.25, 0.0625, 0.3125, 0.125, 0.375, 0.1875, 0, 0.25, 0.0625, 0.3125, 0.125, 0.375, 0.1875, 0, 0.25, 0.0625, 0.3125, 0.125, 0.375, 0.1875],
  "SoftwareVersions": "syngo MR E11",
  "SpacingBetweenSlices": 2.7,
  "StationName": "AWP66112",
  "TaskName": "social",
  "TotalReadoutTime": 0.03969,
  "TxRefAmp": 239.733,
  "WipMemBlock": "9c4eea5c-2814-4560-a3e3-4421b490115e||Sequence: R016 ve11e/master r/434b28f1; Aug  7 2019 18:53:46 by eja",
  "dcmmeta_affine": [
    [-2.6744954586029053, 0.034077238291502, 0.2111203819513321, 103.19356536865234],
    [0.0640011802315712, 2.654423952102661, 0.3872007429599762, -108.7084732055664],
    [0.20266972482204437, -0.3885475993156433, 2.66373872756958, -99.0783920288086],
    [0.0, 0.0, 0.0, 1.0]
],
  "dcmmeta_reorient_transform": [
    [0.0, -1.0, 0.0, 81.0],
    [1.0, 0.0, 0.0, 0.0],
    [0.0, 0.0, 1.0, 0.0],
    [0.0, 0.0, 0.0, 1.0]
],
  "dcmmeta_shape": [82, 82, 56, 872],
  "dcmmeta_slice_dim": 2,
  "dcmmeta_version": 0.6,
  "global": {
    "const": {
      "AccessionNumber": "A003966",
      "AcquisitionMatrix": [82, 0, 0, 82],
      "AngioFlag": "N",
      "BitsAllocated": 16,
      "BitsStored": 16,
      "BodyPartExamined": "BRAIN",
      "Columns": 656,
      "EchoNumbers": 1,
      "EchoTime": 27.2,
      "EchoTrainLength": 82,
      "FlipAngle": 44.0,
      "HighBit": 15,
      "ImageOrientationPatient": [0.99685734577844, -0.0238549834642, 0.07554053171306, 0.01270151562617, 0.98937615510938, 0.14482228834603],
      "ImagePositionPatient": [-883.31416249061, -849.75118006561, -300.23012306739],
      "ImageType": [
        "ORIGINAL",
        "PRIMARY",
        "M",
        "MB",
        "ND",
        "NORM",
        "MOSAIC"
],
      "ImagedNucleus": "1H",
      "ImagingFrequency": 123.252245,
      "InPlanePhaseEncodingDirection": "COL",
      "MRAcquisitionType": "2D",
      "MagneticFieldStrength": 3.0,
      "Manufacturer": "SIEMENS",
      "ManufacturerModelName": "Prisma",
      "Modality": "MR",
      "NumberOfAverages": 1.0,
      "NumberOfPhaseEncodingSteps": 82,
      "PercentPhaseFieldOfView": 100.0,
      "PercentSampling": 100.0,
      "PerformedProcedureStepStartTime": "172238.234000",
      "PhotometricInterpretation": "MONOCHROME2",
      "PixelBandwidth": 3050.0,
      "PixelRepresentation": 0,
      "PixelSpacing": [2.6829268932343, 2.6829268932343],
      "ProtocolName": "func_run-03_task-social_acq-ap-mb8",
      "RepetitionTime": 460.0,
      "Rows": 656,
      "SAR": 0.0816742803111,
      "SamplesPerPixel": 1,
      "ScanOptions": "FS",
      "ScanningSequence": "EP",
      "SequenceName": "epfid2d1_82",
      "SequenceVariant": [
        "SK",
        "SS"
],
      "SeriesDescription": "func_run-03_task-social_acq-ap-mb8",
      "SeriesNumber": 12,
      "SeriesTime": "174425.169000",
      "SliceLocation": -105.26840013408,
      "SliceThickness": 2.7000000476837,
      "SmallestImagePixelValue": 0,
      "SoftwareVersions": "syngo MR E11",
      "SpacingBetweenSlices": 2.7000000571948,
      "SpecificCharacterSet": "ISO_IR 100",
      "StudyID": "1",
      "StudyTime": "172238.178000",
      "TransmitCoilName": "Body",
      "VariableFlipAngleFlag": "N",
      "WindowCenterWidthExplanation": "Algo1"
    },
    "slices": {}
  },
  "time": {
    "samples": {
      "AcquisitionNumber": [1, 2, 3, 4, 5, 6, 7, 8, 9, 10, 11, 12, 13, 14, 15, 16, 17, 18, 19, 20, 21, 22, 23, 24, 25, 26, 27, 28, 29, 30, 31, 32, 33, 34, 35, 36, 37, 38, 39, 40, 41, 42, 43, 44, 45, 46, 47, 48, 49, 50, 51, 52, 53, 54, 55, 56, 57, 58, 59, 60, 61, 62, 63, 64, 65, 66, 67, 68, 69, 70, 71, 72, 73, 74, 75, 76, 77, 78, 79, 80, 81, 82, 83, 84, 85, 86, 87, 88, 89, 90, 91, 92, 93, 94, 95, 96, 97, 98, 99, 100, 101, 102, 103, 104, 105, 106, 107, 108, 109, 110, 111, 112, 113, 114, 115, 116, 117, 118, 119, 120, 121, 122, 123, 124, 125, 126, 127, 128, 129, 130, 131, 132, 133, 134, 135, 136, 137, 138, 139, 140, 141, 142, 143, 144, 145, 146, 147, 148, 149, 150, 151, 152, 153, 154, 155, 156, 157, 158, 159, 160, 161, 162, 163, 164, 165, 166, 167, 168, 169, 170, 171, 172, 173, 174, 175, 176, 177, 178, 179, 180, 181, 182, 183, 184, 185, 186, 187, 188, 189, 190, 191, 192, 193, 194, 195, 196, 197, 198, 199, 200, 201, 202, 203, 204, 205, 206, 207, 208, 209, 210, 211, 212, 213, 214, 215, 216, 217, 218, 219, 220, 221, 222, 223, 224, 225, 226, 227, 228, 229, 230, 231, 232, 233, 234, 235, 236, 237, 238, 239, 240, 241, 242, 243, 244, 245, 246, 247, 248, 249, 250, 251, 252, 253, 254, 255, 256, 257, 258, 259, 260, 261, 262, 263, 264, 265, 266, 267, 268, 269, 270, 271, 272, 273, 274, 275, 276, 277, 278, 279, 280, 281, 282, 283, 284, 285, 286, 287, 288, 289, 290, 291, 292, 293, 294, 295, 296, 297, 298, 299, 300, 301, 302, 303, 304, 305, 306, 307, 308, 309, 310, 311, 312, 313, 314, 315, 316, 317, 318, 319, 320, 321, 322, 323, 324, 325, 326, 327, 328, 329, 330, 331, 332, 333, 334, 335, 336, 337, 338, 339, 340, 341, 342, 343, 344, 345, 346, 347, 348, 349, 350, 351, 352, 353, 354, 355, 356, 357, 358, 359, 360, 361, 362, 363, 364, 365, 366, 367, 368, 369, 370, 371, 372, 373, 374, 375, 376, 377, 378, 379, 380, 381, 382, 383, 384, 385, 386, 387, 388, 389, 390, 391, 392, 393, 394, 395, 396, 397, 398, 399, 400, 401, 402, 403, 404, 405, 406, 407, 408, 409, 410, 411, 412, 413, 414, 415, 416, 417, 418, 419, 420, 421, 422, 423, 424, 425, 426, 427, 428, 429, 430, 431, 432, 433, 434, 435, 436, 437, 438, 439, 440, 441, 442, 443, 444, 445, 446, 447, 448, 449, 450, 451, 452, 453, 454, 455, 456, 457, 458, 459, 460, 461, 462, 463, 464, 465, 466, 467, 468, 469, 470, 471, 472, 473, 474, 475, 476, 477, 478, 479, 480, 481, 482, 483, 484, 485, 486, 487, 488, 489, 490, 491, 492, 493, 494, 495, 496, 497, 498, 499, 500, 501, 502, 503, 504, 505, 506, 507, 508, 509, 510, 511, 512, 513, 514, 515, 516, 517, 518, 519, 520, 521, 522, 523, 524, 525, 526, 527, 528, 529, 530, 531, 532, 533, 534, 535, 536, 537, 538, 539, 540, 541, 542, 543, 544, 545, 546, 547, 548, 549, 550, 551, 552, 553, 554, 555, 556, 557, 558, 559, 560, 561, 562, 563, 564, 565, 566, 567, 568, 569, 570, 571, 572, 573, 574, 575, 576, 577, 578, 579, 580, 581, 582, 583, 584, 585, 586, 587, 588, 589, 590, 591, 592, 593, 594, 595, 596, 597, 598, 599, 600, 601, 602, 603, 604, 605, 606, 607, 608, 609, 610, 611, 612, 613, 614, 615, 616, 617, 618, 619, 620, 621, 622, 623, 624, 625, 626, 627, 628, 629, 630, 631, 632, 633, 634, 635, 636, 637, 638, 639, 640, 641, 642, 643, 644, 645, 646, 647, 648, 649, 650, 651, 652, 653, 654, 655, 656, 657, 658, 659, 660, 661, 662, 663, 664, 665, 666, 667, 668, 669, 670, 671, 672, 673, 674, 675, 676, 677, 678, 679, 680, 681, 682, 683, 684, 685, 686, 687, 688, 689, 690, 691, 692, 693, 694, 695, 696, 697, 698, 699, 700, 701, 702, 703, 704, 705, 706, 707, 708, 709, 710, 711, 712, 713, 714, 715, 716, 717, 718, 719, 720, 721, 722, 723, 724, 725, 726, 727, 728, 729, 730, 731, 732, 733, 734, 735, 736, 737, 738, 739, 740, 741, 742, 743, 744, 745, 746, 747, 748, 749, 750, 751, 752, 753, 754, 755, 756, 757, 758, 759, 760, 761, 762, 763, 764, 765, 766, 767, 768, 769, 770, 771, 772, 773, 774, 775, 776, 777, 778, 779, 780, 781, 782, 783, 784, 785, 786, 787, 788, 789, 790, 791, 792, 793, 794, 795, 796, 797, 798, 799, 800, 801, 802, 803, 804, 805, 806, 807, 808, 809, 810, 811, 812, 813, 814, 815, 816, 817, 818, 819, 820, 821, 822, 823, 824, 825, 826, 827, 828, 829, 830, 831, 832, 833, 834, 835, 836, 837, 838, 839, 840, 841, 842, 843, 844, 845, 846, 847, 848, 849, 850, 851, 852, 853, 854, 855, 856, 857, 858, 859, 860, 861, 862, 863, 864, 865, 866, 867, 868, 869, 870, 871, 872],
      "AcquisitionTime": ["174411.032500", "174411.492500", "174411.952500", "174412.412500", "174412.872500", "174413.332500", "174413.792500", "174414.252500", "174414.712500", "174415.172500", "174415.632500", "174416.092500", "174416.552500", "174417.012500", "174417.472500", "174417.932500", "174418.392500", "174418.852500", "174419.312500", "174419.772500", "174420.232500", "174420.692500", "174421.152500", "174421.612500", "174422.072500", "174422.532500", "174422.992500", "174423.452500", "174423.912500", "174424.372500", "174424.832500", "174425.292500", "174425.752500", "174426.212500", "174426.672500", "174427.132500", "174427.592500", "174428.052500", "174428.512500", "174428.972500", "174429.432500", "174429.892500", "174430.352500", "174430.812500", "174431.272500", "174431.732500", "174432.192500", "174432.652500", "174433.112500", "174433.572500", "174434.032500", "174434.492500", "174434.952500", "174435.412500", "174435.872500", "174436.332500", "174436.792500", "174437.252500", "174437.712500", "174438.172500", "174438.632500", "174439.092500", "174439.552500", "174440.012500", "174440.472500", "174440.932500", "174441.392500", "174441.852500", "174442.312500", "174442.772500", "174443.232500", "174443.692500", "174444.152500", "174444.612500", "174445.072500", "174445.532500", "174445.992500", "174446.452500", "174446.912500", "174447.372500", "174447.832500", "174448.292500", "174448.752500", "174449.212500", "174449.672500", "174450.132500", "174450.592500", "174451.052500", "174451.512500", "174451.972500", "174452.432500", "174452.892500", "174453.352500", "174453.812500", "174454.272500", "174454.732500", "174455.192500", "174455.652500", "174456.112500", "174456.572500", "174457.032500", "174457.492500", "174457.952500", "174458.412500", "174458.872500", "174459.332500", "174459.792500", "174500.252500", "174500.712500", "174501.172500", "174501.632500", "174502.092500", "174502.552500", "174503.012500", "174503.472500", "174503.932500", "174504.392500", "174504.852500", "174505.312500", "174505.772500", "174506.232500", "174506.692500", "174507.152500", "174507.612500", "174508.072500", "174508.532500", "174508.992500", "174509.452500", "174509.912500", "174510.372500", "174510.832500", "174511.292500", "174511.752500", "174512.212500", "174512.672500", "174513.132500", "174513.592500", "174514.052500", "174514.512500", "174514.972500", "174515.432500", "174515.892500", "174516.352500", "174516.812500", "174517.272500", "174517.732500", "174518.192500", "174518.652500", "174519.112500", "174519.572500", "174520.032500", "174520.492500", "174520.952500", "174521.412500", "174521.872500", "174522.332500", "174522.792500", "174523.252500", "174523.712500", "174524.172500", "174524.632500", "174525.092500", "174525.552500", "174526.012500", "174526.472500", "174526.932500", "174527.392500", "174527.852500", "174528.312500", "174528.772500", "174529.232500", "174529.692500", "174530.152500", "174530.612500", "174531.072500", "174531.532500", "174531.992500", "174532.452500", "174532.912500", "174533.372500", "174533.832500", "174534.292500", "174534.752500", "174535.212500", "174535.672500", "174536.132500", "174536.592500", "174537.052500", "174537.512500", "174537.972500", "174538.432500", "174538.892500", "174539.352500", "174539.812500", "174540.272500", "174540.732500", "174541.192500", "174541.652500", "174542.112500", "174542.572500", "174543.032500", "174543.492500", "174543.952500", "174544.412500", "174544.872500", "174545.332500", "174545.792500", "174546.252500", "174546.712500", "174547.172500", "174547.632500", "174548.092500", "174548.552500", "174549.012500", "174549.472500", "174549.932500", "174550.392500", "174550.852500", "174551.312500", "174551.772500", "174552.232500", "174552.692500", "174553.152500", "174553.612500", "174554.072500", "174554.532500", "174554.992500", "174555.452500", "174555.912500", "174556.372500", "174556.832500", "174557.292500", "174557.752500", "174558.212500", "174558.672500", "174559.132500", "174559.592500", "174600.052500", "174600.512500", "174600.972500", "174601.432500", "174601.892500", "174602.352500", "174602.812500", "174603.272500", "174603.732500", "174604.192500", "174604.652500", "174605.112500", "174605.572500", "174606.032500", "174606.492500", "174606.952500", "174607.412500", "174607.872500", "174608.332500", "174608.792500", "174609.252500", "174609.712500", "174610.172500", "174610.632500", "174611.092500", "174611.552500", "174612.012500", "174612.472500", "174612.932500", "174613.392500", "174613.852500", "174614.312500", "174614.772500", "174615.232500", "174615.692500", "174616.152500", "174616.612500", "174617.072500", "174617.532500", "174617.992500", "174618.452500", "174618.912500", "174619.372500", "174619.832500", "174620.292500", "174620.752500", "174621.212500", "174621.672500", "174622.132500", "174622.592500", "174623.052500", "174623.512500", "174623.972500", "174624.432500", "174624.892500", "174625.352500", "174625.812500", "174626.272500", "174626.732500", "174627.192500", "174627.652500", "174628.112500", "174628.572500", "174629.032500", "174629.492500", "174629.952500", "174630.412500", "174630.872500", "174631.332500", "174631.792500", "174632.252500", "174632.712500", "174633.172500", "174633.632500", "174634.092500", "174634.552500", "174635.012500", "174635.472500", "174635.932500", "174636.392500", "174636.852500", "174637.312500", "174637.772500", "174638.232500", "174638.692500", "174639.152500", "174639.612500", "174640.072500", "174640.532500", "174640.992500", "174641.452500", "174641.912500", "174642.372500", "174642.832500", "174643.292500", "174643.752500", "174644.212500", "174644.672500", "174645.132500", "174645.592500", "174646.052500", "174646.512500", "174646.972500", "174647.432500", "174647.892500", "174648.352500", "174648.812500", "174649.272500", "174649.732500", "174650.192500", "174650.652500", "174651.112500", "174651.572500", "174652.032500", "174652.492500", "174652.952500", "174653.412500", "174653.872500", "174654.332500", "174654.792500", "174655.252500", "174655.712500", "174656.172500", "174656.632500", "174657.092500", "174657.552500", "174658.012500", "174658.472500", "174658.932500", "174659.392500", "174659.852500", "174700.312500", "174700.772500", "174701.232500", "174701.692500", "174702.152500", "174702.612500", "174703.072500", "174703.532500", "174703.992500", "174704.452500", "174704.912500", "174705.372500", "174705.832500", "174706.292500", "174706.752500", "174707.212500", "174707.672500", "174708.132500", "174708.592500", "174709.052500", "174709.512500", "174709.972500", "174710.432500", "174710.892500", "174711.352500", "174711.812500", "174712.272500", "174712.732500", "174713.192500", "174713.652500", "174714.112500", "174714.572500", "174715.032500", "174715.492500", "174715.952500", "174716.412500", "174716.872500", "174717.332500", "174717.792500", "174718.252500", "174718.712500", "174719.172500", "174719.632500", "174720.092500", "174720.552500", "174721.012500", "174721.472500", "174721.932500", "174722.392500", "174722.852500", "174723.312500", "174723.772500", "174724.232500", "174724.692500", "174725.152500", "174725.612500", "174726.072500", "174726.532500", "174726.992500", "174727.452500", "174727.912500", "174728.372500", "174728.832500", "174729.292500", "174729.752500", "174730.212500", "174730.672500", "174731.132500", "174731.592500", "174732.052500", "174732.512500", "174732.972500", "174733.432500", "174733.892500", "174734.352500", "174734.812500", "174735.272500", "174735.732500", "174736.192500", "174736.652500", "174737.112500", "174737.572500", "174738.032500", "174738.492500", "174738.952500", "174739.412500", "174739.872500", "174740.332500", "174740.792500", "174741.252500", "174741.712500", "174742.172500", "174742.632500", "174743.092500", "174743.552500", "174744.012500", "174744.472500", "174744.932500", "174745.392500", "174745.852500", "174746.312500", "174746.772500", "174747.232500", "174747.692500", "174748.152500", "174748.612500", "174749.072500", "174749.532500", "174749.992500", "174750.452500", "174750.912500", "174751.372500", "174751.832500", "174752.292500", "174752.752500", "174753.212500", "174753.672500", "174754.132500", "174754.592500", "174755.052500", "174755.512500", "174755.972500", "174756.432500", "174756.892500", "174757.352500", "174757.812500", "174758.272500", "174758.732500", "174759.192500", "174759.652500", "174800.112500", "174800.572500", "174801.032500", "174801.492500", "174801.952500", "174802.412500", "174802.872500", "174803.332500", "174803.792500", "174804.252500", "174804.712500", "174805.172500", "174805.632500", "174806.092500", "174806.552500", "174807.012500", "174807.472500", "174807.932500", "174808.392500", "174808.852500", "174809.312500", "174809.772500", "174810.232500", "174810.692500", "174811.152500", "174811.612500", "174812.072500", "174812.532500", "174812.992500", "174813.452500", "174813.912500", "174814.372500", "174814.832500", "174815.292500", "174815.752500", "174816.212500", "174816.672500", "174817.132500", "174817.592500", "174818.052500", "174818.512500", "174818.972500", "174819.432500", "174819.892500", "174820.352500", "174820.812500", "174821.272500", "174821.732500", "174822.192500", "174822.652500", "174823.112500", "174823.572500", "174824.032500", "174824.492500", "174824.952500", "174825.412500", "174825.872500", "174826.332500", "174826.792500", "174827.252500", "174827.712500", "174828.172500", "174828.632500", "174829.092500", "174829.552500", "174830.012500", "174830.472500", "174830.932500", "174831.392500", "174831.852500", "174832.312500", "174832.772500", "174833.232500", "174833.692500", "174834.152500", "174834.612500", "174835.072500", "174835.532500", "174835.992500", "174836.452500", "174836.912500", "174837.372500", "174837.832500", "174838.292500", "174838.752500", "174839.212500", "174839.672500", "174840.132500", "174840.592500", "174841.052500", "174841.512500", "174841.972500", "174842.432500", "174842.892500", "174843.352500", "174843.812500", "174844.272500", "174844.732500", "174845.192500", "174845.652500", "174846.112500", "174846.572500", "174847.032500", "174847.492500", "174847.952500", "174848.412500", "174848.872500", "174849.332500", "174849.792500", "174850.252500", "174850.712500", "174851.172500", "174851.632500", "174852.092500", "174852.552500", "174853.012500", "174853.472500", "174853.932500", "174854.392500", "174854.852500", "174855.312500", "174855.772500", "174856.232500", "174856.692500", "174857.152500", "174857.612500", "174858.072500", "174858.532500", "174858.992500", "174859.452500", "174859.912500", "174900.372500", "174900.832500", "174901.292500", "174901.752500", "174902.212500", "174902.672500", "174903.132500", "174903.592500", "174904.052500", "174904.512500", "174904.972500", "174905.432500", "174905.892500", "174906.352500", "174906.812500", "174907.272500", "174907.732500", "174908.192500", "174908.652500", "174909.112500", "174909.572500", "174910.032500", "174910.492500", "174910.952500", "174911.412500", "174911.872500", "174912.332500", "174912.792500", "174913.252500", "174913.712500", "174914.172500", "174914.632500", "174915.092500", "174915.552500", "174916.012500", "174916.472500", "174916.932500", "174917.392500", "174917.852500", "174918.312500", "174918.772500", "174919.232500", "174919.692500", "174920.152500", "174920.612500", "174921.072500", "174921.532500", "174921.992500", "174922.452500", "174922.912500", "174923.372500", "174923.832500", "174924.292500", "174924.752500", "174925.212500", "174925.672500", "174926.132500", "174926.592500", "174927.052500", "174927.512500", "174927.972500", "174928.432500", "174928.892500", "174929.352500", "174929.812500", "174930.272500", "174930.732500", "174931.192500", "174931.652500", "174932.112500", "174932.572500", "174933.032500", "174933.492500", "174933.952500", "174934.412500", "174934.872500", "174935.332500", "174935.792500", "174936.252500", "174936.712500", "174937.172500", "174937.632500", "174938.092500", "174938.552500", "174939.012500", "174939.472500", "174939.932500", "174940.392500", "174940.852500", "174941.312500", "174941.772500", "174942.232500", "174942.692500", "174943.152500", "174943.612500", "174944.072500", "174944.532500", "174944.992500", "174945.452500", "174945.912500", "174946.372500", "174946.832500", "174947.292500", "174947.752500", "174948.212500", "174948.672500", "174949.132500", "174949.592500", "174950.052500", "174950.512500", "174950.972500", "174951.432500", "174951.892500", "174952.352500", "174952.812500", "174953.272500", "174953.732500", "174954.192500", "174954.652500", "174955.112500", "174955.572500", "174956.032500", "174956.492500", "174956.952500", "174957.412500", "174957.872500", "174958.332500", "174958.792500", "174959.252500", "174959.712500", "175000.172500", "175000.632500", "175001.092500", "175001.552500", "175002.012500", "175002.472500", "175002.932500", "175003.392500", "175003.852500", "175004.312500", "175004.772500", "175005.232500", "175005.692500", "175006.152500", "175006.612500", "175007.072500", "175007.532500", "175007.992500", "175008.452500", "175008.912500", "175009.372500", "175009.832500", "175010.292500", "175010.752500", "175011.212500", "175011.672500", "175012.132500", "175012.592500", "175013.052500", "175013.512500", "175013.972500", "175014.432500", "175014.892500", "175015.352500", "175015.812500", "175016.272500", "175016.732500", "175017.192500", "175017.652500", "175018.112500", "175018.572500", "175019.032500", "175019.492500", "175019.952500", "175020.412500", "175020.872500", "175021.332500", "175021.792500", "175022.252500", "175022.712500", "175023.172500", "175023.632500", "175024.092500", "175024.552500", "175025.012500", "175025.472500", "175025.932500", "175026.392500", "175026.852500", "175027.312500", "175027.772500", "175028.232500", "175028.692500", "175029.152500", "175029.612500", "175030.072500", "175030.532500", "175030.992500", "175031.452500", "175031.912500", "175032.372500", "175032.832500", "175033.292500", "175033.752500", "175034.212500", "175034.672500", "175035.132500", "175035.592500", "175036.052500", "175036.512500", "175036.972500", "175037.432500", "175037.892500", "175038.352500", "175038.812500", "175039.272500", "175039.732500", "175040.192500", "175040.652500", "175041.112500", "175041.572500", "175042.032500", "175042.492500", "175042.952500", "175043.412500", "175043.872500", "175044.332500", "175044.792500", "175045.252500", "175045.712500", "175046.172500", "175046.632500", "175047.092500", "175047.552500", "175048.012500", "175048.472500", "175048.932500", "175049.392500", "175049.852500", "175050.312500", "175050.772500", "175051.232500", "175051.692500"],
