{
  "AcquisitionMatrixPE": 82,
  "AcquisitionNumber": 1,
  "AcquisitionTime": "18:47:53.200000",
  "BandwidthPerPixelPhaseEncode": 24.888,
  "BaseResolution": 82,
  "BodyPartExamined": "BRAIN",
  "ConsistencyInfo": "N4_VE11E_LATEST_20181129",
  "ConversionSoftware": "dcm2niix",
  "ConversionSoftwareVersion": "v1.0.20201102",
  "DerivedVendorReportedEchoSpacing": 0.00049,
  "DeviceSerialNumber": "66112",
  "DwellTime": 2e-06,
  "EchoTime": 0.0272,
  "EchoTrainLength": 82,
  "EffectiveEchoSpacing": 0.00049,
  "FlipAngle": 44,
  "ImageComments": "Unaliased MB8/PE3",
  "ImageOrientationPatientDICOM": [0.998443, -0.0300446, 0.0469983, 0.0254476, 0.995102, 0.0955233],
  "ImageType": [
    "ORIGINAL",
    "PRIMARY",
    "M",
    "MB",
    "ND",
    "NORM",
    "MOSAIC"
],
  "ImagingFrequency": 123.252,
  "InPlanePhaseEncodingDirectionDICOM": "COL",
  "InstitutionAddress": "Maynard 3,Hanover,NH,US,03755",
  "InstitutionName": "Dartmouth College - PBS",
  "InstitutionalDepartmentName": "Department",
  "MRAcquisitionType": "2D",
  "MagneticFieldStrength": 3,
  "Manufacturer": "Siemens",
  "ManufacturersModelName": "Prisma",
  "Modality": "MR",
  "MultibandAccelerationFactor": 8,
  "PartialFourier": 1,
  "PatientPosition": "HFS",
  "PercentPhaseFOV": 100,
  "PercentSampling": 100,
  "PhaseEncodingDirection": "j-",
  "PhaseEncodingSteps": 82,
  "PhaseResolution": 1,
  "PixelBandwidth": 3050,
  "ProcedureStepDescription": "Wager_Wager^1076_spacetop",
  "ProtocolName": "func_run-03_task-alignvideo_acq-ap-mb8",
  "PulseSequenceDetails": "%CustomerSeq%\\cmrr_mbep2d_bold",
  "ReceiveCoilActiveElements": "HEA;HEP",
  "ReceiveCoilName": "Head_32",
  "ReconMatrixPE": 82,
  "RepetitionTime": 0.46,
  "SAR": 0.0817664,
  "ScanOptions": "FS",
  "ScanningSequence": "EP",
  "SequenceName": "epfid2d1_82",
  "SequenceVariant": "SK\\SS",
  "SeriesDescription": "func_run-03_task-alignvideo_acq-ap-mb8",
  "SeriesNumber": 32,
  "ShimSetting": [4166, -7744, -7362, 665, -76, -247, -25, 99],
  "SliceThickness": 2.7,
  "SliceTiming": [0, 0.2525, 0.0625, 0.315, 0.125, 0.3775, 0.19, 0, 0.2525, 0.0625, 0.315, 0.125, 0.3775, 0.19, 0, 0.2525, 0.0625, 0.315, 0.125, 0.3775, 0.19, 0, 0.2525, 0.0625, 0.315, 0.125, 0.3775, 0.19, 0, 0.2525, 0.0625, 0.315, 0.125, 0.3775, 0.19, 0, 0.2525, 0.0625, 0.315, 0.125, 0.3775, 0.19, 0, 0.2525, 0.0625, 0.315, 0.125, 0.3775, 0.19, 0, 0.2525, 0.0625, 0.315, 0.125, 0.3775, 0.19],
  "SoftwareVersions": "syngo MR E11",
  "SpacingBetweenSlices": 2.7,
  "StationName": "AWP66112",
  "TaskName": "alignvideo",
  "TotalReadoutTime": 0.03969,
  "TxRefAmp": 239.733,
  "WipMemBlock": "8a3018f7-4175-4ff0-80ad-8117e49d6d4c||Sequence: R016 ve11e/master r/434b28f1; Aug  7 2019 18:53:46 by eja",
  "dcmmeta_affine": [
    [-2.6787495613098145, 0.06827399879693985, 0.13402265310287476, 104.42926788330078],
    [0.0806073322892189, 2.669785499572754, 0.254282146692276, -106.83174133300781],
    [0.12609292566776276, -0.2562820315361023, 2.6846561431884766, -99.02295684814453],
    [0.0, 0.0, 0.0, 1.0]
],
  "dcmmeta_reorient_transform": [
    [0.0, -1.0, 0.0, 81.0],
    [1.0, 0.0, 0.0, 0.0],
    [0.0, 0.0, 1.0, 0.0],
    [0.0, 0.0, 0.0, 1.0]
],
  "dcmmeta_shape": [82, 82, 56, 1065],
  "dcmmeta_slice_dim": 2,
  "dcmmeta_version": 0.6,
  "global": {
    "const": {
      "AccessionNumber": "A003966",
      "AcquisitionMatrix": [82, 0, 0, 82],
      "AngioFlag": "N",
      "BitsAllocated": 16,
      "BitsStored": 16,
      "BodyPartExamined": "BRAIN",
      "Columns": 656,
      "EchoNumbers": 1,
      "EchoTime": 27.2,
      "EchoTrainLength": 82,
      "FlipAngle": 44.0,
      "HighBit": 15,
      "ImageOrientationPatient": [0.99844303171665, -0.0300445515982, 0.04699826949717, 0.02544758070971, 0.9951018642808, 0.09552329737244],
      "ImagePositionPatient": [-898.35525284129, -852.5150356582, -229.52341298783],
      "ImageType": [
        "ORIGINAL",
        "PRIMARY",
        "M",
        "MB",
        "ND",
        "NORM",
        "MOSAIC"
],
      "ImagedNucleus": "1H",
      "ImagingFrequency": 123.252255,
      "InPlanePhaseEncodingDirection": "COL",
      "MRAcquisitionType": "2D",
      "MagneticFieldStrength": 3.0,
      "Manufacturer": "SIEMENS",
      "ManufacturerModelName": "Prisma",
      "Modality": "MR",
      "NumberOfAverages": 1.0,
      "NumberOfPhaseEncodingSteps": 82,
      "PercentPhaseFieldOfView": 100.0,
      "PercentSampling": 100.0,
      "PerformedProcedureStepStartTime": "172238.234000",
      "PhotometricInterpretation": "MONOCHROME2",
      "PixelBandwidth": 3050.0,
      "PixelRepresentation": 0,
      "PixelSpacing": [2.6829268932343, 2.6829268932343],
      "ProtocolName": "func_run-03_task-alignvideo_acq-ap-mb8",
      "RepetitionTime": 460.0,
      "Rows": 656,
      "SAR": 0.08176641535609,
      "SamplesPerPixel": 1,
      "ScanOptions": "FS",
      "ScanningSequence": "EP",
      "SequenceName": "epfid2d1_82",
      "SequenceVariant": [
        "SK",
        "SS"
],
      "SeriesDescription": "func_run-03_task-alignvideo_acq-ap-mb8",
      "SeriesNumber": 32,
      "SeriesTime": "184805.262000",
      "SliceLocation": -103.33782025763,
      "SliceThickness": 2.7000000476837,
      "SmallestImagePixelValue": 0,
      "SoftwareVersions": "syngo MR E11",
      "SpacingBetweenSlices": 2.6999999838246,
      "SpecificCharacterSet": "ISO_IR 100",
      "StudyID": "1",
      "StudyTime": "172238.178000",
      "TransmitCoilName": "Body",
      "VariableFlipAngleFlag": "N",
      "WindowCenterWidthExplanation": "Algo1"
    },
    "slices": {}
  },
  "time": {
    "samples": {
      "AcquisitionNumber": [1, 2, 3, 4, 5, 6, 7, 8, 9, 10, 11, 12, 13, 14, 15, 16, 17, 18, 19, 20, 21, 22, 23, 24, 25, 26, 27, 28, 29, 30, 31, 32, 33, 34, 35, 36, 37, 38, 39, 40, 41, 42, 43, 44, 45, 46, 47, 48, 49, 50, 51, 52, 53, 54, 55, 56, 57, 58, 59, 60, 61, 62, 63, 64, 65, 66, 67, 68, 69, 70, 71, 72, 73, 74, 75, 76, 77, 78, 79, 80, 81, 82, 83, 84, 85, 86, 87, 88, 89, 90, 91, 92, 93, 94, 95, 96, 97, 98, 99, 100, 101, 102, 103, 104, 105, 106, 107, 108, 109, 110, 111, 112, 113, 114, 115, 116, 117, 118, 119, 120, 121, 122, 123, 124, 125, 126, 127, 128, 129, 130, 131, 132, 133, 134, 135, 136, 137, 138, 139, 140, 141, 142, 143, 144, 145, 146, 147, 148, 149, 150, 151, 152, 153, 154, 155, 156, 157, 158, 159, 160, 161, 162, 163, 164, 165, 166, 167, 168, 169, 170, 171, 172, 173, 174, 175, 176, 177, 178, 179, 180, 181, 182, 183, 184, 185, 186, 187, 188, 189, 190, 191, 192, 193, 194, 195, 196, 197, 198, 199, 200, 201, 202, 203, 204, 205, 206, 207, 208, 209, 210, 211, 212, 213, 214, 215, 216, 217, 218, 219, 220, 221, 222, 223, 224, 225, 226, 227, 228, 229, 230, 231, 232, 233, 234, 235, 236, 237, 238, 239, 240, 241, 242, 243, 244, 245, 246, 247, 248, 249, 250, 251, 252, 253, 254, 255, 256, 257, 258, 259, 260, 261, 262, 263, 264, 265, 266, 267, 268, 269, 270, 271, 272, 273, 274, 275, 276, 277, 278, 279, 280, 281, 282, 283, 284, 285, 286, 287, 288, 289, 290, 291, 292, 293, 294, 295, 296, 297, 298, 299, 300, 301, 302, 303, 304, 305, 306, 307, 308, 309, 310, 311, 312, 313, 314, 315, 316, 317, 318, 319, 320, 321, 322, 323, 324, 325, 326, 327, 328, 329, 330, 331, 332, 333, 334, 335, 336, 337, 338, 339, 340, 341, 342, 343, 344, 345, 346, 347, 348, 349, 350, 351, 352, 353, 354, 355, 356, 357, 358, 359, 360, 361, 362, 363, 364, 365, 366, 367, 368, 369, 370, 371, 372, 373, 374, 375, 376, 377, 378, 379, 380, 381, 382, 383, 384, 385, 386, 387, 388, 389, 390, 391, 392, 393, 394, 395, 396, 397, 398, 399, 400, 401, 402, 403, 404, 405, 406, 407, 408, 409, 410, 411, 412, 413, 414, 415, 416, 417, 418, 419, 420, 421, 422, 423, 424, 425, 426, 427, 428, 429, 430, 431, 432, 433, 434, 435, 436, 437, 438, 439, 440, 441, 442, 443, 444, 445, 446, 447, 448, 449, 450, 451, 452, 453, 454, 455, 456, 457, 458, 459, 460, 461, 462, 463, 464, 465, 466, 467, 468, 469, 470, 471, 472, 473, 474, 475, 476, 477, 478, 479, 480, 481, 482, 483, 484, 485, 486, 487, 488, 489, 490, 491, 492, 493, 494, 495, 496, 497, 498, 499, 500, 501, 502, 503, 504, 505, 506, 507, 508, 509, 510, 511, 512, 513, 514, 515, 516, 517, 518, 519, 520, 521, 522, 523, 524, 525, 526, 527, 528, 529, 530, 531, 532, 533, 534, 535, 536, 537, 538, 539, 540, 541, 542, 543, 544, 545, 546, 547, 548, 549, 550, 551, 552, 553, 554, 555, 556, 557, 558, 559, 560, 561, 562, 563, 564, 565, 566, 567, 568, 569, 570, 571, 572, 573, 574, 575, 576, 577, 578, 579, 580, 581, 582, 583, 584, 585, 586, 587, 588, 589, 590, 591, 592, 593, 594, 595, 596, 597, 598, 599, 600, 601, 602, 603, 604, 605, 606, 607, 608, 609, 610, 611, 612, 613, 614, 615, 616, 617, 618, 619, 620, 621, 622, 623, 624, 625, 626, 627, 628, 629, 630, 631, 632, 633, 634, 635, 636, 637, 638, 639, 640, 641, 642, 643, 644, 645, 646, 647, 648, 649, 650, 651, 652, 653, 654, 655, 656, 657, 658, 659, 660, 661, 662, 663, 664, 665, 666, 667, 668, 669, 670, 671, 672, 673, 674, 675, 676, 677, 678, 679, 680, 681, 682, 683, 684, 685, 686, 687, 688, 689, 690, 691, 692, 693, 694, 695, 696, 697, 698, 699, 700, 701, 702, 703, 704, 705, 706, 707, 708, 709, 710, 711, 712, 713, 714, 715, 716, 717, 718, 719, 720, 721, 722, 723, 724, 725, 726, 727, 728, 729, 730, 731, 732, 733, 734, 735, 736, 737, 738, 739, 740, 741, 742, 743, 744, 745, 746, 747, 748, 749, 750, 751, 752, 753, 754, 755, 756, 757, 758, 759, 760, 761, 762, 763, 764, 765, 766, 767, 768, 769, 770, 771, 772, 773, 774, 775, 776, 777, 778, 779, 780, 781, 782, 783, 784, 785, 786, 787, 788, 789, 790, 791, 792, 793, 794, 795, 796, 797, 798, 799, 800, 801, 802, 803, 804, 805, 806, 807, 808, 809, 810, 811, 812, 813, 814, 815, 816, 817, 818, 819, 820, 821, 822, 823, 824, 825, 826, 827, 828, 829, 830, 831, 832, 833, 834, 835, 836, 837, 838, 839, 840, 841, 842, 843, 844, 845, 846, 847, 848, 849, 850, 851, 852, 853, 854, 855, 856, 857, 858, 859, 860, 861, 862, 863, 864, 865, 866, 867, 868, 869, 870, 871, 872, 873, 874, 875, 876, 877, 878, 879, 880, 881, 882, 883, 884, 885, 886, 887, 888, 889, 890, 891, 892, 893, 894, 895, 896, 897, 898, 899, 900, 901, 902, 903, 904, 905, 906, 907, 908, 909, 910, 911, 912, 913, 914, 915, 916, 917, 918, 919, 920, 921, 922, 923, 924, 925, 926, 927, 928, 929, 930, 931, 932, 933, 934, 935, 936, 937, 938, 939, 940, 941, 942, 943, 944, 945, 946, 947, 948, 949, 950, 951, 952, 953, 954, 955, 956, 957, 958, 959, 960, 961, 962, 963, 964, 965, 966, 967, 968, 969, 970, 971, 972, 973, 974, 975, 976, 977, 978, 979, 980, 981, 982, 983, 984, 985, 986, 987, 988, 989, 990, 991, 992, 993, 994, 995, 996, 997, 998, 999, 1000, 1001, 1002, 1003, 1004, 1005, 1006, 1007, 1008, 1009, 1010, 1011, 1012, 1013, 1014, 1015, 1016, 1017, 1018, 1019, 1020, 1021, 1022, 1023, 1024, 1025, 1026, 1027, 1028, 1029, 1030, 1031, 1032, 1033, 1034, 1035, 1036, 1037, 1038, 1039, 1040, 1041, 1042, 1043, 1044, 1045, 1046, 1047, 1048, 1049, 1050, 1051, 1052, 1053, 1054, 1055, 1056, 1057, 1058, 1059, 1060, 1061, 1062, 1063, 1064, 1065],
      "AcquisitionTime": ["184753.200000", "184753.660000", "184754.120000", "184754.580000", "184755.040000", "184755.500000", "184755.960000", "184756.420000", "184756.880000", "184757.340000", "184757.800000", "184758.260000", "184758.720000", "184759.180000", "184759.640000", "184800.100000", "184800.560000", "184801.020000", "184801.480000", "184801.940000", "184802.400000", "184802.860000", "184803.320000", "184803.780000", "184804.240000", "184804.700000", "184805.160000", "184805.620000", "184806.080000", "184806.540000", "184807.000000", "184807.460000", "184807.920000", "184808.380000", "184808.840000", "184809.300000", "184809.760000", "184810.220000", "184810.680000", "184811.140000", "184811.600000", "184812.060000", "184812.520000", "184812.980000", "184813.440000", "184813.900000", "184814.360000", "184814.820000", "184815.280000", "184815.740000", "184816.200000", "184816.660000", "184817.120000", "184817.580000", "184818.040000", "184818.500000", "184818.960000", "184819.420000", "184819.880000", "184820.340000", "184820.800000", "184821.260000", "184821.720000", "184822.180000", "184822.640000", "184823.100000", "184823.560000", "184824.020000", "184824.480000", "184824.940000", "184825.400000", "184825.860000", "184826.320000", "184826.780000", "184827.240000", "184827.700000", "184828.160000", "184828.620000", "184829.080000", "184829.540000", "184830.000000", "184830.460000", "184830.920000", "184831.380000", "184831.840000", "184832.300000", "184832.760000", "184833.220000", "184833.680000", "184834.140000", "184834.600000", "184835.060000", "184835.520000", "184835.980000", "184836.440000", "184836.900000", "184837.360000", "184837.820000", "184838.280000", "184838.740000", "184839.200000", "184839.660000", "184840.120000", "184840.580000", "184841.040000", "184841.500000", "184841.960000", "184842.420000", "184842.880000", "184843.340000", "184843.800000", "184844.260000", "184844.720000", "184845.180000", "184845.640000", "184846.100000", "184846.560000", "184847.020000", "184847.480000", "184847.940000", "184848.400000", "184848.860000", "184849.320000", "184849.780000", "184850.240000", "184850.700000", "184851.160000", "184851.620000", "184852.080000", "184852.540000", "184853.000000", "184853.460000", "184853.920000", "184854.380000", "184854.840000", "184855.300000", "184855.760000", "184856.220000", "184856.680000", "184857.140000", "184857.600000", "184858.060000", "184858.520000", "184858.980000", "184859.440000", "184859.900000", "184900.360000", "184900.820000", "184901.280000", "184901.740000", "184902.200000", "184902.660000", "184903.120000", "184903.580000", "184904.040000", "184904.500000", "184904.960000", "184905.420000", "184905.880000", "184906.340000", "184906.800000", "184907.260000", "184907.720000", "184908.180000", "184908.640000", "184909.100000", "184909.560000", "184910.020000", "184910.480000", "184910.940000", "184911.400000", "184911.860000", "184912.320000", "184912.780000", "184913.240000", "184913.700000", "184914.160000", "184914.620000", "184915.080000", "184915.540000", "184916.000000", "184916.460000", "184916.920000", "184917.380000", "184917.840000", "184918.300000", "184918.760000", "184919.220000", "184919.680000", "184920.140000", "184920.600000", "184921.060000", "184921.520000", "184921.980000", "184922.440000", "184922.900000", "184923.360000", "184923.820000", "184924.280000", "184924.740000", "184925.200000", "184925.660000", "184926.120000", "184926.580000", "184927.040000", "184927.500000", "184927.960000", "184928.420000", "184928.880000", "184929.340000", "184929.800000", "184930.260000", "184930.720000", "184931.180000", "184931.640000", "184932.100000", "184932.560000", "184933.020000", "184933.480000", "184933.940000", "184934.400000", "184934.860000", "184935.320000", "184935.780000", "184936.240000", "184936.700000", "184937.160000", "184937.620000", "184938.080000", "184938.540000", "184939.000000", "184939.460000", "184939.920000", "184940.380000", "184940.840000", "184941.300000", "184941.760000", "184942.220000", "184942.680000", "184943.140000", "184943.600000", "184944.060000", "184944.520000", "184944.980000", "184945.440000", "184945.900000", "184946.360000", "184946.820000", "184947.280000", "184947.740000", "184948.200000", "184948.660000", "184949.120000", "184949.580000", "184950.040000", "184950.500000", "184950.960000", "184951.420000", "184951.880000", "184952.340000", "184952.800000", "184953.260000", "184953.720000", "184954.180000", "184954.640000", "184955.100000", "184955.560000", "184956.020000", "184956.480000", "184956.940000", "184957.400000", "184957.860000", "184958.320000", "184958.780000", "184959.240000", "184959.700000", "185000.160000", "185000.620000", "185001.080000", "185001.540000", "185002.000000", "185002.460000", "185002.920000", "185003.380000", "185003.840000", "185004.300000", "185004.760000", "185005.220000", "185005.680000", "185006.140000", "185006.600000", "185007.060000", "185007.520000", "185007.980000", "185008.440000", "185008.900000", "185009.360000", "185009.820000", "185010.280000", "185010.740000", "185011.200000", "185011.660000", "185012.120000", "185012.580000", "185013.040000", "185013.500000", "185013.960000", "185014.420000", "185014.880000", "185015.340000", "185015.800000", "185016.260000", "185016.720000", "185017.180000", "185017.640000", "185018.100000", "185018.560000", "185019.020000", "185019.480000", "185019.940000", "185020.400000", "185020.860000", "185021.320000", "185021.780000", "185022.240000", "185022.700000", "185023.160000", "185023.620000", "185024.080000", "185024.540000", "185025.000000", "185025.460000", "185025.920000", "185026.380000", "185026.840000", "185027.300000", "185027.760000", "185028.220000", "185028.680000", "185029.140000", "185029.600000", "185030.060000", "185030.520000", "185030.980000", "185031.440000", "185031.900000", "185032.360000", "185032.820000", "185033.280000", "185033.740000", "185034.200000", "185034.660000", "185035.120000", "185035.580000", "185036.040000", "185036.500000", "185036.960000", "185037.420000", "185037.880000", "185038.340000", "185038.800000", "185039.260000", "185039.720000", "185040.180000", "185040.640000", "185041.100000", "185041.560000", "185042.020000", "185042.480000", "185042.940000", "185043.400000", "185043.860000", "185044.320000", "185044.780000", "185045.240000", "185045.700000", "185046.160000", "185046.620000", "185047.080000", "185047.540000", "185048.000000", "185048.460000", "185048.920000", "185049.380000", "185049.840000", "185050.300000", "185050.760000", "185051.220000", "185051.680000", "185052.140000", "185052.600000", "185053.060000", "185053.520000", "185053.980000", "185054.440000", "185054.900000", "185055.360000", "185055.820000", "185056.280000", "185056.740000", "185057.200000", "185057.660000", "185058.120000", "185058.580000", "185059.040000", "185059.500000", "185059.960000", "185100.420000", "185100.880000", "185101.340000", "185101.800000", "185102.260000", "185102.720000", "185103.180000", "185103.640000", "185104.100000", "185104.560000", "185105.020000", "185105.480000", "185105.940000", "185106.400000", "185106.860000", "185107.320000", "185107.780000", "185108.240000", "185108.700000", "185109.160000", "185109.620000", "185110.080000", "185110.540000", "185111.000000", "185111.460000", "185111.920000", "185112.380000", "185112.840000", "185113.300000", "185113.760000", "185114.220000", "185114.680000", "185115.140000", "185115.600000", "185116.060000", "185116.520000", "185116.980000", "185117.440000", "185117.900000", "185118.360000", "185118.820000", "185119.280000", "185119.740000", "185120.200000", "185120.660000", "185121.120000", "185121.580000", "185122.040000", "185122.500000", "185122.960000", "185123.420000", "185123.880000", "185124.340000", "185124.800000", "185125.260000", "185125.720000", "185126.180000", "185126.640000", "185127.100000", "185127.560000", "185128.020000", "185128.480000", "185128.940000", "185129.400000", "185129.860000", "185130.320000", "185130.780000", "185131.240000", "185131.700000", "185132.160000", "185132.620000", "185133.080000", "185133.540000", "185134.000000", "185134.460000", "185134.920000", "185135.380000", "185135.840000", "185136.300000", "185136.760000", "185137.220000", "185137.680000", "185138.140000", "185138.600000", "185139.060000", "185139.520000", "185139.980000", "185140.440000", "185140.900000", "185141.360000", "185141.820000", "185142.280000", "185142.740000", "185143.200000", "185143.660000", "185144.120000", "185144.580000", "185145.040000", "185145.500000", "185145.960000", "185146.420000", "185146.880000", "185147.340000", "185147.800000", "185148.260000", "185148.720000", "185149.180000", "185149.640000", "185150.100000", "185150.560000", "185151.020000", "185151.480000", "185151.940000", "185152.400000", "185152.860000", "185153.320000", "185153.780000", "185154.240000", "185154.700000", "185155.160000", "185155.620000", "185156.080000", "185156.540000", "185157.000000", "185157.460000", "185157.920000", "185158.380000", "185158.840000", "185159.300000", "185159.760000", "185200.220000", "185200.680000", "185201.140000", "185201.600000", "185202.060000", "185202.520000", "185202.980000", "185203.440000", "185203.900000", "185204.360000", "185204.820000", "185205.280000", "185205.740000", "185206.200000", "185206.660000", "185207.120000", "185207.580000", "185208.040000", "185208.500000", "185208.960000", "185209.420000", "185209.880000", "185210.340000", "185210.800000", "185211.260000", "185211.720000", "185212.180000", "185212.640000", "185213.100000", "185213.560000", "185214.020000", "185214.480000", "185214.940000", "185215.400000", "185215.860000", "185216.320000", "185216.780000", "185217.240000", "185217.700000", "185218.160000", "185218.620000", "185219.080000", "185219.540000", "185220.000000", "185220.460000", "185220.920000", "185221.380000", "185221.840000", "185222.300000", "185222.760000", "185223.220000", "185223.680000", "185224.140000", "185224.600000", "185225.060000", "185225.520000", "185225.980000", "185226.440000", "185226.900000", "185227.360000", "185227.820000", "185228.280000", "185228.740000", "185229.200000", "185229.660000", "185230.120000", "185230.580000", "185231.040000", "185231.500000", "185231.960000", "185232.420000", "185232.880000", "185233.340000", "185233.800000", "185234.260000", "185234.720000", "185235.180000", "185235.640000", "185236.100000", "185236.560000", "185237.020000", "185237.480000", "185237.940000", "185238.400000", "185238.860000", "185239.320000", "185239.780000", "185240.240000", "185240.700000", "185241.160000", "185241.620000", "185242.080000", "185242.540000", "185243.000000", "185243.460000", "185243.920000", "185244.380000", "185244.840000", "185245.300000", "185245.760000", "185246.220000", "185246.680000", "185247.140000", "185247.600000", "185248.060000", "185248.520000", "185248.980000", "185249.440000", "185249.900000", "185250.360000", "185250.820000", "185251.280000", "185251.740000", "185252.200000", "185252.660000", "185253.120000", "185253.580000", "185254.040000", "185254.500000", "185254.960000", "185255.420000", "185255.880000", "185256.340000", "185256.800000", "185257.260000", "185257.720000", "185258.180000", "185258.640000", "185259.100000", "185259.560000", "185300.020000", "185300.480000", "185300.940000", "185301.400000", "185301.860000", "185302.320000", "185302.780000", "185303.240000", "185303.700000", "185304.160000", "185304.620000", "185305.080000", "185305.540000", "185306.000000", "185306.460000", "185306.920000", "185307.380000", "185307.840000", "185308.300000", "185308.760000", "185309.220000", "185309.680000", "185310.140000", "185310.600000", "185311.060000", "185311.520000", "185311.980000", "185312.440000", "185312.900000", "185313.360000", "185313.820000", "185314.280000", "185314.740000", "185315.200000", "185315.660000", "185316.120000", "185316.580000", "185317.040000", "185317.500000", "185317.960000", "185318.420000", "185318.880000", "185319.340000", "185319.800000", "185320.260000", "185320.720000", "185321.180000", "185321.640000", "185322.100000", "185322.560000", "185323.020000", "185323.480000", "185323.940000", "185324.400000", "185324.860000", "185325.320000", "185325.780000", "185326.240000", "185326.700000", "185327.160000", "185327.620000", "185328.080000", "185328.540000", "185329.000000", "185329.460000", "185329.920000", "185330.380000", "185330.840000", "185331.300000", "185331.760000", "185332.220000", "185332.680000", "185333.140000", "185333.600000", "185334.060000", "185334.520000", "185334.980000", "185335.440000", "185335.900000", "185336.360000", "185336.820000", "185337.280000", "185337.740000", "185338.200000", "185338.660000", "185339.120000", "185339.580000", "185340.040000", "185340.500000", "185340.960000", "185341.420000", "185341.880000", "185342.340000", "185342.800000", "185343.260000", "185343.720000", "185344.180000", "185344.640000", "185345.100000", "185345.560000", "185346.020000", "185346.480000", "185346.940000", "185347.400000", "185347.860000", "185348.320000", "185348.780000", "185349.240000", "185349.700000", "185350.160000", "185350.620000", "185351.080000", "185351.540000", "185352.000000", "185352.460000", "185352.920000", "185353.380000", "185353.840000", "185354.300000", "185354.760000", "185355.220000", "185355.680000", "185356.140000", "185356.600000", "185357.060000", "185357.520000", "185357.980000", "185358.440000", "185358.900000", "185359.360000", "185359.820000", "185400.280000", "185400.740000", "185401.200000", "185401.660000", "185402.120000", "185402.580000", "185403.040000", "185403.500000", "185403.960000", "185404.420000", "185404.880000", "185405.340000", "185405.800000", "185406.260000", "185406.720000", "185407.180000", "185407.640000", "185408.100000", "185408.560000", "185409.020000", "185409.480000", "185409.940000", "185410.400000", "185410.860000", "185411.320000", "185411.780000", "185412.240000", "185412.700000", "185413.160000", "185413.620000", "185414.080000", "185414.540000", "185415.000000", "185415.460000", "185415.920000", "185416.380000", "185416.840000", "185417.300000", "185417.760000", "185418.220000", "185418.680000", "185419.140000", "185419.600000", "185420.060000", "185420.520000", "185420.980000", "185421.440000", "185421.900000", "185422.360000", "185422.820000", "185423.280000", "185423.740000", "185424.200000", "185424.660000", "185425.120000", "185425.580000", "185426.040000", "185426.500000", "185426.960000", "185427.420000", "185427.880000", "185428.340000", "185428.800000", "185429.260000", "185429.720000", "185430.180000", "185430.640000", "185431.100000", "185431.560000", "185432.020000", "185432.480000", "185432.940000", "185433.400000", "185433.860000", "185434.320000", "185434.780000", "185435.240000", "185435.700000", "185436.160000", "185436.620000", "185437.080000", "185437.540000", "185438.000000", "185438.460000", "185438.920000", "185439.380000", "185439.840000", "185440.300000", "185440.760000", "185441.220000", "185441.680000", "185442.140000", "185442.600000", "185443.060000", "185443.520000", "185443.980000", "185444.440000", "185444.900000", "185445.360000", "185445.820000", "185446.280000", "185446.740000", "185447.200000", "185447.660000", "185448.120000", "185448.580000", "185449.040000", "185449.500000", "185449.960000", "185450.420000", "185450.880000", "185451.340000", "185451.800000", "185452.260000", "185452.720000", "185453.180000", "185453.640000", "185454.100000", "185454.560000", "185455.020000", "185455.480000", "185455.940000", "185456.400000", "185456.860000", "185457.320000", "185457.780000", "185458.240000", "185458.700000", "185459.160000", "185459.620000", "185500.080000", "185500.540000", "185501.000000", "185501.460000", "185501.920000", "185502.380000", "185502.840000", "185503.300000", "185503.760000", "185504.220000", "185504.680000", "185505.140000", "185505.600000", "185506.060000", "185506.520000", "185506.980000", "185507.440000", "185507.900000", "185508.360000", "185508.820000", "185509.280000", "185509.740000", "185510.200000", "185510.660000", "185511.120000", "185511.580000", "185512.040000", "185512.500000", "185512.960000", "185513.420000", "185513.880000", "185514.340000", "185514.800000", "185515.260000", "185515.720000", "185516.180000", "185516.640000", "185517.100000", "185517.560000", "185518.020000", "185518.480000", "185518.940000", "185519.400000", "185519.860000", "185520.320000", "185520.780000", "185521.240000", "185521.700000", "185522.160000", "185522.620000", "185523.080000", "185523.540000", "185524.000000", "185524.460000", "185524.920000", "185525.380000", "185525.840000", "185526.300000", "185526.760000", "185527.220000", "185527.680000", "185528.140000", "185528.600000", "185529.060000", "185529.520000", "185529.980000", "185530.440000", "185530.900000", "185531.360000", "185531.820000", "185532.280000", "185532.740000", "185533.200000", "185533.660000", "185534.120000", "185534.580000", "185535.040000", "185535.500000", "185535.960000", "185536.420000", "185536.880000", "185537.340000", "185537.800000", "185538.260000", "185538.720000", "185539.180000", "185539.640000", "185540.100000", "185540.560000", "185541.020000", "185541.480000", "185541.940000", "185542.400000", "185542.860000", "185543.320000", "185543.780000", "185544.240000", "185544.700000", "185545.160000", "185545.620000", "185546.080000", "185546.540000", "185547.000000", "185547.460000", "185547.920000", "185548.380000", "185548.840000", "185549.300000", "185549.760000", "185550.220000", "185550.680000", "185551.140000", "185551.600000", "185552.060000", "185552.520000", "185552.980000", "185553.440000", "185553.900000", "185554.360000", "185554.820000", "185555.280000", "185555.740000", "185556.200000", "185556.660000", "185557.120000", "185557.580000", "185558.040000", "185558.500000", "185558.960000", "185559.420000", "185559.880000", "185600.340000", "185600.800000", "185601.260000", "185601.720000", "185602.180000", "185602.640000"],
