{
  "AcquisitionMatrixPE": 82,
  "AcquisitionNumber": 1,
  "AcquisitionTime": "19:07:1.800000",
  "BandwidthPerPixelPhaseEncode": 24.888,
  "BaseResolution": 82,
  "BodyPartExamined": "BRAIN",
  "ConsistencyInfo": "N4_VE11E_LATEST_20181129",
  "ConversionSoftware": "dcm2niix",
  "ConversionSoftwareVersion": "v1.0.20201102",
  "DerivedVendorReportedEchoSpacing": 0.00049,
  "DeviceSerialNumber": "66112",
  "DwellTime": 2e-06,
  "EchoTime": 0.0272,
  "EchoTrainLength": 82,
  "EffectiveEchoSpacing": 0.00049,
  "FlipAngle": 44,
  "ImageComments": "Unaliased MB8/PE3",
  "ImageOrientationPatientDICOM": [0.998828, 0.027643, 0.0397363, -0.02947, 0.9985, 0.0461526],
  "ImageType": [
    "ORIGINAL",
    "PRIMARY",
    "M",
    "MB",
    "ND",
    "NORM",
    "MOSAIC"
],
  "ImagingFrequency": 123.259,
  "InPlanePhaseEncodingDirectionDICOM": "COL",
  "InstitutionAddress": "Maynard 3,Hanover,NH,US,03755",
  "InstitutionName": "Dartmouth College - PBS",
  "InstitutionalDepartmentName": "Department",
  "MRAcquisitionType": "2D",
  "MagneticFieldStrength": 3,
  "Manufacturer": "Siemens",
  "ManufacturersModelName": "Prisma",
  "Modality": "MR",
  "MultibandAccelerationFactor": 8,
  "PartialFourier": 1,
  "PatientPosition": "HFS",
  "PercentPhaseFOV": 100,
  "PercentSampling": 100,
  "PhaseEncodingDirection": "j-",
  "PhaseEncodingSteps": 82,
  "PhaseResolution": 1,
  "PixelBandwidth": 3050,
  "ProcedureStepDescription": "Wager_Wager^1076_spacetop",
  "ProtocolName": "func_run-02_task-alignvideo_acq-ap-mb8",
  "PulseSequenceDetails": "%CustomerSeq%\\cmrr_mbep2d_bold",
  "ReceiveCoilActiveElements": "HEA;HEP",
  "ReceiveCoilName": "Head_32",
  "ReconMatrixPE": 82,
  "RepetitionTime": 0.46,
  "SAR": 0.108098,
  "ScanOptions": "FS",
  "ScanningSequence": "EP",
  "SequenceName": "epfid2d1_82",
  "SequenceVariant": "SK\\SS",
  "SeriesDescription": "func_run-02_task-alignvideo_acq-ap-mb8",
  "SeriesNumber": 32,
  "ShimSetting": [4255, -7771, -7255, 234, -21, -62, -175, 12],
  "SliceThickness": 2.7,
  "SliceTiming": [0, 0.25, 0.0625, 0.3125, 0.125, 0.3775, 0.1875, 0, 0.25, 0.0625, 0.3125, 0.125, 0.3775, 0.1875, 0, 0.25, 0.0625, 0.3125, 0.125, 0.3775, 0.1875, 0, 0.25, 0.0625, 0.3125, 0.125, 0.3775, 0.1875, 0, 0.25, 0.0625, 0.3125, 0.125, 0.3775, 0.1875, 0, 0.25, 0.0625, 0.3125, 0.125, 0.3775, 0.1875, 0, 0.25, 0.0625, 0.3125, 0.125, 0.3775, 0.1875, 0, 0.25, 0.0625, 0.3125, 0.125, 0.3775, 0.1875],
  "SoftwareVersions": "syngo MR E11",
  "SpacingBetweenSlices": 2.7,
  "StationName": "AWP66112",
  "TaskName": "alignvideo",
  "TotalReadoutTime": 0.03969,
  "TxRefAmp": 256.653,
  "WipMemBlock": "5508b80f-e48e-42fc-9652-b2c7195a1e7a||Sequence: R016 ve11e/master r/434b28f1; Aug  7 2019 18:53:46 by eja",
  "dcmmeta_affine": [
    [-2.679781913757324, -0.07906591147184372, 0.10368246585130692, 111.23351287841797],
    [-0.07416418939828873, 2.678901433944702, 0.12762761116027832, -89.1068344116211],
    [0.10660967230796814, -0.12382393330335617, 2.694988250732422, -87.30452728271484],
    [0.0, 0.0, 0.0, 1.0]
],
  "dcmmeta_reorient_transform": [
    [0.0, -1.0, 0.0, 81.0],
    [1.0, 0.0, 0.0, 0.0],
    [0.0, 0.0, 1.0, 0.0],
    [0.0, 0.0, 0.0, 1.0]
],
  "dcmmeta_shape": [82, 82, 56, 926],
  "dcmmeta_slice_dim": 2,
  "dcmmeta_version": 0.6,
  "global": {
    "const": {
      "AccessionNumber": "A004325",
      "AcquisitionMatrix": [82, 0, 0, 82],
      "AngioFlag": "N",
      "BitsAllocated": 16,
      "BitsStored": 16,
      "BodyPartExamined": "BRAIN",
      "Columns": 656,
      "EchoNumbers": 1,
      "EchoTime": 27.2,
      "EchoTrainLength": 82,
      "FlipAngle": 44.0,
      "HighBit": 15,
      "ImageOrientationPatient": [0.99882775677514, 0.02764301644367, 0.03973633019583, -0.0294700202555, 0.99849960409504, 0.04615255711434],
      "ImagePositionPatient": [-851.23464660956, -918.01402007318, -163.46871250313],
      "ImageType": [
        "ORIGINAL",
        "PRIMARY",
        "M",
        "MB",
        "ND",
        "NORM",
        "MOSAIC"
],
      "ImagedNucleus": "1H",
      "ImagingFrequency": 123.259147,
      "InPlanePhaseEncodingDirection": "COL",
      "MRAcquisitionType": "2D",
      "MagneticFieldStrength": 3.0,
      "Manufacturer": "SIEMENS",
      "ManufacturerModelName": "Prisma",
      "Modality": "MR",
      "NumberOfAverages": 1.0,
      "NumberOfPhaseEncodingSteps": 82,
      "PercentPhaseFieldOfView": 100.0,
      "PercentSampling": 100.0,
      "PerformedProcedureStepStartTime": "173831.830000",
      "PhotometricInterpretation": "MONOCHROME2",
      "PixelBandwidth": 3050.0,
      "PixelRepresentation": 0,
      "PixelSpacing": [2.6829268932343, 2.6829268932343],
      "ProtocolName": "func_run-02_task-alignvideo_acq-ap-mb8",
      "RepetitionTime": 460.0,
      "Rows": 656,
      "SAR": 0.10809807686152,
      "SamplesPerPixel": 1,
      "ScanOptions": "FS",
      "ScanningSequence": "EP",
      "SequenceName": "epfid2d1_82",
      "SequenceVariant": [
        "SK",
        "SS"
],
      "SeriesDescription": "func_run-02_task-alignvideo_acq-ap-mb8",
      "SeriesNumber": 32,
      "SeriesTime": "190718.151000",
      "SliceLocation": -87.083036357384,
      "SliceThickness": 2.7000000476837,
      "SmallestImagePixelValue": 0,
      "SoftwareVersions": "syngo MR E11",
      "SpacingBetweenSlices": 2.7000000294145,
      "SpecificCharacterSet": "ISO_IR 100",
      "StudyID": "1",
      "StudyTime": "173831.778000",
      "TransmitCoilName": "Body",
      "VariableFlipAngleFlag": "N",
      "WindowCenterWidthExplanation": "Algo1"
    },
    "slices": {}
  },
  "time": {
    "samples": {
      "AcquisitionNumber": [1, 2, 3, 4, 5, 6, 7, 8, 9, 10, 11, 12, 13, 14, 15, 16, 17, 18, 19, 20, 21, 22, 23, 24, 25, 26, 27, 28, 29, 30, 31, 32, 33, 34, 35, 36, 37, 38, 39, 40, 41, 42, 43, 44, 45, 46, 47, 48, 49, 50, 51, 52, 53, 54, 55, 56, 57, 58, 59, 60, 61, 62, 63, 64, 65, 66, 67, 68, 69, 70, 71, 72, 73, 74, 75, 76, 77, 78, 79, 80, 81, 82, 83, 84, 85, 86, 87, 88, 89, 90, 91, 92, 93, 94, 95, 96, 97, 98, 99, 100, 101, 102, 103, 104, 105, 106, 107, 108, 109, 110, 111, 112, 113, 114, 115, 116, 117, 118, 119, 120, 121, 122, 123, 124, 125, 126, 127, 128, 129, 130, 131, 132, 133, 134, 135, 136, 137, 138, 139, 140, 141, 142, 143, 144, 145, 146, 147, 148, 149, 150, 151, 152, 153, 154, 155, 156, 157, 158, 159, 160, 161, 162, 163, 164, 165, 166, 167, 168, 169, 170, 171, 172, 173, 174, 175, 176, 177, 178, 179, 180, 181, 182, 183, 184, 185, 186, 187, 188, 189, 190, 191, 192, 193, 194, 195, 196, 197, 198, 199, 200, 201, 202, 203, 204, 205, 206, 207, 208, 209, 210, 211, 212, 213, 214, 215, 216, 217, 218, 219, 220, 221, 222, 223, 224, 225, 226, 227, 228, 229, 230, 231, 232, 233, 234, 235, 236, 237, 238, 239, 240, 241, 242, 243, 244, 245, 246, 247, 248, 249, 250, 251, 252, 253, 254, 255, 256, 257, 258, 259, 260, 261, 262, 263, 264, 265, 266, 267, 268, 269, 270, 271, 272, 273, 274, 275, 276, 277, 278, 279, 280, 281, 282, 283, 284, 285, 286, 287, 288, 289, 290, 291, 292, 293, 294, 295, 296, 297, 298, 299, 300, 301, 302, 303, 304, 305, 306, 307, 308, 309, 310, 311, 312, 313, 314, 315, 316, 317, 318, 319, 320, 321, 322, 323, 324, 325, 326, 327, 328, 329, 330, 331, 332, 333, 334, 335, 336, 337, 338, 339, 340, 341, 342, 343, 344, 345, 346, 347, 348, 349, 350, 351, 352, 353, 354, 355, 356, 357, 358, 359, 360, 361, 362, 363, 364, 365, 366, 367, 368, 369, 370, 371, 372, 373, 374, 375, 376, 377, 378, 379, 380, 381, 382, 383, 384, 385, 386, 387, 388, 389, 390, 391, 392, 393, 394, 395, 396, 397, 398, 399, 400, 401, 402, 403, 404, 405, 406, 407, 408, 409, 410, 411, 412, 413, 414, 415, 416, 417, 418, 419, 420, 421, 422, 423, 424, 425, 426, 427, 428, 429, 430, 431, 432, 433, 434, 435, 436, 437, 438, 439, 440, 441, 442, 443, 444, 445, 446, 447, 448, 449, 450, 451, 452, 453, 454, 455, 456, 457, 458, 459, 460, 461, 462, 463, 464, 465, 466, 467, 468, 469, 470, 471, 472, 473, 474, 475, 476, 477, 478, 479, 480, 481, 482, 483, 484, 485, 486, 487, 488, 489, 490, 491, 492, 493, 494, 495, 496, 497, 498, 499, 500, 501, 502, 503, 504, 505, 506, 507, 508, 509, 510, 511, 512, 513, 514, 515, 516, 517, 518, 519, 520, 521, 522, 523, 524, 525, 526, 527, 528, 529, 530, 531, 532, 533, 534, 535, 536, 537, 538, 539, 540, 541, 542, 543, 544, 545, 546, 547, 548, 549, 550, 551, 552, 553, 554, 555, 556, 557, 558, 559, 560, 561, 562, 563, 564, 565, 566, 567, 568, 569, 570, 571, 572, 573, 574, 575, 576, 577, 578, 579, 580, 581, 582, 583, 584, 585, 586, 587, 588, 589, 590, 591, 592, 593, 594, 595, 596, 597, 598, 599, 600, 601, 602, 603, 604, 605, 606, 607, 608, 609, 610, 611, 612, 613, 614, 615, 616, 617, 618, 619, 620, 621, 622, 623, 624, 625, 626, 627, 628, 629, 630, 631, 632, 633, 634, 635, 636, 637, 638, 639, 640, 641, 642, 643, 644, 645, 646, 647, 648, 649, 650, 651, 652, 653, 654, 655, 656, 657, 658, 659, 660, 661, 662, 663, 664, 665, 666, 667, 668, 669, 670, 671, 672, 673, 674, 675, 676, 677, 678, 679, 680, 681, 682, 683, 684, 685, 686, 687, 688, 689, 690, 691, 692, 693, 694, 695, 696, 697, 698, 699, 700, 701, 702, 703, 704, 705, 706, 707, 708, 709, 710, 711, 712, 713, 714, 715, 716, 717, 718, 719, 720, 721, 722, 723, 724, 725, 726, 727, 728, 729, 730, 731, 732, 733, 734, 735, 736, 737, 738, 739, 740, 741, 742, 743, 744, 745, 746, 747, 748, 749, 750, 751, 752, 753, 754, 755, 756, 757, 758, 759, 760, 761, 762, 763, 764, 765, 766, 767, 768, 769, 770, 771, 772, 773, 774, 775, 776, 777, 778, 779, 780, 781, 782, 783, 784, 785, 786, 787, 788, 789, 790, 791, 792, 793, 794, 795, 796, 797, 798, 799, 800, 801, 802, 803, 804, 805, 806, 807, 808, 809, 810, 811, 812, 813, 814, 815, 816, 817, 818, 819, 820, 821, 822, 823, 824, 825, 826, 827, 828, 829, 830, 831, 832, 833, 834, 835, 836, 837, 838, 839, 840, 841, 842, 843, 844, 845, 846, 847, 848, 849, 850, 851, 852, 853, 854, 855, 856, 857, 858, 859, 860, 861, 862, 863, 864, 865, 866, 867, 868, 869, 870, 871, 872, 873, 874, 875, 876, 877, 878, 879, 880, 881, 882, 883, 884, 885, 886, 887, 888, 889, 890, 891, 892, 893, 894, 895, 896, 897, 898, 899, 900, 901, 902, 903, 904, 905, 906, 907, 908, 909, 910, 911, 912, 913, 914, 915, 916, 917, 918, 919, 920, 921, 922, 923, 924, 925, 926],
      "AcquisitionTime": ["190701.800000", "190702.260000", "190702.720000", "190703.180000", "190703.640000", "190704.100000", "190704.560000", "190705.020000", "190705.480000", "190705.940000", "190706.400000", "190706.860000", "190707.320000", "190707.780000", "190708.240000", "190708.700000", "190709.160000", "190709.620000", "190710.080000", "190710.540000", "190711.000000", "190711.460000", "190711.920000", "190712.380000", "190712.840000", "190713.300000", "190713.760000", "190714.220000", "190714.680000", "190715.140000", "190715.600000", "190716.060000", "190716.520000", "190716.980000", "190717.440000", "190717.900000", "190718.360000", "190718.820000", "190719.280000", "190719.740000", "190720.200000", "190720.660000", "190721.120000", "190721.580000", "190722.040000", "190722.500000", "190722.960000", "190723.420000", "190723.880000", "190724.340000", "190724.800000", "190725.260000", "190725.720000", "190726.180000", "190726.640000", "190727.100000", "190727.560000", "190728.020000", "190728.480000", "190728.940000", "190729.400000", "190729.860000", "190730.320000", "190730.780000", "190731.240000", "190731.700000", "190732.160000", "190732.620000", "190733.080000", "190733.540000", "190734.000000", "190734.460000", "190734.920000", "190735.380000", "190735.840000", "190736.300000", "190736.760000", "190737.220000", "190737.680000", "190738.140000", "190738.600000", "190739.060000", "190739.520000", "190739.980000", "190740.440000", "190740.900000", "190741.360000", "190741.820000", "190742.280000", "190742.740000", "190743.200000", "190743.660000", "190744.120000", "190744.580000", "190745.040000", "190745.500000", "190745.960000", "190746.420000", "190746.880000", "190747.340000", "190747.800000", "190748.260000", "190748.720000", "190749.180000", "190749.640000", "190750.100000", "190750.560000", "190751.020000", "190751.480000", "190751.940000", "190752.400000", "190752.860000", "190753.320000", "190753.780000", "190754.240000", "190754.700000", "190755.160000", "190755.620000", "190756.080000", "190756.540000", "190757.000000", "190757.460000", "190757.920000", "190758.380000", "190758.840000", "190759.300000", "190759.760000", "190800.220000", "190800.680000", "190801.140000", "190801.600000", "190802.060000", "190802.520000", "190802.980000", "190803.440000", "190803.900000", "190804.360000", "190804.820000", "190805.280000", "190805.740000", "190806.200000", "190806.660000", "190807.120000", "190807.580000", "190808.040000", "190808.500000", "190808.960000", "190809.420000", "190809.880000", "190810.340000", "190810.800000", "190811.260000", "190811.720000", "190812.180000", "190812.640000", "190813.100000", "190813.560000", "190814.020000", "190814.480000", "190814.940000", "190815.400000", "190815.860000", "190816.320000", "190816.780000", "190817.240000", "190817.700000", "190818.160000", "190818.620000", "190819.080000", "190819.540000", "190820.000000", "190820.460000", "190820.920000", "190821.380000", "190821.840000", "190822.300000", "190822.760000", "190823.220000", "190823.680000", "190824.140000", "190824.600000", "190825.060000", "190825.520000", "190825.980000", "190826.440000", "190826.900000", "190827.360000", "190827.820000", "190828.280000", "190828.740000", "190829.200000", "190829.660000", "190830.120000", "190830.580000", "190831.040000", "190831.500000", "190831.960000", "190832.420000", "190832.880000", "190833.340000", "190833.800000", "190834.260000", "190834.720000", "190835.180000", "190835.640000", "190836.100000", "190836.560000", "190837.020000", "190837.480000", "190837.940000", "190838.400000", "190838.860000", "190839.320000", "190839.780000", "190840.240000", "190840.700000", "190841.160000", "190841.620000", "190842.080000", "190842.540000", "190843.000000", "190843.460000", "190843.920000", "190844.380000", "190844.840000", "190845.300000", "190845.760000", "190846.220000", "190846.680000", "190847.140000", "190847.600000", "190848.060000", "190848.520000", "190848.980000", "190849.440000", "190849.900000", "190850.360000", "190850.820000", "190851.280000", "190851.740000", "190852.200000", "190852.660000", "190853.120000", "190853.580000", "190854.040000", "190854.500000", "190854.960000", "190855.420000", "190855.880000", "190856.340000", "190856.800000", "190857.260000", "190857.720000", "190858.180000", "190858.640000", "190859.100000", "190859.560000", "190900.020000", "190900.480000", "190900.940000", "190901.400000", "190901.860000", "190902.320000", "190902.780000", "190903.240000", "190903.700000", "190904.160000", "190904.620000", "190905.080000", "190905.540000", "190906.000000", "190906.460000", "190906.920000", "190907.380000", "190907.840000", "190908.300000", "190908.760000", "190909.220000", "190909.680000", "190910.140000", "190910.600000", "190911.060000", "190911.520000", "190911.980000", "190912.440000", "190912.900000", "190913.360000", "190913.820000", "190914.280000", "190914.740000", "190915.200000", "190915.660000", "190916.120000", "190916.580000", "190917.040000", "190917.500000", "190917.960000", "190918.420000", "190918.880000", "190919.340000", "190919.800000", "190920.260000", "190920.720000", "190921.180000", "190921.640000", "190922.100000", "190922.560000", "190923.020000", "190923.480000", "190923.940000", "190924.400000", "190924.860000", "190925.320000", "190925.780000", "190926.240000", "190926.700000", "190927.160000", "190927.620000", "190928.080000", "190928.540000", "190929.000000", "190929.460000", "190929.920000", "190930.380000", "190930.840000", "190931.300000", "190931.760000", "190932.220000", "190932.680000", "190933.140000", "190933.600000", "190934.060000", "190934.520000", "190934.980000", "190935.440000", "190935.900000", "190936.360000", "190936.820000", "190937.280000", "190937.740000", "190938.200000", "190938.660000", "190939.120000", "190939.580000", "190940.040000", "190940.500000", "190940.960000", "190941.420000", "190941.880000", "190942.340000", "190942.800000", "190943.260000", "190943.720000", "190944.180000", "190944.640000", "190945.100000", "190945.560000", "190946.020000", "190946.480000", "190946.940000", "190947.400000", "190947.860000", "190948.320000", "190948.780000", "190949.240000", "190949.700000", "190950.160000", "190950.620000", "190951.080000", "190951.540000", "190952.000000", "190952.460000", "190952.920000", "190953.380000", "190953.840000", "190954.300000", "190954.760000", "190955.220000", "190955.680000", "190956.140000", "190956.600000", "190957.060000", "190957.520000", "190957.980000", "190958.440000", "190958.900000", "190959.360000", "190959.820000", "191000.280000", "191000.740000", "191001.200000", "191001.660000", "191002.120000", "191002.580000", "191003.040000", "191003.500000", "191003.960000", "191004.420000", "191004.880000", "191005.340000", "191005.800000", "191006.260000", "191006.720000", "191007.180000", "191007.640000", "191008.100000", "191008.560000", "191009.020000", "191009.480000", "191009.940000", "191010.400000", "191010.860000", "191011.320000", "191011.780000", "191012.240000", "191012.700000", "191013.160000", "191013.620000", "191014.080000", "191014.540000", "191015.000000", "191015.460000", "191015.920000", "191016.380000", "191016.840000", "191017.300000", "191017.760000", "191018.220000", "191018.680000", "191019.140000", "191019.600000", "191020.060000", "191020.520000", "191020.980000", "191021.440000", "191021.900000", "191022.360000", "191022.820000", "191023.280000", "191023.740000", "191024.200000", "191024.660000", "191025.120000", "191025.580000", "191026.040000", "191026.500000", "191026.960000", "191027.420000", "191027.880000", "191028.340000", "191028.800000", "191029.260000", "191029.720000", "191030.180000", "191030.640000", "191031.100000", "191031.560000", "191032.020000", "191032.480000", "191032.940000", "191033.400000", "191033.860000", "191034.320000", "191034.780000", "191035.240000", "191035.700000", "191036.160000", "191036.620000", "191037.080000", "191037.540000", "191038.000000", "191038.460000", "191038.920000", "191039.380000", "191039.840000", "191040.300000", "191040.760000", "191041.220000", "191041.680000", "191042.140000", "191042.600000", "191043.060000", "191043.520000", "191043.980000", "191044.440000", "191044.900000", "191045.360000", "191045.820000", "191046.280000", "191046.740000", "191047.200000", "191047.660000", "191048.120000", "191048.580000", "191049.040000", "191049.500000", "191049.960000", "191050.420000", "191050.880000", "191051.340000", "191051.800000", "191052.260000", "191052.720000", "191053.180000", "191053.640000", "191054.100000", "191054.560000", "191055.020000", "191055.480000", "191055.940000", "191056.400000", "191056.860000", "191057.320000", "191057.780000", "191058.240000", "191058.700000", "191059.160000", "191059.620000", "191100.080000", "191100.540000", "191101.000000", "191101.460000", "191101.920000", "191102.380000", "191102.840000", "191103.300000", "191103.760000", "191104.220000", "191104.680000", "191105.140000", "191105.600000", "191106.060000", "191106.520000", "191106.980000", "191107.440000", "191107.900000", "191108.360000", "191108.820000", "191109.280000", "191109.740000", "191110.200000", "191110.660000", "191111.120000", "191111.580000", "191112.040000", "191112.500000", "191112.960000", "191113.420000", "191113.880000", "191114.340000", "191114.800000", "191115.260000", "191115.720000", "191116.180000", "191116.640000", "191117.100000", "191117.560000", "191118.020000", "191118.480000", "191118.940000", "191119.400000", "191119.860000", "191120.320000", "191120.780000", "191121.240000", "191121.700000", "191122.160000", "191122.620000", "191123.080000", "191123.540000", "191124.000000", "191124.460000", "191124.920000", "191125.380000", "191125.840000", "191126.300000", "191126.760000", "191127.220000", "191127.680000", "191128.140000", "191128.600000", "191129.060000", "191129.520000", "191129.980000", "191130.440000", "191130.900000", "191131.360000", "191131.820000", "191132.280000", "191132.740000", "191133.200000", "191133.660000", "191134.120000", "191134.580000", "191135.040000", "191135.500000", "191135.960000", "191136.420000", "191136.880000", "191137.340000", "191137.800000", "191138.260000", "191138.720000", "191139.180000", "191139.640000", "191140.100000", "191140.560000", "191141.020000", "191141.480000", "191141.940000", "191142.400000", "191142.860000", "191143.320000", "191143.780000", "191144.240000", "191144.700000", "191145.160000", "191145.620000", "191146.080000", "191146.540000", "191147.000000", "191147.460000", "191147.920000", "191148.380000", "191148.840000", "191149.300000", "191149.760000", "191150.220000", "191150.680000", "191151.140000", "191151.600000", "191152.060000", "191152.520000", "191152.980000", "191153.440000", "191153.900000", "191154.360000", "191154.820000", "191155.280000", "191155.740000", "191156.200000", "191156.660000", "191157.120000", "191157.580000", "191158.040000", "191158.500000", "191158.960000", "191159.420000", "191159.880000", "191200.340000", "191200.800000", "191201.260000", "191201.720000", "191202.180000", "191202.640000", "191203.100000", "191203.560000", "191204.020000", "191204.480000", "191204.940000", "191205.400000", "191205.860000", "191206.320000", "191206.780000", "191207.240000", "191207.700000", "191208.160000", "191208.620000", "191209.080000", "191209.540000", "191210.000000", "191210.460000", "191210.920000", "191211.380000", "191211.840000", "191212.300000", "191212.760000", "191213.220000", "191213.680000", "191214.140000", "191214.600000", "191215.060000", "191215.520000", "191215.980000", "191216.440000", "191216.900000", "191217.360000", "191217.820000", "191218.280000", "191218.740000", "191219.200000", "191219.660000", "191220.120000", "191220.580000", "191221.040000", "191221.500000", "191221.960000", "191222.420000", "191222.880000", "191223.340000", "191223.800000", "191224.260000", "191224.720000", "191225.180000", "191225.640000", "191226.100000", "191226.560000", "191227.020000", "191227.480000", "191227.940000", "191228.400000", "191228.860000", "191229.320000", "191229.780000", "191230.240000", "191230.700000", "191231.160000", "191231.620000", "191232.080000", "191232.540000", "191233.000000", "191233.460000", "191233.920000", "191234.380000", "191234.840000", "191235.300000", "191235.760000", "191236.220000", "191236.680000", "191237.140000", "191237.600000", "191238.060000", "191238.520000", "191238.980000", "191239.440000", "191239.900000", "191240.360000", "191240.820000", "191241.280000", "191241.740000", "191242.200000", "191242.660000", "191243.120000", "191243.580000", "191244.040000", "191244.500000", "191244.960000", "191245.420000", "191245.880000", "191246.340000", "191246.800000", "191247.260000", "191247.720000", "191248.180000", "191248.640000", "191249.100000", "191249.560000", "191250.020000", "191250.480000", "191250.940000", "191251.400000", "191251.860000", "191252.320000", "191252.780000", "191253.240000", "191253.700000", "191254.160000", "191254.620000", "191255.080000", "191255.540000", "191256.000000", "191256.460000", "191256.920000", "191257.380000", "191257.840000", "191258.300000", "191258.760000", "191259.220000", "191259.680000", "191300.140000", "191300.600000", "191301.060000", "191301.520000", "191301.980000", "191302.440000", "191302.900000", "191303.360000", "191303.820000", "191304.280000", "191304.740000", "191305.200000", "191305.660000", "191306.120000", "191306.580000", "191307.040000", "191307.500000", "191307.960000", "191308.420000", "191308.880000", "191309.340000", "191309.800000", "191310.260000", "191310.720000", "191311.180000", "191311.640000", "191312.100000", "191312.560000", "191313.020000", "191313.480000", "191313.940000", "191314.400000", "191314.860000", "191315.320000", "191315.780000", "191316.240000", "191316.700000", "191317.160000", "191317.620000", "191318.080000", "191318.540000", "191319.000000", "191319.460000", "191319.920000", "191320.380000", "191320.840000", "191321.300000", "191321.760000", "191322.220000", "191322.680000", "191323.140000", "191323.600000", "191324.060000", "191324.520000", "191324.980000", "191325.440000", "191325.900000", "191326.360000", "191326.820000", "191327.280000", "191327.740000", "191328.200000", "191328.660000", "191329.120000", "191329.580000", "191330.040000", "191330.500000", "191330.960000", "191331.420000", "191331.880000", "191332.340000", "191332.800000", "191333.260000", "191333.720000", "191334.180000", "191334.640000", "191335.100000", "191335.560000", "191336.020000", "191336.480000", "191336.940000", "191337.400000", "191337.860000", "191338.320000", "191338.780000", "191339.240000", "191339.700000", "191340.160000", "191340.620000", "191341.080000", "191341.540000", "191342.000000", "191342.460000", "191342.920000", "191343.380000", "191343.840000", "191344.300000", "191344.760000", "191345.220000", "191345.680000", "191346.140000", "191346.600000", "191347.060000", "191347.520000", "191347.980000", "191348.440000", "191348.900000", "191349.360000", "191349.820000", "191350.280000", "191350.740000", "191351.200000", "191351.660000", "191352.120000", "191352.580000", "191353.040000", "191353.500000", "191353.960000", "191354.420000", "191354.880000", "191355.340000", "191355.800000", "191356.260000", "191356.720000", "191357.180000", "191357.640000", "191358.100000", "191358.560000", "191359.020000", "191359.480000", "191359.940000", "191400.400000", "191400.860000", "191401.320000", "191401.780000", "191402.240000", "191402.700000", "191403.160000", "191403.620000", "191404.080000", "191404.540000", "191405.000000", "191405.460000", "191405.920000", "191406.380000", "191406.840000", "191407.300000"],
