{
  "AcquisitionMatrixPE": 82,
  "AcquisitionNumber": 1,
  "AcquisitionTime": "19:30:14.602500",
  "BandwidthPerPixelPhaseEncode": 24.888,
  "BaseResolution": 82,
  "BodyPartExamined": "BRAIN",
  "ConsistencyInfo": "N4_VE11E_LATEST_20181129",
  "ConversionSoftware": "dcm2niix",
  "ConversionSoftwareVersion": "v1.0.20201102",
  "DerivedVendorReportedEchoSpacing": 0.00049,
  "DeviceSerialNumber": "66112",
  "DwellTime": 2e-06,
  "EchoTime": 0.0272,
  "EchoTrainLength": 82,
  "EffectiveEchoSpacing": 0.00049,
  "FlipAngle": 44,
  "ImageComments": "Unaliased MB8/PE3",
  "ImageOrientationPatientDICOM": [0.998631, -0.0081217, 0.0516788, 0.0118526, 0.997312, -0.0723015],
  "ImageType": [
    "ORIGINAL",
    "PRIMARY",
    "M",
    "MB",
    "ND",
    "NORM",
    "MOSAIC"
],
  "ImagingFrequency": 123.259,
  "InPlanePhaseEncodingDirectionDICOM": "COL",
  "InstitutionAddress": "Maynard 3,Hanover,NH,US,03755",
  "InstitutionName": "Dartmouth College - PBS",
  "InstitutionalDepartmentName": "Department",
  "MRAcquisitionType": "2D",
  "MagneticFieldStrength": 3,
  "Manufacturer": "Siemens",
  "ManufacturersModelName": "Prisma",
  "Modality": "MR",
  "MultibandAccelerationFactor": 8,
  "PartialFourier": 1,
  "PatientPosition": "HFS",
  "PercentPhaseFOV": 100,
  "PercentSampling": 100,
  "PhaseEncodingDirection": "j-",
  "PhaseEncodingSteps": 82,
  "PhaseResolution": 1,
  "PixelBandwidth": 3050,
  "ProcedureStepDescription": "Wager_Wager^1076_spacetop",
  "ProtocolName": "func_run-06_task-social_acq-ap-mb8",
  "PulseSequenceDetails": "%CustomerSeq%\\cmrr_mbep2d_bold",
  "ReceiveCoilActiveElements": "HEA;HEP",
  "ReceiveCoilName": "Head_32",
  "ReconMatrixPE": 82,
  "RepetitionTime": 0.46,
  "SAR": 0.106691,
  "ScanOptions": "FS",
  "ScanningSequence": "EP",
  "SequenceName": "epfid2d1_82",
  "SequenceVariant": "SK\\SS",
  "SeriesDescription": "func_run-06_task-social_acq-ap-mb8",
  "SeriesNumber": 22,
  "ShimSetting": [4252, -7862, -7212, 636, -41, -268, 293, 84],
  "SliceThickness": 2.7,
  "SliceTiming": [0, 0.25, 0.0625, 0.315, 0.125, 0.3775, 0.1875, 0, 0.25, 0.0625, 0.315, 0.125, 0.3775, 0.1875, 0, 0.25, 0.0625, 0.315, 0.125, 0.3775, 0.1875, 0, 0.25, 0.0625, 0.315, 0.125, 0.3775, 0.1875, 0, 0.25, 0.0625, 0.315, 0.125, 0.3775, 0.1875, 0, 0.25, 0.0625, 0.315, 0.125, 0.3775, 0.1875, 0, 0.25, 0.0625, 0.315, 0.125, 0.3775, 0.1875, 0, 0.25, 0.0625, 0.315, 0.125, 0.3775, 0.1875],
  "SoftwareVersions": "syngo MR E11",
  "SpacingBetweenSlices": 2.7,
  "StationName": "AWP66112",
  "TaskName": "social",
  "TotalReadoutTime": 0.03969,
  "TxRefAmp": 231.029,
  "WipMemBlock": "04182892-862b-4bd5-b2c7-ec2ee58a8cba||Sequence: R016 ve11e/master r/434b28f1; Aug  7 2019 18:53:46 by eja",
  "dcmmeta_affine": [
    [-2.679253339767456, 0.031799543648958206, 0.1375722587108612, 106.48217010498047],
    [0.021789928898215294, 2.6757161617279053, -0.19660061597824097, -99.373779296875],
    [0.13865041732788086, 0.1939796805381775, 2.6893162727355957, -77.31224822998047],
    [0.0, 0.0, 0.0, 1.0]
],
  "dcmmeta_reorient_transform": [
    [0.0, -1.0, 0.0, 81.0],
    [1.0, 0.0, 0.0, 0.0],
    [0.0, 0.0, 1.0, 0.0],
    [0.0, 0.0, 0.0, 1.0]
],
  "dcmmeta_shape": [82, 82, 56, 872],
  "dcmmeta_slice_dim": 2,
  "dcmmeta_version": 0.6,
  "global": {
    "const": {
      "AccessionNumber": "A004688",
      "AcquisitionMatrix": [82, 0, 0, 82],
      "AngioFlag": "N",
      "BitsAllocated": 16,
      "BitsStored": 16,
      "BodyPartExamined": "BRAIN",
      "Columns": 656,
      "EchoNumbers": 1,
      "EchoTime": 27.2,
      "EchoTrainLength": 82,
      "FlipAngle": 44.0,
      "HighBit": 15,
      "ImageOrientationPatient": [0.99863073281818, -0.0081217005611, 0.05167879111419, 0.0118525569174, 0.99731239216177, -0.0723015168243],
      "ImagePositionPatient": [-887.13008678081, -879.03609005144, -45.720393886757],
      "ImageType": [
        "ORIGINAL",
        "PRIMARY",
        "M",
        "MB",
        "ND",
        "NORM",
        "MOSAIC"
],
      "ImagedNucleus": "1H",
      "ImagingFrequency": 123.259128,
      "InPlanePhaseEncodingDirection": "COL",
      "MRAcquisitionType": "2D",
      "MagneticFieldStrength": 3.0,
      "Manufacturer": "SIEMENS",
      "ManufacturerModelName": "Prisma",
      "Modality": "MR",
      "NumberOfAverages": 1.0,
      "NumberOfPhaseEncodingSteps": 82,
      "PercentPhaseFieldOfView": 100.0,
      "PercentSampling": 100.0,
      "PerformedProcedureStepStartTime": "181820.319000",
      "PhotometricInterpretation": "MONOCHROME2",
      "PixelBandwidth": 3050.0,
      "PixelRepresentation": 0,
      "PixelSpacing": [2.6829268932343, 2.6829268932343],
      "ProtocolName": "func_run-06_task-social_acq-ap-mb8",
      "RepetitionTime": 460.0,
      "Rows": 656,
      "SAR": 0.10669074816839,
      "SamplesPerPixel": 1,
      "ScanOptions": "FS",
      "ScanningSequence": "EP",
      "SequenceName": "epfid2d1_82",
      "SequenceVariant": [
        "SK",
        "SS"
],
      "SeriesDescription": "func_run-06_task-social_acq-ap-mb8",
      "SeriesNumber": 22,
      "SeriesTime": "193028.067000",
      "SliceLocation": -64.344869587375,
      "SliceThickness": 2.7000000476837,
      "SmallestImagePixelValue": 0,
      "SoftwareVersions": "syngo MR E11",
      "SpacingBetweenSlices": 2.7000000671256,
      "SpecificCharacterSet": "ISO_IR 100",
      "StudyID": "2",
      "StudyTime": "181820.257000",
      "TransmitCoilName": "Body",
      "VariableFlipAngleFlag": "N",
      "WindowCenterWidthExplanation": "Algo1"
    },
    "slices": {}
  },
  "time": {
    "samples": {
      "AcquisitionNumber": [1, 2, 3, 4, 5, 6, 7, 8, 9, 10, 11, 12, 13, 14, 15, 16, 17, 18, 19, 20, 21, 22, 23, 24, 25, 26, 27, 28, 29, 30, 31, 32, 33, 34, 35, 36, 37, 38, 39, 40, 41, 42, 43, 44, 45, 46, 47, 48, 49, 50, 51, 52, 53, 54, 55, 56, 57, 58, 59, 60, 61, 62, 63, 64, 65, 66, 67, 68, 69, 70, 71, 72, 73, 74, 75, 76, 77, 78, 79, 80, 81, 82, 83, 84, 85, 86, 87, 88, 89, 90, 91, 92, 93, 94, 95, 96, 97, 98, 99, 100, 101, 102, 103, 104, 105, 106, 107, 108, 109, 110, 111, 112, 113, 114, 115, 116, 117, 118, 119, 120, 121, 122, 123, 124, 125, 126, 127, 128, 129, 130, 131, 132, 133, 134, 135, 136, 137, 138, 139, 140, 141, 142, 143, 144, 145, 146, 147, 148, 149, 150, 151, 152, 153, 154, 155, 156, 157, 158, 159, 160, 161, 162, 163, 164, 165, 166, 167, 168, 169, 170, 171, 172, 173, 174, 175, 176, 177, 178, 179, 180, 181, 182, 183, 184, 185, 186, 187, 188, 189, 190, 191, 192, 193, 194, 195, 196, 197, 198, 199, 200, 201, 202, 203, 204, 205, 206, 207, 208, 209, 210, 211, 212, 213, 214, 215, 216, 217, 218, 219, 220, 221, 222, 223, 224, 225, 226, 227, 228, 229, 230, 231, 232, 233, 234, 235, 236, 237, 238, 239, 240, 241, 242, 243, 244, 245, 246, 247, 248, 249, 250, 251, 252, 253, 254, 255, 256, 257, 258, 259, 260, 261, 262, 263, 264, 265, 266, 267, 268, 269, 270, 271, 272, 273, 274, 275, 276, 277, 278, 279, 280, 281, 282, 283, 284, 285, 286, 287, 288, 289, 290, 291, 292, 293, 294, 295, 296, 297, 298, 299, 300, 301, 302, 303, 304, 305, 306, 307, 308, 309, 310, 311, 312, 313, 314, 315, 316, 317, 318, 319, 320, 321, 322, 323, 324, 325, 326, 327, 328, 329, 330, 331, 332, 333, 334, 335, 336, 337, 338, 339, 340, 341, 342, 343, 344, 345, 346, 347, 348, 349, 350, 351, 352, 353, 354, 355, 356, 357, 358, 359, 360, 361, 362, 363, 364, 365, 366, 367, 368, 369, 370, 371, 372, 373, 374, 375, 376, 377, 378, 379, 380, 381, 382, 383, 384, 385, 386, 387, 388, 389, 390, 391, 392, 393, 394, 395, 396, 397, 398, 399, 400, 401, 402, 403, 404, 405, 406, 407, 408, 409, 410, 411, 412, 413, 414, 415, 416, 417, 418, 419, 420, 421, 422, 423, 424, 425, 426, 427, 428, 429, 430, 431, 432, 433, 434, 435, 436, 437, 438, 439, 440, 441, 442, 443, 444, 445, 446, 447, 448, 449, 450, 451, 452, 453, 454, 455, 456, 457, 458, 459, 460, 461, 462, 463, 464, 465, 466, 467, 468, 469, 470, 471, 472, 473, 474, 475, 476, 477, 478, 479, 480, 481, 482, 483, 484, 485, 486, 487, 488, 489, 490, 491, 492, 493, 494, 495, 496, 497, 498, 499, 500, 501, 502, 503, 504, 505, 506, 507, 508, 509, 510, 511, 512, 513, 514, 515, 516, 517, 518, 519, 520, 521, 522, 523, 524, 525, 526, 527, 528, 529, 530, 531, 532, 533, 534, 535, 536, 537, 538, 539, 540, 541, 542, 543, 544, 545, 546, 547, 548, 549, 550, 551, 552, 553, 554, 555, 556, 557, 558, 559, 560, 561, 562, 563, 564, 565, 566, 567, 568, 569, 570, 571, 572, 573, 574, 575, 576, 577, 578, 579, 580, 581, 582, 583, 584, 585, 586, 587, 588, 589, 590, 591, 592, 593, 594, 595, 596, 597, 598, 599, 600, 601, 602, 603, 604, 605, 606, 607, 608, 609, 610, 611, 612, 613, 614, 615, 616, 617, 618, 619, 620, 621, 622, 623, 624, 625, 626, 627, 628, 629, 630, 631, 632, 633, 634, 635, 636, 637, 638, 639, 640, 641, 642, 643, 644, 645, 646, 647, 648, 649, 650, 651, 652, 653, 654, 655, 656, 657, 658, 659, 660, 661, 662, 663, 664, 665, 666, 667, 668, 669, 670, 671, 672, 673, 674, 675, 676, 677, 678, 679, 680, 681, 682, 683, 684, 685, 686, 687, 688, 689, 690, 691, 692, 693, 694, 695, 696, 697, 698, 699, 700, 701, 702, 703, 704, 705, 706, 707, 708, 709, 710, 711, 712, 713, 714, 715, 716, 717, 718, 719, 720, 721, 722, 723, 724, 725, 726, 727, 728, 729, 730, 731, 732, 733, 734, 735, 736, 737, 738, 739, 740, 741, 742, 743, 744, 745, 746, 747, 748, 749, 750, 751, 752, 753, 754, 755, 756, 757, 758, 759, 760, 761, 762, 763, 764, 765, 766, 767, 768, 769, 770, 771, 772, 773, 774, 775, 776, 777, 778, 779, 780, 781, 782, 783, 784, 785, 786, 787, 788, 789, 790, 791, 792, 793, 794, 795, 796, 797, 798, 799, 800, 801, 802, 803, 804, 805, 806, 807, 808, 809, 810, 811, 812, 813, 814, 815, 816, 817, 818, 819, 820, 821, 822, 823, 824, 825, 826, 827, 828, 829, 830, 831, 832, 833, 834, 835, 836, 837, 838, 839, 840, 841, 842, 843, 844, 845, 846, 847, 848, 849, 850, 851, 852, 853, 854, 855, 856, 857, 858, 859, 860, 861, 862, 863, 864, 865, 866, 867, 868, 869, 870, 871, 872],
      "AcquisitionTime": ["193014.602500", "193015.062500", "193015.522500", "193015.982500", "193016.442500", "193016.902500", "193017.362500", "193017.822500", "193018.282500", "193018.742500", "193019.202500", "193019.662500", "193020.122500", "193020.582500", "193021.042500", "193021.502500", "193021.962500", "193022.422500", "193022.882500", "193023.342500", "193023.802500", "193024.262500", "193024.722500", "193025.182500", "193025.642500", "193026.102500", "193026.562500", "193027.022500", "193027.482500", "193027.942500", "193028.402500", "193028.862500", "193029.322500", "193029.782500", "193030.242500", "193030.702500", "193031.162500", "193031.622500", "193032.082500", "193032.542500", "193033.002500", "193033.462500", "193033.922500", "193034.382500", "193034.842500", "193035.302500", "193035.762500", "193036.222500", "193036.682500", "193037.142500", "193037.602500", "193038.062500", "193038.522500", "193038.982500", "193039.442500", "193039.902500", "193040.362500", "193040.822500", "193041.282500", "193041.742500", "193042.202500", "193042.662500", "193043.122500", "193043.582500", "193044.042500", "193044.502500", "193044.962500", "193045.422500", "193045.882500", "193046.342500", "193046.802500", "193047.262500", "193047.722500", "193048.182500", "193048.642500", "193049.102500", "193049.562500", "193050.022500", "193050.482500", "193050.942500", "193051.402500", "193051.862500", "193052.322500", "193052.782500", "193053.242500", "193053.702500", "193054.162500", "193054.622500", "193055.082500", "193055.542500", "193056.002500", "193056.462500", "193056.922500", "193057.382500", "193057.842500", "193058.302500", "193058.762500", "193059.222500", "193059.682500", "193100.142500", "193100.602500", "193101.062500", "193101.522500", "193101.982500", "193102.442500", "193102.902500", "193103.362500", "193103.822500", "193104.282500", "193104.742500", "193105.202500", "193105.662500", "193106.122500", "193106.582500", "193107.042500", "193107.502500", "193107.962500", "193108.422500", "193108.882500", "193109.342500", "193109.802500", "193110.262500", "193110.722500", "193111.182500", "193111.642500", "193112.102500", "193112.562500", "193113.022500", "193113.482500", "193113.942500", "193114.402500", "193114.862500", "193115.322500", "193115.782500", "193116.242500", "193116.702500", "193117.162500", "193117.622500", "193118.082500", "193118.542500", "193119.002500", "193119.462500", "193119.922500", "193120.382500", "193120.842500", "193121.302500", "193121.762500", "193122.222500", "193122.682500", "193123.142500", "193123.602500", "193124.062500", "193124.522500", "193124.982500", "193125.442500", "193125.902500", "193126.362500", "193126.822500", "193127.282500", "193127.742500", "193128.202500", "193128.662500", "193129.122500", "193129.582500", "193130.042500", "193130.502500", "193130.962500", "193131.422500", "193131.882500", "193132.342500", "193132.802500", "193133.262500", "193133.722500", "193134.182500", "193134.642500", "193135.102500", "193135.562500", "193136.022500", "193136.482500", "193136.942500", "193137.402500", "193137.862500", "193138.322500", "193138.782500", "193139.242500", "193139.702500", "193140.162500", "193140.622500", "193141.082500", "193141.542500", "193142.002500", "193142.462500", "193142.922500", "193143.382500", "193143.842500", "193144.302500", "193144.762500", "193145.222500", "193145.682500", "193146.142500", "193146.602500", "193147.062500", "193147.522500", "193147.982500", "193148.442500", "193148.902500", "193149.362500", "193149.822500", "193150.282500", "193150.742500", "193151.202500", "193151.662500", "193152.122500", "193152.582500", "193153.042500", "193153.502500", "193153.962500", "193154.422500", "193154.882500", "193155.342500", "193155.802500", "193156.262500", "193156.722500", "193157.182500", "193157.642500", "193158.102500", "193158.562500", "193159.022500", "193159.482500", "193159.942500", "193200.402500", "193200.862500", "193201.322500", "193201.782500", "193202.242500", "193202.702500", "193203.162500", "193203.622500", "193204.082500", "193204.542500", "193205.002500", "193205.462500", "193205.922500", "193206.382500", "193206.842500", "193207.302500", "193207.762500", "193208.222500", "193208.682500", "193209.142500", "193209.602500", "193210.062500", "193210.522500", "193210.982500", "193211.442500", "193211.902500", "193212.362500", "193212.822500", "193213.282500", "193213.742500", "193214.202500", "193214.662500", "193215.122500", "193215.582500", "193216.042500", "193216.502500", "193216.962500", "193217.422500", "193217.882500", "193218.342500", "193218.802500", "193219.262500", "193219.722500", "193220.182500", "193220.642500", "193221.102500", "193221.562500", "193222.022500", "193222.482500", "193222.942500", "193223.402500", "193223.862500", "193224.322500", "193224.782500", "193225.242500", "193225.702500", "193226.162500", "193226.622500", "193227.082500", "193227.542500", "193228.002500", "193228.462500", "193228.922500", "193229.382500", "193229.842500", "193230.302500", "193230.762500", "193231.222500", "193231.682500", "193232.142500", "193232.602500", "193233.062500", "193233.522500", "193233.982500", "193234.442500", "193234.902500", "193235.362500", "193235.822500", "193236.282500", "193236.742500", "193237.202500", "193237.662500", "193238.122500", "193238.582500", "193239.042500", "193239.502500", "193239.962500", "193240.422500", "193240.882500", "193241.342500", "193241.802500", "193242.262500", "193242.722500", "193243.182500", "193243.642500", "193244.102500", "193244.562500", "193245.022500", "193245.482500", "193245.942500", "193246.402500", "193246.862500", "193247.322500", "193247.782500", "193248.242500", "193248.702500", "193249.162500", "193249.622500", "193250.082500", "193250.542500", "193251.002500", "193251.462500", "193251.922500", "193252.382500", "193252.842500", "193253.302500", "193253.762500", "193254.222500", "193254.682500", "193255.142500", "193255.602500", "193256.062500", "193256.522500", "193256.982500", "193257.442500", "193257.902500", "193258.362500", "193258.822500", "193259.282500", "193259.742500", "193300.202500", "193300.662500", "193301.122500", "193301.582500", "193302.042500", "193302.502500", "193302.962500", "193303.422500", "193303.882500", "193304.342500", "193304.802500", "193305.262500", "193305.722500", "193306.182500", "193306.642500", "193307.102500", "193307.562500", "193308.022500", "193308.482500", "193308.942500", "193309.402500", "193309.862500", "193310.322500", "193310.782500", "193311.242500", "193311.702500", "193312.162500", "193312.622500", "193313.082500", "193313.542500", "193314.002500", "193314.462500", "193314.922500", "193315.382500", "193315.842500", "193316.302500", "193316.762500", "193317.222500", "193317.682500", "193318.142500", "193318.602500", "193319.062500", "193319.522500", "193319.982500", "193320.442500", "193320.902500", "193321.362500", "193321.822500", "193322.282500", "193322.742500", "193323.202500", "193323.662500", "193324.122500", "193324.582500", "193325.042500", "193325.502500", "193325.962500", "193326.422500", "193326.882500", "193327.342500", "193327.802500", "193328.262500", "193328.722500", "193329.182500", "193329.642500", "193330.102500", "193330.562500", "193331.022500", "193331.482500", "193331.942500", "193332.402500", "193332.862500", "193333.322500", "193333.782500", "193334.242500", "193334.702500", "193335.162500", "193335.622500", "193336.082500", "193336.542500", "193337.002500", "193337.462500", "193337.922500", "193338.382500", "193338.842500", "193339.302500", "193339.762500", "193340.222500", "193340.682500", "193341.142500", "193341.602500", "193342.062500", "193342.522500", "193342.982500", "193343.442500", "193343.902500", "193344.362500", "193344.822500", "193345.282500", "193345.742500", "193346.202500", "193346.662500", "193347.122500", "193347.582500", "193348.042500", "193348.502500", "193348.962500", "193349.422500", "193349.882500", "193350.342500", "193350.802500", "193351.262500", "193351.722500", "193352.182500", "193352.642500", "193353.102500", "193353.562500", "193354.022500", "193354.482500", "193354.942500", "193355.402500", "193355.862500", "193356.322500", "193356.782500", "193357.242500", "193357.702500", "193358.162500", "193358.622500", "193359.082500", "193359.542500", "193400.002500", "193400.462500", "193400.922500", "193401.382500", "193401.842500", "193402.302500", "193402.762500", "193403.222500", "193403.682500", "193404.142500", "193404.602500", "193405.062500", "193405.522500", "193405.982500", "193406.442500", "193406.902500", "193407.362500", "193407.822500", "193408.282500", "193408.742500", "193409.202500", "193409.662500", "193410.122500", "193410.582500", "193411.042500", "193411.502500", "193411.962500", "193412.422500", "193412.882500", "193413.342500", "193413.802500", "193414.262500", "193414.722500", "193415.182500", "193415.642500", "193416.102500", "193416.562500", "193417.022500", "193417.482500", "193417.942500", "193418.402500", "193418.862500", "193419.322500", "193419.782500", "193420.242500", "193420.702500", "193421.162500", "193421.622500", "193422.082500", "193422.542500", "193423.002500", "193423.462500", "193423.922500", "193424.382500", "193424.842500", "193425.302500", "193425.762500", "193426.222500", "193426.682500", "193427.142500", "193427.602500", "193428.062500", "193428.522500", "193428.982500", "193429.442500", "193429.902500", "193430.362500", "193430.822500", "193431.282500", "193431.742500", "193432.202500", "193432.662500", "193433.122500", "193433.582500", "193434.042500", "193434.502500", "193434.962500", "193435.422500", "193435.882500", "193436.342500", "193436.802500", "193437.262500", "193437.722500", "193438.182500", "193438.642500", "193439.102500", "193439.562500", "193440.022500", "193440.482500", "193440.942500", "193441.402500", "193441.862500", "193442.322500", "193442.782500", "193443.242500", "193443.702500", "193444.162500", "193444.622500", "193445.082500", "193445.542500", "193446.002500", "193446.462500", "193446.922500", "193447.382500", "193447.842500", "193448.302500", "193448.762500", "193449.222500", "193449.682500", "193450.142500", "193450.602500", "193451.062500", "193451.522500", "193451.982500", "193452.442500", "193452.902500", "193453.362500", "193453.822500", "193454.282500", "193454.742500", "193455.202500", "193455.662500", "193456.122500", "193456.582500", "193457.042500", "193457.502500", "193457.962500", "193458.422500", "193458.882500", "193459.342500", "193459.802500", "193500.262500", "193500.722500", "193501.182500", "193501.642500", "193502.102500", "193502.562500", "193503.022500", "193503.482500", "193503.942500", "193504.402500", "193504.862500", "193505.322500", "193505.782500", "193506.242500", "193506.702500", "193507.162500", "193507.622500", "193508.082500", "193508.542500", "193509.002500", "193509.462500", "193509.922500", "193510.382500", "193510.842500", "193511.302500", "193511.762500", "193512.222500", "193512.682500", "193513.142500", "193513.602500", "193514.062500", "193514.522500", "193514.982500", "193515.442500", "193515.902500", "193516.362500", "193516.822500", "193517.282500", "193517.742500", "193518.202500", "193518.662500", "193519.122500", "193519.582500", "193520.042500", "193520.502500", "193520.962500", "193521.422500", "193521.882500", "193522.342500", "193522.802500", "193523.262500", "193523.722500", "193524.182500", "193524.642500", "193525.102500", "193525.562500", "193526.022500", "193526.482500", "193526.942500", "193527.402500", "193527.862500", "193528.322500", "193528.782500", "193529.242500", "193529.702500", "193530.162500", "193530.622500", "193531.082500", "193531.542500", "193532.002500", "193532.462500", "193532.922500", "193533.382500", "193533.842500", "193534.302500", "193534.762500", "193535.222500", "193535.682500", "193536.142500", "193536.602500", "193537.062500", "193537.522500", "193537.982500", "193538.442500", "193538.902500", "193539.362500", "193539.822500", "193540.282500", "193540.742500", "193541.202500", "193541.662500", "193542.122500", "193542.582500", "193543.042500", "193543.502500", "193543.962500", "193544.422500", "193544.882500", "193545.342500", "193545.802500", "193546.262500", "193546.722500", "193547.182500", "193547.642500", "193548.102500", "193548.562500", "193549.022500", "193549.482500", "193549.942500", "193550.402500", "193550.862500", "193551.322500", "193551.782500", "193552.242500", "193552.702500", "193553.162500", "193553.622500", "193554.082500", "193554.542500", "193555.002500", "193555.462500", "193555.922500", "193556.382500", "193556.842500", "193557.302500", "193557.762500", "193558.222500", "193558.682500", "193559.142500", "193559.602500", "193600.062500", "193600.522500", "193600.982500", "193601.442500", "193601.902500", "193602.362500", "193602.822500", "193603.282500", "193603.742500", "193604.202500", "193604.662500", "193605.122500", "193605.582500", "193606.042500", "193606.502500", "193606.962500", "193607.422500", "193607.882500", "193608.342500", "193608.802500", "193609.262500", "193609.722500", "193610.182500", "193610.642500", "193611.102500", "193611.562500", "193612.022500", "193612.482500", "193612.942500", "193613.402500", "193613.862500", "193614.322500", "193614.782500", "193615.242500", "193615.702500", "193616.162500", "193616.622500", "193617.082500", "193617.542500", "193618.002500", "193618.462500", "193618.922500", "193619.382500", "193619.842500", "193620.302500", "193620.762500", "193621.222500", "193621.682500", "193622.142500", "193622.602500", "193623.062500", "193623.522500", "193623.982500", "193624.442500", "193624.902500", "193625.362500", "193625.822500", "193626.282500", "193626.742500", "193627.202500", "193627.662500", "193628.122500", "193628.582500", "193629.042500", "193629.502500", "193629.962500", "193630.422500", "193630.882500", "193631.342500", "193631.802500", "193632.262500", "193632.722500", "193633.182500", "193633.642500", "193634.102500", "193634.562500", "193635.022500", "193635.482500", "193635.942500", "193636.402500", "193636.862500", "193637.322500", "193637.782500", "193638.242500", "193638.702500", "193639.162500", "193639.622500", "193640.082500", "193640.542500", "193641.002500", "193641.462500", "193641.922500", "193642.382500", "193642.842500", "193643.302500", "193643.762500", "193644.222500", "193644.682500", "193645.142500", "193645.602500", "193646.062500", "193646.522500", "193646.982500", "193647.442500", "193647.902500", "193648.362500", "193648.822500", "193649.282500", "193649.742500", "193650.202500", "193650.662500", "193651.122500", "193651.582500", "193652.042500", "193652.502500", "193652.962500", "193653.422500", "193653.882500", "193654.342500", "193654.802500", "193655.262500"],
