{
  "AcquisitionMatrixPE": 82,
  "AcquisitionNumber": 1,
  "AcquisitionTime": "18:51:40.002500",
  "BandwidthPerPixelPhaseEncode": 24.888,
  "BaseResolution": 82,
  "BodyPartExamined": "BRAIN",
  "ConsistencyInfo": "N4_VE11E_LATEST_20181129",
  "ConversionSoftware": "dcm2niix",
  "ConversionSoftwareVersion": "v1.0.20201102",
  "DerivedVendorReportedEchoSpacing": 0.00049,
  "DeviceSerialNumber": "66112",
  "DwellTime": 2e-06,
  "EchoTime": 0.0272,
  "EchoTrainLength": 82,
  "EffectiveEchoSpacing": 0.00049,
  "FlipAngle": 44,
  "ImageComments": "Unaliased MB8/PE3",
  "ImageOrientationPatientDICOM": [0.998631, -0.0081217, 0.0516788, 0.0118526, 0.997312, -0.0723015],
  "ImageType": [
    "ORIGINAL",
    "PRIMARY",
    "M",
    "MB",
    "ND",
    "NORM",
    "MOSAIC"
],
  "ImagingFrequency": 123.259,
  "InPlanePhaseEncodingDirectionDICOM": "COL",
  "InstitutionAddress": "Maynard 3,Hanover,NH,US,03755",
  "InstitutionName": "Dartmouth College - PBS",
  "InstitutionalDepartmentName": "Department",
  "MRAcquisitionType": "2D",
  "MagneticFieldStrength": 3,
  "Manufacturer": "Siemens",
  "ManufacturersModelName": "Prisma",
  "Modality": "MR",
  "MultibandAccelerationFactor": 8,
  "PartialFourier": 1,
  "PatientPosition": "HFS",
  "PercentPhaseFOV": 100,
  "PercentSampling": 100,
  "PhaseEncodingDirection": "j-",
  "PhaseEncodingSteps": 82,
  "PhaseResolution": 1,
  "PixelBandwidth": 3050,
  "ProcedureStepDescription": "Wager_Wager^1076_spacetop",
  "ProtocolName": "func_run-01_task-social_acq-ap-mb8",
  "PulseSequenceDetails": "%CustomerSeq%\\cmrr_mbep2d_bold",
  "ReceiveCoilActiveElements": "HEA;HEP",
  "ReceiveCoilName": "Head_32",
  "ReconMatrixPE": 82,
  "RepetitionTime": 0.46,
  "SAR": 0.106691,
  "ScanOptions": "FS",
  "ScanningSequence": "EP",
  "SequenceName": "epfid2d1_82",
  "SequenceVariant": "SK\\SS",
  "SeriesDescription": "func_run-01_task-social_acq-ap-mb8",
  "SeriesNumber": 12,
  "ShimSetting": [4252, -7862, -7212, 636, -41, -268, 293, 84],
  "SliceThickness": 2.7,
  "SliceTiming": [0, 0.2525, 0.065, 0.315, 0.1275, 0.3775, 0.19, 0, 0.2525, 0.065, 0.315, 0.1275, 0.3775, 0.19, 0, 0.2525, 0.065, 0.315, 0.1275, 0.3775, 0.19, 0, 0.2525, 0.065, 0.315, 0.1275, 0.3775, 0.19, 0, 0.2525, 0.065, 0.315, 0.1275, 0.3775, 0.19, 0, 0.2525, 0.065, 0.315, 0.1275, 0.3775, 0.19, 0, 0.2525, 0.065, 0.315, 0.1275, 0.3775, 0.19, 0, 0.2525, 0.065, 0.315, 0.1275, 0.3775, 0.19],
  "SoftwareVersions": "syngo MR E11",
  "SpacingBetweenSlices": 2.7,
  "StationName": "AWP66112",
  "TaskName": "social",
  "TotalReadoutTime": 0.03969,
  "TxRefAmp": 231.029,
  "WipMemBlock": "6e8b24bf-acfb-49cf-b3f0-df37d5e94c1f||Sequence: R016 ve11e/master r/434b28f1; Aug  7 2019 18:53:46 by eja",
  "dcmmeta_affine": [
    [-2.679253339767456, 0.031799543648958206, 0.1375722587108612, 106.48217010498047],
    [0.021789928898215294, 2.6757161617279053, -0.19660061597824097, -99.373779296875],
    [0.13865041732788086, 0.1939796805381775, 2.6893162727355957, -77.31224822998047],
    [0.0, 0.0, 0.0, 1.0]
],
  "dcmmeta_reorient_transform": [
    [0.0, -1.0, 0.0, 81.0],
    [1.0, 0.0, 0.0, 0.0],
    [0.0, 0.0, 1.0, 0.0],
    [0.0, 0.0, 0.0, 1.0]
],
  "dcmmeta_shape": [82, 82, 56, 872],
  "dcmmeta_slice_dim": 2,
  "dcmmeta_version": 0.6,
  "global": {
    "const": {
      "AccessionNumber": "A004688",
      "AcquisitionMatrix": [82, 0, 0, 82],
      "AngioFlag": "N",
      "BitsAllocated": 16,
      "BitsStored": 16,
      "BodyPartExamined": "BRAIN",
      "Columns": 656,
      "EchoNumbers": 1,
      "EchoTime": 27.2,
      "EchoTrainLength": 82,
      "FlipAngle": 44.0,
      "HighBit": 15,
      "ImageOrientationPatient": [0.99863073281818, -0.0081217005611, 0.05167879111419, 0.0118525569174, 0.99731239216177, -0.0723015168243],
      "ImagePositionPatient": [-887.13008678081, -879.03609005144, -45.720393886757],
      "ImageType": [
        "ORIGINAL",
        "PRIMARY",
        "M",
        "MB",
        "ND",
        "NORM",
        "MOSAIC"
],
      "ImagedNucleus": "1H",
      "ImagingFrequency": 123.259122,
      "InPlanePhaseEncodingDirection": "COL",
      "MRAcquisitionType": "2D",
      "MagneticFieldStrength": 3.0,
      "Manufacturer": "SIEMENS",
      "ManufacturerModelName": "Prisma",
      "Modality": "MR",
      "NumberOfAverages": 1.0,
      "NumberOfPhaseEncodingSteps": 82,
      "PercentPhaseFieldOfView": 100.0,
      "PercentSampling": 100.0,
      "PerformedProcedureStepStartTime": "181820.319000",
      "PhotometricInterpretation": "MONOCHROME2",
      "PixelBandwidth": 3050.0,
      "PixelRepresentation": 0,
      "PixelSpacing": [2.6829268932343, 2.6829268932343],
      "ProtocolName": "func_run-01_task-social_acq-ap-mb8",
      "RepetitionTime": 460.0,
      "Rows": 656,
      "SAR": 0.10669074816839,
      "SamplesPerPixel": 1,
      "ScanOptions": "FS",
      "ScanningSequence": "EP",
      "SequenceName": "epfid2d1_82",
      "SequenceVariant": [
        "SK",
        "SS"
],
      "SeriesDescription": "func_run-01_task-social_acq-ap-mb8",
      "SeriesNumber": 12,
      "SeriesTime": "185207.842000",
      "SliceLocation": -64.344869587375,
      "SliceThickness": 2.7000000476837,
      "SmallestImagePixelValue": 0,
      "SoftwareVersions": "syngo MR E11",
      "SpacingBetweenSlices": 2.7000000671256,
      "SpecificCharacterSet": "ISO_IR 100",
      "StudyID": "2",
      "StudyTime": "181820.257000",
      "TransmitCoilName": "Body",
      "VariableFlipAngleFlag": "N",
      "WindowCenterWidthExplanation": "Algo1"
    },
    "slices": {}
  },
  "time": {
    "samples": {
      "AcquisitionNumber": [1, 2, 3, 4, 5, 6, 7, 8, 9, 10, 11, 12, 13, 14, 15, 16, 17, 18, 19, 20, 21, 22, 23, 24, 25, 26, 27, 28, 29, 30, 31, 32, 33, 34, 35, 36, 37, 38, 39, 40, 41, 42, 43, 44, 45, 46, 47, 48, 49, 50, 51, 52, 53, 54, 55, 56, 57, 58, 59, 60, 61, 62, 63, 64, 65, 66, 67, 68, 69, 70, 71, 72, 73, 74, 75, 76, 77, 78, 79, 80, 81, 82, 83, 84, 85, 86, 87, 88, 89, 90, 91, 92, 93, 94, 95, 96, 97, 98, 99, 100, 101, 102, 103, 104, 105, 106, 107, 108, 109, 110, 111, 112, 113, 114, 115, 116, 117, 118, 119, 120, 121, 122, 123, 124, 125, 126, 127, 128, 129, 130, 131, 132, 133, 134, 135, 136, 137, 138, 139, 140, 141, 142, 143, 144, 145, 146, 147, 148, 149, 150, 151, 152, 153, 154, 155, 156, 157, 158, 159, 160, 161, 162, 163, 164, 165, 166, 167, 168, 169, 170, 171, 172, 173, 174, 175, 176, 177, 178, 179, 180, 181, 182, 183, 184, 185, 186, 187, 188, 189, 190, 191, 192, 193, 194, 195, 196, 197, 198, 199, 200, 201, 202, 203, 204, 205, 206, 207, 208, 209, 210, 211, 212, 213, 214, 215, 216, 217, 218, 219, 220, 221, 222, 223, 224, 225, 226, 227, 228, 229, 230, 231, 232, 233, 234, 235, 236, 237, 238, 239, 240, 241, 242, 243, 244, 245, 246, 247, 248, 249, 250, 251, 252, 253, 254, 255, 256, 257, 258, 259, 260, 261, 262, 263, 264, 265, 266, 267, 268, 269, 270, 271, 272, 273, 274, 275, 276, 277, 278, 279, 280, 281, 282, 283, 284, 285, 286, 287, 288, 289, 290, 291, 292, 293, 294, 295, 296, 297, 298, 299, 300, 301, 302, 303, 304, 305, 306, 307, 308, 309, 310, 311, 312, 313, 314, 315, 316, 317, 318, 319, 320, 321, 322, 323, 324, 325, 326, 327, 328, 329, 330, 331, 332, 333, 334, 335, 336, 337, 338, 339, 340, 341, 342, 343, 344, 345, 346, 347, 348, 349, 350, 351, 352, 353, 354, 355, 356, 357, 358, 359, 360, 361, 362, 363, 364, 365, 366, 367, 368, 369, 370, 371, 372, 373, 374, 375, 376, 377, 378, 379, 380, 381, 382, 383, 384, 385, 386, 387, 388, 389, 390, 391, 392, 393, 394, 395, 396, 397, 398, 399, 400, 401, 402, 403, 404, 405, 406, 407, 408, 409, 410, 411, 412, 413, 414, 415, 416, 417, 418, 419, 420, 421, 422, 423, 424, 425, 426, 427, 428, 429, 430, 431, 432, 433, 434, 435, 436, 437, 438, 439, 440, 441, 442, 443, 444, 445, 446, 447, 448, 449, 450, 451, 452, 453, 454, 455, 456, 457, 458, 459, 460, 461, 462, 463, 464, 465, 466, 467, 468, 469, 470, 471, 472, 473, 474, 475, 476, 477, 478, 479, 480, 481, 482, 483, 484, 485, 486, 487, 488, 489, 490, 491, 492, 493, 494, 495, 496, 497, 498, 499, 500, 501, 502, 503, 504, 505, 506, 507, 508, 509, 510, 511, 512, 513, 514, 515, 516, 517, 518, 519, 520, 521, 522, 523, 524, 525, 526, 527, 528, 529, 530, 531, 532, 533, 534, 535, 536, 537, 538, 539, 540, 541, 542, 543, 544, 545, 546, 547, 548, 549, 550, 551, 552, 553, 554, 555, 556, 557, 558, 559, 560, 561, 562, 563, 564, 565, 566, 567, 568, 569, 570, 571, 572, 573, 574, 575, 576, 577, 578, 579, 580, 581, 582, 583, 584, 585, 586, 587, 588, 589, 590, 591, 592, 593, 594, 595, 596, 597, 598, 599, 600, 601, 602, 603, 604, 605, 606, 607, 608, 609, 610, 611, 612, 613, 614, 615, 616, 617, 618, 619, 620, 621, 622, 623, 624, 625, 626, 627, 628, 629, 630, 631, 632, 633, 634, 635, 636, 637, 638, 639, 640, 641, 642, 643, 644, 645, 646, 647, 648, 649, 650, 651, 652, 653, 654, 655, 656, 657, 658, 659, 660, 661, 662, 663, 664, 665, 666, 667, 668, 669, 670, 671, 672, 673, 674, 675, 676, 677, 678, 679, 680, 681, 682, 683, 684, 685, 686, 687, 688, 689, 690, 691, 692, 693, 694, 695, 696, 697, 698, 699, 700, 701, 702, 703, 704, 705, 706, 707, 708, 709, 710, 711, 712, 713, 714, 715, 716, 717, 718, 719, 720, 721, 722, 723, 724, 725, 726, 727, 728, 729, 730, 731, 732, 733, 734, 735, 736, 737, 738, 739, 740, 741, 742, 743, 744, 745, 746, 747, 748, 749, 750, 751, 752, 753, 754, 755, 756, 757, 758, 759, 760, 761, 762, 763, 764, 765, 766, 767, 768, 769, 770, 771, 772, 773, 774, 775, 776, 777, 778, 779, 780, 781, 782, 783, 784, 785, 786, 787, 788, 789, 790, 791, 792, 793, 794, 795, 796, 797, 798, 799, 800, 801, 802, 803, 804, 805, 806, 807, 808, 809, 810, 811, 812, 813, 814, 815, 816, 817, 818, 819, 820, 821, 822, 823, 824, 825, 826, 827, 828, 829, 830, 831, 832, 833, 834, 835, 836, 837, 838, 839, 840, 841, 842, 843, 844, 845, 846, 847, 848, 849, 850, 851, 852, 853, 854, 855, 856, 857, 858, 859, 860, 861, 862, 863, 864, 865, 866, 867, 868, 869, 870, 871, 872],
      "AcquisitionTime": ["185140.002500", "185140.462500", "185140.922500", "185141.382500", "185141.842500", "185142.302500", "185142.762500", "185143.222500", "185143.682500", "185144.142500", "185144.602500", "185145.062500", "185145.522500", "185145.982500", "185146.442500", "185146.902500", "185147.362500", "185147.822500", "185148.282500", "185148.742500", "185149.202500", "185149.662500", "185150.122500", "185150.582500", "185151.042500", "185151.502500", "185151.962500", "185152.422500", "185152.882500", "185153.342500", "185153.802500", "185154.262500", "185154.722500", "185155.182500", "185155.642500", "185156.102500", "185156.562500", "185157.022500", "185157.482500", "185157.942500", "185158.402500", "185158.862500", "185159.322500", "185159.782500", "185200.242500", "185200.702500", "185201.162500", "185201.622500", "185202.082500", "185202.542500", "185203.002500", "185203.462500", "185203.922500", "185204.382500", "185204.842500", "185205.302500", "185205.762500", "185206.222500", "185206.682500", "185207.142500", "185207.602500", "185208.062500", "185208.522500", "185208.982500", "185209.442500", "185209.902500", "185210.362500", "185210.822500", "185211.282500", "185211.742500", "185212.202500", "185212.662500", "185213.122500", "185213.582500", "185214.042500", "185214.502500", "185214.962500", "185215.422500", "185215.882500", "185216.342500", "185216.802500", "185217.262500", "185217.722500", "185218.182500", "185218.642500", "185219.102500", "185219.562500", "185220.022500", "185220.482500", "185220.942500", "185221.402500", "185221.862500", "185222.322500", "185222.782500", "185223.242500", "185223.702500", "185224.162500", "185224.622500", "185225.082500", "185225.542500", "185226.002500", "185226.462500", "185226.922500", "185227.382500", "185227.842500", "185228.302500", "185228.762500", "185229.222500", "185229.682500", "185230.142500", "185230.602500", "185231.062500", "185231.522500", "185231.982500", "185232.442500", "185232.902500", "185233.362500", "185233.822500", "185234.282500", "185234.742500", "185235.202500", "185235.662500", "185236.122500", "185236.582500", "185237.042500", "185237.502500", "185237.962500", "185238.422500", "185238.882500", "185239.342500", "185239.802500", "185240.262500", "185240.722500", "185241.182500", "185241.642500", "185242.102500", "185242.562500", "185243.022500", "185243.482500", "185243.942500", "185244.402500", "185244.862500", "185245.322500", "185245.782500", "185246.242500", "185246.702500", "185247.162500", "185247.622500", "185248.082500", "185248.542500", "185249.002500", "185249.462500", "185249.922500", "185250.382500", "185250.842500", "185251.302500", "185251.762500", "185252.222500", "185252.682500", "185253.142500", "185253.602500", "185254.062500", "185254.522500", "185254.982500", "185255.442500", "185255.902500", "185256.362500", "185256.822500", "185257.282500", "185257.742500", "185258.202500", "185258.662500", "185259.122500", "185259.582500", "185300.042500", "185300.502500", "185300.962500", "185301.422500", "185301.882500", "185302.342500", "185302.802500", "185303.262500", "185303.722500", "185304.182500", "185304.642500", "185305.102500", "185305.562500", "185306.022500", "185306.482500", "185306.942500", "185307.402500", "185307.862500", "185308.322500", "185308.782500", "185309.242500", "185309.702500", "185310.162500", "185310.622500", "185311.082500", "185311.542500", "185312.002500", "185312.462500", "185312.922500", "185313.382500", "185313.842500", "185314.302500", "185314.762500", "185315.222500", "185315.682500", "185316.142500", "185316.602500", "185317.062500", "185317.522500", "185317.982500", "185318.442500", "185318.902500", "185319.362500", "185319.822500", "185320.282500", "185320.742500", "185321.202500", "185321.662500", "185322.122500", "185322.582500", "185323.042500", "185323.502500", "185323.962500", "185324.422500", "185324.882500", "185325.342500", "185325.802500", "185326.262500", "185326.722500", "185327.182500", "185327.642500", "185328.102500", "185328.562500", "185329.022500", "185329.482500", "185329.942500", "185330.402500", "185330.862500", "185331.322500", "185331.782500", "185332.242500", "185332.702500", "185333.162500", "185333.622500", "185334.082500", "185334.542500", "185335.002500", "185335.462500", "185335.922500", "185336.382500", "185336.842500", "185337.302500", "185337.762500", "185338.222500", "185338.682500", "185339.142500", "185339.602500", "185340.062500", "185340.522500", "185340.982500", "185341.442500", "185341.902500", "185342.362500", "185342.822500", "185343.282500", "185343.742500", "185344.202500", "185344.662500", "185345.122500", "185345.582500", "185346.042500", "185346.502500", "185346.962500", "185347.422500", "185347.882500", "185348.342500", "185348.802500", "185349.262500", "185349.722500", "185350.182500", "185350.642500", "185351.102500", "185351.562500", "185352.022500", "185352.482500", "185352.942500", "185353.402500", "185353.862500", "185354.322500", "185354.782500", "185355.242500", "185355.702500", "185356.162500", "185356.622500", "185357.082500", "185357.542500", "185358.002500", "185358.462500", "185358.922500", "185359.382500", "185359.842500", "185400.302500", "185400.762500", "185401.222500", "185401.682500", "185402.142500", "185402.602500", "185403.062500", "185403.522500", "185403.982500", "185404.442500", "185404.902500", "185405.362500", "185405.822500", "185406.282500", "185406.742500", "185407.202500", "185407.662500", "185408.122500", "185408.582500", "185409.042500", "185409.502500", "185409.962500", "185410.422500", "185410.882500", "185411.342500", "185411.802500", "185412.262500", "185412.722500", "185413.182500", "185413.642500", "185414.102500", "185414.562500", "185415.022500", "185415.482500", "185415.942500", "185416.402500", "185416.862500", "185417.322500", "185417.782500", "185418.242500", "185418.702500", "185419.162500", "185419.622500", "185420.082500", "185420.542500", "185421.002500", "185421.462500", "185421.922500", "185422.382500", "185422.842500", "185423.302500", "185423.762500", "185424.222500", "185424.682500", "185425.142500", "185425.602500", "185426.062500", "185426.522500", "185426.982500", "185427.442500", "185427.902500", "185428.362500", "185428.822500", "185429.282500", "185429.742500", "185430.202500", "185430.662500", "185431.122500", "185431.582500", "185432.042500", "185432.502500", "185432.962500", "185433.422500", "185433.882500", "185434.342500", "185434.802500", "185435.262500", "185435.722500", "185436.182500", "185436.642500", "185437.102500", "185437.562500", "185438.022500", "185438.482500", "185438.942500", "185439.402500", "185439.862500", "185440.322500", "185440.782500", "185441.242500", "185441.702500", "185442.162500", "185442.622500", "185443.082500", "185443.542500", "185444.002500", "185444.462500", "185444.922500", "185445.382500", "185445.842500", "185446.302500", "185446.762500", "185447.222500", "185447.682500", "185448.142500", "185448.602500", "185449.062500", "185449.522500", "185449.982500", "185450.442500", "185450.902500", "185451.362500", "185451.822500", "185452.282500", "185452.742500", "185453.202500", "185453.662500", "185454.122500", "185454.582500", "185455.042500", "185455.502500", "185455.962500", "185456.422500", "185456.882500", "185457.342500", "185457.802500", "185458.262500", "185458.722500", "185459.182500", "185459.642500", "185500.102500", "185500.562500", "185501.022500", "185501.482500", "185501.942500", "185502.402500", "185502.862500", "185503.322500", "185503.782500", "185504.242500", "185504.702500", "185505.162500", "185505.622500", "185506.082500", "185506.542500", "185507.002500", "185507.462500", "185507.922500", "185508.382500", "185508.842500", "185509.302500", "185509.762500", "185510.222500", "185510.682500", "185511.142500", "185511.602500", "185512.062500", "185512.522500", "185512.982500", "185513.442500", "185513.902500", "185514.362500", "185514.822500", "185515.282500", "185515.742500", "185516.202500", "185516.662500", "185517.122500", "185517.582500", "185518.042500", "185518.502500", "185518.962500", "185519.422500", "185519.882500", "185520.342500", "185520.802500", "185521.262500", "185521.722500", "185522.182500", "185522.642500", "185523.102500", "185523.562500", "185524.022500", "185524.482500", "185524.942500", "185525.402500", "185525.862500", "185526.322500", "185526.782500", "185527.242500", "185527.702500", "185528.162500", "185528.622500", "185529.082500", "185529.542500", "185530.002500", "185530.462500", "185530.922500", "185531.382500", "185531.842500", "185532.302500", "185532.762500", "185533.222500", "185533.682500", "185534.142500", "185534.602500", "185535.062500", "185535.522500", "185535.982500", "185536.442500", "185536.902500", "185537.362500", "185537.822500", "185538.282500", "185538.742500", "185539.202500", "185539.662500", "185540.122500", "185540.582500", "185541.042500", "185541.502500", "185541.962500", "185542.422500", "185542.882500", "185543.342500", "185543.802500", "185544.262500", "185544.722500", "185545.182500", "185545.642500", "185546.102500", "185546.562500", "185547.022500", "185547.482500", "185547.942500", "185548.402500", "185548.862500", "185549.322500", "185549.782500", "185550.242500", "185550.702500", "185551.162500", "185551.622500", "185552.082500", "185552.542500", "185553.002500", "185553.462500", "185553.922500", "185554.382500", "185554.842500", "185555.302500", "185555.762500", "185556.222500", "185556.682500", "185557.142500", "185557.602500", "185558.062500", "185558.522500", "185558.982500", "185559.442500", "185559.902500", "185600.362500", "185600.822500", "185601.282500", "185601.742500", "185602.202500", "185602.662500", "185603.122500", "185603.582500", "185604.042500", "185604.502500", "185604.962500", "185605.422500", "185605.882500", "185606.342500", "185606.802500", "185607.262500", "185607.722500", "185608.182500", "185608.642500", "185609.102500", "185609.562500", "185610.022500", "185610.482500", "185610.942500", "185611.402500", "185611.862500", "185612.322500", "185612.782500", "185613.242500", "185613.702500", "185614.162500", "185614.622500", "185615.082500", "185615.542500", "185616.002500", "185616.462500", "185616.922500", "185617.382500", "185617.842500", "185618.302500", "185618.762500", "185619.222500", "185619.682500", "185620.142500", "185620.602500", "185621.062500", "185621.522500", "185621.982500", "185622.442500", "185622.902500", "185623.362500", "185623.822500", "185624.282500", "185624.742500", "185625.202500", "185625.662500", "185626.122500", "185626.582500", "185627.042500", "185627.502500", "185627.962500", "185628.422500", "185628.882500", "185629.342500", "185629.802500", "185630.262500", "185630.722500", "185631.182500", "185631.642500", "185632.102500", "185632.562500", "185633.022500", "185633.482500", "185633.942500", "185634.402500", "185634.862500", "185635.322500", "185635.782500", "185636.242500", "185636.702500", "185637.162500", "185637.622500", "185638.082500", "185638.542500", "185639.002500", "185639.462500", "185639.922500", "185640.382500", "185640.842500", "185641.302500", "185641.762500", "185642.222500", "185642.682500", "185643.142500", "185643.602500", "185644.062500", "185644.522500", "185644.982500", "185645.442500", "185645.902500", "185646.362500", "185646.822500", "185647.282500", "185647.742500", "185648.202500", "185648.662500", "185649.122500", "185649.582500", "185650.042500", "185650.502500", "185650.962500", "185651.422500", "185651.882500", "185652.342500", "185652.802500", "185653.262500", "185653.722500", "185654.182500", "185654.642500", "185655.102500", "185655.562500", "185656.022500", "185656.482500", "185656.942500", "185657.402500", "185657.862500", "185658.322500", "185658.782500", "185659.242500", "185659.702500", "185700.162500", "185700.622500", "185701.082500", "185701.542500", "185702.002500", "185702.462500", "185702.922500", "185703.382500", "185703.842500", "185704.302500", "185704.762500", "185705.222500", "185705.682500", "185706.142500", "185706.602500", "185707.062500", "185707.522500", "185707.982500", "185708.442500", "185708.902500", "185709.362500", "185709.822500", "185710.282500", "185710.742500", "185711.202500", "185711.662500", "185712.122500", "185712.582500", "185713.042500", "185713.502500", "185713.962500", "185714.422500", "185714.882500", "185715.342500", "185715.802500", "185716.262500", "185716.722500", "185717.182500", "185717.642500", "185718.102500", "185718.562500", "185719.022500", "185719.482500", "185719.942500", "185720.402500", "185720.862500", "185721.322500", "185721.782500", "185722.242500", "185722.702500", "185723.162500", "185723.622500", "185724.082500", "185724.542500", "185725.002500", "185725.462500", "185725.922500", "185726.382500", "185726.842500", "185727.302500", "185727.762500", "185728.222500", "185728.682500", "185729.142500", "185729.602500", "185730.062500", "185730.522500", "185730.982500", "185731.442500", "185731.902500", "185732.362500", "185732.822500", "185733.282500", "185733.742500", "185734.202500", "185734.662500", "185735.122500", "185735.582500", "185736.042500", "185736.502500", "185736.962500", "185737.422500", "185737.882500", "185738.342500", "185738.802500", "185739.262500", "185739.722500", "185740.182500", "185740.642500", "185741.102500", "185741.562500", "185742.022500", "185742.482500", "185742.942500", "185743.402500", "185743.862500", "185744.322500", "185744.782500", "185745.242500", "185745.702500", "185746.162500", "185746.622500", "185747.082500", "185747.542500", "185748.002500", "185748.462500", "185748.922500", "185749.382500", "185749.842500", "185750.302500", "185750.762500", "185751.222500", "185751.682500", "185752.142500", "185752.602500", "185753.062500", "185753.522500", "185753.982500", "185754.442500", "185754.902500", "185755.362500", "185755.822500", "185756.282500", "185756.742500", "185757.202500", "185757.662500", "185758.122500", "185758.582500", "185759.042500", "185759.502500", "185759.962500", "185800.422500", "185800.882500", "185801.342500", "185801.802500", "185802.262500", "185802.722500", "185803.182500", "185803.642500", "185804.102500", "185804.562500", "185805.022500", "185805.482500", "185805.942500", "185806.402500", "185806.862500", "185807.322500", "185807.782500", "185808.242500", "185808.702500", "185809.162500", "185809.622500", "185810.082500", "185810.542500", "185811.002500", "185811.462500", "185811.922500", "185812.382500", "185812.842500", "185813.302500", "185813.762500", "185814.222500", "185814.682500", "185815.142500", "185815.602500", "185816.062500", "185816.522500", "185816.982500", "185817.442500", "185817.902500", "185818.362500", "185818.822500", "185819.282500", "185819.742500", "185820.202500", "185820.662500"],
