{
  "AcquisitionMatrixPE": 82,
  "AcquisitionNumber": 1,
  "AcquisitionTime": "19:23:18.717500",
  "BandwidthPerPixelPhaseEncode": 24.888,
  "BaseResolution": 82,
  "BodyPartExamined": "BRAIN",
  "ConsistencyInfo": "N4_VE11E_LATEST_20181129",
  "ConversionSoftware": "dcm2niix",
  "ConversionSoftwareVersion": "v1.0.20201102",
  "DerivedVendorReportedEchoSpacing": 0.00049,
  "DeviceSerialNumber": "66112",
  "DwellTime": 2e-06,
  "EchoTime": 0.0272,
  "EchoTrainLength": 82,
  "EffectiveEchoSpacing": 0.00049,
  "FlipAngle": 44,
  "ImageComments": "Unaliased MB8/PE3",
  "ImageOrientationPatientDICOM": [0.998631, -0.0081217, 0.0516788, 0.0118526, 0.997312, -0.0723015],
  "ImageType": [
    "ORIGINAL",
    "PRIMARY",
    "M",
    "MB",
    "ND",
    "NORM",
    "MOSAIC"
],
  "ImagingFrequency": 123.259,
  "InPlanePhaseEncodingDirectionDICOM": "COL",
  "InstitutionAddress": "Maynard 3,Hanover,NH,US,03755",
  "InstitutionName": "Dartmouth College - PBS",
  "InstitutionalDepartmentName": "Department",
  "MRAcquisitionType": "2D",
  "MagneticFieldStrength": 3,
  "Manufacturer": "Siemens",
  "ManufacturersModelName": "Prisma",
  "Modality": "MR",
  "MultibandAccelerationFactor": 8,
  "PartialFourier": 1,
  "PatientPosition": "HFS",
  "PercentPhaseFOV": 100,
  "PercentSampling": 100,
  "PhaseEncodingDirection": "j-",
  "PhaseEncodingSteps": 82,
  "PhaseResolution": 1,
  "PixelBandwidth": 3050,
  "ProcedureStepDescription": "Wager_Wager^1076_spacetop",
  "ProtocolName": "func_run-05_task-social_acq-ap-mb8",
  "PulseSequenceDetails": "%CustomerSeq%\\cmrr_mbep2d_bold",
  "ReceiveCoilActiveElements": "HEA;HEP",
  "ReceiveCoilName": "Head_32",
  "ReconMatrixPE": 82,
  "RepetitionTime": 0.46,
  "SAR": 0.106691,
  "ScanOptions": "FS",
  "ScanningSequence": "EP",
  "SequenceName": "epfid2d1_82",
  "SequenceVariant": "SK\\SS",
  "SeriesDescription": "func_run-05_task-social_acq-ap-mb8",
  "SeriesNumber": 20,
  "ShimSetting": [4252, -7862, -7212, 636, -41, -268, 293, 84],
  "SliceThickness": 2.7,
  "SliceTiming": [0, 0.2525, 0.0625, 0.315, 0.125, 0.3775, 0.19, 0, 0.2525, 0.0625, 0.315, 0.125, 0.3775, 0.19, 0, 0.2525, 0.0625, 0.315, 0.125, 0.3775, 0.19, 0, 0.2525, 0.0625, 0.315, 0.125, 0.3775, 0.19, 0, 0.2525, 0.0625, 0.315, 0.125, 0.3775, 0.19, 0, 0.2525, 0.0625, 0.315, 0.125, 0.3775, 0.19, 0, 0.2525, 0.0625, 0.315, 0.125, 0.3775, 0.19, 0, 0.2525, 0.0625, 0.315, 0.125, 0.3775, 0.19],
  "SoftwareVersions": "syngo MR E11",
  "SpacingBetweenSlices": 2.7,
  "StationName": "AWP66112",
  "TaskName": "social",
  "TotalReadoutTime": 0.03969,
  "TxRefAmp": 231.029,
  "WipMemBlock": "3b12c2c0-fa1d-40fb-a950-8b9db5578ca4||Sequence: R016 ve11e/master r/434b28f1; Aug  7 2019 18:53:46 by eja",
  "dcmmeta_affine": [
    [-2.679253339767456, 0.031799543648958206, 0.1375722587108612, 106.48217010498047],
    [0.021789928898215294, 2.6757161617279053, -0.19660061597824097, -99.373779296875],
    [0.13865041732788086, 0.1939796805381775, 2.6893162727355957, -77.31224822998047],
    [0.0, 0.0, 0.0, 1.0]
],
  "dcmmeta_reorient_transform": [
    [0.0, -1.0, 0.0, 81.0],
    [1.0, 0.0, 0.0, 0.0],
    [0.0, 0.0, 1.0, 0.0],
    [0.0, 0.0, 0.0, 1.0]
],
  "dcmmeta_shape": [82, 82, 56, 872],
  "dcmmeta_slice_dim": 2,
  "dcmmeta_version": 0.6,
  "global": {
    "const": {
      "AccessionNumber": "A004688",
      "AcquisitionMatrix": [82, 0, 0, 82],
      "AngioFlag": "N",
      "BitsAllocated": 16,
      "BitsStored": 16,
      "BodyPartExamined": "BRAIN",
      "Columns": 656,
      "EchoNumbers": 1,
      "EchoTime": 27.2,
      "EchoTrainLength": 82,
      "FlipAngle": 44.0,
      "HighBit": 15,
      "ImageOrientationPatient": [0.99863073281818, -0.0081217005611, 0.05167879111419, 0.0118525569174, 0.99731239216177, -0.0723015168243],
      "ImagePositionPatient": [-887.13008678081, -879.03609005144, -45.720393886757],
      "ImageType": [
        "ORIGINAL",
        "PRIMARY",
        "M",
        "MB",
        "ND",
        "NORM",
        "MOSAIC"
],
      "ImagedNucleus": "1H",
      "ImagingFrequency": 123.259127,
      "InPlanePhaseEncodingDirection": "COL",
      "MRAcquisitionType": "2D",
      "MagneticFieldStrength": 3.0,
      "Manufacturer": "SIEMENS",
      "ManufacturerModelName": "Prisma",
      "Modality": "MR",
      "NumberOfAverages": 1.0,
      "NumberOfPhaseEncodingSteps": 82,
      "PercentPhaseFieldOfView": 100.0,
      "PercentSampling": 100.0,
      "PerformedProcedureStepStartTime": "181820.319000",
      "PhotometricInterpretation": "MONOCHROME2",
      "PixelBandwidth": 3050.0,
      "PixelRepresentation": 0,
      "PixelSpacing": [2.6829268932343, 2.6829268932343],
      "ProtocolName": "func_run-05_task-social_acq-ap-mb8",
      "RepetitionTime": 460.0,
      "Rows": 656,
      "SAR": 0.10669074816839,
      "SamplesPerPixel": 1,
      "ScanOptions": "FS",
      "ScanningSequence": "EP",
      "SequenceName": "epfid2d1_82",
      "SequenceVariant": [
        "SK",
        "SS"
],
      "SeriesDescription": "func_run-05_task-social_acq-ap-mb8",
      "SeriesNumber": 20,
      "SeriesTime": "192347.937000",
      "SliceLocation": -64.344869587375,
      "SliceThickness": 2.7000000476837,
      "SmallestImagePixelValue": 0,
      "SoftwareVersions": "syngo MR E11",
      "SpacingBetweenSlices": 2.7000000671256,
      "SpecificCharacterSet": "ISO_IR 100",
      "StudyID": "2",
      "StudyTime": "181820.257000",
      "TransmitCoilName": "Body",
      "VariableFlipAngleFlag": "N",
      "WindowCenterWidthExplanation": "Algo1"
    },
    "slices": {}
  },
  "time": {
    "samples": {
      "AcquisitionNumber": [1, 2, 3, 4, 5, 6, 7, 8, 9, 10, 11, 12, 13, 14, 15, 16, 17, 18, 19, 20, 21, 22, 23, 24, 25, 26, 27, 28, 29, 30, 31, 32, 33, 34, 35, 36, 37, 38, 39, 40, 41, 42, 43, 44, 45, 46, 47, 48, 49, 50, 51, 52, 53, 54, 55, 56, 57, 58, 59, 60, 61, 62, 63, 64, 65, 66, 67, 68, 69, 70, 71, 72, 73, 74, 75, 76, 77, 78, 79, 80, 81, 82, 83, 84, 85, 86, 87, 88, 89, 90, 91, 92, 93, 94, 95, 96, 97, 98, 99, 100, 101, 102, 103, 104, 105, 106, 107, 108, 109, 110, 111, 112, 113, 114, 115, 116, 117, 118, 119, 120, 121, 122, 123, 124, 125, 126, 127, 128, 129, 130, 131, 132, 133, 134, 135, 136, 137, 138, 139, 140, 141, 142, 143, 144, 145, 146, 147, 148, 149, 150, 151, 152, 153, 154, 155, 156, 157, 158, 159, 160, 161, 162, 163, 164, 165, 166, 167, 168, 169, 170, 171, 172, 173, 174, 175, 176, 177, 178, 179, 180, 181, 182, 183, 184, 185, 186, 187, 188, 189, 190, 191, 192, 193, 194, 195, 196, 197, 198, 199, 200, 201, 202, 203, 204, 205, 206, 207, 208, 209, 210, 211, 212, 213, 214, 215, 216, 217, 218, 219, 220, 221, 222, 223, 224, 225, 226, 227, 228, 229, 230, 231, 232, 233, 234, 235, 236, 237, 238, 239, 240, 241, 242, 243, 244, 245, 246, 247, 248, 249, 250, 251, 252, 253, 254, 255, 256, 257, 258, 259, 260, 261, 262, 263, 264, 265, 266, 267, 268, 269, 270, 271, 272, 273, 274, 275, 276, 277, 278, 279, 280, 281, 282, 283, 284, 285, 286, 287, 288, 289, 290, 291, 292, 293, 294, 295, 296, 297, 298, 299, 300, 301, 302, 303, 304, 305, 306, 307, 308, 309, 310, 311, 312, 313, 314, 315, 316, 317, 318, 319, 320, 321, 322, 323, 324, 325, 326, 327, 328, 329, 330, 331, 332, 333, 334, 335, 336, 337, 338, 339, 340, 341, 342, 343, 344, 345, 346, 347, 348, 349, 350, 351, 352, 353, 354, 355, 356, 357, 358, 359, 360, 361, 362, 363, 364, 365, 366, 367, 368, 369, 370, 371, 372, 373, 374, 375, 376, 377, 378, 379, 380, 381, 382, 383, 384, 385, 386, 387, 388, 389, 390, 391, 392, 393, 394, 395, 396, 397, 398, 399, 400, 401, 402, 403, 404, 405, 406, 407, 408, 409, 410, 411, 412, 413, 414, 415, 416, 417, 418, 419, 420, 421, 422, 423, 424, 425, 426, 427, 428, 429, 430, 431, 432, 433, 434, 435, 436, 437, 438, 439, 440, 441, 442, 443, 444, 445, 446, 447, 448, 449, 450, 451, 452, 453, 454, 455, 456, 457, 458, 459, 460, 461, 462, 463, 464, 465, 466, 467, 468, 469, 470, 471, 472, 473, 474, 475, 476, 477, 478, 479, 480, 481, 482, 483, 484, 485, 486, 487, 488, 489, 490, 491, 492, 493, 494, 495, 496, 497, 498, 499, 500, 501, 502, 503, 504, 505, 506, 507, 508, 509, 510, 511, 512, 513, 514, 515, 516, 517, 518, 519, 520, 521, 522, 523, 524, 525, 526, 527, 528, 529, 530, 531, 532, 533, 534, 535, 536, 537, 538, 539, 540, 541, 542, 543, 544, 545, 546, 547, 548, 549, 550, 551, 552, 553, 554, 555, 556, 557, 558, 559, 560, 561, 562, 563, 564, 565, 566, 567, 568, 569, 570, 571, 572, 573, 574, 575, 576, 577, 578, 579, 580, 581, 582, 583, 584, 585, 586, 587, 588, 589, 590, 591, 592, 593, 594, 595, 596, 597, 598, 599, 600, 601, 602, 603, 604, 605, 606, 607, 608, 609, 610, 611, 612, 613, 614, 615, 616, 617, 618, 619, 620, 621, 622, 623, 624, 625, 626, 627, 628, 629, 630, 631, 632, 633, 634, 635, 636, 637, 638, 639, 640, 641, 642, 643, 644, 645, 646, 647, 648, 649, 650, 651, 652, 653, 654, 655, 656, 657, 658, 659, 660, 661, 662, 663, 664, 665, 666, 667, 668, 669, 670, 671, 672, 673, 674, 675, 676, 677, 678, 679, 680, 681, 682, 683, 684, 685, 686, 687, 688, 689, 690, 691, 692, 693, 694, 695, 696, 697, 698, 699, 700, 701, 702, 703, 704, 705, 706, 707, 708, 709, 710, 711, 712, 713, 714, 715, 716, 717, 718, 719, 720, 721, 722, 723, 724, 725, 726, 727, 728, 729, 730, 731, 732, 733, 734, 735, 736, 737, 738, 739, 740, 741, 742, 743, 744, 745, 746, 747, 748, 749, 750, 751, 752, 753, 754, 755, 756, 757, 758, 759, 760, 761, 762, 763, 764, 765, 766, 767, 768, 769, 770, 771, 772, 773, 774, 775, 776, 777, 778, 779, 780, 781, 782, 783, 784, 785, 786, 787, 788, 789, 790, 791, 792, 793, 794, 795, 796, 797, 798, 799, 800, 801, 802, 803, 804, 805, 806, 807, 808, 809, 810, 811, 812, 813, 814, 815, 816, 817, 818, 819, 820, 821, 822, 823, 824, 825, 826, 827, 828, 829, 830, 831, 832, 833, 834, 835, 836, 837, 838, 839, 840, 841, 842, 843, 844, 845, 846, 847, 848, 849, 850, 851, 852, 853, 854, 855, 856, 857, 858, 859, 860, 861, 862, 863, 864, 865, 866, 867, 868, 869, 870, 871, 872],
      "AcquisitionTime": ["192318.717500", "192319.177500", "192319.637500", "192320.097500", "192320.557500", "192321.017500", "192321.477500", "192321.937500", "192322.397500", "192322.857500", "192323.317500", "192323.777500", "192324.237500", "192324.697500", "192325.157500", "192325.617500", "192326.077500", "192326.537500", "192326.997500", "192327.457500", "192327.917500", "192328.377500", "192328.837500", "192329.297500", "192329.757500", "192330.217500", "192330.677500", "192331.137500", "192331.597500", "192332.057500", "192332.517500", "192332.977500", "192333.437500", "192333.897500", "192334.357500", "192334.817500", "192335.277500", "192335.737500", "192336.197500", "192336.657500", "192337.117500", "192337.577500", "192338.037500", "192338.497500", "192338.957500", "192339.417500", "192339.877500", "192340.337500", "192340.797500", "192341.257500", "192341.717500", "192342.177500", "192342.637500", "192343.097500", "192343.557500", "192344.017500", "192344.477500", "192344.937500", "192345.397500", "192345.857500", "192346.317500", "192346.777500", "192347.237500", "192347.697500", "192348.157500", "192348.617500", "192349.077500", "192349.537500", "192349.997500", "192350.457500", "192350.917500", "192351.377500", "192351.837500", "192352.297500", "192352.757500", "192353.217500", "192353.677500", "192354.137500", "192354.597500", "192355.057500", "192355.517500", "192355.977500", "192356.437500", "192356.897500", "192357.357500", "192357.817500", "192358.277500", "192358.737500", "192359.197500", "192359.657500", "192400.117500", "192400.577500", "192401.037500", "192401.497500", "192401.957500", "192402.417500", "192402.877500", "192403.337500", "192403.797500", "192404.257500", "192404.717500", "192405.177500", "192405.637500", "192406.097500", "192406.557500", "192407.017500", "192407.477500", "192407.937500", "192408.397500", "192408.857500", "192409.317500", "192409.777500", "192410.237500", "192410.697500", "192411.157500", "192411.617500", "192412.077500", "192412.537500", "192412.997500", "192413.457500", "192413.917500", "192414.377500", "192414.837500", "192415.297500", "192415.757500", "192416.217500", "192416.677500", "192417.137500", "192417.597500", "192418.057500", "192418.517500", "192418.977500", "192419.437500", "192419.897500", "192420.357500", "192420.817500", "192421.277500", "192421.737500", "192422.197500", "192422.657500", "192423.117500", "192423.577500", "192424.037500", "192424.497500", "192424.957500", "192425.417500", "192425.877500", "192426.337500", "192426.797500", "192427.257500", "192427.717500", "192428.177500", "192428.637500", "192429.097500", "192429.557500", "192430.017500", "192430.477500", "192430.937500", "192431.397500", "192431.857500", "192432.317500", "192432.777500", "192433.237500", "192433.697500", "192434.157500", "192434.617500", "192435.077500", "192435.537500", "192435.997500", "192436.457500", "192436.917500", "192437.377500", "192437.837500", "192438.297500", "192438.757500", "192439.217500", "192439.677500", "192440.137500", "192440.597500", "192441.057500", "192441.517500", "192441.977500", "192442.437500", "192442.897500", "192443.357500", "192443.817500", "192444.277500", "192444.737500", "192445.197500", "192445.657500", "192446.117500", "192446.577500", "192447.037500", "192447.497500", "192447.957500", "192448.417500", "192448.877500", "192449.337500", "192449.797500", "192450.257500", "192450.717500", "192451.177500", "192451.637500", "192452.097500", "192452.557500", "192453.017500", "192453.477500", "192453.937500", "192454.397500", "192454.857500", "192455.317500", "192455.777500", "192456.237500", "192456.697500", "192457.157500", "192457.617500", "192458.077500", "192458.537500", "192458.997500", "192459.457500", "192459.917500", "192500.377500", "192500.837500", "192501.297500", "192501.757500", "192502.217500", "192502.677500", "192503.137500", "192503.597500", "192504.057500", "192504.517500", "192504.977500", "192505.437500", "192505.897500", "192506.357500", "192506.817500", "192507.277500", "192507.737500", "192508.197500", "192508.657500", "192509.117500", "192509.577500", "192510.037500", "192510.497500", "192510.957500", "192511.417500", "192511.877500", "192512.337500", "192512.797500", "192513.257500", "192513.717500", "192514.177500", "192514.637500", "192515.097500", "192515.557500", "192516.017500", "192516.477500", "192516.937500", "192517.397500", "192517.857500", "192518.317500", "192518.777500", "192519.237500", "192519.697500", "192520.157500", "192520.617500", "192521.077500", "192521.537500", "192521.997500", "192522.457500", "192522.917500", "192523.377500", "192523.837500", "192524.297500", "192524.757500", "192525.217500", "192525.677500", "192526.137500", "192526.597500", "192527.057500", "192527.517500", "192527.977500", "192528.437500", "192528.897500", "192529.357500", "192529.817500", "192530.277500", "192530.737500", "192531.197500", "192531.657500", "192532.117500", "192532.577500", "192533.037500", "192533.497500", "192533.957500", "192534.417500", "192534.877500", "192535.337500", "192535.797500", "192536.257500", "192536.717500", "192537.177500", "192537.637500", "192538.097500", "192538.557500", "192539.017500", "192539.477500", "192539.937500", "192540.397500", "192540.857500", "192541.317500", "192541.777500", "192542.237500", "192542.697500", "192543.157500", "192543.617500", "192544.077500", "192544.537500", "192544.997500", "192545.457500", "192545.917500", "192546.377500", "192546.837500", "192547.297500", "192547.757500", "192548.217500", "192548.677500", "192549.137500", "192549.597500", "192550.057500", "192550.517500", "192550.977500", "192551.437500", "192551.897500", "192552.357500", "192552.817500", "192553.277500", "192553.737500", "192554.197500", "192554.657500", "192555.117500", "192555.577500", "192556.037500", "192556.497500", "192556.957500", "192557.417500", "192557.877500", "192558.337500", "192558.797500", "192559.257500", "192559.717500", "192600.177500", "192600.637500", "192601.097500", "192601.557500", "192602.017500", "192602.477500", "192602.937500", "192603.397500", "192603.857500", "192604.317500", "192604.777500", "192605.237500", "192605.697500", "192606.157500", "192606.617500", "192607.077500", "192607.537500", "192607.997500", "192608.457500", "192608.917500", "192609.377500", "192609.837500", "192610.297500", "192610.757500", "192611.217500", "192611.677500", "192612.137500", "192612.597500", "192613.057500", "192613.517500", "192613.977500", "192614.437500", "192614.897500", "192615.357500", "192615.817500", "192616.277500", "192616.737500", "192617.197500", "192617.657500", "192618.117500", "192618.577500", "192619.037500", "192619.497500", "192619.957500", "192620.417500", "192620.877500", "192621.337500", "192621.797500", "192622.257500", "192622.717500", "192623.177500", "192623.637500", "192624.097500", "192624.557500", "192625.017500", "192625.477500", "192625.937500", "192626.397500", "192626.857500", "192627.317500", "192627.777500", "192628.237500", "192628.697500", "192629.157500", "192629.617500", "192630.077500", "192630.537500", "192630.997500", "192631.457500", "192631.917500", "192632.377500", "192632.837500", "192633.297500", "192633.757500", "192634.217500", "192634.677500", "192635.137500", "192635.597500", "192636.057500", "192636.517500", "192636.977500", "192637.437500", "192637.897500", "192638.357500", "192638.817500", "192639.277500", "192639.737500", "192640.197500", "192640.657500", "192641.117500", "192641.577500", "192642.037500", "192642.497500", "192642.957500", "192643.417500", "192643.877500", "192644.337500", "192644.797500", "192645.257500", "192645.717500", "192646.177500", "192646.637500", "192647.097500", "192647.557500", "192648.017500", "192648.477500", "192648.937500", "192649.397500", "192649.857500", "192650.317500", "192650.777500", "192651.237500", "192651.697500", "192652.157500", "192652.617500", "192653.077500", "192653.537500", "192653.997500", "192654.457500", "192654.917500", "192655.377500", "192655.837500", "192656.297500", "192656.757500", "192657.217500", "192657.677500", "192658.137500", "192658.597500", "192659.057500", "192659.517500", "192659.977500", "192700.437500", "192700.897500", "192701.357500", "192701.817500", "192702.277500", "192702.737500", "192703.197500", "192703.657500", "192704.117500", "192704.577500", "192705.037500", "192705.497500", "192705.957500", "192706.417500", "192706.877500", "192707.337500", "192707.797500", "192708.257500", "192708.717500", "192709.177500", "192709.637500", "192710.097500", "192710.557500", "192711.017500", "192711.477500", "192711.937500", "192712.397500", "192712.857500", "192713.317500", "192713.777500", "192714.237500", "192714.697500", "192715.157500", "192715.617500", "192716.077500", "192716.537500", "192716.997500", "192717.457500", "192717.917500", "192718.377500", "192718.837500", "192719.297500", "192719.757500", "192720.217500", "192720.677500", "192721.137500", "192721.597500", "192722.057500", "192722.517500", "192722.977500", "192723.437500", "192723.897500", "192724.357500", "192724.817500", "192725.277500", "192725.737500", "192726.197500", "192726.657500", "192727.117500", "192727.577500", "192728.037500", "192728.497500", "192728.957500", "192729.417500", "192729.877500", "192730.337500", "192730.797500", "192731.257500", "192731.717500", "192732.177500", "192732.637500", "192733.097500", "192733.557500", "192734.017500", "192734.477500", "192734.937500", "192735.397500", "192735.857500", "192736.317500", "192736.777500", "192737.237500", "192737.697500", "192738.157500", "192738.617500", "192739.077500", "192739.537500", "192739.997500", "192740.457500", "192740.917500", "192741.377500", "192741.837500", "192742.297500", "192742.757500", "192743.217500", "192743.677500", "192744.137500", "192744.597500", "192745.057500", "192745.517500", "192745.977500", "192746.437500", "192746.897500", "192747.357500", "192747.817500", "192748.277500", "192748.737500", "192749.197500", "192749.657500", "192750.117500", "192750.577500", "192751.037500", "192751.497500", "192751.957500", "192752.417500", "192752.877500", "192753.337500", "192753.797500", "192754.257500", "192754.717500", "192755.177500", "192755.637500", "192756.097500", "192756.557500", "192757.017500", "192757.477500", "192757.937500", "192758.397500", "192758.857500", "192759.317500", "192759.777500", "192800.237500", "192800.697500", "192801.157500", "192801.617500", "192802.077500", "192802.537500", "192802.997500", "192803.457500", "192803.917500", "192804.377500", "192804.837500", "192805.297500", "192805.757500", "192806.217500", "192806.677500", "192807.137500", "192807.597500", "192808.057500", "192808.517500", "192808.977500", "192809.437500", "192809.897500", "192810.357500", "192810.817500", "192811.277500", "192811.737500", "192812.197500", "192812.657500", "192813.117500", "192813.577500", "192814.037500", "192814.497500", "192814.957500", "192815.417500", "192815.877500", "192816.337500", "192816.797500", "192817.257500", "192817.717500", "192818.177500", "192818.637500", "192819.097500", "192819.557500", "192820.017500", "192820.477500", "192820.937500", "192821.397500", "192821.857500", "192822.317500", "192822.777500", "192823.237500", "192823.697500", "192824.157500", "192824.617500", "192825.077500", "192825.537500", "192825.997500", "192826.457500", "192826.917500", "192827.377500", "192827.837500", "192828.297500", "192828.757500", "192829.217500", "192829.677500", "192830.137500", "192830.597500", "192831.057500", "192831.517500", "192831.977500", "192832.437500", "192832.897500", "192833.357500", "192833.817500", "192834.277500", "192834.737500", "192835.197500", "192835.657500", "192836.117500", "192836.577500", "192837.037500", "192837.497500", "192837.957500", "192838.417500", "192838.877500", "192839.337500", "192839.797500", "192840.257500", "192840.717500", "192841.177500", "192841.637500", "192842.097500", "192842.557500", "192843.017500", "192843.477500", "192843.937500", "192844.397500", "192844.857500", "192845.317500", "192845.777500", "192846.237500", "192846.697500", "192847.157500", "192847.617500", "192848.077500", "192848.537500", "192848.997500", "192849.457500", "192849.917500", "192850.377500", "192850.837500", "192851.297500", "192851.757500", "192852.217500", "192852.677500", "192853.137500", "192853.597500", "192854.057500", "192854.517500", "192854.977500", "192855.437500", "192855.897500", "192856.357500", "192856.817500", "192857.277500", "192857.737500", "192858.197500", "192858.657500", "192859.117500", "192859.577500", "192900.037500", "192900.497500", "192900.957500", "192901.417500", "192901.877500", "192902.337500", "192902.797500", "192903.257500", "192903.717500", "192904.177500", "192904.637500", "192905.097500", "192905.557500", "192906.017500", "192906.477500", "192906.937500", "192907.397500", "192907.857500", "192908.317500", "192908.777500", "192909.237500", "192909.697500", "192910.157500", "192910.617500", "192911.077500", "192911.537500", "192911.997500", "192912.457500", "192912.917500", "192913.377500", "192913.837500", "192914.297500", "192914.757500", "192915.217500", "192915.677500", "192916.137500", "192916.597500", "192917.057500", "192917.517500", "192917.977500", "192918.437500", "192918.897500", "192919.357500", "192919.817500", "192920.277500", "192920.737500", "192921.197500", "192921.657500", "192922.117500", "192922.577500", "192923.037500", "192923.497500", "192923.957500", "192924.417500", "192924.877500", "192925.337500", "192925.797500", "192926.257500", "192926.717500", "192927.177500", "192927.637500", "192928.097500", "192928.557500", "192929.017500", "192929.477500", "192929.937500", "192930.397500", "192930.857500", "192931.317500", "192931.777500", "192932.237500", "192932.697500", "192933.157500", "192933.617500", "192934.077500", "192934.537500", "192934.997500", "192935.457500", "192935.917500", "192936.377500", "192936.837500", "192937.297500", "192937.757500", "192938.217500", "192938.677500", "192939.137500", "192939.597500", "192940.057500", "192940.517500", "192940.977500", "192941.437500", "192941.897500", "192942.357500", "192942.817500", "192943.277500", "192943.737500", "192944.197500", "192944.657500", "192945.117500", "192945.577500", "192946.037500", "192946.497500", "192946.957500", "192947.417500", "192947.877500", "192948.337500", "192948.797500", "192949.257500", "192949.717500", "192950.177500", "192950.637500", "192951.097500", "192951.557500", "192952.017500", "192952.477500", "192952.937500", "192953.397500", "192953.857500", "192954.317500", "192954.777500", "192955.237500", "192955.697500", "192956.157500", "192956.617500", "192957.077500", "192957.537500", "192957.997500", "192958.457500", "192958.917500", "192959.377500"],
