{
  "AcquisitionMatrixPE": 82,
  "AcquisitionNumber": 1,
  "AcquisitionTime": "19:39:52.402500",
  "BandwidthPerPixelPhaseEncode": 24.888,
  "BaseResolution": 82,
  "BodyPartExamined": "BRAIN",
  "ConsistencyInfo": "N4_VE11E_LATEST_20181129",
  "ConversionSoftware": "dcm2niix",
  "ConversionSoftwareVersion": "v1.0.20201102",
  "DerivedVendorReportedEchoSpacing": 0.00049,
  "DeviceSerialNumber": "66112",
  "DwellTime": 2e-06,
  "EchoTime": 0.0272,
  "EchoTrainLength": 82,
  "EffectiveEchoSpacing": 0.00049,
  "FlipAngle": 44,
  "ImageComments": "Unaliased MB8/PE3",
  "ImageOrientationPatientDICOM": [0.999064, -0.0130932, 0.0412164, 0.0172644, 0.99458, -0.102531],
  "ImageType": [
    "ORIGINAL",
    "PRIMARY",
    "M",
    "MB",
    "ND",
    "NORM",
    "MOSAIC"
],
  "ImagingFrequency": 123.259,
  "InPlanePhaseEncodingDirectionDICOM": "COL",
  "InstitutionAddress": "Maynard 3,Hanover,NH,US,03755",
  "InstitutionName": "Dartmouth College - PBS",
  "InstitutionalDepartmentName": "Department",
  "MRAcquisitionType": "2D",
  "MagneticFieldStrength": 3,
  "Manufacturer": "Siemens",
  "ManufacturersModelName": "Prisma",
  "Modality": "MR",
  "MultibandAccelerationFactor": 8,
  "PartialFourier": 1,
  "PatientPosition": "HFS",
  "PercentPhaseFOV": 100,
  "PercentSampling": 100,
  "PhaseEncodingDirection": "j-",
  "PhaseEncodingSteps": 82,
  "PhaseResolution": 1,
  "PixelBandwidth": 3050,
  "ProcedureStepDescription": "Wager_Wager^1076_spacetop",
  "ProtocolName": "func_run-01_task-alignvideo_acq-ap-mb8",
  "PulseSequenceDetails": "%CustomerSeq%\\cmrr_mbep2d_bold",
  "ReceiveCoilActiveElements": "HEA;HEP",
  "ReceiveCoilName": "Head_32",
  "ReconMatrixPE": 82,
  "RepetitionTime": 0.46,
  "SAR": 0.106899,
  "ScanOptions": "FS",
  "ScanningSequence": "EP",
  "SequenceName": "epfid2d1_82",
  "SequenceVariant": "SK\\SS",
  "SeriesDescription": "func_run-01_task-alignvideo_acq-ap-mb8",
  "SeriesNumber": 30,
  "ShimSetting": [4251, -7862, -7213, 634, -42, -269, 295, 83],
  "SliceThickness": 2.7,
  "SliceTiming": [0, 0.2525, 0.0625, 0.315, 0.1275, 0.3775, 0.19, 0, 0.2525, 0.0625, 0.315, 0.1275, 0.3775, 0.19, 0, 0.2525, 0.0625, 0.315, 0.1275, 0.3775, 0.19, 0, 0.2525, 0.0625, 0.315, 0.1275, 0.3775, 0.19, 0, 0.2525, 0.0625, 0.315, 0.1275, 0.3775, 0.19, 0, 0.2525, 0.0625, 0.315, 0.1275, 0.3775, 0.19, 0, 0.2525, 0.0625, 0.315, 0.1275, 0.3775, 0.19, 0, 0.2525, 0.0625, 0.315, 0.1275, 0.3775, 0.19],
  "SoftwareVersions": "syngo MR E11",
  "SpacingBetweenSlices": 2.7,
  "StationName": "AWP66112",
  "TaskName": "alignvideo",
  "TotalReadoutTime": 0.03969,
  "TxRefAmp": 231.029,
  "WipMemBlock": "ced323f3-050f-4a11-bdd1-42b19b0b7428||Sequence: R016 ve11e/master r/434b28f1; Aug  7 2019 18:53:46 by eja",
  "dcmmeta_affine": [
    [-2.6804168224334717, 0.046319060027599335, 0.10705658793449402, 106.29269409179688],
    [0.03512817248702049, 2.6683852672576904, -0.2784958779811859, -97.84304809570312],
    [0.11058070510625839, 0.27508309483528137, 2.6834640502929688, -78.1512222290039],
    [0.0, 0.0, 0.0, 1.0]
],
  "dcmmeta_reorient_transform": [
    [0.0, -1.0, 0.0, 81.0],
    [1.0, 0.0, 0.0, 0.0],
    [0.0, 0.0, 1.0, 0.0],
    [0.0, 0.0, 0.0, 1.0]
],
  "dcmmeta_shape": [82, 82, 56, 862],
  "dcmmeta_slice_dim": 2,
  "dcmmeta_version": 0.6,
  "global": {
    "const": {
      "AccessionNumber": "A004688",
      "AcquisitionMatrix": [82, 0, 0, 82],
      "AngioFlag": "N",
      "BitsAllocated": 16,
      "BitsStored": 16,
      "BodyPartExamined": "BRAIN",
      "Columns": 656,
      "EchoNumbers": 1,
      "EchoTime": 27.2,
      "EchoTrainLength": 82,
      "FlipAngle": 44.0,
      "HighBit": 15,
      "ImageOrientationPatient": [0.99906444840434, -0.0130932282064, 0.04121644465096, 0.0172643764146, 0.99457998253175, -0.1025309692442],
      "ImagePositionPatient": [-892.61775256632, -874.04098406575, -8.6573032226138],
      "ImageType": [
        "ORIGINAL",
        "PRIMARY",
        "M",
        "MB",
        "ND",
        "NORM",
        "MOSAIC"
],
      "ImagedNucleus": "1H",
      "ImagingFrequency": 123.259125,
      "InPlanePhaseEncodingDirection": "COL",
      "MRAcquisitionType": "2D",
      "MagneticFieldStrength": 3.0,
      "Manufacturer": "SIEMENS",
      "ManufacturerModelName": "Prisma",
      "Modality": "MR",
      "NumberOfAverages": 1.0,
      "NumberOfPhaseEncodingSteps": 82,
      "PercentPhaseFieldOfView": 100.0,
      "PercentSampling": 100.0,
      "PerformedProcedureStepStartTime": "181820.319000",
      "PhotometricInterpretation": "MONOCHROME2",
      "PixelBandwidth": 3050.0,
      "PixelRepresentation": 0,
      "PixelSpacing": [2.6829268932343, 2.6829268932343],
      "ProtocolName": "func_run-01_task-alignvideo_acq-ap-mb8",
      "RepetitionTime": 460.0,
      "Rows": 656,
      "SAR": 0.10689862227726,
      "SamplesPerPixel": 1,
      "ScanOptions": "FS",
      "ScanningSequence": "EP",
      "SequenceName": "epfid2d1_82",
      "SequenceVariant": [
        "SK",
        "SS"
],
      "SeriesDescription": "func_run-01_task-alignvideo_acq-ap-mb8",
      "SeriesNumber": 30,
      "SeriesTime": "194007.851000",
      "SliceLocation": -63.365837353812,
      "SliceThickness": 2.7000000476837,
      "SmallestImagePixelValue": 0,
      "SoftwareVersions": "syngo MR E11",
      "SpacingBetweenSlices": 2.7000000009642,
      "SpecificCharacterSet": "ISO_IR 100",
      "StudyID": "2",
      "StudyTime": "181820.257000",
      "TransmitCoilName": "Body",
      "VariableFlipAngleFlag": "N",
      "WindowCenterWidthExplanation": "Algo1"
    },
    "slices": {}
  },
  "time": {
    "samples": {
      "AcquisitionNumber": [1, 2, 3, 4, 5, 6, 7, 8, 9, 10, 11, 12, 13, 14, 15, 16, 17, 18, 19, 20, 21, 22, 23, 24, 25, 26, 27, 28, 29, 30, 31, 32, 33, 34, 35, 36, 37, 38, 39, 40, 41, 42, 43, 44, 45, 46, 47, 48, 49, 50, 51, 52, 53, 54, 55, 56, 57, 58, 59, 60, 61, 62, 63, 64, 65, 66, 67, 68, 69, 70, 71, 72, 73, 74, 75, 76, 77, 78, 79, 80, 81, 82, 83, 84, 85, 86, 87, 88, 89, 90, 91, 92, 93, 94, 95, 96, 97, 98, 99, 100, 101, 102, 103, 104, 105, 106, 107, 108, 109, 110, 111, 112, 113, 114, 115, 116, 117, 118, 119, 120, 121, 122, 123, 124, 125, 126, 127, 128, 129, 130, 131, 132, 133, 134, 135, 136, 137, 138, 139, 140, 141, 142, 143, 144, 145, 146, 147, 148, 149, 150, 151, 152, 153, 154, 155, 156, 157, 158, 159, 160, 161, 162, 163, 164, 165, 166, 167, 168, 169, 170, 171, 172, 173, 174, 175, 176, 177, 178, 179, 180, 181, 182, 183, 184, 185, 186, 187, 188, 189, 190, 191, 192, 193, 194, 195, 196, 197, 198, 199, 200, 201, 202, 203, 204, 205, 206, 207, 208, 209, 210, 211, 212, 213, 214, 215, 216, 217, 218, 219, 220, 221, 222, 223, 224, 225, 226, 227, 228, 229, 230, 231, 232, 233, 234, 235, 236, 237, 238, 239, 240, 241, 242, 243, 244, 245, 246, 247, 248, 249, 250, 251, 252, 253, 254, 255, 256, 257, 258, 259, 260, 261, 262, 263, 264, 265, 266, 267, 268, 269, 270, 271, 272, 273, 274, 275, 276, 277, 278, 279, 280, 281, 282, 283, 284, 285, 286, 287, 288, 289, 290, 291, 292, 293, 294, 295, 296, 297, 298, 299, 300, 301, 302, 303, 304, 305, 306, 307, 308, 309, 310, 311, 312, 313, 314, 315, 316, 317, 318, 319, 320, 321, 322, 323, 324, 325, 326, 327, 328, 329, 330, 331, 332, 333, 334, 335, 336, 337, 338, 339, 340, 341, 342, 343, 344, 345, 346, 347, 348, 349, 350, 351, 352, 353, 354, 355, 356, 357, 358, 359, 360, 361, 362, 363, 364, 365, 366, 367, 368, 369, 370, 371, 372, 373, 374, 375, 376, 377, 378, 379, 380, 381, 382, 383, 384, 385, 386, 387, 388, 389, 390, 391, 392, 393, 394, 395, 396, 397, 398, 399, 400, 401, 402, 403, 404, 405, 406, 407, 408, 409, 410, 411, 412, 413, 414, 415, 416, 417, 418, 419, 420, 421, 422, 423, 424, 425, 426, 427, 428, 429, 430, 431, 432, 433, 434, 435, 436, 437, 438, 439, 440, 441, 442, 443, 444, 445, 446, 447, 448, 449, 450, 451, 452, 453, 454, 455, 456, 457, 458, 459, 460, 461, 462, 463, 464, 465, 466, 467, 468, 469, 470, 471, 472, 473, 474, 475, 476, 477, 478, 479, 480, 481, 482, 483, 484, 485, 486, 487, 488, 489, 490, 491, 492, 493, 494, 495, 496, 497, 498, 499, 500, 501, 502, 503, 504, 505, 506, 507, 508, 509, 510, 511, 512, 513, 514, 515, 516, 517, 518, 519, 520, 521, 522, 523, 524, 525, 526, 527, 528, 529, 530, 531, 532, 533, 534, 535, 536, 537, 538, 539, 540, 541, 542, 543, 544, 545, 546, 547, 548, 549, 550, 551, 552, 553, 554, 555, 556, 557, 558, 559, 560, 561, 562, 563, 564, 565, 566, 567, 568, 569, 570, 571, 572, 573, 574, 575, 576, 577, 578, 579, 580, 581, 582, 583, 584, 585, 586, 587, 588, 589, 590, 591, 592, 593, 594, 595, 596, 597, 598, 599, 600, 601, 602, 603, 604, 605, 606, 607, 608, 609, 610, 611, 612, 613, 614, 615, 616, 617, 618, 619, 620, 621, 622, 623, 624, 625, 626, 627, 628, 629, 630, 631, 632, 633, 634, 635, 636, 637, 638, 639, 640, 641, 642, 643, 644, 645, 646, 647, 648, 649, 650, 651, 652, 653, 654, 655, 656, 657, 658, 659, 660, 661, 662, 663, 664, 665, 666, 667, 668, 669, 670, 671, 672, 673, 674, 675, 676, 677, 678, 679, 680, 681, 682, 683, 684, 685, 686, 687, 688, 689, 690, 691, 692, 693, 694, 695, 696, 697, 698, 699, 700, 701, 702, 703, 704, 705, 706, 707, 708, 709, 710, 711, 712, 713, 714, 715, 716, 717, 718, 719, 720, 721, 722, 723, 724, 725, 726, 727, 728, 729, 730, 731, 732, 733, 734, 735, 736, 737, 738, 739, 740, 741, 742, 743, 744, 745, 746, 747, 748, 749, 750, 751, 752, 753, 754, 755, 756, 757, 758, 759, 760, 761, 762, 763, 764, 765, 766, 767, 768, 769, 770, 771, 772, 773, 774, 775, 776, 777, 778, 779, 780, 781, 782, 783, 784, 785, 786, 787, 788, 789, 790, 791, 792, 793, 794, 795, 796, 797, 798, 799, 800, 801, 802, 803, 804, 805, 806, 807, 808, 809, 810, 811, 812, 813, 814, 815, 816, 817, 818, 819, 820, 821, 822, 823, 824, 825, 826, 827, 828, 829, 830, 831, 832, 833, 834, 835, 836, 837, 838, 839, 840, 841, 842, 843, 844, 845, 846, 847, 848, 849, 850, 851, 852, 853, 854, 855, 856, 857, 858, 859, 860, 861, 862],
      "AcquisitionTime": ["193952.402500", "193952.862500", "193953.322500", "193953.782500", "193954.242500", "193954.702500", "193955.162500", "193955.622500", "193956.082500", "193956.542500", "193957.002500", "193957.462500", "193957.922500", "193958.382500", "193958.842500", "193959.302500", "193959.762500", "194000.222500", "194000.682500", "194001.142500", "194001.602500", "194002.062500", "194002.522500", "194002.982500", "194003.442500", "194003.902500", "194004.362500", "194004.822500", "194005.282500", "194005.742500", "194006.202500", "194006.662500", "194007.122500", "194007.582500", "194008.042500", "194008.502500", "194008.962500", "194009.422500", "194009.882500", "194010.342500", "194010.802500", "194011.262500", "194011.722500", "194012.182500", "194012.642500", "194013.102500", "194013.562500", "194014.022500", "194014.482500", "194014.942500", "194015.402500", "194015.862500", "194016.322500", "194016.782500", "194017.242500", "194017.702500", "194018.162500", "194018.622500", "194019.082500", "194019.542500", "194020.002500", "194020.462500", "194020.922500", "194021.382500", "194021.842500", "194022.302500", "194022.762500", "194023.222500", "194023.682500", "194024.142500", "194024.602500", "194025.062500", "194025.522500", "194025.982500", "194026.442500", "194026.902500", "194027.362500", "194027.822500", "194028.282500", "194028.742500", "194029.202500", "194029.662500", "194030.122500", "194030.582500", "194031.042500", "194031.502500", "194031.962500", "194032.422500", "194032.882500", "194033.342500", "194033.802500", "194034.262500", "194034.722500", "194035.182500", "194035.642500", "194036.102500", "194036.562500", "194037.022500", "194037.482500", "194037.942500", "194038.402500", "194038.862500", "194039.322500", "194039.782500", "194040.242500", "194040.702500", "194041.162500", "194041.622500", "194042.082500", "194042.542500", "194043.002500", "194043.462500", "194043.922500", "194044.382500", "194044.842500", "194045.302500", "194045.762500", "194046.222500", "194046.682500", "194047.142500", "194047.602500", "194048.062500", "194048.522500", "194048.982500", "194049.442500", "194049.902500", "194050.362500", "194050.822500", "194051.282500", "194051.742500", "194052.202500", "194052.662500", "194053.122500", "194053.582500", "194054.042500", "194054.502500", "194054.962500", "194055.422500", "194055.882500", "194056.342500", "194056.802500", "194057.262500", "194057.722500", "194058.182500", "194058.642500", "194059.102500", "194059.562500", "194100.022500", "194100.482500", "194100.942500", "194101.402500", "194101.862500", "194102.322500", "194102.782500", "194103.242500", "194103.702500", "194104.162500", "194104.622500", "194105.082500", "194105.542500", "194106.002500", "194106.462500", "194106.922500", "194107.382500", "194107.842500", "194108.302500", "194108.762500", "194109.222500", "194109.682500", "194110.142500", "194110.602500", "194111.062500", "194111.522500", "194111.982500", "194112.442500", "194112.902500", "194113.362500", "194113.822500", "194114.282500", "194114.742500", "194115.202500", "194115.662500", "194116.122500", "194116.582500", "194117.042500", "194117.502500", "194117.962500", "194118.422500", "194118.882500", "194119.342500", "194119.802500", "194120.262500", "194120.722500", "194121.182500", "194121.642500", "194122.102500", "194122.562500", "194123.022500", "194123.482500", "194123.942500", "194124.402500", "194124.862500", "194125.322500", "194125.782500", "194126.242500", "194126.702500", "194127.162500", "194127.622500", "194128.082500", "194128.542500", "194129.002500", "194129.462500", "194129.922500", "194130.382500", "194130.842500", "194131.302500", "194131.762500", "194132.222500", "194132.682500", "194133.142500", "194133.602500", "194134.062500", "194134.522500", "194134.982500", "194135.442500", "194135.902500", "194136.362500", "194136.822500", "194137.282500", "194137.742500", "194138.202500", "194138.662500", "194139.122500", "194139.582500", "194140.042500", "194140.502500", "194140.962500", "194141.422500", "194141.882500", "194142.342500", "194142.802500", "194143.262500", "194143.722500", "194144.182500", "194144.642500", "194145.102500", "194145.562500", "194146.022500", "194146.482500", "194146.942500", "194147.402500", "194147.862500", "194148.322500", "194148.782500", "194149.242500", "194149.702500", "194150.162500", "194150.622500", "194151.082500", "194151.542500", "194152.002500", "194152.462500", "194152.922500", "194153.382500", "194153.842500", "194154.302500", "194154.762500", "194155.222500", "194155.682500", "194156.142500", "194156.602500", "194157.062500", "194157.522500", "194157.982500", "194158.442500", "194158.902500", "194159.362500", "194159.822500", "194200.282500", "194200.742500", "194201.202500", "194201.662500", "194202.122500", "194202.582500", "194203.042500", "194203.502500", "194203.962500", "194204.422500", "194204.882500", "194205.342500", "194205.802500", "194206.262500", "194206.722500", "194207.182500", "194207.642500", "194208.102500", "194208.562500", "194209.022500", "194209.482500", "194209.942500", "194210.402500", "194210.862500", "194211.322500", "194211.782500", "194212.242500", "194212.702500", "194213.162500", "194213.622500", "194214.082500", "194214.542500", "194215.002500", "194215.462500", "194215.922500", "194216.382500", "194216.842500", "194217.302500", "194217.762500", "194218.222500", "194218.682500", "194219.142500", "194219.602500", "194220.062500", "194220.522500", "194220.982500", "194221.442500", "194221.902500", "194222.362500", "194222.822500", "194223.282500", "194223.742500", "194224.202500", "194224.662500", "194225.122500", "194225.582500", "194226.042500", "194226.502500", "194226.962500", "194227.422500", "194227.882500", "194228.342500", "194228.802500", "194229.262500", "194229.722500", "194230.182500", "194230.642500", "194231.102500", "194231.562500", "194232.022500", "194232.482500", "194232.942500", "194233.402500", "194233.862500", "194234.322500", "194234.782500", "194235.242500", "194235.702500", "194236.162500", "194236.622500", "194237.082500", "194237.542500", "194238.002500", "194238.462500", "194238.922500", "194239.382500", "194239.842500", "194240.302500", "194240.762500", "194241.222500", "194241.682500", "194242.142500", "194242.602500", "194243.062500", "194243.522500", "194243.982500", "194244.442500", "194244.902500", "194245.362500", "194245.822500", "194246.282500", "194246.742500", "194247.202500", "194247.662500", "194248.122500", "194248.582500", "194249.042500", "194249.502500", "194249.962500", "194250.422500", "194250.882500", "194251.342500", "194251.802500", "194252.262500", "194252.722500", "194253.182500", "194253.642500", "194254.102500", "194254.562500", "194255.022500", "194255.482500", "194255.942500", "194256.402500", "194256.862500", "194257.322500", "194257.782500", "194258.242500", "194258.702500", "194259.162500", "194259.622500", "194300.082500", "194300.542500", "194301.002500", "194301.462500", "194301.922500", "194302.382500", "194302.842500", "194303.302500", "194303.762500", "194304.222500", "194304.682500", "194305.142500", "194305.602500", "194306.062500", "194306.522500", "194306.982500", "194307.442500", "194307.902500", "194308.362500", "194308.822500", "194309.282500", "194309.742500", "194310.202500", "194310.662500", "194311.122500", "194311.582500", "194312.042500", "194312.502500", "194312.962500", "194313.422500", "194313.882500", "194314.342500", "194314.802500", "194315.262500", "194315.722500", "194316.182500", "194316.642500", "194317.102500", "194317.562500", "194318.022500", "194318.482500", "194318.942500", "194319.402500", "194319.862500", "194320.322500", "194320.782500", "194321.242500", "194321.702500", "194322.162500", "194322.622500", "194323.082500", "194323.542500", "194324.002500", "194324.462500", "194324.922500", "194325.382500", "194325.842500", "194326.302500", "194326.762500", "194327.222500", "194327.682500", "194328.142500", "194328.602500", "194329.062500", "194329.522500", "194329.982500", "194330.442500", "194330.902500", "194331.362500", "194331.822500", "194332.282500", "194332.742500", "194333.202500", "194333.662500", "194334.122500", "194334.582500", "194335.042500", "194335.502500", "194335.962500", "194336.422500", "194336.882500", "194337.342500", "194337.802500", "194338.262500", "194338.722500", "194339.182500", "194339.642500", "194340.102500", "194340.562500", "194341.022500", "194341.482500", "194341.942500", "194342.402500", "194342.862500", "194343.322500", "194343.782500", "194344.242500", "194344.702500", "194345.162500", "194345.622500", "194346.082500", "194346.542500", "194347.002500", "194347.462500", "194347.922500", "194348.382500", "194348.842500", "194349.302500", "194349.762500", "194350.222500", "194350.682500", "194351.142500", "194351.602500", "194352.062500", "194352.522500", "194352.982500", "194353.442500", "194353.902500", "194354.362500", "194354.822500", "194355.282500", "194355.742500", "194356.202500", "194356.662500", "194357.122500", "194357.582500", "194358.042500", "194358.502500", "194358.962500", "194359.422500", "194359.882500", "194400.342500", "194400.802500", "194401.262500", "194401.722500", "194402.182500", "194402.642500", "194403.102500", "194403.562500", "194404.022500", "194404.482500", "194404.942500", "194405.402500", "194405.862500", "194406.322500", "194406.782500", "194407.242500", "194407.702500", "194408.162500", "194408.622500", "194409.082500", "194409.542500", "194410.002500", "194410.462500", "194410.922500", "194411.382500", "194411.842500", "194412.302500", "194412.762500", "194413.222500", "194413.682500", "194414.142500", "194414.602500", "194415.062500", "194415.522500", "194415.982500", "194416.442500", "194416.902500", "194417.362500", "194417.822500", "194418.282500", "194418.742500", "194419.202500", "194419.662500", "194420.122500", "194420.582500", "194421.042500", "194421.502500", "194421.962500", "194422.422500", "194422.882500", "194423.342500", "194423.802500", "194424.262500", "194424.722500", "194425.182500", "194425.642500", "194426.102500", "194426.562500", "194427.022500", "194427.482500", "194427.942500", "194428.402500", "194428.862500", "194429.322500", "194429.782500", "194430.242500", "194430.702500", "194431.162500", "194431.622500", "194432.082500", "194432.542500", "194433.002500", "194433.462500", "194433.922500", "194434.382500", "194434.842500", "194435.302500", "194435.762500", "194436.222500", "194436.682500", "194437.142500", "194437.602500", "194438.062500", "194438.522500", "194438.982500", "194439.442500", "194439.902500", "194440.362500", "194440.822500", "194441.282500", "194441.742500", "194442.202500", "194442.662500", "194443.122500", "194443.582500", "194444.042500", "194444.502500", "194444.962500", "194445.422500", "194445.882500", "194446.342500", "194446.802500", "194447.262500", "194447.722500", "194448.182500", "194448.642500", "194449.102500", "194449.562500", "194450.022500", "194450.482500", "194450.942500", "194451.402500", "194451.862500", "194452.322500", "194452.782500", "194453.242500", "194453.702500", "194454.162500", "194454.622500", "194455.082500", "194455.542500", "194456.002500", "194456.462500", "194456.922500", "194457.382500", "194457.842500", "194458.302500", "194458.762500", "194459.222500", "194459.682500", "194500.142500", "194500.602500", "194501.062500", "194501.522500", "194501.982500", "194502.442500", "194502.902500", "194503.362500", "194503.822500", "194504.282500", "194504.742500", "194505.202500", "194505.662500", "194506.122500", "194506.582500", "194507.042500", "194507.502500", "194507.962500", "194508.422500", "194508.882500", "194509.342500", "194509.802500", "194510.262500", "194510.722500", "194511.182500", "194511.642500", "194512.102500", "194512.562500", "194513.022500", "194513.482500", "194513.942500", "194514.402500", "194514.862500", "194515.322500", "194515.782500", "194516.242500", "194516.702500", "194517.162500", "194517.622500", "194518.082500", "194518.542500", "194519.002500", "194519.462500", "194519.922500", "194520.382500", "194520.842500", "194521.302500", "194521.762500", "194522.222500", "194522.682500", "194523.142500", "194523.602500", "194524.062500", "194524.522500", "194524.982500", "194525.442500", "194525.902500", "194526.362500", "194526.822500", "194527.282500", "194527.742500", "194528.202500", "194528.662500", "194529.122500", "194529.582500", "194530.042500", "194530.502500", "194530.962500", "194531.422500", "194531.882500", "194532.342500", "194532.802500", "194533.262500", "194533.722500", "194534.182500", "194534.642500", "194535.102500", "194535.562500", "194536.022500", "194536.482500", "194536.942500", "194537.402500", "194537.862500", "194538.322500", "194538.782500", "194539.242500", "194539.702500", "194540.162500", "194540.622500", "194541.082500", "194541.542500", "194542.002500", "194542.462500", "194542.922500", "194543.382500", "194543.842500", "194544.302500", "194544.762500", "194545.222500", "194545.682500", "194546.142500", "194546.602500", "194547.062500", "194547.522500", "194547.982500", "194548.442500", "194548.902500", "194549.362500", "194549.822500", "194550.282500", "194550.742500", "194551.202500", "194551.662500", "194552.122500", "194552.582500", "194553.042500", "194553.502500", "194553.962500", "194554.422500", "194554.882500", "194555.342500", "194555.802500", "194556.262500", "194556.722500", "194557.182500", "194557.642500", "194558.102500", "194558.562500", "194559.022500", "194559.482500", "194559.942500", "194600.402500", "194600.862500", "194601.322500", "194601.782500", "194602.242500", "194602.702500", "194603.162500", "194603.622500", "194604.082500", "194604.542500", "194605.002500", "194605.462500", "194605.922500", "194606.382500", "194606.842500", "194607.302500", "194607.762500", "194608.222500", "194608.682500", "194609.142500", "194609.602500", "194610.062500", "194610.522500", "194610.982500", "194611.442500", "194611.902500", "194612.362500", "194612.822500", "194613.282500", "194613.742500", "194614.202500", "194614.662500", "194615.122500", "194615.582500", "194616.042500", "194616.502500", "194616.962500", "194617.422500", "194617.882500", "194618.342500", "194618.802500", "194619.262500", "194619.722500", "194620.182500", "194620.642500", "194621.102500", "194621.562500", "194622.022500", "194622.482500", "194622.942500", "194623.402500", "194623.862500", "194624.322500", "194624.782500", "194625.242500", "194625.702500", "194626.162500", "194626.622500", "194627.082500", "194627.542500", "194628.002500", "194628.462500"],
