{
  "AcquisitionMatrixPE": 140,
  "AcquisitionNumber": 1,
  "AcquisitionTime": "14:18:36.107500",
  "BandwidthPerPixelPhaseEncode": 10.352,
  "BaseResolution": 140,
  "BodyPartExamined": "BRAIN",
  "ConsistencyInfo": "N4_VE11C_LATEST_20160120",
  "ConversionSoftware": "dcm2niix",
  "ConversionSoftwareVersion": "v1.0.20201102",
  "DerivedVendorReportedEchoSpacing": 0.000689998,
  "DeviceSerialNumber": "66112",
  "DiffusionScheme": "Monopolar",
  "DwellTime": 2.1e-06,
  "EchoTime": 0.0884,
  "EchoTrainLength": 105,
  "EffectiveEchoSpacing": 0.000689998,
  "FlipAngle": 90,
  "ImageComments": "Unaliased MB3/PE3 SENSE1",
  "ImageOrientationPatientDICOM": [0.999402, 0.0325789, 0.0115943, -0.0345506, 0.926794, 0.373979],
  "ImageType": [
    "ORIGINAL",
    "PRIMARY",
    "DIFFUSION",
    "NONE",
    "MB",
    "ND",
    "MOSAIC"
],
  "ImagingFrequency": 123.252,
  "InPlanePhaseEncodingDirectionDICOM": "COL",
  "InstitutionAddress": "Maynard 3,Hanover,NH,US,03755",
  "InstitutionName": "Dartmouth College - PBS",
  "InstitutionalDepartmentName": "Department",
  "MRAcquisitionType": "2D",
  "MagneticFieldStrength": 3,
  "Manufacturer": "Siemens",
  "ManufacturersModelName": "Prisma",
  "Modality": "MR",
  "MultibandAccelerationFactor": 3,
  "PartialFourier": 0.75,
  "PatientPosition": "HFS",
  "PercentPhaseFOV": 100,
  "PercentSampling": 100,
  "PhaseEncodingDirection": "j-",
  "PhaseEncodingSteps": 105,
  "PhaseResolution": 1,
  "PixelBandwidth": 1700,
  "ProcedureStepDescription": "Wager_Wager^1076_spacetop",
  "ProtocolName": "dwi_acq-96dir-6b0-mb",
  "PulseSequenceDetails": "%CustomerSeq%\\cmrr_mbep2d_diff",
  "ReceiveCoilActiveElements": "HEA;HEP",
  "ReceiveCoilName": "Head_32",
  "ReconMatrixPE": 140,
  "RepetitionTime": 4.11,
  "SAR": 0.213833,
  "ScanOptions": "PFP\\FS",
  "ScanningSequence": "EP",
  "SequenceName": "ep_b5#1",
  "SequenceVariant": "SK\\SS",
  "SeriesDescription": "dwi_acq-96dir-6b0-mb",
  "SeriesNumber": 8,
  "ShimSetting": [4166, -7777, -7262, 523, -56, -374, 50, 64],
  "SliceThickness": 1.7,
  "SliceTiming": [0, 2.12, 0.1525, 2.2725, 0.3025, 2.4225, 0.455, 2.575, 0.605, 2.7275, 0.7575, 2.8775, 0.91, 3.03, 1.06, 3.18, 1.2125, 3.3325, 1.3625, 3.485, 1.515, 3.635, 1.665, 3.7875, 1.8175, 3.9375, 1.97, 0, 2.12, 0.1525, 2.2725, 0.3025, 2.4225, 0.455, 2.575, 0.605, 2.7275, 0.7575, 2.8775, 0.91, 3.03, 1.06, 3.18, 1.2125, 3.3325, 1.3625, 3.485, 1.515, 3.635, 1.665, 3.7875, 1.8175, 3.9375, 1.97, 0, 2.12, 0.1525, 2.2725, 0.3025, 2.4225, 0.455, 2.575, 0.605, 2.7275, 0.7575, 2.8775, 0.91, 3.03, 1.06, 3.18, 1.2125, 3.3325, 1.3625, 3.485, 1.515, 3.635, 1.665, 3.7875, 1.8175, 3.9375, 1.97],
  "SoftwareVersions": "syngo MR E11",
  "SpacingBetweenSlices": 1.7,
  "StationName": "AWP66112",
  "TotalReadoutTime": 0.0959097,
  "TxRefAmp": 236.07,
  "WipMemBlock": "00aebc2d-cd3c-4a9a-85ee-8fe6bafbda7e||Sequence: R016 ve11c/master r/e634e98; Dec 19 2017 11:11:25 by eja",
  "dcmmeta_affine": [
    [-1.7132604122161865, -0.059229541569948196, -0.002445083810016513, 123.38119506835938],
    [-0.05584948882460594, 1.5887889862060547, 0.636064350605011, -110.62329864501953],
    [0.01987592875957489, -0.641106128692627, 1.5765202045440674, -48.353729248046875],
    [0.0, 0.0, 0.0, 1.0]
],
  "dcmmeta_reorient_transform": [
    [0.0, -1.0, 0.0, 139.0],
    [1.0, 0.0, 0.0, 0.0],
    [0.0, 0.0, 1.0, 0.0],
    [0.0, 0.0, 0.0, 1.0]
],
  "dcmmeta_shape": [140, 140, 81, 103],
  "dcmmeta_slice_dim": 2,
  "dcmmeta_version": 0.6,
  "global": {
    "const": {
      "AccessionNumber": "A003437",
      "AcquisitionMatrix": [140, 0, 0, 140],
      "AngioFlag": "N",
      "BitsAllocated": 16,
      "BitsStored": 16,
      "BodyPartExamined": "BRAIN",
      "Columns": 1260,
      "EchoNumbers": 1,
      "EchoTime": 88.4,
      "EchoTrainLength": 105,
      "FlipAngle": 90.0,
      "HighBit": 15,
      "ImageOrientationPatient": [0.99940191600039, 0.0325788688311, 0.01159429171738, -0.0345505663066, 0.92679354481338, 0.37397858716797],
      "ImagePositionPatient": [-1041.4055927703, -1031.215887874, -507.61745143107],
      "ImageType": [
        "ORIGINAL",
        "PRIMARY",
        "DIFFUSION",
        "NONE",
        "MB",
        "ND",
        "MOSAIC"
],
      "ImagedNucleus": "1H",
      "ImagingFrequency": 123.252138,
      "InPlanePhaseEncodingDirection": "COL",
      "MRAcquisitionType": "2D",
      "MagneticFieldStrength": 3.0,
      "Manufacturer": "SIEMENS",
      "ManufacturerModelName": "Prisma",
      "Modality": "MR",
      "NumberOfAverages": 1.0,
      "NumberOfPhaseEncodingSteps": 105,
      "PercentPhaseFieldOfView": 100.0,
      "PercentSampling": 100.0,
      "PerformedProcedureStepStartTime": "134540.224000",
      "PhotometricInterpretation": "MONOCHROME2",
      "PixelBandwidth": 1700.0,
      "PixelRepresentation": 0,
      "PixelSpacing": [1.7142857313156, 1.7142857313156],
      "ProtocolName": "dwi_acq-96dir-6b0-mb",
      "RepetitionTime": 4110.0,
      "Rows": 1260,
      "SAR": 0.21383276046364,
      "SamplesPerPixel": 1,
      "ScanOptions": [
        "PFP",
        "FS"
],
      "ScanningSequence": "EP",
      "SequenceVariant": [
        "SK",
        "SS"
],
      "SeriesDescription": "dwi_acq-96dir-6b0-mb",
      "SeriesNumber": 8,
      "SeriesTime": "142001.783000",
      "SliceLocation": -86.409323617185,
      "SliceThickness": 1.7000000476837,
      "SmallestImagePixelValue": 0,
      "SoftwareVersions": "syngo MR E11",
      "SpacingBetweenSlices": 1.6999999741408,
      "SpecificCharacterSet": "ISO_IR 100",
      "StudyID": "1",
      "StudyTime": "134540.145000",
      "TransmitCoilName": "Body",
      "VariableFlipAngleFlag": "N",
      "WindowCenterWidthExplanation": "Algo1",
      "dBdt": 0.0},
    "slices": {}
  },
  "time": {
    "samples": {
      "AcquisitionNumber": [1, 2, 3, 4, 5, 6, 7, 8, 9, 10, 11, 12, 13, 14, 15, 16, 17, 18, 19, 20, 21, 22, 23, 24, 25, 26, 27, 28, 29, 30, 31, 32, 33, 34, 35, 36, 37, 38, 39, 40, 41, 42, 43, 44, 45, 46, 47, 48, 49, 50, 51, 52, 53, 54, 55, 56, 57, 58, 59, 60, 61, 62, 63, 64, 65, 66, 67, 68, 69, 70, 71, 72, 73, 74, 75, 76, 77, 78, 79, 80, 81, 82, 83, 84, 85, 86, 87, 88, 89, 90, 91, 92, 93, 94, 95, 96, 97, 98, 99, 100, 101, 102, 103],
      "AcquisitionTime": ["141836.107500", "141840.217500", "141844.327500", "141848.437500", "141852.547500", "141856.657500", "141900.767500", "141904.877500", "141908.987500", "141913.097500", "141917.207500", "141921.317500", "141925.427500", "141929.537500", "141933.647500", "141937.757500", "141941.867500", "141945.977500", "141950.087500", "141954.197500", "141958.307500", "142002.417500", "142006.527500", "142010.637500", "142014.747500", "142018.857500", "142022.967500", "142027.077500", "142031.187500", "142035.297500", "142039.407500", "142043.517500", "142047.627500", "142051.737500", "142055.847500", "142059.957500", "142104.067500", "142108.177500", "142112.287500", "142116.397500", "142120.507500", "142124.617500", "142128.727500", "142132.837500", "142136.947500", "142141.057500", "142145.167500", "142149.277500", "142153.387500", "142157.497500", "142201.607500", "142205.717500", "142209.827500", "142213.937500", "142218.047500", "142222.157500", "142226.267500", "142230.377500", "142234.487500", "142238.597500", "142242.707500", "142246.817500", "142250.927500", "142255.037500", "142259.147500", "142303.257500", "142307.367500", "142311.477500", "142315.587500", "142319.697500", "142323.807500", "142327.917500", "142332.027500", "142336.137500", "142340.247500", "142344.357500", "142348.467500", "142352.577500", "142356.687500", "142400.797500", "142404.907500", "142409.017500", "142413.127500", "142417.237500", "142421.347500", "142425.457500", "142429.567500", "142433.677500", "142437.787500", "142441.897500", "142446.007500", "142450.117500", "142454.227500", "142458.337500", "142502.447500", "142506.557500", "142510.667500", "142514.777500", "142518.887500", "142522.997500", "142527.107500", "142531.217500", "142535.327500"],
      "ContentTime": ["142001.787000", "142001.792000", "142001.795000", "142001.798000", "142001.810000", "142001.814000", "142001.818000", "142001.822000", "142001.825000", "142001.828000", "142001.832000", "142001.835000", "142001.838000", "142001.841000", "142001.852000", "142001.855000", "142001.858000", "142001.861000", "142001.865000", "142001.868000", "142121.782000", "142121.786000", "142121.789000", "142121.792000", "142121.796000", "142121.799000", "142121.802000", "142121.806000", "142121.809000", "142121.812000", "142121.815000", "142121.819000", "142121.822000", "142121.825000", "142121.828000", "142121.832000", "142121.835000", "142121.838000", "142121.842000", "142121.845000", "142301.781000", "142301.785000", "142301.788000", "142301.791000", "142301.795000", "142301.798000", "142301.801000", "142301.805000", "142301.808000", "142301.811000", "142301.814000", "142301.818000", "142301.821000", "142301.825000", "142301.828000", "142301.831000", "142301.834000", "142301.838000", "142301.841000", "142301.844000", "142301.847000", "142301.851000", "142301.854000", "142301.857000", "142441.782000", "142441.786000", "142441.789000", "142441.792000", "142441.796000", "142441.799000", "142441.802000", "142441.806000", "142441.809000", "142441.812000", "142441.816000", "142441.819000", "142441.822000", "142441.825000", "142441.829000", "142441.832000", "142441.835000", "142441.838000", "142441.842000", "142441.845000", "142441.848000", "142441.852000", "142441.855000", "142441.858000", "142539.967000", "142539.971000", "142539.974000", "142539.978000", "142539.982000", "142539.985000", "142539.989000", "142539.992000", "142539.996000", "142540.000000", "142540.003000", "142540.007000", "142540.010000", "142540.013000", "142540.016000"],
      "InstanceCreationTime": ["142001.787000", "142001.792000", "142001.795000", "142001.798000", "142001.810000", "142001.814000", "142001.818000", "142001.822000", "142001.825000", "142001.828000", "142001.832000", "142001.835000", "142001.838000", "142001.841000", "142001.852000", "142001.855000", "142001.858000", "142001.861000", "142001.865000", "142001.868000", "142121.782000", "142121.786000", "142121.789000", "142121.792000", "142121.796000", "142121.799000", "142121.802000", "142121.806000", "142121.809000", "142121.812000", "142121.815000", "142121.819000", "142121.822000", "142121.825000", "142121.828000", "142121.832000", "142121.835000", "142121.838000", "142121.842000", "142121.845000", "142301.781000", "142301.785000", "142301.788000", "142301.791000", "142301.795000", "142301.798000", "142301.801000", "142301.805000", "142301.808000", "142301.811000", "142301.814000", "142301.818000", "142301.821000", "142301.825000", "142301.828000", "142301.831000", "142301.834000", "142301.838000", "142301.841000", "142301.844000", "142301.847000", "142301.851000", "142301.854000", "142301.857000", "142441.782000", "142441.786000", "142441.789000", "142441.792000", "142441.796000", "142441.799000", "142441.802000", "142441.806000", "142441.809000", "142441.812000", "142441.816000", "142441.819000", "142441.822000", "142441.825000", "142441.829000", "142441.832000", "142441.835000", "142441.838000", "142441.842000", "142441.845000", "142441.848000", "142441.852000", "142441.855000", "142441.858000", "142539.967000", "142539.971000", "142539.974000", "142539.978000", "142539.982000", "142539.985000", "142539.989000", "142539.992000", "142539.996000", "142540.000000", "142540.003000", "142540.007000", "142540.010000", "142540.013000", "142540.016000"],
      "InstanceNumber": [1, 2, 3, 4, 5, 6, 7, 8, 9, 10, 11, 12, 13, 14, 15, 16, 17, 18, 19, 20, 21, 22, 23, 24, 25, 26, 27, 28, 29, 30, 31, 32, 33, 34, 35, 36, 37, 38, 39, 40, 41, 42, 43, 44, 45, 46, 47, 48, 49, 50, 51, 52, 53, 54, 55, 56, 57, 58, 59, 60, 61, 62, 63, 64, 65, 66, 67, 68, 69, 70, 71, 72, 73, 74, 75, 76, 77, 78, 79, 80, 81, 82, 83, 84, 85, 86, 87, 88, 89, 90, 91, 92, 93, 94, 95, 96, 97, 98, 99, 100, 101, 102, 103],
      "LargestImagePixelValue": [65535, 65535, 48892, 52306, 52679, 53596, 52884, 50846, 65535, 32014, 37330, 35238, 37717, 36368, 36701, 39766, 36830, 37133, 36072, 36924, 36926, 35293, 35623, 35306, 65535, 17782, 18444, 19587, 18430, 21238, 20035, 18387, 19444, 18393, 18676, 18108, 19277, 18515, 20764, 19090, 65535, 10746, 10599, 11797, 12121, 10083, 10654, 12370, 12246, 11472, 11571, 11512, 10196, 12059, 10941, 10467, 11437, 9983, 11577, 11964, 11330, 11284, 11121, 10784, 11668, 11423, 10267, 10148, 11505, 10286, 11467, 10714, 11105, 65535, 12360, 11466, 12287, 10245, 11436, 10287, 11519, 11279, 12353, 12277, 10432, 11560, 11582, 12665, 11870, 12742, 11269, 11415, 10589, 11093, 11603, 11567, 11483, 10218, 12481, 10988, 11918, 10526, 65535],
      "SequenceName": [
 "ep_b5#1",
 "ep_b5#1",
 "ep_b500#2",
 "ep_b500#3",
 "ep_b500#4",
 "ep_b505#5",
 "ep_b495#6",
 "ep_b500#7",
 "ep_b5#8",
 "ep_b1000#9",
 "ep_b1005#10",
 "ep_b1000#11",
 "ep_b1000#12",
 "ep_b995#13",
 "ep_b995#14",
 "ep_b1005#15",
 "ep_b995#16",
 "ep_b1000#17",
 "ep_b995#18",
 "ep_b1000#19",
 "ep_b995#20",
 "ep_b1000#21",
 "ep_b1005#22",
 "ep_b1005#23",
 "ep_b5#24",
 "ep_b2000#25",
 "ep_b2000#26",
 "ep_b1995#27",
 "ep_b1995#28",
 "ep_b2005#29",
 "ep_b2010#30",
 "ep_b2005#31",
 "ep_b2005#32",
 "ep_b1995#33",
 "ep_b1990#34",
 "ep_b1995#35",
 "ep_b2000#36",
 "ep_b2000#37",
 "ep_b2010#38",
 "ep_b2000#39",
 "ep_b5#40",
 "ep_b3000#41",
 "ep_b3005#42",
 "ep_b3010#43",
 "ep_b3010#44",
 "ep_b2995#45",
 "ep_b2995#46",
 "ep_b2990#47",
 "ep_b3000#48",
 "ep_b3000#49",
 "ep_b2990#50",
 "ep_b2990#51",
 "ep_b2995#52",
 "ep_b2995#53",
 "ep_b3010#54",
 "ep_b3000#55",
 "ep_b2995#56",
 "ep_b3000#57",
 "ep_b2990#58",
 "ep_b2990#59",
 "ep_b3005#60",
 "ep_b2990#61",
 "ep_b2990#62",
 "ep_b2995#63",
 "ep_b3005#64",
 "ep_b3010#65",
 "ep_b3000#66",
 "ep_b3005#67",
 "ep_b3010#68",
 "ep_b3005#69",
 "ep_b3005#70",
 "ep_b3010#71",
 "ep_b2990#72",
 "ep_b5#73",
 "ep_b3010#74",
 "ep_b3000#75",
 "ep_b3005#76",
 "ep_b3005#77",
 "ep_b2995#78",
 "ep_b3000#79",
 "ep_b3000#80",
 "ep_b3010#81",
 "ep_b3010#82",
 "ep_b3005#83",
 "ep_b3000#84",
 "ep_b3005#85",
 "ep_b3005#86",
 "ep_b3005#87",
 "ep_b2990#88",
 "ep_b3010#89",
 "ep_b2995#90",
 "ep_b3000#91",
 "ep_b2995#92",
 "ep_b2995#93",
 "ep_b3005#94",
 "ep_b3005#95",
 "ep_b2990#96",
 "ep_b3005#97",
 "ep_b2990#98",
 "ep_b3000#99",
 "ep_b3000#100",
 "ep_b2990#101",
 "ep_b5#102"
],
      "WindowCenter": [9647.0, 9639.0, 6808.0, 6833.0, 6819.0, 6752.0, 6896.0, 6849.0, 9682.0, 5150.0, 5168.0, 5156.0, 5099.0, 5182.0, 5180.0, 5194.0, 5162.0, 5183.0, 5222.0, 5214.0, 5199.0, 5183.0, 5113.0, 5196.0, 9615.0, 3327.0, 3324.0, 3284.0, 3356.0, 3373.0, 3311.0, 3323.0, 3233.0, 3364.0, 3392.0, 3354.0, 3247.0, 3352.0, 3372.0, 3304.0, 9655.0, 2360.0, 2266.0, 2392.0, 2375.0, 2321.0, 2358.0, 2458.0, 2327.0, 2338.0, 2316.0, 2331.0, 2306.0, 2395.0, 2358.0, 2282.0, 2374.0, 2302.0, 2364.0, 2374.0, 2364.0, 2319.0, 2396.0, 2380.0, 2419.0, 2379.0, 2303.0, 2334.0, 2370.0, 2325.0, 2341.0, 2384.0, 2379.0, 9729.0, 2386.0, 2346.0, 2328.0, 2342.0, 2300.0, 2268.0, 2346.0, 2275.0, 2445.0, 2305.0, 2359.0, 2369.0, 2257.0, 2337.0, 2375.0, 2339.0, 2383.0, 2341.0, 2279.0, 2370.0, 2348.0, 2367.0, 2404.0, 2345.0, 2387.0, 2335.0, 2351.0, 2344.0, 9745.0],
      "WindowWidth": [21359.0, 21328.0, 14466.0, 14502.0, 14451.0, 14357.0, 14616.0, 14534.0, 21438.0, 11153.0, 11189.0, 11150.0, 11050.0, 11216.0, 11201.0, 11216.0, 11142.0, 11205.0, 11259.0, 11245.0, 11213.0, 11202.0, 11073.0, 11220.0, 21245.0, 7594.0, 7582.0, 7501.0, 7622.0, 7679.0, 7559.0, 7578.0, 7413.0, 7664.0, 7710.0, 7641.0, 7438.0, 7619.0, 7662.0, 7530.0, 21364.0, 5714.0, 5501.0, 5758.0, 5713.0, 5645.0, 5710.0, 5877.0, 5603.0, 5656.0, 5582.0, 5610.0, 5609.0, 5771.0, 5713.0, 5538.0, 5745.0, 5595.0, 5688.0, 5705.0, 5708.0, 5593.0, 5770.0, 5739.0, 5825.0, 5734.0, 5601.0, 5671.0, 5729.0, 5663.0, 5669.0, 5759.0, 5721.0, 21576.0, 5728.0, 5656.0, 5613.0, 5677.0, 5546.0, 5512.0, 5660.0, 5508.0, 5863.0, 5578.0, 5712.0, 5726.0, 5462.0, 5619.0, 5716.0, 5624.0, 5753.0, 5634.0, 5524.0, 5728.0, 5667.0, 5718.0, 5775.0, 5692.0, 5728.0, 5642.0, 5676.0, 5675.0, 21605.0]
    },
    "slices": {}
  }
}