{
  "AcquisitionMatrixPE": 82,
  "AcquisitionNumber": 1,
  "AcquisitionTime": "15:35:7.920000",
  "BandwidthPerPixelPhaseEncode": 24.888,
  "BaseResolution": 82,
  "BodyPartExamined": "BRAIN",
  "ConsistencyInfo": "N4_VE11E_LATEST_20181129",
  "ConversionSoftware": "dcm2niix",
  "ConversionSoftwareVersion": "v1.0.20201102",
  "DerivedVendorReportedEchoSpacing": 0.00049,
  "DeviceSerialNumber": "66112",
  "DwellTime": 2e-06,
  "EchoTime": 0.0272,
  "EchoTrainLength": 82,
  "EffectiveEchoSpacing": 0.00049,
  "FlipAngle": 44,
  "ImageComments": "Unaliased MB8/PE3",
  "ImageOrientationPatientDICOM": [0.999458, -0.0252833, 0.0210646, 0.0235536, 0.996623, 0.0786662],
  "ImageType": [
    "ORIGINAL",
    "PRIMARY",
    "M",
    "MB",
    "ND",
    "NORM",
    "MOSAIC"
],
  "ImagingFrequency": 123.252,
  "InPlanePhaseEncodingDirectionDICOM": "COL",
  "InstitutionAddress": "Maynard 3,Hanover,NH,US,03755",
  "InstitutionName": "Dartmouth College - PBS",
  "InstitutionalDepartmentName": "Department",
  "MRAcquisitionType": "2D",
  "MagneticFieldStrength": 3,
  "Manufacturer": "Siemens",
  "ManufacturersModelName": "Prisma",
  "Modality": "MR",
  "MultibandAccelerationFactor": 8,
  "PartialFourier": 1,
  "PatientPosition": "HFS",
  "PercentPhaseFOV": 100,
  "PercentSampling": 100,
  "PhaseEncodingDirection": "j-",
  "PhaseEncodingSteps": 82,
  "PhaseResolution": 1,
  "PixelBandwidth": 3050,
  "ProcedureStepDescription": "Wager_Wager^1076_spacetop",
  "ProtocolName": "func_run-02_task-faces_acq-ap-mb8",
  "PulseSequenceDetails": "%CustomerSeq%\\cmrr_mbep2d_bold",
  "ReceiveCoilActiveElements": "HEA;HEP",
  "ReceiveCoilName": "Head_32",
  "ReconMatrixPE": 82,
  "RepetitionTime": 0.46,
  "SAR": 0.084947,
  "ScanOptions": "FS",
  "ScanningSequence": "EP",
  "SequenceName": "epfid2d1_82",
  "SequenceVariant": "SK\\SS",
  "SeriesDescription": "func_run-02_task-faces_acq-ap-mb8",
  "SeriesNumber": 20,
  "ShimSetting": [4147, -7766, -7286, 619, 0, -155, 0, 64],
  "SliceThickness": 2.7,
  "SliceTiming": [0, 0.2525, 0.065, 0.315, 0.1275, 0.3775, 0.19, 0, 0.2525, 0.065, 0.315, 0.1275, 0.3775, 0.19, 0, 0.2525, 0.065, 0.315, 0.1275, 0.3775, 0.19, 0, 0.2525, 0.065, 0.315, 0.1275, 0.3775, 0.19, 0, 0.2525, 0.065, 0.315, 0.1275, 0.3775, 0.19, 0, 0.2525, 0.065, 0.315, 0.1275, 0.3775, 0.19, 0, 0.2525, 0.065, 0.315, 0.1275, 0.3775, 0.19, 0, 0.2525, 0.065, 0.315, 0.1275, 0.3775, 0.19],
  "SoftwareVersions": "syngo MR E11",
  "SpacingBetweenSlices": 2.7,
  "StationName": "AWP66112",
  "TaskName": "faces",
  "TotalReadoutTime": 0.03969,
  "TxRefAmp": 234.65,
  "WipMemBlock": "3ccff4a5-c546-4381-ae84-24d57e538c08||Sequence: R016 ve11e/master r/434b28f1; Aug  7 2019 18:53:46 by eja",
  "dcmmeta_affine": [
    [-2.681473731994629, 0.0631924569606781, 0.062052566558122635, 109.1116943359375],
    [0.06783313304185867, 2.673866033554077, 0.21094410121440887, -109.1078872680664],
    [0.05651487782597542, -0.2110556811094284, 2.6910316944122314, -67.15544891357422],
    [0.0, 0.0, 0.0, 1.0]
],
  "dcmmeta_reorient_transform": [
    [0.0, -1.0, 0.0, 81.0],
    [1.0, 0.0, 0.0, 0.0],
    [0.0, 0.0, 1.0, 0.0],
    [0.0, 0.0, 0.0, 1.0]
],
  "dcmmeta_shape": [82, 82, 56, 914],
  "dcmmeta_slice_dim": 2,
  "dcmmeta_version": 0.6,
  "global": {
    "const": {
      "AccessionNumber": "A003943",
      "AcquisitionMatrix": [82, 0, 0, 82],
      "AngioFlag": "N",
      "BitsAllocated": 16,
      "BitsStored": 16,
      "BodyPartExamined": "BRAIN",
      "Columns": 656,
      "EchoNumbers": 1,
      "EchoTime": 27.2,
      "EchoTrainLength": 82,
      "FlipAngle": 44.0,
      "HighBit": 15,
      "ImageOrientationPatient": [0.99945837228503, -0.0252832587213, 0.02106463618924, 0.02355355251923, 0.99662272624747, 0.078666204248],
      "ImagePositionPatient": [-901.94948811263, -855.4066633106, -161.0437050317],
      "ImageType": [
        "ORIGINAL",
        "PRIMARY",
        "M",
        "MB",
        "ND",
        "NORM",
        "MOSAIC"
],
      "ImagedNucleus": "1H",
      "ImagingFrequency": 123.252203,
      "InPlanePhaseEncodingDirection": "COL",
      "MRAcquisitionType": "2D",
      "MagneticFieldStrength": 3.0,
      "Manufacturer": "SIEMENS",
      "ManufacturerModelName": "Prisma",
      "Modality": "MR",
      "NumberOfAverages": 1.0,
      "NumberOfPhaseEncodingSteps": 82,
      "PercentPhaseFieldOfView": 100.0,
      "PercentSampling": 100.0,
      "PerformedProcedureStepStartTime": "143435.942000",
      "PhotometricInterpretation": "MONOCHROME2",
      "PixelBandwidth": 3050.0,
      "PixelRepresentation": 0,
      "PixelSpacing": [2.6829268932343, 2.6829268932343],
      "ProtocolName": "func_run-02_task-faces_acq-ap-mb8",
      "RepetitionTime": 460.0,
      "Rows": 656,
      "SAR": 0.08494696040707,
      "SamplesPerPixel": 1,
      "ScanOptions": "FS",
      "ScanningSequence": "EP",
      "SequenceName": "epfid2d1_82",
      "SequenceVariant": [
        "SK",
        "SS"
],
      "SeriesDescription": "func_run-02_task-faces_acq-ap-mb8",
      "SeriesNumber": 20,
      "SeriesTime": "153523.651000",
      "SliceLocation": -72.949053789473,
      "SliceThickness": 2.7000000476837,
      "SmallestImagePixelValue": 0,
      "SoftwareVersions": "syngo MR E11",
      "SpacingBetweenSlices": 2.6999999337085,
      "SpecificCharacterSet": "ISO_IR 100",
      "StudyID": "1",
      "StudyTime": "143435.888000",
      "TransmitCoilName": "Body",
      "VariableFlipAngleFlag": "N",
      "WindowCenterWidthExplanation": "Algo1"
    },
    "slices": {}
  },
  "time": {
    "samples": {
      "AcquisitionNumber": [1, 2, 3, 4, 5, 6, 7, 8, 9, 10, 11, 12, 13, 14, 15, 16, 17, 18, 19, 20, 21, 22, 23, 24, 25, 26, 27, 28, 29, 30, 31, 32, 33, 34, 35, 36, 37, 38, 39, 40, 41, 42, 43, 44, 45, 46, 47, 48, 49, 50, 51, 52, 53, 54, 55, 56, 57, 58, 59, 60, 61, 62, 63, 64, 65, 66, 67, 68, 69, 70, 71, 72, 73, 74, 75, 76, 77, 78, 79, 80, 81, 82, 83, 84, 85, 86, 87, 88, 89, 90, 91, 92, 93, 94, 95, 96, 97, 98, 99, 100, 101, 102, 103, 104, 105, 106, 107, 108, 109, 110, 111, 112, 113, 114, 115, 116, 117, 118, 119, 120, 121, 122, 123, 124, 125, 126, 127, 128, 129, 130, 131, 132, 133, 134, 135, 136, 137, 138, 139, 140, 141, 142, 143, 144, 145, 146, 147, 148, 149, 150, 151, 152, 153, 154, 155, 156, 157, 158, 159, 160, 161, 162, 163, 164, 165, 166, 167, 168, 169, 170, 171, 172, 173, 174, 175, 176, 177, 178, 179, 180, 181, 182, 183, 184, 185, 186, 187, 188, 189, 190, 191, 192, 193, 194, 195, 196, 197, 198, 199, 200, 201, 202, 203, 204, 205, 206, 207, 208, 209, 210, 211, 212, 213, 214, 215, 216, 217, 218, 219, 220, 221, 222, 223, 224, 225, 226, 227, 228, 229, 230, 231, 232, 233, 234, 235, 236, 237, 238, 239, 240, 241, 242, 243, 244, 245, 246, 247, 248, 249, 250, 251, 252, 253, 254, 255, 256, 257, 258, 259, 260, 261, 262, 263, 264, 265, 266, 267, 268, 269, 270, 271, 272, 273, 274, 275, 276, 277, 278, 279, 280, 281, 282, 283, 284, 285, 286, 287, 288, 289, 290, 291, 292, 293, 294, 295, 296, 297, 298, 299, 300, 301, 302, 303, 304, 305, 306, 307, 308, 309, 310, 311, 312, 313, 314, 315, 316, 317, 318, 319, 320, 321, 322, 323, 324, 325, 326, 327, 328, 329, 330, 331, 332, 333, 334, 335, 336, 337, 338, 339, 340, 341, 342, 343, 344, 345, 346, 347, 348, 349, 350, 351, 352, 353, 354, 355, 356, 357, 358, 359, 360, 361, 362, 363, 364, 365, 366, 367, 368, 369, 370, 371, 372, 373, 374, 375, 376, 377, 378, 379, 380, 381, 382, 383, 384, 385, 386, 387, 388, 389, 390, 391, 392, 393, 394, 395, 396, 397, 398, 399, 400, 401, 402, 403, 404, 405, 406, 407, 408, 409, 410, 411, 412, 413, 414, 415, 416, 417, 418, 419, 420, 421, 422, 423, 424, 425, 426, 427, 428, 429, 430, 431, 432, 433, 434, 435, 436, 437, 438, 439, 440, 441, 442, 443, 444, 445, 446, 447, 448, 449, 450, 451, 452, 453, 454, 455, 456, 457, 458, 459, 460, 461, 462, 463, 464, 465, 466, 467, 468, 469, 470, 471, 472, 473, 474, 475, 476, 477, 478, 479, 480, 481, 482, 483, 484, 485, 486, 487, 488, 489, 490, 491, 492, 493, 494, 495, 496, 497, 498, 499, 500, 501, 502, 503, 504, 505, 506, 507, 508, 509, 510, 511, 512, 513, 514, 515, 516, 517, 518, 519, 520, 521, 522, 523, 524, 525, 526, 527, 528, 529, 530, 531, 532, 533, 534, 535, 536, 537, 538, 539, 540, 541, 542, 543, 544, 545, 546, 547, 548, 549, 550, 551, 552, 553, 554, 555, 556, 557, 558, 559, 560, 561, 562, 563, 564, 565, 566, 567, 568, 569, 570, 571, 572, 573, 574, 575, 576, 577, 578, 579, 580, 581, 582, 583, 584, 585, 586, 587, 588, 589, 590, 591, 592, 593, 594, 595, 596, 597, 598, 599, 600, 601, 602, 603, 604, 605, 606, 607, 608, 609, 610, 611, 612, 613, 614, 615, 616, 617, 618, 619, 620, 621, 622, 623, 624, 625, 626, 627, 628, 629, 630, 631, 632, 633, 634, 635, 636, 637, 638, 639, 640, 641, 642, 643, 644, 645, 646, 647, 648, 649, 650, 651, 652, 653, 654, 655, 656, 657, 658, 659, 660, 661, 662, 663, 664, 665, 666, 667, 668, 669, 670, 671, 672, 673, 674, 675, 676, 677, 678, 679, 680, 681, 682, 683, 684, 685, 686, 687, 688, 689, 690, 691, 692, 693, 694, 695, 696, 697, 698, 699, 700, 701, 702, 703, 704, 705, 706, 707, 708, 709, 710, 711, 712, 713, 714, 715, 716, 717, 718, 719, 720, 721, 722, 723, 724, 725, 726, 727, 728, 729, 730, 731, 732, 733, 734, 735, 736, 737, 738, 739, 740, 741, 742, 743, 744, 745, 746, 747, 748, 749, 750, 751, 752, 753, 754, 755, 756, 757, 758, 759, 760, 761, 762, 763, 764, 765, 766, 767, 768, 769, 770, 771, 772, 773, 774, 775, 776, 777, 778, 779, 780, 781, 782, 783, 784, 785, 786, 787, 788, 789, 790, 791, 792, 793, 794, 795, 796, 797, 798, 799, 800, 801, 802, 803, 804, 805, 806, 807, 808, 809, 810, 811, 812, 813, 814, 815, 816, 817, 818, 819, 820, 821, 822, 823, 824, 825, 826, 827, 828, 829, 830, 831, 832, 833, 834, 835, 836, 837, 838, 839, 840, 841, 842, 843, 844, 845, 846, 847, 848, 849, 850, 851, 852, 853, 854, 855, 856, 857, 858, 859, 860, 861, 862, 863, 864, 865, 866, 867, 868, 869, 870, 871, 872, 873, 874, 875, 876, 877, 878, 879, 880, 881, 882, 883, 884, 885, 886, 887, 888, 889, 890, 891, 892, 893, 894, 895, 896, 897, 898, 899, 900, 901, 902, 903, 904, 905, 906, 907, 908, 909, 910, 911, 912, 913, 914],
      "AcquisitionTime": ["153507.920000", "153508.380000", "153508.840000", "153509.300000", "153509.760000", "153510.220000", "153510.680000", "153511.140000", "153511.600000", "153512.060000", "153512.520000", "153512.980000", "153513.440000", "153513.900000", "153514.360000", "153514.820000", "153515.280000", "153515.740000", "153516.200000", "153516.660000", "153517.120000", "153517.580000", "153518.040000", "153518.500000", "153518.960000", "153519.420000", "153519.880000", "153520.340000", "153520.800000", "153521.260000", "153521.720000", "153522.180000", "153522.640000", "153523.100000", "153523.560000", "153524.020000", "153524.480000", "153524.940000", "153525.400000", "153525.860000", "153526.320000", "153526.780000", "153527.240000", "153527.700000", "153528.160000", "153528.620000", "153529.080000", "153529.540000", "153530.000000", "153530.460000", "153530.920000", "153531.380000", "153531.840000", "153532.300000", "153532.760000", "153533.220000", "153533.680000", "153534.140000", "153534.600000", "153535.060000", "153535.520000", "153535.980000", "153536.440000", "153536.900000", "153537.360000", "153537.820000", "153538.280000", "153538.740000", "153539.200000", "153539.660000", "153540.120000", "153540.580000", "153541.040000", "153541.500000", "153541.960000", "153542.420000", "153542.880000", "153543.340000", "153543.800000", "153544.260000", "153544.720000", "153545.180000", "153545.640000", "153546.100000", "153546.560000", "153547.020000", "153547.480000", "153547.940000", "153548.400000", "153548.860000", "153549.320000", "153549.780000", "153550.240000", "153550.700000", "153551.160000", "153551.620000", "153552.080000", "153552.540000", "153553.000000", "153553.460000", "153553.920000", "153554.380000", "153554.840000", "153555.300000", "153555.760000", "153556.220000", "153556.680000", "153557.140000", "153557.600000", "153558.060000", "153558.520000", "153558.980000", "153559.440000", "153559.900000", "153600.360000", "153600.820000", "153601.280000", "153601.740000", "153602.200000", "153602.660000", "153603.120000", "153603.580000", "153604.040000", "153604.500000", "153604.960000", "153605.420000", "153605.880000", "153606.340000", "153606.800000", "153607.260000", "153607.720000", "153608.180000", "153608.640000", "153609.100000", "153609.560000", "153610.020000", "153610.480000", "153610.940000", "153611.400000", "153611.860000", "153612.320000", "153612.780000", "153613.240000", "153613.700000", "153614.160000", "153614.620000", "153615.080000", "153615.540000", "153616.000000", "153616.460000", "153616.920000", "153617.380000", "153617.840000", "153618.300000", "153618.760000", "153619.220000", "153619.680000", "153620.140000", "153620.600000", "153621.060000", "153621.520000", "153621.980000", "153622.440000", "153622.900000", "153623.360000", "153623.820000", "153624.280000", "153624.740000", "153625.200000", "153625.660000", "153626.120000", "153626.580000", "153627.040000", "153627.500000", "153627.960000", "153628.420000", "153628.880000", "153629.340000", "153629.800000", "153630.260000", "153630.720000", "153631.180000", "153631.640000", "153632.100000", "153632.560000", "153633.020000", "153633.480000", "153633.940000", "153634.400000", "153634.860000", "153635.320000", "153635.780000", "153636.240000", "153636.700000", "153637.160000", "153637.620000", "153638.080000", "153638.540000", "153639.000000", "153639.460000", "153639.920000", "153640.380000", "153640.840000", "153641.300000", "153641.760000", "153642.220000", "153642.680000", "153643.140000", "153643.600000", "153644.060000", "153644.520000", "153644.980000", "153645.440000", "153645.900000", "153646.360000", "153646.820000", "153647.280000", "153647.740000", "153648.200000", "153648.660000", "153649.120000", "153649.580000", "153650.040000", "153650.500000", "153650.960000", "153651.420000", "153651.880000", "153652.340000", "153652.800000", "153653.260000", "153653.720000", "153654.180000", "153654.640000", "153655.100000", "153655.560000", "153656.020000", "153656.480000", "153656.940000", "153657.400000", "153657.860000", "153658.320000", "153658.780000", "153659.240000", "153659.700000", "153700.160000", "153700.620000", "153701.080000", "153701.540000", "153702.000000", "153702.460000", "153702.920000", "153703.380000", "153703.840000", "153704.300000", "153704.760000", "153705.220000", "153705.680000", "153706.140000", "153706.600000", "153707.060000", "153707.520000", "153707.980000", "153708.440000", "153708.900000", "153709.360000", "153709.820000", "153710.280000", "153710.740000", "153711.200000", "153711.660000", "153712.120000", "153712.580000", "153713.040000", "153713.500000", "153713.960000", "153714.420000", "153714.880000", "153715.340000", "153715.800000", "153716.260000", "153716.720000", "153717.180000", "153717.640000", "153718.100000", "153718.560000", "153719.020000", "153719.480000", "153719.940000", "153720.400000", "153720.860000", "153721.320000", "153721.780000", "153722.240000", "153722.700000", "153723.160000", "153723.620000", "153724.080000", "153724.540000", "153725.000000", "153725.460000", "153725.920000", "153726.380000", "153726.840000", "153727.300000", "153727.760000", "153728.220000", "153728.680000", "153729.140000", "153729.600000", "153730.060000", "153730.520000", "153730.980000", "153731.440000", "153731.900000", "153732.360000", "153732.820000", "153733.280000", "153733.740000", "153734.200000", "153734.660000", "153735.120000", "153735.580000", "153736.040000", "153736.500000", "153736.960000", "153737.420000", "153737.880000", "153738.340000", "153738.800000", "153739.260000", "153739.720000", "153740.180000", "153740.640000", "153741.100000", "153741.560000", "153742.020000", "153742.480000", "153742.940000", "153743.400000", "153743.860000", "153744.320000", "153744.780000", "153745.240000", "153745.700000", "153746.160000", "153746.620000", "153747.080000", "153747.540000", "153748.000000", "153748.460000", "153748.920000", "153749.380000", "153749.840000", "153750.300000", "153750.760000", "153751.220000", "153751.680000", "153752.140000", "153752.600000", "153753.060000", "153753.520000", "153753.980000", "153754.440000", "153754.900000", "153755.360000", "153755.820000", "153756.280000", "153756.740000", "153757.200000", "153757.660000", "153758.120000", "153758.580000", "153759.040000", "153759.500000", "153759.960000", "153800.420000", "153800.880000", "153801.340000", "153801.800000", "153802.260000", "153802.720000", "153803.180000", "153803.640000", "153804.100000", "153804.560000", "153805.020000", "153805.480000", "153805.940000", "153806.400000", "153806.860000", "153807.320000", "153807.780000", "153808.240000", "153808.700000", "153809.160000", "153809.620000", "153810.080000", "153810.540000", "153811.000000", "153811.460000", "153811.920000", "153812.380000", "153812.840000", "153813.300000", "153813.760000", "153814.220000", "153814.680000", "153815.140000", "153815.600000", "153816.060000", "153816.520000", "153816.980000", "153817.440000", "153817.900000", "153818.360000", "153818.820000", "153819.280000", "153819.740000", "153820.200000", "153820.660000", "153821.120000", "153821.580000", "153822.040000", "153822.500000", "153822.960000", "153823.420000", "153823.880000", "153824.340000", "153824.800000", "153825.260000", "153825.720000", "153826.180000", "153826.640000", "153827.100000", "153827.560000", "153828.020000", "153828.480000", "153828.940000", "153829.400000", "153829.860000", "153830.320000", "153830.780000", "153831.240000", "153831.700000", "153832.160000", "153832.620000", "153833.080000", "153833.540000", "153834.000000", "153834.460000", "153834.920000", "153835.380000", "153835.840000", "153836.300000", "153836.760000", "153837.220000", "153837.680000", "153838.140000", "153838.600000", "153839.060000", "153839.520000", "153839.980000", "153840.440000", "153840.900000", "153841.360000", "153841.820000", "153842.280000", "153842.740000", "153843.200000", "153843.660000", "153844.120000", "153844.580000", "153845.040000", "153845.500000", "153845.960000", "153846.420000", "153846.880000", "153847.340000", "153847.800000", "153848.260000", "153848.720000", "153849.180000", "153849.640000", "153850.100000", "153850.560000", "153851.020000", "153851.480000", "153851.940000", "153852.400000", "153852.860000", "153853.320000", "153853.780000", "153854.240000", "153854.700000", "153855.160000", "153855.620000", "153856.080000", "153856.540000", "153857.000000", "153857.460000", "153857.920000", "153858.380000", "153858.840000", "153859.300000", "153859.760000", "153900.220000", "153900.680000", "153901.140000", "153901.600000", "153902.060000", "153902.520000", "153902.980000", "153903.440000", "153903.900000", "153904.360000", "153904.820000", "153905.280000", "153905.740000", "153906.200000", "153906.660000", "153907.120000", "153907.580000", "153908.040000", "153908.500000", "153908.960000", "153909.420000", "153909.880000", "153910.340000", "153910.800000", "153911.260000", "153911.720000", "153912.180000", "153912.640000", "153913.100000", "153913.560000", "153914.020000", "153914.480000", "153914.940000", "153915.400000", "153915.860000", "153916.320000", "153916.780000", "153917.240000", "153917.700000", "153918.160000", "153918.620000", "153919.080000", "153919.540000", "153920.000000", "153920.460000", "153920.920000", "153921.380000", "153921.840000", "153922.300000", "153922.760000", "153923.220000", "153923.680000", "153924.140000", "153924.600000", "153925.060000", "153925.520000", "153925.980000", "153926.440000", "153926.900000", "153927.360000", "153927.820000", "153928.280000", "153928.740000", "153929.200000", "153929.660000", "153930.120000", "153930.580000", "153931.040000", "153931.500000", "153931.960000", "153932.420000", "153932.880000", "153933.340000", "153933.800000", "153934.260000", "153934.720000", "153935.180000", "153935.640000", "153936.100000", "153936.560000", "153937.020000", "153937.480000", "153937.940000", "153938.400000", "153938.860000", "153939.320000", "153939.780000", "153940.240000", "153940.700000", "153941.160000", "153941.620000", "153942.080000", "153942.540000", "153943.000000", "153943.460000", "153943.920000", "153944.380000", "153944.840000", "153945.300000", "153945.760000", "153946.220000", "153946.680000", "153947.140000", "153947.600000", "153948.060000", "153948.520000", "153948.980000", "153949.440000", "153949.900000", "153950.360000", "153950.820000", "153951.280000", "153951.740000", "153952.200000", "153952.660000", "153953.120000", "153953.580000", "153954.040000", "153954.500000", "153954.960000", "153955.420000", "153955.880000", "153956.340000", "153956.800000", "153957.260000", "153957.720000", "153958.180000", "153958.640000", "153959.100000", "153959.560000", "154000.020000", "154000.480000", "154000.940000", "154001.400000", "154001.860000", "154002.320000", "154002.780000", "154003.240000", "154003.700000", "154004.160000", "154004.620000", "154005.080000", "154005.540000", "154006.000000", "154006.460000", "154006.920000", "154007.380000", "154007.840000", "154008.300000", "154008.760000", "154009.220000", "154009.680000", "154010.140000", "154010.600000", "154011.060000", "154011.520000", "154011.980000", "154012.440000", "154012.900000", "154013.360000", "154013.820000", "154014.280000", "154014.740000", "154015.200000", "154015.660000", "154016.120000", "154016.580000", "154017.040000", "154017.500000", "154017.960000", "154018.420000", "154018.880000", "154019.340000", "154019.800000", "154020.260000", "154020.720000", "154021.180000", "154021.640000", "154022.100000", "154022.560000", "154023.020000", "154023.480000", "154023.940000", "154024.400000", "154024.860000", "154025.320000", "154025.780000", "154026.240000", "154026.700000", "154027.160000", "154027.620000", "154028.080000", "154028.540000", "154029.000000", "154029.460000", "154029.920000", "154030.380000", "154030.840000", "154031.300000", "154031.760000", "154032.220000", "154032.680000", "154033.140000", "154033.600000", "154034.060000", "154034.520000", "154034.980000", "154035.440000", "154035.900000", "154036.360000", "154036.820000", "154037.280000", "154037.740000", "154038.200000", "154038.660000", "154039.120000", "154039.580000", "154040.040000", "154040.500000", "154040.960000", "154041.420000", "154041.880000", "154042.340000", "154042.800000", "154043.260000", "154043.720000", "154044.180000", "154044.640000", "154045.100000", "154045.560000", "154046.020000", "154046.480000", "154046.940000", "154047.400000", "154047.860000", "154048.320000", "154048.780000", "154049.240000", "154049.700000", "154050.160000", "154050.620000", "154051.080000", "154051.540000", "154052.000000", "154052.460000", "154052.920000", "154053.380000", "154053.840000", "154054.300000", "154054.760000", "154055.220000", "154055.680000", "154056.140000", "154056.600000", "154057.060000", "154057.520000", "154057.980000", "154058.440000", "154058.900000", "154059.360000", "154059.820000", "154100.280000", "154100.740000", "154101.200000", "154101.660000", "154102.120000", "154102.580000", "154103.040000", "154103.500000", "154103.960000", "154104.420000", "154104.880000", "154105.340000", "154105.800000", "154106.260000", "154106.720000", "154107.180000", "154107.640000", "154108.100000", "154108.560000", "154109.020000", "154109.480000", "154109.940000", "154110.400000", "154110.860000", "154111.320000", "154111.780000", "154112.240000", "154112.700000", "154113.160000", "154113.620000", "154114.080000", "154114.540000", "154115.000000", "154115.460000", "154115.920000", "154116.380000", "154116.840000", "154117.300000", "154117.760000", "154118.220000", "154118.680000", "154119.140000", "154119.600000", "154120.060000", "154120.520000", "154120.980000", "154121.440000", "154121.900000", "154122.360000", "154122.820000", "154123.280000", "154123.740000", "154124.200000", "154124.660000", "154125.120000", "154125.580000", "154126.040000", "154126.500000", "154126.960000", "154127.420000", "154127.880000", "154128.340000", "154128.800000", "154129.260000", "154129.720000", "154130.180000", "154130.640000", "154131.100000", "154131.560000", "154132.020000", "154132.480000", "154132.940000", "154133.400000", "154133.860000", "154134.320000", "154134.780000", "154135.240000", "154135.700000", "154136.160000", "154136.620000", "154137.080000", "154137.540000", "154138.000000", "154138.460000", "154138.920000", "154139.380000", "154139.840000", "154140.300000", "154140.760000", "154141.220000", "154141.680000", "154142.140000", "154142.600000", "154143.060000", "154143.520000", "154143.980000", "154144.440000", "154144.900000", "154145.360000", "154145.820000", "154146.280000", "154146.740000", "154147.200000", "154147.660000", "154148.120000", "154148.580000", "154149.040000", "154149.500000", "154149.960000", "154150.420000", "154150.880000", "154151.340000", "154151.800000", "154152.260000", "154152.720000", "154153.180000", "154153.640000", "154154.100000", "154154.560000", "154155.020000", "154155.480000", "154155.940000", "154156.400000", "154156.860000", "154157.320000", "154157.780000", "154158.240000", "154158.700000", "154159.160000", "154159.620000", "154200.080000", "154200.540000", "154201.000000", "154201.460000", "154201.920000", "154202.380000", "154202.840000", "154203.300000", "154203.760000", "154204.220000", "154204.680000", "154205.140000", "154205.600000", "154206.060000", "154206.520000", "154206.980000", "154207.440000", "154207.900000"],
