{
  "AcquisitionMatrixPE": 82,
  "AcquisitionNumber": 1,
  "AcquisitionTime": "15:58:48.270000",
  "BandwidthPerPixelPhaseEncode": 24.888,
  "BaseResolution": 82,
  "BodyPartExamined": "BRAIN",
  "ConsistencyInfo": "N4_VE11E_LATEST_20181129",
  "ConversionSoftware": "dcm2niix",
  "ConversionSoftwareVersion": "v1.0.20201102",
  "DerivedVendorReportedEchoSpacing": 0.00049,
  "DeviceSerialNumber": "66112",
  "DwellTime": 2e-06,
  "EchoTime": 0.0272,
  "EchoTrainLength": 82,
  "EffectiveEchoSpacing": 0.00049,
  "FlipAngle": 44,
  "ImageComments": "Unaliased MB8/PE3",
  "ImageOrientationPatientDICOM": [0.999176, -0.0400192, 0.00682987, 0.0397817, 0.998698, 0.0319375],
  "ImageType": [
    "ORIGINAL",
    "PRIMARY",
    "M",
    "MB",
    "ND",
    "NORM",
    "MOSAIC"
],
  "ImagingFrequency": 123.252,
  "InPlanePhaseEncodingDirectionDICOM": "COL",
  "InstitutionAddress": "Maynard 3,Hanover,NH,US,03755",
  "InstitutionName": "Dartmouth College - PBS",
  "InstitutionalDepartmentName": "Department",
  "MRAcquisitionType": "2D",
  "MagneticFieldStrength": 3,
  "Manufacturer": "Siemens",
  "ManufacturersModelName": "Prisma",
  "Modality": "MR",
  "MultibandAccelerationFactor": 8,
  "PartialFourier": 1,
  "PatientPosition": "HFS",
  "PercentPhaseFOV": 100,
  "PercentSampling": 100,
  "PhaseEncodingDirection": "j-",
  "PhaseEncodingSteps": 82,
  "PhaseResolution": 1,
  "PixelBandwidth": 3050,
  "ProcedureStepDescription": "Wager_Wager^1076_spacetop",
  "ProtocolName": "func_run-01_task-alignvideo_acq-ap-mb8",
  "PulseSequenceDetails": "%CustomerSeq%\\cmrr_mbep2d_bold",
  "ReceiveCoilActiveElements": "HEA;HEP",
  "ReceiveCoilName": "Head_32",
  "ReconMatrixPE": 82,
  "RepetitionTime": 0.46,
  "SAR": 0.084902,
  "ScanOptions": "FS",
  "ScanningSequence": "EP",
  "SequenceName": "epfid2d1_82",
  "SequenceVariant": "SK\\SS",
  "SeriesDescription": "func_run-01_task-alignvideo_acq-ap-mb8",
  "SeriesNumber": 30,
  "ShimSetting": [4147, -7766, -7282, 629, -3, -146, 0, 65],
  "SliceThickness": 2.7,
  "SliceTiming": [0, 0.25, 0.0625, 0.3125, 0.125, 0.375, 0.1875, 0, 0.25, 0.0625, 0.3125, 0.125, 0.375, 0.1875, 0, 0.25, 0.0625, 0.3125, 0.125, 0.375, 0.1875, 0, 0.25, 0.0625, 0.3125, 0.125, 0.375, 0.1875, 0, 0.25, 0.0625, 0.3125, 0.125, 0.375, 0.1875, 0, 0.25, 0.0625, 0.3125, 0.125, 0.375, 0.1875, 0, 0.25, 0.0625, 0.3125, 0.125, 0.375, 0.1875, 0, 0.25, 0.0625, 0.3125, 0.125, 0.375, 0.1875],
  "SoftwareVersions": "syngo MR E11",
  "SpacingBetweenSlices": 2.7,
  "StationName": "AWP66112",
  "TaskName": "alignvideo",
  "TotalReadoutTime": 0.03969,
  "TxRefAmp": 234.65,
  "WipMemBlock": "0fd6f97c-9028-45e1-9359-93e27861c811||Sequence: R016 ve11e/master r/434b28f1; Aug  7 2019 18:53:46 by eja",
  "dcmmeta_affine": [
    [-2.6807150840759277, 0.10673151165246964, 0.021867547184228897, 108.58136749267578],
    [0.10736855119466782, 2.6794333457946777, 0.08542641997337341, -107.04813385009766],
    [0.018324052914977074, -0.0856858417391777, 2.698559522628784, -68.92749786376953],
    [0.0, 0.0, 0.0, 1.0]
],
  "dcmmeta_reorient_transform": [
    [0.0, -1.0, 0.0, 81.0],
    [1.0, 0.0, 0.0, 0.0],
    [0.0, 0.0, 1.0, 0.0],
    [0.0, 0.0, 0.0, 1.0]
],
  "dcmmeta_shape": [82, 82, 56, 839],
  "dcmmeta_slice_dim": 2,
  "dcmmeta_version": 0.6,
  "global": {
    "const": {
      "AccessionNumber": "A003943",
      "AcquisitionMatrix": [82, 0, 0, 82],
      "AngioFlag": "N",
      "BitsAllocated": 16,
      "BitsStored": 16,
      "BodyPartExamined": "BRAIN",
      "Columns": 656,
      "EchoNumbers": 1,
      "EchoTime": 27.2,
      "EchoTrainLength": 82,
      "FlipAngle": 44.0,
      "HighBit": 15,
      "ImageOrientationPatient": [0.99917556889943, -0.0400191870498, 0.00682987425727, 0.03978174493291, 0.99869785823226, 0.0319374503113],
      "ImagePositionPatient": [-917.22377171424, -848.16856417375, -105.71889175841],
      "ImageType": [
        "ORIGINAL",
        "PRIMARY",
        "M",
        "MB",
        "ND",
        "NORM",
        "MOSAIC"
],
      "ImagedNucleus": "1H",
      "ImagingFrequency": 123.252195,
      "InPlanePhaseEncodingDirection": "COL",
      "MRAcquisitionType": "2D",
      "MagneticFieldStrength": 3.0,
      "Manufacturer": "SIEMENS",
      "ManufacturerModelName": "Prisma",
      "Modality": "MR",
      "NumberOfAverages": 1.0,
      "NumberOfPhaseEncodingSteps": 82,
      "PercentPhaseFieldOfView": 100.0,
      "PercentSampling": 100.0,
      "PerformedProcedureStepStartTime": "143435.942000",
      "PhotometricInterpretation": "MONOCHROME2",
      "PixelBandwidth": 3050.0,
      "PixelRepresentation": 0,
      "PixelSpacing": [2.6829268932343, 2.6829268932343],
      "ProtocolName": "func_run-01_task-alignvideo_acq-ap-mb8",
      "RepetitionTime": 460.0,
      "Rows": 656,
      "SAR": 0.08490201143309,
      "SamplesPerPixel": 1,
      "ScanOptions": "FS",
      "ScanningSequence": "EP",
      "SequenceName": "epfid2d1_82",
      "SequenceVariant": [
        "SK",
        "SS"
],
      "SeriesDescription": "func_run-01_task-alignvideo_acq-ap-mb8",
      "SeriesNumber": 30,
      "SeriesTime": "155903.845000",
      "SliceLocation": -71.398257117856,
      "SliceThickness": 2.7000000476837,
      "SmallestImagePixelValue": 0,
      "SoftwareVersions": "syngo MR E11",
      "SpacingBetweenSlices": 2.6999999293764,
      "SpecificCharacterSet": "ISO_IR 100",
      "StudyID": "1",
      "StudyTime": "143435.888000",
      "TransmitCoilName": "Body",
      "VariableFlipAngleFlag": "N",
      "WindowCenterWidthExplanation": "Algo1"
    },
    "slices": {}
  },
  "time": {
    "samples": {
      "AcquisitionNumber": [1, 2, 3, 4, 5, 6, 7, 8, 9, 10, 11, 12, 13, 14, 15, 16, 17, 18, 19, 20, 21, 22, 23, 24, 25, 26, 27, 28, 29, 30, 31, 32, 33, 34, 35, 36, 37, 38, 39, 40, 41, 42, 43, 44, 45, 46, 47, 48, 49, 50, 51, 52, 53, 54, 55, 56, 57, 58, 59, 60, 61, 62, 63, 64, 65, 66, 67, 68, 69, 70, 71, 72, 73, 74, 75, 76, 77, 78, 79, 80, 81, 82, 83, 84, 85, 86, 87, 88, 89, 90, 91, 92, 93, 94, 95, 96, 97, 98, 99, 100, 101, 102, 103, 104, 105, 106, 107, 108, 109, 110, 111, 112, 113, 114, 115, 116, 117, 118, 119, 120, 121, 122, 123, 124, 125, 126, 127, 128, 129, 130, 131, 132, 133, 134, 135, 136, 137, 138, 139, 140, 141, 142, 143, 144, 145, 146, 147, 148, 149, 150, 151, 152, 153, 154, 155, 156, 157, 158, 159, 160, 161, 162, 163, 164, 165, 166, 167, 168, 169, 170, 171, 172, 173, 174, 175, 176, 177, 178, 179, 180, 181, 182, 183, 184, 185, 186, 187, 188, 189, 190, 191, 192, 193, 194, 195, 196, 197, 198, 199, 200, 201, 202, 203, 204, 205, 206, 207, 208, 209, 210, 211, 212, 213, 214, 215, 216, 217, 218, 219, 220, 221, 222, 223, 224, 225, 226, 227, 228, 229, 230, 231, 232, 233, 234, 235, 236, 237, 238, 239, 240, 241, 242, 243, 244, 245, 246, 247, 248, 249, 250, 251, 252, 253, 254, 255, 256, 257, 258, 259, 260, 261, 262, 263, 264, 265, 266, 267, 268, 269, 270, 271, 272, 273, 274, 275, 276, 277, 278, 279, 280, 281, 282, 283, 284, 285, 286, 287, 288, 289, 290, 291, 292, 293, 294, 295, 296, 297, 298, 299, 300, 301, 302, 303, 304, 305, 306, 307, 308, 309, 310, 311, 312, 313, 314, 315, 316, 317, 318, 319, 320, 321, 322, 323, 324, 325, 326, 327, 328, 329, 330, 331, 332, 333, 334, 335, 336, 337, 338, 339, 340, 341, 342, 343, 344, 345, 346, 347, 348, 349, 350, 351, 352, 353, 354, 355, 356, 357, 358, 359, 360, 361, 362, 363, 364, 365, 366, 367, 368, 369, 370, 371, 372, 373, 374, 375, 376, 377, 378, 379, 380, 381, 382, 383, 384, 385, 386, 387, 388, 389, 390, 391, 392, 393, 394, 395, 396, 397, 398, 399, 400, 401, 402, 403, 404, 405, 406, 407, 408, 409, 410, 411, 412, 413, 414, 415, 416, 417, 418, 419, 420, 421, 422, 423, 424, 425, 426, 427, 428, 429, 430, 431, 432, 433, 434, 435, 436, 437, 438, 439, 440, 441, 442, 443, 444, 445, 446, 447, 448, 449, 450, 451, 452, 453, 454, 455, 456, 457, 458, 459, 460, 461, 462, 463, 464, 465, 466, 467, 468, 469, 470, 471, 472, 473, 474, 475, 476, 477, 478, 479, 480, 481, 482, 483, 484, 485, 486, 487, 488, 489, 490, 491, 492, 493, 494, 495, 496, 497, 498, 499, 500, 501, 502, 503, 504, 505, 506, 507, 508, 509, 510, 511, 512, 513, 514, 515, 516, 517, 518, 519, 520, 521, 522, 523, 524, 525, 526, 527, 528, 529, 530, 531, 532, 533, 534, 535, 536, 537, 538, 539, 540, 541, 542, 543, 544, 545, 546, 547, 548, 549, 550, 551, 552, 553, 554, 555, 556, 557, 558, 559, 560, 561, 562, 563, 564, 565, 566, 567, 568, 569, 570, 571, 572, 573, 574, 575, 576, 577, 578, 579, 580, 581, 582, 583, 584, 585, 586, 587, 588, 589, 590, 591, 592, 593, 594, 595, 596, 597, 598, 599, 600, 601, 602, 603, 604, 605, 606, 607, 608, 609, 610, 611, 612, 613, 614, 615, 616, 617, 618, 619, 620, 621, 622, 623, 624, 625, 626, 627, 628, 629, 630, 631, 632, 633, 634, 635, 636, 637, 638, 639, 640, 641, 642, 643, 644, 645, 646, 647, 648, 649, 650, 651, 652, 653, 654, 655, 656, 657, 658, 659, 660, 661, 662, 663, 664, 665, 666, 667, 668, 669, 670, 671, 672, 673, 674, 675, 676, 677, 678, 679, 680, 681, 682, 683, 684, 685, 686, 687, 688, 689, 690, 691, 692, 693, 694, 695, 696, 697, 698, 699, 700, 701, 702, 703, 704, 705, 706, 707, 708, 709, 710, 711, 712, 713, 714, 715, 716, 717, 718, 719, 720, 721, 722, 723, 724, 725, 726, 727, 728, 729, 730, 731, 732, 733, 734, 735, 736, 737, 738, 739, 740, 741, 742, 743, 744, 745, 746, 747, 748, 749, 750, 751, 752, 753, 754, 755, 756, 757, 758, 759, 760, 761, 762, 763, 764, 765, 766, 767, 768, 769, 770, 771, 772, 773, 774, 775, 776, 777, 778, 779, 780, 781, 782, 783, 784, 785, 786, 787, 788, 789, 790, 791, 792, 793, 794, 795, 796, 797, 798, 799, 800, 801, 802, 803, 804, 805, 806, 807, 808, 809, 810, 811, 812, 813, 814, 815, 816, 817, 818, 819, 820, 821, 822, 823, 824, 825, 826, 827, 828, 829, 830, 831, 832, 833, 834, 835, 836, 837, 838, 839],
      "AcquisitionTime": ["155848.270000", "155848.730000", "155849.190000", "155849.650000", "155850.110000", "155850.570000", "155851.030000", "155851.490000", "155851.950000", "155852.410000", "155852.870000", "155853.330000", "155853.790000", "155854.250000", "155854.710000", "155855.170000", "155855.630000", "155856.090000", "155856.550000", "155857.010000", "155857.470000", "155857.930000", "155858.390000", "155858.850000", "155859.310000", "155859.770000", "155900.230000", "155900.690000", "155901.150000", "155901.610000", "155902.070000", "155902.530000", "155902.990000", "155903.450000", "155903.910000", "155904.370000", "155904.830000", "155905.290000", "155905.750000", "155906.210000", "155906.670000", "155907.130000", "155907.590000", "155908.050000", "155908.510000", "155908.970000", "155909.430000", "155909.890000", "155910.350000", "155910.810000", "155911.270000", "155911.730000", "155912.190000", "155912.650000", "155913.110000", "155913.570000", "155914.030000", "155914.490000", "155914.950000", "155915.410000", "155915.870000", "155916.330000", "155916.790000", "155917.250000", "155917.710000", "155918.170000", "155918.630000", "155919.090000", "155919.550000", "155920.010000", "155920.470000", "155920.930000", "155921.390000", "155921.850000", "155922.310000", "155922.770000", "155923.230000", "155923.690000", "155924.150000", "155924.610000", "155925.070000", "155925.530000", "155925.990000", "155926.450000", "155926.910000", "155927.370000", "155927.830000", "155928.290000", "155928.750000", "155929.210000", "155929.670000", "155930.130000", "155930.590000", "155931.050000", "155931.510000", "155931.970000", "155932.430000", "155932.890000", "155933.350000", "155933.810000", "155934.270000", "155934.730000", "155935.190000", "155935.650000", "155936.110000", "155936.570000", "155937.030000", "155937.490000", "155937.950000", "155938.410000", "155938.870000", "155939.330000", "155939.790000", "155940.250000", "155940.710000", "155941.170000", "155941.630000", "155942.090000", "155942.550000", "155943.010000", "155943.470000", "155943.930000", "155944.390000", "155944.850000", "155945.310000", "155945.770000", "155946.230000", "155946.690000", "155947.150000", "155947.610000", "155948.070000", "155948.530000", "155948.990000", "155949.450000", "155949.910000", "155950.370000", "155950.830000", "155951.290000", "155951.750000", "155952.210000", "155952.670000", "155953.130000", "155953.590000", "155954.050000", "155954.510000", "155954.970000", "155955.430000", "155955.890000", "155956.350000", "155956.810000", "155957.270000", "155957.730000", "155958.190000", "155958.650000", "155959.110000", "155959.570000", "160000.030000", "160000.490000", "160000.950000", "160001.410000", "160001.870000", "160002.330000", "160002.790000", "160003.250000", "160003.710000", "160004.170000", "160004.630000", "160005.090000", "160005.550000", "160006.010000", "160006.470000", "160006.930000", "160007.390000", "160007.850000", "160008.310000", "160008.770000", "160009.230000", "160009.690000", "160010.150000", "160010.610000", "160011.070000", "160011.530000", "160011.990000", "160012.450000", "160012.910000", "160013.370000", "160013.830000", "160014.290000", "160014.750000", "160015.210000", "160015.670000", "160016.130000", "160016.590000", "160017.050000", "160017.510000", "160017.970000", "160018.430000", "160018.890000", "160019.350000", "160019.810000", "160020.270000", "160020.730000", "160021.190000", "160021.650000", "160022.110000", "160022.570000", "160023.030000", "160023.490000", "160023.950000", "160024.410000", "160024.870000", "160025.330000", "160025.790000", "160026.250000", "160026.710000", "160027.170000", "160027.630000", "160028.090000", "160028.550000", "160029.010000", "160029.470000", "160029.930000", "160030.390000", "160030.850000", "160031.310000", "160031.770000", "160032.230000", "160032.690000", "160033.150000", "160033.610000", "160034.070000", "160034.530000", "160034.990000", "160035.450000", "160035.910000", "160036.370000", "160036.830000", "160037.290000", "160037.750000", "160038.210000", "160038.670000", "160039.130000", "160039.590000", "160040.050000", "160040.510000", "160040.970000", "160041.430000", "160041.890000", "160042.350000", "160042.810000", "160043.270000", "160043.730000", "160044.190000", "160044.650000", "160045.110000", "160045.570000", "160046.030000", "160046.490000", "160046.950000", "160047.410000", "160047.870000", "160048.330000", "160048.790000", "160049.250000", "160049.710000", "160050.170000", "160050.630000", "160051.090000", "160051.550000", "160052.010000", "160052.470000", "160052.930000", "160053.390000", "160053.850000", "160054.310000", "160054.770000", "160055.230000", "160055.690000", "160056.150000", "160056.610000", "160057.070000", "160057.530000", "160057.990000", "160058.450000", "160058.910000", "160059.370000", "160059.830000", "160100.290000", "160100.750000", "160101.210000", "160101.670000", "160102.130000", "160102.590000", "160103.050000", "160103.510000", "160103.970000", "160104.430000", "160104.890000", "160105.350000", "160105.810000", "160106.270000", "160106.730000", "160107.190000", "160107.650000", "160108.110000", "160108.570000", "160109.030000", "160109.490000", "160109.950000", "160110.410000", "160110.870000", "160111.330000", "160111.790000", "160112.250000", "160112.710000", "160113.170000", "160113.630000", "160114.090000", "160114.550000", "160115.010000", "160115.470000", "160115.930000", "160116.390000", "160116.850000", "160117.310000", "160117.770000", "160118.230000", "160118.690000", "160119.150000", "160119.610000", "160120.070000", "160120.530000", "160120.990000", "160121.450000", "160121.910000", "160122.370000", "160122.830000", "160123.290000", "160123.750000", "160124.210000", "160124.670000", "160125.130000", "160125.590000", "160126.050000", "160126.510000", "160126.970000", "160127.430000", "160127.890000", "160128.350000", "160128.810000", "160129.270000", "160129.730000", "160130.190000", "160130.650000", "160131.110000", "160131.570000", "160132.030000", "160132.490000", "160132.950000", "160133.410000", "160133.870000", "160134.330000", "160134.790000", "160135.250000", "160135.710000", "160136.170000", "160136.630000", "160137.090000", "160137.550000", "160138.010000", "160138.470000", "160138.930000", "160139.390000", "160139.850000", "160140.310000", "160140.770000", "160141.230000", "160141.690000", "160142.150000", "160142.610000", "160143.070000", "160143.530000", "160143.990000", "160144.450000", "160144.910000", "160145.370000", "160145.830000", "160146.290000", "160146.750000", "160147.210000", "160147.670000", "160148.130000", "160148.590000", "160149.050000", "160149.510000", "160149.970000", "160150.430000", "160150.890000", "160151.350000", "160151.810000", "160152.270000", "160152.730000", "160153.190000", "160153.650000", "160154.110000", "160154.570000", "160155.030000", "160155.490000", "160155.950000", "160156.410000", "160156.870000", "160157.330000", "160157.790000", "160158.250000", "160158.710000", "160159.170000", "160159.630000", "160200.090000", "160200.550000", "160201.010000", "160201.470000", "160201.930000", "160202.390000", "160202.850000", "160203.310000", "160203.770000", "160204.230000", "160204.690000", "160205.150000", "160205.610000", "160206.070000", "160206.530000", "160206.990000", "160207.450000", "160207.910000", "160208.370000", "160208.830000", "160209.290000", "160209.750000", "160210.210000", "160210.670000", "160211.130000", "160211.590000", "160212.050000", "160212.510000", "160212.970000", "160213.430000", "160213.890000", "160214.350000", "160214.810000", "160215.270000", "160215.730000", "160216.190000", "160216.650000", "160217.110000", "160217.570000", "160218.030000", "160218.490000", "160218.950000", "160219.410000", "160219.870000", "160220.330000", "160220.790000", "160221.250000", "160221.710000", "160222.170000", "160222.630000", "160223.090000", "160223.550000", "160224.010000", "160224.470000", "160224.930000", "160225.390000", "160225.850000", "160226.310000", "160226.770000", "160227.230000", "160227.690000", "160228.150000", "160228.610000", "160229.070000", "160229.530000", "160229.990000", "160230.450000", "160230.910000", "160231.370000", "160231.830000", "160232.290000", "160232.750000", "160233.210000", "160233.670000", "160234.130000", "160234.590000", "160235.050000", "160235.510000", "160235.970000", "160236.430000", "160236.890000", "160237.350000", "160237.810000", "160238.270000", "160238.730000", "160239.190000", "160239.650000", "160240.110000", "160240.570000", "160241.030000", "160241.490000", "160241.950000", "160242.410000", "160242.870000", "160243.330000", "160243.790000", "160244.250000", "160244.710000", "160245.170000", "160245.630000", "160246.090000", "160246.550000", "160247.010000", "160247.470000", "160247.930000", "160248.390000", "160248.850000", "160249.310000", "160249.770000", "160250.230000", "160250.690000", "160251.150000", "160251.610000", "160252.070000", "160252.530000", "160252.990000", "160253.450000", "160253.910000", "160254.370000", "160254.830000", "160255.290000", "160255.750000", "160256.210000", "160256.670000", "160257.130000", "160257.590000", "160258.050000", "160258.510000", "160258.970000", "160259.430000", "160259.890000", "160300.350000", "160300.810000", "160301.270000", "160301.730000", "160302.190000", "160302.650000", "160303.110000", "160303.570000", "160304.030000", "160304.490000", "160304.950000", "160305.410000", "160305.870000", "160306.330000", "160306.790000", "160307.250000", "160307.710000", "160308.170000", "160308.630000", "160309.090000", "160309.550000", "160310.010000", "160310.470000", "160310.930000", "160311.390000", "160311.850000", "160312.310000", "160312.770000", "160313.230000", "160313.690000", "160314.150000", "160314.610000", "160315.070000", "160315.530000", "160315.990000", "160316.450000", "160316.910000", "160317.370000", "160317.830000", "160318.290000", "160318.750000", "160319.210000", "160319.670000", "160320.130000", "160320.590000", "160321.050000", "160321.510000", "160321.970000", "160322.430000", "160322.890000", "160323.350000", "160323.810000", "160324.270000", "160324.730000", "160325.190000", "160325.650000", "160326.110000", "160326.570000", "160327.030000", "160327.490000", "160327.950000", "160328.410000", "160328.870000", "160329.330000", "160329.790000", "160330.250000", "160330.710000", "160331.170000", "160331.630000", "160332.090000", "160332.550000", "160333.010000", "160333.470000", "160333.930000", "160334.390000", "160334.850000", "160335.310000", "160335.770000", "160336.230000", "160336.690000", "160337.150000", "160337.610000", "160338.070000", "160338.530000", "160338.990000", "160339.450000", "160339.910000", "160340.370000", "160340.830000", "160341.290000", "160341.750000", "160342.210000", "160342.670000", "160343.130000", "160343.590000", "160344.050000", "160344.510000", "160344.970000", "160345.430000", "160345.890000", "160346.350000", "160346.810000", "160347.270000", "160347.730000", "160348.190000", "160348.650000", "160349.110000", "160349.570000", "160350.030000", "160350.490000", "160350.950000", "160351.410000", "160351.870000", "160352.330000", "160352.790000", "160353.250000", "160353.710000", "160354.170000", "160354.630000", "160355.090000", "160355.550000", "160356.010000", "160356.470000", "160356.930000", "160357.390000", "160357.850000", "160358.310000", "160358.770000", "160359.230000", "160359.690000", "160400.150000", "160400.610000", "160401.070000", "160401.530000", "160401.990000", "160402.450000", "160402.910000", "160403.370000", "160403.830000", "160404.290000", "160404.750000", "160405.210000", "160405.670000", "160406.130000", "160406.590000", "160407.050000", "160407.510000", "160407.970000", "160408.430000", "160408.890000", "160409.350000", "160409.810000", "160410.270000", "160410.730000", "160411.190000", "160411.650000", "160412.110000", "160412.570000", "160413.030000", "160413.490000", "160413.950000", "160414.410000", "160414.870000", "160415.330000", "160415.790000", "160416.250000", "160416.710000", "160417.170000", "160417.630000", "160418.090000", "160418.550000", "160419.010000", "160419.470000", "160419.930000", "160420.390000", "160420.850000", "160421.310000", "160421.770000", "160422.230000", "160422.690000", "160423.150000", "160423.610000", "160424.070000", "160424.530000", "160424.990000", "160425.450000", "160425.910000", "160426.370000", "160426.830000", "160427.290000", "160427.750000", "160428.210000", "160428.670000", "160429.130000", "160429.590000", "160430.050000", "160430.510000", "160430.970000", "160431.430000", "160431.890000", "160432.350000", "160432.810000", "160433.270000", "160433.730000", "160434.190000", "160434.650000", "160435.110000", "160435.570000", "160436.030000", "160436.490000", "160436.950000", "160437.410000", "160437.870000", "160438.330000", "160438.790000", "160439.250000", "160439.710000", "160440.170000", "160440.630000", "160441.090000", "160441.550000", "160442.010000", "160442.470000", "160442.930000", "160443.390000", "160443.850000", "160444.310000", "160444.770000", "160445.230000", "160445.690000", "160446.150000", "160446.610000", "160447.070000", "160447.530000", "160447.990000", "160448.450000", "160448.910000", "160449.370000", "160449.830000", "160450.290000", "160450.750000", "160451.210000", "160451.670000", "160452.130000", "160452.590000", "160453.050000", "160453.510000", "160453.970000", "160454.430000", "160454.890000", "160455.350000", "160455.810000", "160456.270000", "160456.730000", "160457.190000", "160457.650000", "160458.110000", "160458.570000", "160459.030000", "160459.490000", "160459.950000", "160500.410000", "160500.870000", "160501.330000", "160501.790000", "160502.250000", "160502.710000", "160503.170000", "160503.630000", "160504.090000", "160504.550000", "160505.010000", "160505.470000", "160505.930000", "160506.390000", "160506.850000", "160507.310000", "160507.770000", "160508.230000", "160508.690000", "160509.150000", "160509.610000", "160510.070000", "160510.530000", "160510.990000", "160511.450000", "160511.910000", "160512.370000", "160512.830000", "160513.290000", "160513.750000"],
