{
  "AcquisitionMatrixPE": 82,
  "AcquisitionNumber": 1,
  "AcquisitionTime": "15:48:34.682500",
  "BandwidthPerPixelPhaseEncode": 24.888,
  "BaseResolution": 82,
  "BodyPartExamined": "BRAIN",
  "ConsistencyInfo": "N4_VE11E_LATEST_20181129",
  "ConversionSoftware": "dcm2niix",
  "ConversionSoftwareVersion": "v1.0.20201102",
  "DerivedVendorReportedEchoSpacing": 0.00049,
  "DeviceSerialNumber": "66112",
  "DwellTime": 2e-06,
  "EchoTime": 0.0272,
  "EchoTrainLength": 82,
  "EffectiveEchoSpacing": 0.00049,
  "FlipAngle": 44,
  "ImageComments": "Unaliased MB8/PE3",
  "ImageOrientationPatientDICOM": [0.999458, -0.0252833, 0.0210646, 0.0235536, 0.996623, 0.0786662],
  "ImageType": [
    "ORIGINAL",
    "PRIMARY",
    "M",
    "MB",
    "ND",
    "NORM",
    "MOSAIC"
],
  "ImagingFrequency": 123.252,
  "InPlanePhaseEncodingDirectionDICOM": "COL",
  "InstitutionAddress": "Maynard 3,Hanover,NH,US,03755",
  "InstitutionName": "Dartmouth College - PBS",
  "InstitutionalDepartmentName": "Department",
  "MRAcquisitionType": "2D",
  "MagneticFieldStrength": 3,
  "Manufacturer": "Siemens",
  "ManufacturersModelName": "Prisma",
  "Modality": "MR",
  "MultibandAccelerationFactor": 8,
  "PartialFourier": 1,
  "PatientPosition": "HFS",
  "PercentPhaseFOV": 100,
  "PercentSampling": 100,
  "PhaseEncodingDirection": "j-",
  "PhaseEncodingSteps": 82,
  "PhaseResolution": 1,
  "PixelBandwidth": 3050,
  "ProcedureStepDescription": "Wager_Wager^1076_spacetop",
  "ProtocolName": "func_run-03_task-faces_acq-ap-mb8",
  "PulseSequenceDetails": "%CustomerSeq%\\cmrr_mbep2d_bold",
  "ReceiveCoilActiveElements": "HEA;HEP",
  "ReceiveCoilName": "Head_32",
  "ReconMatrixPE": 82,
  "RepetitionTime": 0.46,
  "SAR": 0.084947,
  "ScanOptions": "FS",
  "ScanningSequence": "EP",
  "SequenceName": "epfid2d1_82",
  "SequenceVariant": "SK\\SS",
  "SeriesDescription": "func_run-03_task-faces_acq-ap-mb8",
  "SeriesNumber": 22,
  "ShimSetting": [4147, -7766, -7286, 619, 0, -155, 0, 64],
  "SliceThickness": 2.7,
  "SliceTiming": [0, 0.2525, 0.065, 0.315, 0.1275, 0.3775, 0.19, 0, 0.2525, 0.065, 0.315, 0.1275, 0.3775, 0.19, 0, 0.2525, 0.065, 0.315, 0.1275, 0.3775, 0.19, 0, 0.2525, 0.065, 0.315, 0.1275, 0.3775, 0.19, 0, 0.2525, 0.065, 0.315, 0.1275, 0.3775, 0.19, 0, 0.2525, 0.065, 0.315, 0.1275, 0.3775, 0.19, 0, 0.2525, 0.065, 0.315, 0.1275, 0.3775, 0.19, 0, 0.2525, 0.065, 0.315, 0.1275, 0.3775, 0.19],
  "SoftwareVersions": "syngo MR E11",
  "SpacingBetweenSlices": 2.7,
  "StationName": "AWP66112",
  "TaskName": "faces",
  "TotalReadoutTime": 0.03969,
  "TxRefAmp": 234.65,
  "WipMemBlock": "10b108c0-3dff-483b-9936-fc3f47f259e4||Sequence: R016 ve11e/master r/434b28f1; Aug  7 2019 18:53:46 by eja",
  "dcmmeta_affine": [
    [-2.681473731994629, 0.0631924569606781, 0.062052566558122635, 109.1116943359375],
    [0.06783313304185867, 2.673866033554077, 0.21094410121440887, -109.1078872680664],
    [0.05651487782597542, -0.2110556811094284, 2.6910316944122314, -67.15544891357422],
    [0.0, 0.0, 0.0, 1.0]
],
  "dcmmeta_reorient_transform": [
    [0.0, -1.0, 0.0, 81.0],
    [1.0, 0.0, 0.0, 0.0],
    [0.0, 0.0, 1.0, 0.0],
    [0.0, 0.0, 0.0, 1.0]
],
  "dcmmeta_shape": [82, 82, 56, 914],
  "dcmmeta_slice_dim": 2,
  "dcmmeta_version": 0.6,
  "global": {
    "const": {
      "AccessionNumber": "A003943",
      "AcquisitionMatrix": [82, 0, 0, 82],
      "AngioFlag": "N",
      "BitsAllocated": 16,
      "BitsStored": 16,
      "BodyPartExamined": "BRAIN",
      "Columns": 656,
      "EchoNumbers": 1,
      "EchoTime": 27.2,
      "EchoTrainLength": 82,
      "FlipAngle": 44.0,
      "HighBit": 15,
      "ImageOrientationPatient": [0.99945837228503, -0.0252832587213, 0.02106463618924, 0.02355355251923, 0.99662272624747, 0.078666204248],
      "ImagePositionPatient": [-901.94948811263, -855.4066633106, -161.0437050317],
      "ImageType": [
        "ORIGINAL",
        "PRIMARY",
        "M",
        "MB",
        "ND",
        "NORM",
        "MOSAIC"
],
      "ImagedNucleus": "1H",
      "ImagingFrequency": 123.252205,
      "InPlanePhaseEncodingDirection": "COL",
      "MRAcquisitionType": "2D",
      "MagneticFieldStrength": 3.0,
      "Manufacturer": "SIEMENS",
      "ManufacturerModelName": "Prisma",
      "Modality": "MR",
      "NumberOfAverages": 1.0,
      "NumberOfPhaseEncodingSteps": 82,
      "PercentPhaseFieldOfView": 100.0,
      "PercentSampling": 100.0,
      "PerformedProcedureStepStartTime": "143435.942000",
      "PhotometricInterpretation": "MONOCHROME2",
      "PixelBandwidth": 3050.0,
      "PixelRepresentation": 0,
      "PixelSpacing": [2.6829268932343, 2.6829268932343],
      "ProtocolName": "func_run-03_task-faces_acq-ap-mb8",
      "RepetitionTime": 460.0,
      "Rows": 656,
      "SAR": 0.08494696040707,
      "SamplesPerPixel": 1,
      "ScanOptions": "FS",
      "ScanningSequence": "EP",
      "SequenceName": "epfid2d1_82",
      "SequenceVariant": [
        "SK",
        "SS"
],
      "SeriesDescription": "func_run-03_task-faces_acq-ap-mb8",
      "SeriesNumber": 22,
      "SeriesTime": "154843.738000",
      "SliceLocation": -72.949053789473,
      "SliceThickness": 2.7000000476837,
      "SmallestImagePixelValue": 0,
      "SoftwareVersions": "syngo MR E11",
      "SpacingBetweenSlices": 2.6999999337085,
      "SpecificCharacterSet": "ISO_IR 100",
      "StudyID": "1",
      "StudyTime": "143435.888000",
      "TransmitCoilName": "Body",
      "VariableFlipAngleFlag": "N",
      "WindowCenterWidthExplanation": "Algo1"
    },
    "slices": {}
  },
  "time": {
    "samples": {
      "AcquisitionNumber": [1, 2, 3, 4, 5, 6, 7, 8, 9, 10, 11, 12, 13, 14, 15, 16, 17, 18, 19, 20, 21, 22, 23, 24, 25, 26, 27, 28, 29, 30, 31, 32, 33, 34, 35, 36, 37, 38, 39, 40, 41, 42, 43, 44, 45, 46, 47, 48, 49, 50, 51, 52, 53, 54, 55, 56, 57, 58, 59, 60, 61, 62, 63, 64, 65, 66, 67, 68, 69, 70, 71, 72, 73, 74, 75, 76, 77, 78, 79, 80, 81, 82, 83, 84, 85, 86, 87, 88, 89, 90, 91, 92, 93, 94, 95, 96, 97, 98, 99, 100, 101, 102, 103, 104, 105, 106, 107, 108, 109, 110, 111, 112, 113, 114, 115, 116, 117, 118, 119, 120, 121, 122, 123, 124, 125, 126, 127, 128, 129, 130, 131, 132, 133, 134, 135, 136, 137, 138, 139, 140, 141, 142, 143, 144, 145, 146, 147, 148, 149, 150, 151, 152, 153, 154, 155, 156, 157, 158, 159, 160, 161, 162, 163, 164, 165, 166, 167, 168, 169, 170, 171, 172, 173, 174, 175, 176, 177, 178, 179, 180, 181, 182, 183, 184, 185, 186, 187, 188, 189, 190, 191, 192, 193, 194, 195, 196, 197, 198, 199, 200, 201, 202, 203, 204, 205, 206, 207, 208, 209, 210, 211, 212, 213, 214, 215, 216, 217, 218, 219, 220, 221, 222, 223, 224, 225, 226, 227, 228, 229, 230, 231, 232, 233, 234, 235, 236, 237, 238, 239, 240, 241, 242, 243, 244, 245, 246, 247, 248, 249, 250, 251, 252, 253, 254, 255, 256, 257, 258, 259, 260, 261, 262, 263, 264, 265, 266, 267, 268, 269, 270, 271, 272, 273, 274, 275, 276, 277, 278, 279, 280, 281, 282, 283, 284, 285, 286, 287, 288, 289, 290, 291, 292, 293, 294, 295, 296, 297, 298, 299, 300, 301, 302, 303, 304, 305, 306, 307, 308, 309, 310, 311, 312, 313, 314, 315, 316, 317, 318, 319, 320, 321, 322, 323, 324, 325, 326, 327, 328, 329, 330, 331, 332, 333, 334, 335, 336, 337, 338, 339, 340, 341, 342, 343, 344, 345, 346, 347, 348, 349, 350, 351, 352, 353, 354, 355, 356, 357, 358, 359, 360, 361, 362, 363, 364, 365, 366, 367, 368, 369, 370, 371, 372, 373, 374, 375, 376, 377, 378, 379, 380, 381, 382, 383, 384, 385, 386, 387, 388, 389, 390, 391, 392, 393, 394, 395, 396, 397, 398, 399, 400, 401, 402, 403, 404, 405, 406, 407, 408, 409, 410, 411, 412, 413, 414, 415, 416, 417, 418, 419, 420, 421, 422, 423, 424, 425, 426, 427, 428, 429, 430, 431, 432, 433, 434, 435, 436, 437, 438, 439, 440, 441, 442, 443, 444, 445, 446, 447, 448, 449, 450, 451, 452, 453, 454, 455, 456, 457, 458, 459, 460, 461, 462, 463, 464, 465, 466, 467, 468, 469, 470, 471, 472, 473, 474, 475, 476, 477, 478, 479, 480, 481, 482, 483, 484, 485, 486, 487, 488, 489, 490, 491, 492, 493, 494, 495, 496, 497, 498, 499, 500, 501, 502, 503, 504, 505, 506, 507, 508, 509, 510, 511, 512, 513, 514, 515, 516, 517, 518, 519, 520, 521, 522, 523, 524, 525, 526, 527, 528, 529, 530, 531, 532, 533, 534, 535, 536, 537, 538, 539, 540, 541, 542, 543, 544, 545, 546, 547, 548, 549, 550, 551, 552, 553, 554, 555, 556, 557, 558, 559, 560, 561, 562, 563, 564, 565, 566, 567, 568, 569, 570, 571, 572, 573, 574, 575, 576, 577, 578, 579, 580, 581, 582, 583, 584, 585, 586, 587, 588, 589, 590, 591, 592, 593, 594, 595, 596, 597, 598, 599, 600, 601, 602, 603, 604, 605, 606, 607, 608, 609, 610, 611, 612, 613, 614, 615, 616, 617, 618, 619, 620, 621, 622, 623, 624, 625, 626, 627, 628, 629, 630, 631, 632, 633, 634, 635, 636, 637, 638, 639, 640, 641, 642, 643, 644, 645, 646, 647, 648, 649, 650, 651, 652, 653, 654, 655, 656, 657, 658, 659, 660, 661, 662, 663, 664, 665, 666, 667, 668, 669, 670, 671, 672, 673, 674, 675, 676, 677, 678, 679, 680, 681, 682, 683, 684, 685, 686, 687, 688, 689, 690, 691, 692, 693, 694, 695, 696, 697, 698, 699, 700, 701, 702, 703, 704, 705, 706, 707, 708, 709, 710, 711, 712, 713, 714, 715, 716, 717, 718, 719, 720, 721, 722, 723, 724, 725, 726, 727, 728, 729, 730, 731, 732, 733, 734, 735, 736, 737, 738, 739, 740, 741, 742, 743, 744, 745, 746, 747, 748, 749, 750, 751, 752, 753, 754, 755, 756, 757, 758, 759, 760, 761, 762, 763, 764, 765, 766, 767, 768, 769, 770, 771, 772, 773, 774, 775, 776, 777, 778, 779, 780, 781, 782, 783, 784, 785, 786, 787, 788, 789, 790, 791, 792, 793, 794, 795, 796, 797, 798, 799, 800, 801, 802, 803, 804, 805, 806, 807, 808, 809, 810, 811, 812, 813, 814, 815, 816, 817, 818, 819, 820, 821, 822, 823, 824, 825, 826, 827, 828, 829, 830, 831, 832, 833, 834, 835, 836, 837, 838, 839, 840, 841, 842, 843, 844, 845, 846, 847, 848, 849, 850, 851, 852, 853, 854, 855, 856, 857, 858, 859, 860, 861, 862, 863, 864, 865, 866, 867, 868, 869, 870, 871, 872, 873, 874, 875, 876, 877, 878, 879, 880, 881, 882, 883, 884, 885, 886, 887, 888, 889, 890, 891, 892, 893, 894, 895, 896, 897, 898, 899, 900, 901, 902, 903, 904, 905, 906, 907, 908, 909, 910, 911, 912, 913, 914],
      "AcquisitionTime": ["154834.682500", "154835.142500", "154835.602500", "154836.062500", "154836.522500", "154836.982500", "154837.442500", "154837.902500", "154838.362500", "154838.822500", "154839.282500", "154839.742500", "154840.202500", "154840.662500", "154841.122500", "154841.582500", "154842.042500", "154842.502500", "154842.962500", "154843.422500", "154843.882500", "154844.342500", "154844.802500", "154845.262500", "154845.722500", "154846.182500", "154846.642500", "154847.102500", "154847.562500", "154848.022500", "154848.482500", "154848.942500", "154849.402500", "154849.862500", "154850.322500", "154850.782500", "154851.242500", "154851.702500", "154852.162500", "154852.622500", "154853.082500", "154853.542500", "154854.002500", "154854.462500", "154854.922500", "154855.382500", "154855.842500", "154856.302500", "154856.762500", "154857.222500", "154857.682500", "154858.142500", "154858.602500", "154859.062500", "154859.522500", "154859.982500", "154900.442500", "154900.902500", "154901.362500", "154901.822500", "154902.282500", "154902.742500", "154903.202500", "154903.662500", "154904.122500", "154904.582500", "154905.042500", "154905.502500", "154905.962500", "154906.422500", "154906.882500", "154907.342500", "154907.802500", "154908.262500", "154908.722500", "154909.182500", "154909.642500", "154910.102500", "154910.562500", "154911.022500", "154911.482500", "154911.942500", "154912.402500", "154912.862500", "154913.322500", "154913.782500", "154914.242500", "154914.702500", "154915.162500", "154915.622500", "154916.082500", "154916.542500", "154917.002500", "154917.462500", "154917.922500", "154918.382500", "154918.842500", "154919.302500", "154919.762500", "154920.222500", "154920.682500", "154921.142500", "154921.602500", "154922.062500", "154922.522500", "154922.982500", "154923.442500", "154923.902500", "154924.362500", "154924.822500", "154925.282500", "154925.742500", "154926.202500", "154926.662500", "154927.122500", "154927.582500", "154928.042500", "154928.502500", "154928.962500", "154929.422500", "154929.882500", "154930.342500", "154930.802500", "154931.262500", "154931.722500", "154932.182500", "154932.642500", "154933.102500", "154933.562500", "154934.022500", "154934.482500", "154934.942500", "154935.402500", "154935.862500", "154936.322500", "154936.782500", "154937.242500", "154937.702500", "154938.162500", "154938.622500", "154939.082500", "154939.542500", "154940.002500", "154940.462500", "154940.922500", "154941.382500", "154941.842500", "154942.302500", "154942.762500", "154943.222500", "154943.682500", "154944.142500", "154944.602500", "154945.062500", "154945.522500", "154945.982500", "154946.442500", "154946.902500", "154947.362500", "154947.822500", "154948.282500", "154948.742500", "154949.202500", "154949.662500", "154950.122500", "154950.582500", "154951.042500", "154951.502500", "154951.962500", "154952.422500", "154952.882500", "154953.342500", "154953.802500", "154954.262500", "154954.722500", "154955.182500", "154955.642500", "154956.102500", "154956.562500", "154957.022500", "154957.482500", "154957.942500", "154958.402500", "154958.862500", "154959.322500", "154959.782500", "155000.242500", "155000.702500", "155001.162500", "155001.622500", "155002.082500", "155002.542500", "155003.002500", "155003.462500", "155003.922500", "155004.382500", "155004.842500", "155005.302500", "155005.762500", "155006.222500", "155006.682500", "155007.142500", "155007.602500", "155008.062500", "155008.522500", "155008.982500", "155009.442500", "155009.902500", "155010.362500", "155010.822500", "155011.282500", "155011.742500", "155012.202500", "155012.662500", "155013.122500", "155013.582500", "155014.042500", "155014.502500", "155014.962500", "155015.422500", "155015.882500", "155016.342500", "155016.802500", "155017.262500", "155017.722500", "155018.182500", "155018.642500", "155019.102500", "155019.562500", "155020.022500", "155020.482500", "155020.942500", "155021.402500", "155021.862500", "155022.322500", "155022.782500", "155023.242500", "155023.702500", "155024.162500", "155024.622500", "155025.082500", "155025.542500", "155026.002500", "155026.462500", "155026.922500", "155027.382500", "155027.842500", "155028.302500", "155028.762500", "155029.222500", "155029.682500", "155030.142500", "155030.602500", "155031.062500", "155031.522500", "155031.982500", "155032.442500", "155032.902500", "155033.362500", "155033.822500", "155034.282500", "155034.742500", "155035.202500", "155035.662500", "155036.122500", "155036.582500", "155037.042500", "155037.502500", "155037.962500", "155038.422500", "155038.882500", "155039.342500", "155039.802500", "155040.262500", "155040.722500", "155041.182500", "155041.642500", "155042.102500", "155042.562500", "155043.022500", "155043.482500", "155043.942500", "155044.402500", "155044.862500", "155045.322500", "155045.782500", "155046.242500", "155046.702500", "155047.162500", "155047.622500", "155048.082500", "155048.542500", "155049.002500", "155049.462500", "155049.922500", "155050.382500", "155050.842500", "155051.302500", "155051.762500", "155052.222500", "155052.682500", "155053.142500", "155053.602500", "155054.062500", "155054.522500", "155054.982500", "155055.442500", "155055.902500", "155056.362500", "155056.822500", "155057.282500", "155057.742500", "155058.202500", "155058.662500", "155059.122500", "155059.582500", "155100.042500", "155100.502500", "155100.962500", "155101.422500", "155101.882500", "155102.342500", "155102.802500", "155103.262500", "155103.722500", "155104.182500", "155104.642500", "155105.102500", "155105.562500", "155106.022500", "155106.482500", "155106.942500", "155107.402500", "155107.862500", "155108.322500", "155108.782500", "155109.242500", "155109.702500", "155110.162500", "155110.622500", "155111.082500", "155111.542500", "155112.002500", "155112.462500", "155112.922500", "155113.382500", "155113.842500", "155114.302500", "155114.762500", "155115.222500", "155115.682500", "155116.142500", "155116.602500", "155117.062500", "155117.522500", "155117.982500", "155118.442500", "155118.902500", "155119.362500", "155119.822500", "155120.282500", "155120.742500", "155121.202500", "155121.662500", "155122.122500", "155122.582500", "155123.042500", "155123.502500", "155123.962500", "155124.422500", "155124.882500", "155125.342500", "155125.802500", "155126.262500", "155126.722500", "155127.182500", "155127.642500", "155128.102500", "155128.562500", "155129.022500", "155129.482500", "155129.942500", "155130.402500", "155130.862500", "155131.322500", "155131.782500", "155132.242500", "155132.702500", "155133.162500", "155133.622500", "155134.082500", "155134.542500", "155135.002500", "155135.462500", "155135.922500", "155136.382500", "155136.842500", "155137.302500", "155137.762500", "155138.222500", "155138.682500", "155139.142500", "155139.602500", "155140.062500", "155140.522500", "155140.982500", "155141.442500", "155141.902500", "155142.362500", "155142.822500", "155143.282500", "155143.742500", "155144.202500", "155144.662500", "155145.122500", "155145.582500", "155146.042500", "155146.502500", "155146.962500", "155147.422500", "155147.882500", "155148.342500", "155148.802500", "155149.262500", "155149.722500", "155150.182500", "155150.642500", "155151.102500", "155151.562500", "155152.022500", "155152.482500", "155152.942500", "155153.402500", "155153.862500", "155154.322500", "155154.782500", "155155.242500", "155155.702500", "155156.162500", "155156.622500", "155157.082500", "155157.542500", "155158.002500", "155158.462500", "155158.922500", "155159.382500", "155159.842500", "155200.302500", "155200.762500", "155201.222500", "155201.682500", "155202.142500", "155202.602500", "155203.062500", "155203.522500", "155203.982500", "155204.442500", "155204.902500", "155205.362500", "155205.822500", "155206.282500", "155206.742500", "155207.202500", "155207.662500", "155208.122500", "155208.582500", "155209.042500", "155209.502500", "155209.962500", "155210.422500", "155210.882500", "155211.342500", "155211.802500", "155212.262500", "155212.722500", "155213.182500", "155213.642500", "155214.102500", "155214.562500", "155215.022500", "155215.482500", "155215.942500", "155216.402500", "155216.862500", "155217.322500", "155217.782500", "155218.242500", "155218.702500", "155219.162500", "155219.622500", "155220.082500", "155220.542500", "155221.002500", "155221.462500", "155221.922500", "155222.382500", "155222.842500", "155223.302500", "155223.762500", "155224.222500", "155224.682500", "155225.142500", "155225.602500", "155226.062500", "155226.522500", "155226.982500", "155227.442500", "155227.902500", "155228.362500", "155228.822500", "155229.282500", "155229.742500", "155230.202500", "155230.662500", "155231.122500", "155231.582500", "155232.042500", "155232.502500", "155232.962500", "155233.422500", "155233.882500", "155234.342500", "155234.802500", "155235.262500", "155235.722500", "155236.182500", "155236.642500", "155237.102500", "155237.562500", "155238.022500", "155238.482500", "155238.942500", "155239.402500", "155239.862500", "155240.322500", "155240.782500", "155241.242500", "155241.702500", "155242.162500", "155242.622500", "155243.082500", "155243.542500", "155244.002500", "155244.462500", "155244.922500", "155245.382500", "155245.842500", "155246.302500", "155246.762500", "155247.222500", "155247.682500", "155248.142500", "155248.602500", "155249.062500", "155249.522500", "155249.982500", "155250.442500", "155250.902500", "155251.362500", "155251.822500", "155252.282500", "155252.742500", "155253.202500", "155253.662500", "155254.122500", "155254.582500", "155255.042500", "155255.502500", "155255.962500", "155256.422500", "155256.882500", "155257.342500", "155257.802500", "155258.262500", "155258.722500", "155259.182500", "155259.642500", "155300.102500", "155300.562500", "155301.022500", "155301.482500", "155301.942500", "155302.402500", "155302.862500", "155303.322500", "155303.782500", "155304.242500", "155304.702500", "155305.162500", "155305.622500", "155306.082500", "155306.542500", "155307.002500", "155307.462500", "155307.922500", "155308.382500", "155308.842500", "155309.302500", "155309.762500", "155310.222500", "155310.682500", "155311.142500", "155311.602500", "155312.062500", "155312.522500", "155312.982500", "155313.442500", "155313.902500", "155314.362500", "155314.822500", "155315.282500", "155315.742500", "155316.202500", "155316.662500", "155317.122500", "155317.582500", "155318.042500", "155318.502500", "155318.962500", "155319.422500", "155319.882500", "155320.342500", "155320.802500", "155321.262500", "155321.722500", "155322.182500", "155322.642500", "155323.102500", "155323.562500", "155324.022500", "155324.482500", "155324.942500", "155325.402500", "155325.862500", "155326.322500", "155326.782500", "155327.242500", "155327.702500", "155328.162500", "155328.622500", "155329.082500", "155329.542500", "155330.002500", "155330.462500", "155330.922500", "155331.382500", "155331.842500", "155332.302500", "155332.762500", "155333.222500", "155333.682500", "155334.142500", "155334.602500", "155335.062500", "155335.522500", "155335.982500", "155336.442500", "155336.902500", "155337.362500", "155337.822500", "155338.282500", "155338.742500", "155339.202500", "155339.662500", "155340.122500", "155340.582500", "155341.042500", "155341.502500", "155341.962500", "155342.422500", "155342.882500", "155343.342500", "155343.802500", "155344.262500", "155344.722500", "155345.182500", "155345.642500", "155346.102500", "155346.562500", "155347.022500", "155347.482500", "155347.942500", "155348.402500", "155348.862500", "155349.322500", "155349.782500", "155350.242500", "155350.702500", "155351.162500", "155351.622500", "155352.082500", "155352.542500", "155353.002500", "155353.462500", "155353.922500", "155354.382500", "155354.842500", "155355.302500", "155355.762500", "155356.222500", "155356.682500", "155357.142500", "155357.602500", "155358.062500", "155358.522500", "155358.982500", "155359.442500", "155359.902500", "155400.362500", "155400.822500", "155401.282500", "155401.742500", "155402.202500", "155402.662500", "155403.122500", "155403.582500", "155404.042500", "155404.502500", "155404.962500", "155405.422500", "155405.882500", "155406.342500", "155406.802500", "155407.262500", "155407.722500", "155408.182500", "155408.642500", "155409.102500", "155409.562500", "155410.022500", "155410.482500", "155410.942500", "155411.402500", "155411.862500", "155412.322500", "155412.782500", "155413.242500", "155413.702500", "155414.162500", "155414.622500", "155415.082500", "155415.542500", "155416.002500", "155416.462500", "155416.922500", "155417.382500", "155417.842500", "155418.302500", "155418.762500", "155419.222500", "155419.682500", "155420.142500", "155420.602500", "155421.062500", "155421.522500", "155421.982500", "155422.442500", "155422.902500", "155423.362500", "155423.822500", "155424.282500", "155424.742500", "155425.202500", "155425.662500", "155426.122500", "155426.582500", "155427.042500", "155427.502500", "155427.962500", "155428.422500", "155428.882500", "155429.342500", "155429.802500", "155430.262500", "155430.722500", "155431.182500", "155431.642500", "155432.102500", "155432.562500", "155433.022500", "155433.482500", "155433.942500", "155434.402500", "155434.862500", "155435.322500", "155435.782500", "155436.242500", "155436.702500", "155437.162500", "155437.622500", "155438.082500", "155438.542500", "155439.002500", "155439.462500", "155439.922500", "155440.382500", "155440.842500", "155441.302500", "155441.762500", "155442.222500", "155442.682500", "155443.142500", "155443.602500", "155444.062500", "155444.522500", "155444.982500", "155445.442500", "155445.902500", "155446.362500", "155446.822500", "155447.282500", "155447.742500", "155448.202500", "155448.662500", "155449.122500", "155449.582500", "155450.042500", "155450.502500", "155450.962500", "155451.422500", "155451.882500", "155452.342500", "155452.802500", "155453.262500", "155453.722500", "155454.182500", "155454.642500", "155455.102500", "155455.562500", "155456.022500", "155456.482500", "155456.942500", "155457.402500", "155457.862500", "155458.322500", "155458.782500", "155459.242500", "155459.702500", "155500.162500", "155500.622500", "155501.082500", "155501.542500", "155502.002500", "155502.462500", "155502.922500", "155503.382500", "155503.842500", "155504.302500", "155504.762500", "155505.222500", "155505.682500", "155506.142500", "155506.602500", "155507.062500", "155507.522500", "155507.982500", "155508.442500", "155508.902500", "155509.362500", "155509.822500", "155510.282500", "155510.742500", "155511.202500", "155511.662500", "155512.122500", "155512.582500", "155513.042500", "155513.502500", "155513.962500", "155514.422500", "155514.882500", "155515.342500", "155515.802500", "155516.262500", "155516.722500", "155517.182500", "155517.642500", "155518.102500", "155518.562500", "155519.022500", "155519.482500", "155519.942500", "155520.402500", "155520.862500", "155521.322500", "155521.782500", "155522.242500", "155522.702500", "155523.162500", "155523.622500", "155524.082500", "155524.542500", "155525.002500", "155525.462500", "155525.922500", "155526.382500", "155526.842500", "155527.302500", "155527.762500", "155528.222500", "155528.682500", "155529.142500", "155529.602500", "155530.062500", "155530.522500", "155530.982500", "155531.442500", "155531.902500", "155532.362500", "155532.822500", "155533.282500", "155533.742500", "155534.202500", "155534.662500"],
