{
  "AcquisitionMatrixPE": 82,
  "AcquisitionNumber": 1,
  "AcquisitionTime": "15:27:44.240000",
  "BandwidthPerPixelPhaseEncode": 24.888,
  "BaseResolution": 82,
  "BodyPartExamined": "BRAIN",
  "ConsistencyInfo": "N4_VE11E_LATEST_20181129",
  "ConversionSoftware": "dcm2niix",
  "ConversionSoftwareVersion": "v1.0.20201102",
  "DerivedVendorReportedEchoSpacing": 0.00049,
  "DeviceSerialNumber": "66112",
  "DwellTime": 2e-06,
  "EchoTime": 0.0272,
  "EchoTrainLength": 82,
  "EffectiveEchoSpacing": 0.00049,
  "FlipAngle": 44,
  "ImageComments": "Unaliased MB8/PE3",
  "ImageOrientationPatientDICOM": [0.999458, -0.0252833, 0.0210646, 0.0235536, 0.996623, 0.0786662],
  "ImageType": [
    "ORIGINAL",
    "PRIMARY",
    "M",
    "MB",
    "ND",
    "NORM",
    "MOSAIC"
],
  "ImagingFrequency": 123.252,
  "InPlanePhaseEncodingDirectionDICOM": "COL",
  "InstitutionAddress": "Maynard 3,Hanover,NH,US,03755",
  "InstitutionName": "Dartmouth College - PBS",
  "InstitutionalDepartmentName": "Department",
  "MRAcquisitionType": "2D",
  "MagneticFieldStrength": 3,
  "Manufacturer": "Siemens",
  "ManufacturersModelName": "Prisma",
  "Modality": "MR",
  "MultibandAccelerationFactor": 8,
  "PartialFourier": 1,
  "PatientPosition": "HFS",
  "PercentPhaseFOV": 100,
  "PercentSampling": 100,
  "PhaseEncodingDirection": "j-",
  "PhaseEncodingSteps": 82,
  "PhaseResolution": 1,
  "PixelBandwidth": 3050,
  "ProcedureStepDescription": "Wager_Wager^1076_spacetop",
  "ProtocolName": "func_run-01_task-faces_acq-ap-mb8",
  "PulseSequenceDetails": "%CustomerSeq%\\cmrr_mbep2d_bold",
  "ReceiveCoilActiveElements": "HEA;HEP",
  "ReceiveCoilName": "Head_32",
  "ReconMatrixPE": 82,
  "RepetitionTime": 0.46,
  "SAR": 0.084947,
  "ScanOptions": "FS",
  "ScanningSequence": "EP",
  "SequenceName": "epfid2d1_82",
  "SequenceVariant": "SK\\SS",
  "SeriesDescription": "func_run-01_task-faces_acq-ap-mb8",
  "SeriesNumber": 18,
  "ShimSetting": [4147, -7766, -7286, 619, 0, -155, 0, 64],
  "SliceThickness": 2.7,
  "SliceTiming": [0, 0.2525, 0.0625, 0.315, 0.1275, 0.3775, 0.19, 0, 0.2525, 0.0625, 0.315, 0.1275, 0.3775, 0.19, 0, 0.2525, 0.0625, 0.315, 0.1275, 0.3775, 0.19, 0, 0.2525, 0.0625, 0.315, 0.1275, 0.3775, 0.19, 0, 0.2525, 0.0625, 0.315, 0.1275, 0.3775, 0.19, 0, 0.2525, 0.0625, 0.315, 0.1275, 0.3775, 0.19, 0, 0.2525, 0.0625, 0.315, 0.1275, 0.3775, 0.19, 0, 0.2525, 0.0625, 0.315, 0.1275, 0.3775, 0.19],
  "SoftwareVersions": "syngo MR E11",
  "SpacingBetweenSlices": 2.7,
  "StationName": "AWP66112",
  "TaskName": "faces",
  "TotalReadoutTime": 0.03969,
  "TxRefAmp": 234.65,
  "WipMemBlock": "2b52046a-6da9-4cea-9c59-7b000cdd31ee||Sequence: R016 ve11e/master r/434b28f1; Aug  7 2019 18:53:46 by eja",
  "dcmmeta_affine": [
    [-2.681473731994629, 0.0631924569606781, 0.062052566558122635, 109.1116943359375],
    [0.06783313304185867, 2.673866033554077, 0.21094410121440887, -109.1078872680664],
    [0.05651487782597542, -0.2110556811094284, 2.6910316944122314, -67.15544891357422],
    [0.0, 0.0, 0.0, 1.0]
],
  "dcmmeta_reorient_transform": [
    [0.0, -1.0, 0.0, 81.0],
    [1.0, 0.0, 0.0, 0.0],
    [0.0, 0.0, 1.0, 0.0],
    [0.0, 0.0, 0.0, 1.0]
],
  "dcmmeta_shape": [82, 82, 56, 914],
  "dcmmeta_slice_dim": 2,
  "dcmmeta_version": 0.6,
  "global": {
    "const": {
      "AccessionNumber": "A003943",
      "AcquisitionMatrix": [82, 0, 0, 82],
      "AngioFlag": "N",
      "BitsAllocated": 16,
      "BitsStored": 16,
      "BodyPartExamined": "BRAIN",
      "Columns": 656,
      "EchoNumbers": 1,
      "EchoTime": 27.2,
      "EchoTrainLength": 82,
      "FlipAngle": 44.0,
      "HighBit": 15,
      "ImageOrientationPatient": [0.99945837228503, -0.0252832587213, 0.02106463618924, 0.02355355251923, 0.99662272624747, 0.078666204248],
      "ImagePositionPatient": [-901.94948811263, -855.4066633106, -161.0437050317],
      "ImageType": [
        "ORIGINAL",
        "PRIMARY",
        "M",
        "MB",
        "ND",
        "NORM",
        "MOSAIC"
],
      "ImagedNucleus": "1H",
      "ImagingFrequency": 123.252198,
      "InPlanePhaseEncodingDirection": "COL",
      "MRAcquisitionType": "2D",
      "MagneticFieldStrength": 3.0,
      "Manufacturer": "SIEMENS",
      "ManufacturerModelName": "Prisma",
      "Modality": "MR",
      "NumberOfAverages": 1.0,
      "NumberOfPhaseEncodingSteps": 82,
      "PercentPhaseFieldOfView": 100.0,
      "PercentSampling": 100.0,
      "PerformedProcedureStepStartTime": "143435.942000",
      "PhotometricInterpretation": "MONOCHROME2",
      "PixelBandwidth": 3050.0,
      "PixelRepresentation": 0,
      "PixelSpacing": [2.6829268932343, 2.6829268932343],
      "ProtocolName": "func_run-01_task-faces_acq-ap-mb8",
      "RepetitionTime": 460.0,
      "Rows": 656,
      "SAR": 0.08494696040707,
      "SamplesPerPixel": 1,
      "ScanOptions": "FS",
      "ScanningSequence": "EP",
      "SequenceName": "epfid2d1_82",
      "SequenceVariant": [
        "SK",
        "SS"
],
      "SeriesDescription": "func_run-01_task-faces_acq-ap-mb8",
      "SeriesNumber": 18,
      "SeriesTime": "152803.844000",
      "SliceLocation": -72.949053789473,
      "SliceThickness": 2.7000000476837,
      "SmallestImagePixelValue": 0,
      "SoftwareVersions": "syngo MR E11",
      "SpacingBetweenSlices": 2.6999999337085,
      "SpecificCharacterSet": "ISO_IR 100",
      "StudyID": "1",
      "StudyTime": "143435.888000",
      "TransmitCoilName": "Body",
      "VariableFlipAngleFlag": "N",
      "WindowCenterWidthExplanation": "Algo1"
    },
    "slices": {}
  },
  "time": {
    "samples": {
      "AcquisitionNumber": [1, 2, 3, 4, 5, 6, 7, 8, 9, 10, 11, 12, 13, 14, 15, 16, 17, 18, 19, 20, 21, 22, 23, 24, 25, 26, 27, 28, 29, 30, 31, 32, 33, 34, 35, 36, 37, 38, 39, 40, 41, 42, 43, 44, 45, 46, 47, 48, 49, 50, 51, 52, 53, 54, 55, 56, 57, 58, 59, 60, 61, 62, 63, 64, 65, 66, 67, 68, 69, 70, 71, 72, 73, 74, 75, 76, 77, 78, 79, 80, 81, 82, 83, 84, 85, 86, 87, 88, 89, 90, 91, 92, 93, 94, 95, 96, 97, 98, 99, 100, 101, 102, 103, 104, 105, 106, 107, 108, 109, 110, 111, 112, 113, 114, 115, 116, 117, 118, 119, 120, 121, 122, 123, 124, 125, 126, 127, 128, 129, 130, 131, 132, 133, 134, 135, 136, 137, 138, 139, 140, 141, 142, 143, 144, 145, 146, 147, 148, 149, 150, 151, 152, 153, 154, 155, 156, 157, 158, 159, 160, 161, 162, 163, 164, 165, 166, 167, 168, 169, 170, 171, 172, 173, 174, 175, 176, 177, 178, 179, 180, 181, 182, 183, 184, 185, 186, 187, 188, 189, 190, 191, 192, 193, 194, 195, 196, 197, 198, 199, 200, 201, 202, 203, 204, 205, 206, 207, 208, 209, 210, 211, 212, 213, 214, 215, 216, 217, 218, 219, 220, 221, 222, 223, 224, 225, 226, 227, 228, 229, 230, 231, 232, 233, 234, 235, 236, 237, 238, 239, 240, 241, 242, 243, 244, 245, 246, 247, 248, 249, 250, 251, 252, 253, 254, 255, 256, 257, 258, 259, 260, 261, 262, 263, 264, 265, 266, 267, 268, 269, 270, 271, 272, 273, 274, 275, 276, 277, 278, 279, 280, 281, 282, 283, 284, 285, 286, 287, 288, 289, 290, 291, 292, 293, 294, 295, 296, 297, 298, 299, 300, 301, 302, 303, 304, 305, 306, 307, 308, 309, 310, 311, 312, 313, 314, 315, 316, 317, 318, 319, 320, 321, 322, 323, 324, 325, 326, 327, 328, 329, 330, 331, 332, 333, 334, 335, 336, 337, 338, 339, 340, 341, 342, 343, 344, 345, 346, 347, 348, 349, 350, 351, 352, 353, 354, 355, 356, 357, 358, 359, 360, 361, 362, 363, 364, 365, 366, 367, 368, 369, 370, 371, 372, 373, 374, 375, 376, 377, 378, 379, 380, 381, 382, 383, 384, 385, 386, 387, 388, 389, 390, 391, 392, 393, 394, 395, 396, 397, 398, 399, 400, 401, 402, 403, 404, 405, 406, 407, 408, 409, 410, 411, 412, 413, 414, 415, 416, 417, 418, 419, 420, 421, 422, 423, 424, 425, 426, 427, 428, 429, 430, 431, 432, 433, 434, 435, 436, 437, 438, 439, 440, 441, 442, 443, 444, 445, 446, 447, 448, 449, 450, 451, 452, 453, 454, 455, 456, 457, 458, 459, 460, 461, 462, 463, 464, 465, 466, 467, 468, 469, 470, 471, 472, 473, 474, 475, 476, 477, 478, 479, 480, 481, 482, 483, 484, 485, 486, 487, 488, 489, 490, 491, 492, 493, 494, 495, 496, 497, 498, 499, 500, 501, 502, 503, 504, 505, 506, 507, 508, 509, 510, 511, 512, 513, 514, 515, 516, 517, 518, 519, 520, 521, 522, 523, 524, 525, 526, 527, 528, 529, 530, 531, 532, 533, 534, 535, 536, 537, 538, 539, 540, 541, 542, 543, 544, 545, 546, 547, 548, 549, 550, 551, 552, 553, 554, 555, 556, 557, 558, 559, 560, 561, 562, 563, 564, 565, 566, 567, 568, 569, 570, 571, 572, 573, 574, 575, 576, 577, 578, 579, 580, 581, 582, 583, 584, 585, 586, 587, 588, 589, 590, 591, 592, 593, 594, 595, 596, 597, 598, 599, 600, 601, 602, 603, 604, 605, 606, 607, 608, 609, 610, 611, 612, 613, 614, 615, 616, 617, 618, 619, 620, 621, 622, 623, 624, 625, 626, 627, 628, 629, 630, 631, 632, 633, 634, 635, 636, 637, 638, 639, 640, 641, 642, 643, 644, 645, 646, 647, 648, 649, 650, 651, 652, 653, 654, 655, 656, 657, 658, 659, 660, 661, 662, 663, 664, 665, 666, 667, 668, 669, 670, 671, 672, 673, 674, 675, 676, 677, 678, 679, 680, 681, 682, 683, 684, 685, 686, 687, 688, 689, 690, 691, 692, 693, 694, 695, 696, 697, 698, 699, 700, 701, 702, 703, 704, 705, 706, 707, 708, 709, 710, 711, 712, 713, 714, 715, 716, 717, 718, 719, 720, 721, 722, 723, 724, 725, 726, 727, 728, 729, 730, 731, 732, 733, 734, 735, 736, 737, 738, 739, 740, 741, 742, 743, 744, 745, 746, 747, 748, 749, 750, 751, 752, 753, 754, 755, 756, 757, 758, 759, 760, 761, 762, 763, 764, 765, 766, 767, 768, 769, 770, 771, 772, 773, 774, 775, 776, 777, 778, 779, 780, 781, 782, 783, 784, 785, 786, 787, 788, 789, 790, 791, 792, 793, 794, 795, 796, 797, 798, 799, 800, 801, 802, 803, 804, 805, 806, 807, 808, 809, 810, 811, 812, 813, 814, 815, 816, 817, 818, 819, 820, 821, 822, 823, 824, 825, 826, 827, 828, 829, 830, 831, 832, 833, 834, 835, 836, 837, 838, 839, 840, 841, 842, 843, 844, 845, 846, 847, 848, 849, 850, 851, 852, 853, 854, 855, 856, 857, 858, 859, 860, 861, 862, 863, 864, 865, 866, 867, 868, 869, 870, 871, 872, 873, 874, 875, 876, 877, 878, 879, 880, 881, 882, 883, 884, 885, 886, 887, 888, 889, 890, 891, 892, 893, 894, 895, 896, 897, 898, 899, 900, 901, 902, 903, 904, 905, 906, 907, 908, 909, 910, 911, 912, 913, 914],
      "AcquisitionTime": ["152744.240000", "152744.700000", "152745.160000", "152745.620000", "152746.080000", "152746.540000", "152747.000000", "152747.460000", "152747.920000", "152748.380000", "152748.840000", "152749.300000", "152749.760000", "152750.220000", "152750.680000", "152751.140000", "152751.600000", "152752.060000", "152752.520000", "152752.980000", "152753.440000", "152753.900000", "152754.360000", "152754.820000", "152755.280000", "152755.740000", "152756.200000", "152756.660000", "152757.120000", "152757.580000", "152758.040000", "152758.500000", "152758.960000", "152759.420000", "152759.880000", "152800.340000", "152800.800000", "152801.260000", "152801.720000", "152802.180000", "152802.640000", "152803.100000", "152803.560000", "152804.020000", "152804.480000", "152804.940000", "152805.400000", "152805.860000", "152806.320000", "152806.780000", "152807.240000", "152807.700000", "152808.160000", "152808.620000", "152809.080000", "152809.540000", "152810.000000", "152810.460000", "152810.920000", "152811.380000", "152811.840000", "152812.300000", "152812.760000", "152813.220000", "152813.680000", "152814.140000", "152814.600000", "152815.060000", "152815.520000", "152815.980000", "152816.440000", "152816.900000", "152817.360000", "152817.820000", "152818.280000", "152818.740000", "152819.200000", "152819.660000", "152820.120000", "152820.580000", "152821.040000", "152821.500000", "152821.960000", "152822.420000", "152822.880000", "152823.340000", "152823.800000", "152824.260000", "152824.720000", "152825.180000", "152825.640000", "152826.100000", "152826.560000", "152827.020000", "152827.480000", "152827.940000", "152828.400000", "152828.860000", "152829.320000", "152829.780000", "152830.240000", "152830.700000", "152831.160000", "152831.620000", "152832.080000", "152832.540000", "152833.000000", "152833.460000", "152833.920000", "152834.380000", "152834.840000", "152835.300000", "152835.760000", "152836.220000", "152836.680000", "152837.140000", "152837.600000", "152838.060000", "152838.520000", "152838.980000", "152839.440000", "152839.900000", "152840.360000", "152840.820000", "152841.280000", "152841.740000", "152842.200000", "152842.660000", "152843.120000", "152843.580000", "152844.040000", "152844.500000", "152844.960000", "152845.420000", "152845.880000", "152846.340000", "152846.800000", "152847.260000", "152847.720000", "152848.180000", "152848.640000", "152849.100000", "152849.560000", "152850.020000", "152850.480000", "152850.940000", "152851.400000", "152851.860000", "152852.320000", "152852.780000", "152853.240000", "152853.700000", "152854.160000", "152854.620000", "152855.080000", "152855.540000", "152856.000000", "152856.460000", "152856.920000", "152857.380000", "152857.840000", "152858.300000", "152858.760000", "152859.220000", "152859.680000", "152900.140000", "152900.600000", "152901.060000", "152901.520000", "152901.980000", "152902.440000", "152902.900000", "152903.360000", "152903.820000", "152904.280000", "152904.740000", "152905.200000", "152905.660000", "152906.120000", "152906.580000", "152907.040000", "152907.500000", "152907.960000", "152908.420000", "152908.880000", "152909.340000", "152909.800000", "152910.260000", "152910.720000", "152911.180000", "152911.640000", "152912.100000", "152912.560000", "152913.020000", "152913.480000", "152913.940000", "152914.400000", "152914.860000", "152915.320000", "152915.780000", "152916.240000", "152916.700000", "152917.160000", "152917.620000", "152918.080000", "152918.540000", "152919.000000", "152919.460000", "152919.920000", "152920.380000", "152920.840000", "152921.300000", "152921.760000", "152922.220000", "152922.680000", "152923.140000", "152923.600000", "152924.060000", "152924.520000", "152924.980000", "152925.440000", "152925.900000", "152926.360000", "152926.820000", "152927.280000", "152927.740000", "152928.200000", "152928.660000", "152929.120000", "152929.580000", "152930.040000", "152930.500000", "152930.960000", "152931.420000", "152931.880000", "152932.340000", "152932.800000", "152933.260000", "152933.720000", "152934.180000", "152934.640000", "152935.100000", "152935.560000", "152936.020000", "152936.480000", "152936.940000", "152937.400000", "152937.860000", "152938.320000", "152938.780000", "152939.240000", "152939.700000", "152940.160000", "152940.620000", "152941.080000", "152941.540000", "152942.000000", "152942.460000", "152942.920000", "152943.380000", "152943.840000", "152944.300000", "152944.760000", "152945.220000", "152945.680000", "152946.140000", "152946.600000", "152947.060000", "152947.520000", "152947.980000", "152948.440000", "152948.900000", "152949.360000", "152949.820000", "152950.280000", "152950.740000", "152951.200000", "152951.660000", "152952.120000", "152952.580000", "152953.040000", "152953.500000", "152953.960000", "152954.420000", "152954.880000", "152955.340000", "152955.800000", "152956.260000", "152956.720000", "152957.180000", "152957.640000", "152958.100000", "152958.560000", "152959.020000", "152959.480000", "152959.940000", "153000.400000", "153000.860000", "153001.320000", "153001.780000", "153002.240000", "153002.700000", "153003.160000", "153003.620000", "153004.080000", "153004.540000", "153005.000000", "153005.460000", "153005.920000", "153006.380000", "153006.840000", "153007.300000", "153007.760000", "153008.220000", "153008.680000", "153009.140000", "153009.600000", "153010.060000", "153010.520000", "153010.980000", "153011.440000", "153011.900000", "153012.360000", "153012.820000", "153013.280000", "153013.740000", "153014.200000", "153014.660000", "153015.120000", "153015.580000", "153016.040000", "153016.500000", "153016.960000", "153017.420000", "153017.880000", "153018.340000", "153018.800000", "153019.260000", "153019.720000", "153020.180000", "153020.640000", "153021.100000", "153021.560000", "153022.020000", "153022.480000", "153022.940000", "153023.400000", "153023.860000", "153024.320000", "153024.780000", "153025.240000", "153025.700000", "153026.160000", "153026.620000", "153027.080000", "153027.540000", "153028.000000", "153028.460000", "153028.920000", "153029.380000", "153029.840000", "153030.300000", "153030.760000", "153031.220000", "153031.680000", "153032.140000", "153032.600000", "153033.060000", "153033.520000", "153033.980000", "153034.440000", "153034.900000", "153035.360000", "153035.820000", "153036.280000", "153036.740000", "153037.200000", "153037.660000", "153038.120000", "153038.580000", "153039.040000", "153039.500000", "153039.960000", "153040.420000", "153040.880000", "153041.340000", "153041.800000", "153042.260000", "153042.720000", "153043.180000", "153043.640000", "153044.100000", "153044.560000", "153045.020000", "153045.480000", "153045.940000", "153046.400000", "153046.860000", "153047.320000", "153047.780000", "153048.240000", "153048.700000", "153049.160000", "153049.620000", "153050.080000", "153050.540000", "153051.000000", "153051.460000", "153051.920000", "153052.380000", "153052.840000", "153053.300000", "153053.760000", "153054.220000", "153054.680000", "153055.140000", "153055.600000", "153056.060000", "153056.520000", "153056.980000", "153057.440000", "153057.900000", "153058.360000", "153058.820000", "153059.280000", "153059.740000", "153100.200000", "153100.660000", "153101.120000", "153101.580000", "153102.040000", "153102.500000", "153102.960000", "153103.420000", "153103.880000", "153104.340000", "153104.800000", "153105.260000", "153105.720000", "153106.180000", "153106.640000", "153107.100000", "153107.560000", "153108.020000", "153108.480000", "153108.940000", "153109.400000", "153109.860000", "153110.320000", "153110.780000", "153111.240000", "153111.700000", "153112.160000", "153112.620000", "153113.080000", "153113.540000", "153114.000000", "153114.460000", "153114.920000", "153115.380000", "153115.840000", "153116.300000", "153116.760000", "153117.220000", "153117.680000", "153118.140000", "153118.600000", "153119.060000", "153119.520000", "153119.980000", "153120.440000", "153120.900000", "153121.360000", "153121.820000", "153122.280000", "153122.740000", "153123.200000", "153123.660000", "153124.120000", "153124.580000", "153125.040000", "153125.500000", "153125.960000", "153126.420000", "153126.880000", "153127.340000", "153127.800000", "153128.260000", "153128.720000", "153129.180000", "153129.640000", "153130.100000", "153130.560000", "153131.020000", "153131.480000", "153131.940000", "153132.400000", "153132.860000", "153133.320000", "153133.780000", "153134.240000", "153134.700000", "153135.160000", "153135.620000", "153136.080000", "153136.540000", "153137.000000", "153137.460000", "153137.920000", "153138.380000", "153138.840000", "153139.300000", "153139.760000", "153140.220000", "153140.680000", "153141.140000", "153141.600000", "153142.060000", "153142.520000", "153142.980000", "153143.440000", "153143.900000", "153144.360000", "153144.820000", "153145.280000", "153145.740000", "153146.200000", "153146.660000", "153147.120000", "153147.580000", "153148.040000", "153148.500000", "153148.960000", "153149.420000", "153149.880000", "153150.340000", "153150.800000", "153151.260000", "153151.720000", "153152.180000", "153152.640000", "153153.100000", "153153.560000", "153154.020000", "153154.480000", "153154.940000", "153155.400000", "153155.860000", "153156.320000", "153156.780000", "153157.240000", "153157.700000", "153158.160000", "153158.620000", "153159.080000", "153159.540000", "153200.000000", "153200.460000", "153200.920000", "153201.380000", "153201.840000", "153202.300000", "153202.760000", "153203.220000", "153203.680000", "153204.140000", "153204.600000", "153205.060000", "153205.520000", "153205.980000", "153206.440000", "153206.900000", "153207.360000", "153207.820000", "153208.280000", "153208.740000", "153209.200000", "153209.660000", "153210.120000", "153210.580000", "153211.040000", "153211.500000", "153211.960000", "153212.420000", "153212.880000", "153213.340000", "153213.800000", "153214.260000", "153214.720000", "153215.180000", "153215.640000", "153216.100000", "153216.560000", "153217.020000", "153217.480000", "153217.940000", "153218.400000", "153218.860000", "153219.320000", "153219.780000", "153220.240000", "153220.700000", "153221.160000", "153221.620000", "153222.080000", "153222.540000", "153223.000000", "153223.460000", "153223.920000", "153224.380000", "153224.840000", "153225.300000", "153225.760000", "153226.220000", "153226.680000", "153227.140000", "153227.600000", "153228.060000", "153228.520000", "153228.980000", "153229.440000", "153229.900000", "153230.360000", "153230.820000", "153231.280000", "153231.740000", "153232.200000", "153232.660000", "153233.120000", "153233.580000", "153234.040000", "153234.500000", "153234.960000", "153235.420000", "153235.880000", "153236.340000", "153236.800000", "153237.260000", "153237.720000", "153238.180000", "153238.640000", "153239.100000", "153239.560000", "153240.020000", "153240.480000", "153240.940000", "153241.400000", "153241.860000", "153242.320000", "153242.780000", "153243.240000", "153243.700000", "153244.160000", "153244.620000", "153245.080000", "153245.540000", "153246.000000", "153246.460000", "153246.920000", "153247.380000", "153247.840000", "153248.300000", "153248.760000", "153249.220000", "153249.680000", "153250.140000", "153250.600000", "153251.060000", "153251.520000", "153251.980000", "153252.440000", "153252.900000", "153253.360000", "153253.820000", "153254.280000", "153254.740000", "153255.200000", "153255.660000", "153256.120000", "153256.580000", "153257.040000", "153257.500000", "153257.960000", "153258.420000", "153258.880000", "153259.340000", "153259.800000", "153300.260000", "153300.720000", "153301.180000", "153301.640000", "153302.100000", "153302.560000", "153303.020000", "153303.480000", "153303.940000", "153304.400000", "153304.860000", "153305.320000", "153305.780000", "153306.240000", "153306.700000", "153307.160000", "153307.620000", "153308.080000", "153308.540000", "153309.000000", "153309.460000", "153309.920000", "153310.380000", "153310.840000", "153311.300000", "153311.760000", "153312.220000", "153312.680000", "153313.140000", "153313.600000", "153314.060000", "153314.520000", "153314.980000", "153315.440000", "153315.900000", "153316.360000", "153316.820000", "153317.280000", "153317.740000", "153318.200000", "153318.660000", "153319.120000", "153319.580000", "153320.040000", "153320.500000", "153320.960000", "153321.420000", "153321.880000", "153322.340000", "153322.800000", "153323.260000", "153323.720000", "153324.180000", "153324.640000", "153325.100000", "153325.560000", "153326.020000", "153326.480000", "153326.940000", "153327.400000", "153327.860000", "153328.320000", "153328.780000", "153329.240000", "153329.700000", "153330.160000", "153330.620000", "153331.080000", "153331.540000", "153332.000000", "153332.460000", "153332.920000", "153333.380000", "153333.840000", "153334.300000", "153334.760000", "153335.220000", "153335.680000", "153336.140000", "153336.600000", "153337.060000", "153337.520000", "153337.980000", "153338.440000", "153338.900000", "153339.360000", "153339.820000", "153340.280000", "153340.740000", "153341.200000", "153341.660000", "153342.120000", "153342.580000", "153343.040000", "153343.500000", "153343.960000", "153344.420000", "153344.880000", "153345.340000", "153345.800000", "153346.260000", "153346.720000", "153347.180000", "153347.640000", "153348.100000", "153348.560000", "153349.020000", "153349.480000", "153349.940000", "153350.400000", "153350.860000", "153351.320000", "153351.780000", "153352.240000", "153352.700000", "153353.160000", "153353.620000", "153354.080000", "153354.540000", "153355.000000", "153355.460000", "153355.920000", "153356.380000", "153356.840000", "153357.300000", "153357.760000", "153358.220000", "153358.680000", "153359.140000", "153359.600000", "153400.060000", "153400.520000", "153400.980000", "153401.440000", "153401.900000", "153402.360000", "153402.820000", "153403.280000", "153403.740000", "153404.200000", "153404.660000", "153405.120000", "153405.580000", "153406.040000", "153406.500000", "153406.960000", "153407.420000", "153407.880000", "153408.340000", "153408.800000", "153409.260000", "153409.720000", "153410.180000", "153410.640000", "153411.100000", "153411.560000", "153412.020000", "153412.480000", "153412.940000", "153413.400000", "153413.860000", "153414.320000", "153414.780000", "153415.240000", "153415.700000", "153416.160000", "153416.620000", "153417.080000", "153417.540000", "153418.000000", "153418.460000", "153418.920000", "153419.380000", "153419.840000", "153420.300000", "153420.760000", "153421.220000", "153421.680000", "153422.140000", "153422.600000", "153423.060000", "153423.520000", "153423.980000", "153424.440000", "153424.900000", "153425.360000", "153425.820000", "153426.280000", "153426.740000", "153427.200000", "153427.660000", "153428.120000", "153428.580000", "153429.040000", "153429.500000", "153429.960000", "153430.420000", "153430.880000", "153431.340000", "153431.800000", "153432.260000", "153432.720000", "153433.180000", "153433.640000", "153434.100000", "153434.560000", "153435.020000", "153435.480000", "153435.940000", "153436.400000", "153436.860000", "153437.320000", "153437.780000", "153438.240000", "153438.700000", "153439.160000", "153439.620000", "153440.080000", "153440.540000", "153441.000000", "153441.460000", "153441.920000", "153442.380000", "153442.840000", "153443.300000", "153443.760000", "153444.220000"],
