{
  "AcquisitionMatrixPE": 82,
  "AcquisitionNumber": 1,
  "AcquisitionTime": "20:22:51.280000",
  "BandwidthPerPixelPhaseEncode": 24.888,
  "BaseResolution": 82,
  "BodyPartExamined": "BRAIN",
  "ConsistencyInfo": "N4_VE11E_LATEST_20181129",
  "ConversionSoftware": "dcm2niix",
  "ConversionSoftwareVersion": "v1.0.20201102",
  "DerivedVendorReportedEchoSpacing": 0.00049,
  "DeviceSerialNumber": "66112",
  "DwellTime": 2e-06,
  "EchoTime": 0.0272,
  "EchoTrainLength": 82,
  "EffectiveEchoSpacing": 0.00049,
  "FlipAngle": 44,
  "ImageComments": "Unaliased MB8/PE3",
  "ImageOrientationPatientDICOM": [0.998671, -0.037316, -0.0355388, 0.0350488, 0.997435, -0.0624095],
  "ImageType": [
    "ORIGINAL",
    "PRIMARY",
    "M",
    "MB",
    "ND",
    "NORM",
    "MOSAIC"
],
  "ImagingFrequency": 123.259,
  "InPlanePhaseEncodingDirectionDICOM": "COL",
  "InstitutionAddress": "Maynard 3,Hanover,NH,US,03755",
  "InstitutionName": "Dartmouth College - PBS",
  "InstitutionalDepartmentName": "Department",
  "MRAcquisitionType": "2D",
  "MagneticFieldStrength": 3,
  "Manufacturer": "Siemens",
  "ManufacturersModelName": "Prisma",
  "Modality": "MR",
  "MultibandAccelerationFactor": 8,
  "PartialFourier": 1,
  "PatientPosition": "HFS",
  "PercentPhaseFOV": 100,
  "PercentSampling": 100,
  "PhaseEncodingDirection": "j-",
  "PhaseEncodingSteps": 82,
  "PhaseResolution": 1,
  "PixelBandwidth": 3050,
  "ProcedureStepDescription": "Wager_Wager^1076_spacetop",
  "ProtocolName": "func_run-02_task-alignvideo_acq-ap-mb8",
  "PulseSequenceDetails": "%CustomerSeq%\\cmrr_mbep2d_bold",
  "ReceiveCoilActiveElements": "HEA;HEP",
  "ReceiveCoilName": "Head_32",
  "ReconMatrixPE": 82,
  "RepetitionTime": 0.46,
  "SAR": 0.0967882,
  "ScanOptions": "FS",
  "ScanningSequence": "EP",
  "SequenceName": "epfid2d1_82",
  "SequenceVariant": "SK\\SS",
  "SeriesDescription": "func_run-02_task-alignvideo_acq-ap-mb8",
  "SeriesNumber": 32,
  "ShimSetting": [4218, -7711, -7283, 232, -124, -42, -83, 83],
  "SliceThickness": 2.7,
  "SliceTiming": [0, 0.25, 0.0625, 0.315, 0.125, 0.3775, 0.1875, 0, 0.25, 0.0625, 0.315, 0.125, 0.3775, 0.1875, 0, 0.25, 0.0625, 0.315, 0.125, 0.3775, 0.1875, 0, 0.25, 0.0625, 0.315, 0.125, 0.3775, 0.1875, 0, 0.25, 0.0625, 0.315, 0.125, 0.3775, 0.1875, 0, 0.25, 0.0625, 0.315, 0.125, 0.3775, 0.1875, 0, 0.25, 0.0625, 0.315, 0.125, 0.3775, 0.1875, 0, 0.25, 0.0625, 0.315, 0.125, 0.3775, 0.1875],
  "SoftwareVersions": "syngo MR E11",
  "SpacingBetweenSlices": 2.7,
  "StationName": "AWP66112",
  "TaskName": "alignvideo",
  "TotalReadoutTime": 0.03969,
  "TxRefAmp": 243.874,
  "WipMemBlock": "40f0c0ca-1d93-4d74-8710-cadac3ece187||Sequence: R016 ve11e/master r/434b28f1; Aug  7 2019 18:53:46 by eja",
  "dcmmeta_affine": [
    [-2.6793622970581055, 0.09403350204229355, -0.10199669748544693, 107.02001190185547],
    [0.10011599212884903, 2.6760451793670654, -0.16491857171058655, -106.95887756347656],
    [-0.09534811228513718, 0.1674400269985199, 2.6930277347564697, -72.97172546386719],
    [0.0, 0.0, 0.0, 1.0]
],
  "dcmmeta_reorient_transform": [
    [0.0, -1.0, 0.0, 81.0],
    [1.0, 0.0, 0.0, 0.0],
    [0.0, 0.0, 1.0, 0.0],
    [0.0, 0.0, 0.0, 1.0]
],
  "dcmmeta_shape": [82, 82, 56, 926],
  "dcmmeta_slice_dim": 2,
  "dcmmeta_version": 0.6,
  "global": {
    "const": {
      "AccessionNumber": "A004729",
      "AcquisitionMatrix": [82, 0, 0, 82],
      "AngioFlag": "N",
      "BitsAllocated": 16,
      "BitsStored": 16,
      "BodyPartExamined": "BRAIN",
      "Columns": 656,
      "EchoNumbers": 1,
      "EchoTime": 27.2,
      "EchoTrainLength": 82,
      "FlipAngle": 44.0,
      "HighBit": 15,
      "ImageOrientationPatient": [0.99867137240387, -0.0373159585446, -0.0355388404265, 0.03504885110132, 0.99743502892116, -0.0624094633651],
      "ImagePositionPatient": [-910.60131665388, -849.09248756511, 16.011114005888],
      "ImageType": [
        "ORIGINAL",
        "PRIMARY",
        "M",
        "MB",
        "ND",
        "NORM",
        "MOSAIC"
],
      "ImagedNucleus": "1H",
      "ImagingFrequency": 123.259138,
      "InPlanePhaseEncodingDirection": "COL",
      "MRAcquisitionType": "2D",
      "MagneticFieldStrength": 3.0,
      "Manufacturer": "SIEMENS",
      "ManufacturerModelName": "Prisma",
      "Modality": "MR",
      "NumberOfAverages": 1.0,
      "NumberOfPhaseEncodingSteps": 82,
      "PercentPhaseFieldOfView": 100.0,
      "PercentSampling": 100.0,
      "PerformedProcedureStepStartTime": "184906.386000",
      "PhotometricInterpretation": "MONOCHROME2",
      "PixelBandwidth": 3050.0,
      "PixelRepresentation": 0,
      "PixelSpacing": [2.6829268932343, 2.6829268932343],
      "ProtocolName": "func_run-02_task-alignvideo_acq-ap-mb8",
      "RepetitionTime": 460.0,
      "Rows": 656,
      "SAR": 0.09678821101514,
      "SamplesPerPixel": 1,
      "ScanOptions": "FS",
      "ScanningSequence": "EP",
      "SequenceName": "epfid2d1_82",
      "SequenceVariant": [
        "SK",
        "SS"
],
      "SeriesDescription": "func_run-02_task-alignvideo_acq-ap-mb8",
      "SeriesNumber": 32,
      "SeriesTime": "202316.685000",
      "SliceLocation": -70.292985642152,
      "SliceThickness": 2.7000000476837,
      "SmallestImagePixelValue": 0,
      "SoftwareVersions": "syngo MR E11",
      "SpacingBetweenSlices": 2.7000000773283,
      "SpecificCharacterSet": "ISO_IR 100",
      "StudyID": "1",
      "StudyTime": "184906.303000",
      "TransmitCoilName": "Body",
      "VariableFlipAngleFlag": "N",
      "WindowCenterWidthExplanation": "Algo1"
    },
    "slices": {}
  },
  "time": {
    "samples": {
      "AcquisitionNumber": [1, 2, 3, 4, 5, 6, 7, 8, 9, 10, 11, 12, 13, 14, 15, 16, 17, 18, 19, 20, 21, 22, 23, 24, 25, 26, 27, 28, 29, 30, 31, 32, 33, 34, 35, 36, 37, 38, 39, 40, 41, 42, 43, 44, 45, 46, 47, 48, 49, 50, 51, 52, 53, 54, 55, 56, 57, 58, 59, 60, 61, 62, 63, 64, 65, 66, 67, 68, 69, 70, 71, 72, 73, 74, 75, 76, 77, 78, 79, 80, 81, 82, 83, 84, 85, 86, 87, 88, 89, 90, 91, 92, 93, 94, 95, 96, 97, 98, 99, 100, 101, 102, 103, 104, 105, 106, 107, 108, 109, 110, 111, 112, 113, 114, 115, 116, 117, 118, 119, 120, 121, 122, 123, 124, 125, 126, 127, 128, 129, 130, 131, 132, 133, 134, 135, 136, 137, 138, 139, 140, 141, 142, 143, 144, 145, 146, 147, 148, 149, 150, 151, 152, 153, 154, 155, 156, 157, 158, 159, 160, 161, 162, 163, 164, 165, 166, 167, 168, 169, 170, 171, 172, 173, 174, 175, 176, 177, 178, 179, 180, 181, 182, 183, 184, 185, 186, 187, 188, 189, 190, 191, 192, 193, 194, 195, 196, 197, 198, 199, 200, 201, 202, 203, 204, 205, 206, 207, 208, 209, 210, 211, 212, 213, 214, 215, 216, 217, 218, 219, 220, 221, 222, 223, 224, 225, 226, 227, 228, 229, 230, 231, 232, 233, 234, 235, 236, 237, 238, 239, 240, 241, 242, 243, 244, 245, 246, 247, 248, 249, 250, 251, 252, 253, 254, 255, 256, 257, 258, 259, 260, 261, 262, 263, 264, 265, 266, 267, 268, 269, 270, 271, 272, 273, 274, 275, 276, 277, 278, 279, 280, 281, 282, 283, 284, 285, 286, 287, 288, 289, 290, 291, 292, 293, 294, 295, 296, 297, 298, 299, 300, 301, 302, 303, 304, 305, 306, 307, 308, 309, 310, 311, 312, 313, 314, 315, 316, 317, 318, 319, 320, 321, 322, 323, 324, 325, 326, 327, 328, 329, 330, 331, 332, 333, 334, 335, 336, 337, 338, 339, 340, 341, 342, 343, 344, 345, 346, 347, 348, 349, 350, 351, 352, 353, 354, 355, 356, 357, 358, 359, 360, 361, 362, 363, 364, 365, 366, 367, 368, 369, 370, 371, 372, 373, 374, 375, 376, 377, 378, 379, 380, 381, 382, 383, 384, 385, 386, 387, 388, 389, 390, 391, 392, 393, 394, 395, 396, 397, 398, 399, 400, 401, 402, 403, 404, 405, 406, 407, 408, 409, 410, 411, 412, 413, 414, 415, 416, 417, 418, 419, 420, 421, 422, 423, 424, 425, 426, 427, 428, 429, 430, 431, 432, 433, 434, 435, 436, 437, 438, 439, 440, 441, 442, 443, 444, 445, 446, 447, 448, 449, 450, 451, 452, 453, 454, 455, 456, 457, 458, 459, 460, 461, 462, 463, 464, 465, 466, 467, 468, 469, 470, 471, 472, 473, 474, 475, 476, 477, 478, 479, 480, 481, 482, 483, 484, 485, 486, 487, 488, 489, 490, 491, 492, 493, 494, 495, 496, 497, 498, 499, 500, 501, 502, 503, 504, 505, 506, 507, 508, 509, 510, 511, 512, 513, 514, 515, 516, 517, 518, 519, 520, 521, 522, 523, 524, 525, 526, 527, 528, 529, 530, 531, 532, 533, 534, 535, 536, 537, 538, 539, 540, 541, 542, 543, 544, 545, 546, 547, 548, 549, 550, 551, 552, 553, 554, 555, 556, 557, 558, 559, 560, 561, 562, 563, 564, 565, 566, 567, 568, 569, 570, 571, 572, 573, 574, 575, 576, 577, 578, 579, 580, 581, 582, 583, 584, 585, 586, 587, 588, 589, 590, 591, 592, 593, 594, 595, 596, 597, 598, 599, 600, 601, 602, 603, 604, 605, 606, 607, 608, 609, 610, 611, 612, 613, 614, 615, 616, 617, 618, 619, 620, 621, 622, 623, 624, 625, 626, 627, 628, 629, 630, 631, 632, 633, 634, 635, 636, 637, 638, 639, 640, 641, 642, 643, 644, 645, 646, 647, 648, 649, 650, 651, 652, 653, 654, 655, 656, 657, 658, 659, 660, 661, 662, 663, 664, 665, 666, 667, 668, 669, 670, 671, 672, 673, 674, 675, 676, 677, 678, 679, 680, 681, 682, 683, 684, 685, 686, 687, 688, 689, 690, 691, 692, 693, 694, 695, 696, 697, 698, 699, 700, 701, 702, 703, 704, 705, 706, 707, 708, 709, 710, 711, 712, 713, 714, 715, 716, 717, 718, 719, 720, 721, 722, 723, 724, 725, 726, 727, 728, 729, 730, 731, 732, 733, 734, 735, 736, 737, 738, 739, 740, 741, 742, 743, 744, 745, 746, 747, 748, 749, 750, 751, 752, 753, 754, 755, 756, 757, 758, 759, 760, 761, 762, 763, 764, 765, 766, 767, 768, 769, 770, 771, 772, 773, 774, 775, 776, 777, 778, 779, 780, 781, 782, 783, 784, 785, 786, 787, 788, 789, 790, 791, 792, 793, 794, 795, 796, 797, 798, 799, 800, 801, 802, 803, 804, 805, 806, 807, 808, 809, 810, 811, 812, 813, 814, 815, 816, 817, 818, 819, 820, 821, 822, 823, 824, 825, 826, 827, 828, 829, 830, 831, 832, 833, 834, 835, 836, 837, 838, 839, 840, 841, 842, 843, 844, 845, 846, 847, 848, 849, 850, 851, 852, 853, 854, 855, 856, 857, 858, 859, 860, 861, 862, 863, 864, 865, 866, 867, 868, 869, 870, 871, 872, 873, 874, 875, 876, 877, 878, 879, 880, 881, 882, 883, 884, 885, 886, 887, 888, 889, 890, 891, 892, 893, 894, 895, 896, 897, 898, 899, 900, 901, 902, 903, 904, 905, 906, 907, 908, 909, 910, 911, 912, 913, 914, 915, 916, 917, 918, 919, 920, 921, 922, 923, 924, 925, 926],
      "AcquisitionTime": ["202251.280000", "202251.740000", "202252.200000", "202252.660000", "202253.120000", "202253.580000", "202254.040000", "202254.500000", "202254.960000", "202255.420000", "202255.880000", "202256.340000", "202256.800000", "202257.260000", "202257.720000", "202258.180000", "202258.640000", "202259.100000", "202259.560000", "202300.020000", "202300.480000", "202300.940000", "202301.400000", "202301.860000", "202302.320000", "202302.780000", "202303.240000", "202303.700000", "202304.160000", "202304.620000", "202305.080000", "202305.540000", "202306.000000", "202306.460000", "202306.920000", "202307.380000", "202307.840000", "202308.300000", "202308.760000", "202309.220000", "202309.680000", "202310.140000", "202310.600000", "202311.060000", "202311.520000", "202311.980000", "202312.440000", "202312.900000", "202313.360000", "202313.820000", "202314.280000", "202314.740000", "202315.200000", "202315.660000", "202316.120000", "202316.580000", "202317.040000", "202317.500000", "202317.960000", "202318.420000", "202318.880000", "202319.340000", "202319.800000", "202320.260000", "202320.720000", "202321.180000", "202321.640000", "202322.100000", "202322.560000", "202323.020000", "202323.480000", "202323.940000", "202324.400000", "202324.860000", "202325.320000", "202325.780000", "202326.240000", "202326.700000", "202327.160000", "202327.620000", "202328.080000", "202328.540000", "202329.000000", "202329.460000", "202329.920000", "202330.380000", "202330.840000", "202331.300000", "202331.760000", "202332.220000", "202332.680000", "202333.140000", "202333.600000", "202334.060000", "202334.520000", "202334.980000", "202335.440000", "202335.900000", "202336.360000", "202336.820000", "202337.280000", "202337.740000", "202338.200000", "202338.660000", "202339.120000", "202339.580000", "202340.040000", "202340.500000", "202340.960000", "202341.420000", "202341.880000", "202342.340000", "202342.800000", "202343.260000", "202343.720000", "202344.180000", "202344.640000", "202345.100000", "202345.560000", "202346.020000", "202346.480000", "202346.940000", "202347.400000", "202347.860000", "202348.320000", "202348.780000", "202349.240000", "202349.700000", "202350.160000", "202350.620000", "202351.080000", "202351.540000", "202352.000000", "202352.460000", "202352.920000", "202353.380000", "202353.840000", "202354.300000", "202354.760000", "202355.220000", "202355.680000", "202356.140000", "202356.600000", "202357.060000", "202357.520000", "202357.980000", "202358.440000", "202358.900000", "202359.360000", "202359.820000", "202400.280000", "202400.740000", "202401.200000", "202401.660000", "202402.120000", "202402.580000", "202403.040000", "202403.500000", "202403.960000", "202404.420000", "202404.880000", "202405.340000", "202405.800000", "202406.260000", "202406.720000", "202407.180000", "202407.640000", "202408.100000", "202408.560000", "202409.020000", "202409.480000", "202409.940000", "202410.400000", "202410.860000", "202411.320000", "202411.780000", "202412.240000", "202412.700000", "202413.160000", "202413.620000", "202414.080000", "202414.540000", "202415.000000", "202415.460000", "202415.920000", "202416.380000", "202416.840000", "202417.300000", "202417.760000", "202418.220000", "202418.680000", "202419.140000", "202419.600000", "202420.060000", "202420.520000", "202420.980000", "202421.440000", "202421.900000", "202422.360000", "202422.820000", "202423.280000", "202423.740000", "202424.200000", "202424.660000", "202425.120000", "202425.580000", "202426.040000", "202426.500000", "202426.960000", "202427.420000", "202427.880000", "202428.340000", "202428.800000", "202429.260000", "202429.720000", "202430.180000", "202430.640000", "202431.100000", "202431.560000", "202432.020000", "202432.480000", "202432.940000", "202433.400000", "202433.860000", "202434.320000", "202434.780000", "202435.240000", "202435.700000", "202436.160000", "202436.620000", "202437.080000", "202437.540000", "202438.000000", "202438.460000", "202438.920000", "202439.380000", "202439.840000", "202440.300000", "202440.760000", "202441.220000", "202441.680000", "202442.140000", "202442.600000", "202443.060000", "202443.520000", "202443.980000", "202444.440000", "202444.900000", "202445.360000", "202445.820000", "202446.280000", "202446.740000", "202447.200000", "202447.660000", "202448.120000", "202448.580000", "202449.040000", "202449.500000", "202449.960000", "202450.420000", "202450.880000", "202451.340000", "202451.800000", "202452.260000", "202452.720000", "202453.180000", "202453.640000", "202454.100000", "202454.560000", "202455.020000", "202455.480000", "202455.940000", "202456.400000", "202456.860000", "202457.320000", "202457.780000", "202458.240000", "202458.700000", "202459.160000", "202459.620000", "202500.080000", "202500.540000", "202501.000000", "202501.460000", "202501.920000", "202502.380000", "202502.840000", "202503.300000", "202503.760000", "202504.220000", "202504.680000", "202505.140000", "202505.600000", "202506.060000", "202506.520000", "202506.980000", "202507.440000", "202507.900000", "202508.360000", "202508.820000", "202509.280000", "202509.740000", "202510.200000", "202510.660000", "202511.120000", "202511.580000", "202512.040000", "202512.500000", "202512.960000", "202513.420000", "202513.880000", "202514.340000", "202514.800000", "202515.260000", "202515.720000", "202516.180000", "202516.640000", "202517.100000", "202517.560000", "202518.020000", "202518.480000", "202518.940000", "202519.400000", "202519.860000", "202520.320000", "202520.780000", "202521.240000", "202521.700000", "202522.160000", "202522.620000", "202523.080000", "202523.540000", "202524.000000", "202524.460000", "202524.920000", "202525.380000", "202525.840000", "202526.300000", "202526.760000", "202527.220000", "202527.680000", "202528.140000", "202528.600000", "202529.060000", "202529.520000", "202529.980000", "202530.440000", "202530.900000", "202531.360000", "202531.820000", "202532.280000", "202532.740000", "202533.200000", "202533.660000", "202534.120000", "202534.580000", "202535.040000", "202535.500000", "202535.960000", "202536.420000", "202536.880000", "202537.340000", "202537.800000", "202538.260000", "202538.720000", "202539.180000", "202539.640000", "202540.100000", "202540.560000", "202541.020000", "202541.480000", "202541.940000", "202542.400000", "202542.860000", "202543.320000", "202543.780000", "202544.240000", "202544.700000", "202545.160000", "202545.620000", "202546.080000", "202546.540000", "202547.000000", "202547.460000", "202547.920000", "202548.380000", "202548.840000", "202549.300000", "202549.760000", "202550.220000", "202550.680000", "202551.140000", "202551.600000", "202552.060000", "202552.520000", "202552.980000", "202553.440000", "202553.900000", "202554.360000", "202554.820000", "202555.280000", "202555.740000", "202556.200000", "202556.660000", "202557.120000", "202557.580000", "202558.040000", "202558.500000", "202558.960000", "202559.420000", "202559.880000", "202600.340000", "202600.800000", "202601.260000", "202601.720000", "202602.180000", "202602.640000", "202603.100000", "202603.560000", "202604.020000", "202604.480000", "202604.940000", "202605.400000", "202605.860000", "202606.320000", "202606.780000", "202607.240000", "202607.700000", "202608.160000", "202608.620000", "202609.080000", "202609.540000", "202610.000000", "202610.460000", "202610.920000", "202611.380000", "202611.840000", "202612.300000", "202612.760000", "202613.220000", "202613.680000", "202614.140000", "202614.600000", "202615.060000", "202615.520000", "202615.980000", "202616.440000", "202616.900000", "202617.360000", "202617.820000", "202618.280000", "202618.740000", "202619.200000", "202619.660000", "202620.120000", "202620.580000", "202621.040000", "202621.500000", "202621.960000", "202622.420000", "202622.880000", "202623.340000", "202623.800000", "202624.260000", "202624.720000", "202625.180000", "202625.640000", "202626.100000", "202626.560000", "202627.020000", "202627.480000", "202627.940000", "202628.400000", "202628.860000", "202629.320000", "202629.780000", "202630.240000", "202630.700000", "202631.160000", "202631.620000", "202632.080000", "202632.540000", "202633.000000", "202633.460000", "202633.920000", "202634.380000", "202634.840000", "202635.300000", "202635.760000", "202636.220000", "202636.680000", "202637.140000", "202637.600000", "202638.060000", "202638.520000", "202638.980000", "202639.440000", "202639.900000", "202640.360000", "202640.820000", "202641.280000", "202641.740000", "202642.200000", "202642.660000", "202643.120000", "202643.580000", "202644.040000", "202644.500000", "202644.960000", "202645.420000", "202645.880000", "202646.340000", "202646.800000", "202647.260000", "202647.720000", "202648.180000", "202648.640000", "202649.100000", "202649.560000", "202650.020000", "202650.480000", "202650.940000", "202651.400000", "202651.860000", "202652.320000", "202652.780000", "202653.240000", "202653.700000", "202654.160000", "202654.620000", "202655.080000", "202655.540000", "202656.000000", "202656.460000", "202656.920000", "202657.380000", "202657.840000", "202658.300000", "202658.760000", "202659.220000", "202659.680000", "202700.140000", "202700.600000", "202701.060000", "202701.520000", "202701.980000", "202702.440000", "202702.900000", "202703.360000", "202703.820000", "202704.280000", "202704.740000", "202705.200000", "202705.660000", "202706.120000", "202706.580000", "202707.040000", "202707.500000", "202707.960000", "202708.420000", "202708.880000", "202709.340000", "202709.800000", "202710.260000", "202710.720000", "202711.180000", "202711.640000", "202712.100000", "202712.560000", "202713.020000", "202713.480000", "202713.940000", "202714.400000", "202714.860000", "202715.320000", "202715.780000", "202716.240000", "202716.700000", "202717.160000", "202717.620000", "202718.080000", "202718.540000", "202719.000000", "202719.460000", "202719.920000", "202720.380000", "202720.840000", "202721.300000", "202721.760000", "202722.220000", "202722.680000", "202723.140000", "202723.600000", "202724.060000", "202724.520000", "202724.980000", "202725.440000", "202725.900000", "202726.360000", "202726.820000", "202727.280000", "202727.740000", "202728.200000", "202728.660000", "202729.120000", "202729.580000", "202730.040000", "202730.500000", "202730.960000", "202731.420000", "202731.880000", "202732.340000", "202732.800000", "202733.260000", "202733.720000", "202734.180000", "202734.640000", "202735.100000", "202735.560000", "202736.020000", "202736.480000", "202736.940000", "202737.400000", "202737.860000", "202738.320000", "202738.780000", "202739.240000", "202739.700000", "202740.160000", "202740.620000", "202741.080000", "202741.540000", "202742.000000", "202742.460000", "202742.920000", "202743.380000", "202743.840000", "202744.300000", "202744.760000", "202745.220000", "202745.680000", "202746.140000", "202746.600000", "202747.060000", "202747.520000", "202747.980000", "202748.440000", "202748.900000", "202749.360000", "202749.820000", "202750.280000", "202750.740000", "202751.200000", "202751.660000", "202752.120000", "202752.580000", "202753.040000", "202753.500000", "202753.960000", "202754.420000", "202754.880000", "202755.340000", "202755.800000", "202756.260000", "202756.720000", "202757.180000", "202757.640000", "202758.100000", "202758.560000", "202759.020000", "202759.480000", "202759.940000", "202800.400000", "202800.860000", "202801.320000", "202801.780000", "202802.240000", "202802.700000", "202803.160000", "202803.620000", "202804.080000", "202804.540000", "202805.000000", "202805.460000", "202805.920000", "202806.380000", "202806.840000", "202807.300000", "202807.760000", "202808.220000", "202808.680000", "202809.140000", "202809.600000", "202810.060000", "202810.520000", "202810.980000", "202811.440000", "202811.900000", "202812.360000", "202812.820000", "202813.280000", "202813.740000", "202814.200000", "202814.660000", "202815.120000", "202815.580000", "202816.040000", "202816.500000", "202816.960000", "202817.420000", "202817.880000", "202818.340000", "202818.800000", "202819.260000", "202819.720000", "202820.180000", "202820.640000", "202821.100000", "202821.560000", "202822.020000", "202822.480000", "202822.940000", "202823.400000", "202823.860000", "202824.320000", "202824.780000", "202825.240000", "202825.700000", "202826.160000", "202826.620000", "202827.080000", "202827.540000", "202828.000000", "202828.460000", "202828.920000", "202829.380000", "202829.840000", "202830.300000", "202830.760000", "202831.220000", "202831.680000", "202832.140000", "202832.600000", "202833.060000", "202833.520000", "202833.980000", "202834.440000", "202834.900000", "202835.360000", "202835.820000", "202836.280000", "202836.740000", "202837.200000", "202837.660000", "202838.120000", "202838.580000", "202839.040000", "202839.500000", "202839.960000", "202840.420000", "202840.880000", "202841.340000", "202841.800000", "202842.260000", "202842.720000", "202843.180000", "202843.640000", "202844.100000", "202844.560000", "202845.020000", "202845.480000", "202845.940000", "202846.400000", "202846.860000", "202847.320000", "202847.780000", "202848.240000", "202848.700000", "202849.160000", "202849.620000", "202850.080000", "202850.540000", "202851.000000", "202851.460000", "202851.920000", "202852.380000", "202852.840000", "202853.300000", "202853.760000", "202854.220000", "202854.680000", "202855.140000", "202855.600000", "202856.060000", "202856.520000", "202856.980000", "202857.440000", "202857.900000", "202858.360000", "202858.820000", "202859.280000", "202859.740000", "202900.200000", "202900.660000", "202901.120000", "202901.580000", "202902.040000", "202902.500000", "202902.960000", "202903.420000", "202903.880000", "202904.340000", "202904.800000", "202905.260000", "202905.720000", "202906.180000", "202906.640000", "202907.100000", "202907.560000", "202908.020000", "202908.480000", "202908.940000", "202909.400000", "202909.860000", "202910.320000", "202910.780000", "202911.240000", "202911.700000", "202912.160000", "202912.620000", "202913.080000", "202913.540000", "202914.000000", "202914.460000", "202914.920000", "202915.380000", "202915.840000", "202916.300000", "202916.760000", "202917.220000", "202917.680000", "202918.140000", "202918.600000", "202919.060000", "202919.520000", "202919.980000", "202920.440000", "202920.900000", "202921.360000", "202921.820000", "202922.280000", "202922.740000", "202923.200000", "202923.660000", "202924.120000", "202924.580000", "202925.040000", "202925.500000", "202925.960000", "202926.420000", "202926.880000", "202927.340000", "202927.800000", "202928.260000", "202928.720000", "202929.180000", "202929.640000", "202930.100000", "202930.560000", "202931.020000", "202931.480000", "202931.940000", "202932.400000", "202932.860000", "202933.320000", "202933.780000", "202934.240000", "202934.700000", "202935.160000", "202935.620000", "202936.080000", "202936.540000", "202937.000000", "202937.460000", "202937.920000", "202938.380000", "202938.840000", "202939.300000", "202939.760000", "202940.220000", "202940.680000", "202941.140000", "202941.600000", "202942.060000", "202942.520000", "202942.980000", "202943.440000", "202943.900000", "202944.360000", "202944.820000", "202945.280000", "202945.740000", "202946.200000", "202946.660000", "202947.120000", "202947.580000", "202948.040000", "202948.500000", "202948.960000", "202949.420000", "202949.880000", "202950.340000", "202950.800000", "202951.260000", "202951.720000", "202952.180000", "202952.640000", "202953.100000", "202953.560000", "202954.020000", "202954.480000", "202954.940000", "202955.400000", "202955.860000", "202956.320000", "202956.780000"],
