{
  "AcquisitionMatrixPE": 82,
  "AcquisitionNumber": 1,
  "AcquisitionTime": "20:02:50.537500",
  "BandwidthPerPixelPhaseEncode": 24.888,
  "BaseResolution": 82,
  "BodyPartExamined": "BRAIN",
  "ConsistencyInfo": "N4_VE11E_LATEST_20181129",
  "ConversionSoftware": "dcm2niix",
  "ConversionSoftwareVersion": "v1.0.20201102",
  "DerivedVendorReportedEchoSpacing": 0.00049,
  "DeviceSerialNumber": "66112",
  "DwellTime": 2e-06,
  "EchoTime": 0.0272,
  "EchoTrainLength": 82,
  "EffectiveEchoSpacing": 0.00049,
  "FlipAngle": 44,
  "ImageComments": "Unaliased MB8/PE3",
  "ImageOrientationPatientDICOM": [0.997558, -0.0562444, -0.0414188, 0.0500105, 0.989081, -0.138631],
  "ImageType": [
    "ORIGINAL",
    "PRIMARY",
    "M",
    "MB",
    "ND",
    "NORM",
    "MOSAIC"
],
  "ImagingFrequency": 123.259,
  "InPlanePhaseEncodingDirectionDICOM": "COL",
  "InstitutionAddress": "Maynard 3,Hanover,NH,US,03755",
  "InstitutionName": "Dartmouth College - PBS",
  "InstitutionalDepartmentName": "Department",
  "MRAcquisitionType": "2D",
  "MagneticFieldStrength": 3,
  "Manufacturer": "Siemens",
  "ManufacturersModelName": "Prisma",
  "Modality": "MR",
  "MultibandAccelerationFactor": 8,
  "PartialFourier": 1,
  "PatientPosition": "HFS",
  "PercentPhaseFOV": 100,
  "PercentSampling": 100,
  "PhaseEncodingDirection": "j-",
  "PhaseEncodingSteps": 82,
  "PhaseResolution": 1,
  "PixelBandwidth": 3050,
  "ProcedureStepDescription": "Wager_Wager^1076_spacetop",
  "ProtocolName": "func_run-06_task-social_acq-ap-mb8",
  "PulseSequenceDetails": "%CustomerSeq%\\cmrr_mbep2d_bold",
  "ReceiveCoilActiveElements": "HEA;HEP",
  "ReceiveCoilName": "Head_32",
  "ReconMatrixPE": 82,
  "RepetitionTime": 0.46,
  "SAR": 0.0967532,
  "ScanOptions": "FS",
  "ScanningSequence": "EP",
  "SequenceName": "epfid2d1_82",
  "SequenceVariant": "SK\\SS",
  "SeriesDescription": "func_run-06_task-social_acq-ap-mb8",
  "SeriesNumber": 22,
  "ShimSetting": [4218, -7713, -7278, 240, -125, -51, -84, 82],
  "SliceThickness": 2.7,
  "SliceTiming": [0, 0.2525, 0.0625, 0.315, 0.1275, 0.3775, 0.19, 0, 0.2525, 0.0625, 0.315, 0.1275, 0.3775, 0.19, 0, 0.2525, 0.0625, 0.315, 0.1275, 0.3775, 0.19, 0, 0.2525, 0.0625, 0.315, 0.1275, 0.3775, 0.19, 0, 0.2525, 0.0625, 0.315, 0.1275, 0.3775, 0.19, 0, 0.2525, 0.0625, 0.315, 0.1275, 0.3775, 0.19, 0, 0.2525, 0.0625, 0.315, 0.1275, 0.3775, 0.19, 0, 0.2525, 0.0625, 0.315, 0.1275, 0.3775, 0.19],
  "SoftwareVersions": "syngo MR E11",
  "SpacingBetweenSlices": 2.7,
  "StationName": "AWP66112",
  "TaskName": "social",
  "TotalReadoutTime": 0.03969,
  "TxRefAmp": 243.874,
  "WipMemBlock": "ddc624ad-1b69-4c58-a47e-64199b21146d||Sequence: R016 ve11e/master r/434b28f1; Aug  7 2019 18:53:46 by eja",
  "dcmmeta_affine": [
    [-2.6763739585876465, 0.1341744214296341, -0.13166221976280212, 106.23872375488281],
    [0.15089964866638184, 2.6536307334899902, -0.36779728531837463, -102.8181381225586],
    [-0.11112368106842041, 0.3719373643398285, 2.6715893745422363, -82.62708282470703],
    [0.0, 0.0, 0.0, 1.0]
],
  "dcmmeta_reorient_transform": [
    [0.0, -1.0, 0.0, 81.0],
    [1.0, 0.0, 0.0, 0.0],
    [0.0, 0.0, 1.0, 0.0],
    [0.0, 0.0, 0.0, 1.0]
],
  "dcmmeta_shape": [82, 82, 56, 872],
  "dcmmeta_slice_dim": 2,
  "dcmmeta_version": 0.6,
  "global": {
    "const": {
      "AccessionNumber": "A004729",
      "AcquisitionMatrix": [82, 0, 0, 82],
      "AngioFlag": "N",
      "BitsAllocated": 16,
      "BitsStored": 16,
      "BodyPartExamined": "BRAIN",
      "Columns": 656,
      "EchoNumbers": 1,
      "EchoTime": 27.2,
      "EchoTrainLength": 82,
      "FlipAngle": 44.0,
      "HighBit": 15,
      "ImageOrientationPatient": [0.99755754061333, -0.0562444129073, -0.0414188264223, 0.05001046242876, 0.98908055597886, -0.138631192133],
      "ImagePositionPatient": [-923.7342359461, -830.40980729382, 86.138363673087],
      "ImageType": [
        "ORIGINAL",
        "PRIMARY",
        "M",
        "MB",
        "ND",
        "NORM",
        "MOSAIC"
],
      "ImagedNucleus": "1H",
      "ImagingFrequency": 123.259137,
      "InPlanePhaseEncodingDirection": "COL",
      "MRAcquisitionType": "2D",
      "MagneticFieldStrength": 3.0,
      "Manufacturer": "SIEMENS",
      "ManufacturerModelName": "Prisma",
      "Modality": "MR",
      "NumberOfAverages": 1.0,
      "NumberOfPhaseEncodingSteps": 82,
      "PercentPhaseFieldOfView": 100.0,
      "PercentSampling": 100.0,
      "PerformedProcedureStepStartTime": "184906.386000",
      "PhotometricInterpretation": "MONOCHROME2",
      "PixelBandwidth": 3050.0,
      "PixelRepresentation": 0,
      "PixelSpacing": [2.6829268932343, 2.6829268932343],
      "ProtocolName": "func_run-06_task-social_acq-ap-mb8",
      "RepetitionTime": 460.0,
      "Rows": 656,
      "SAR": 0.096753159521,
      "SamplesPerPixel": 1,
      "ScanOptions": "FS",
      "ScanningSequence": "EP",
      "SequenceName": "epfid2d1_82",
      "SequenceVariant": [
        "SK",
        "SS"
],
      "SeriesDescription": "func_run-06_task-social_acq-ap-mb8",
      "SeriesNumber": 22,
      "SeriesTime": "200316.769000",
      "SliceLocation": -72.932233274337,
      "SliceThickness": 2.7000000476837,
      "SmallestImagePixelValue": 0,
      "SoftwareVersions": "syngo MR E11",
      "SpacingBetweenSlices": 2.6999999283105,
      "SpecificCharacterSet": "ISO_IR 100",
      "StudyID": "1",
      "StudyTime": "184906.303000",
      "TransmitCoilName": "Body",
      "VariableFlipAngleFlag": "N",
      "WindowCenterWidthExplanation": "Algo1"
    },
    "slices": {}
  },
  "time": {
    "samples": {
      "AcquisitionNumber": [1, 2, 3, 4, 5, 6, 7, 8, 9, 10, 11, 12, 13, 14, 15, 16, 17, 18, 19, 20, 21, 22, 23, 24, 25, 26, 27, 28, 29, 30, 31, 32, 33, 34, 35, 36, 37, 38, 39, 40, 41, 42, 43, 44, 45, 46, 47, 48, 49, 50, 51, 52, 53, 54, 55, 56, 57, 58, 59, 60, 61, 62, 63, 64, 65, 66, 67, 68, 69, 70, 71, 72, 73, 74, 75, 76, 77, 78, 79, 80, 81, 82, 83, 84, 85, 86, 87, 88, 89, 90, 91, 92, 93, 94, 95, 96, 97, 98, 99, 100, 101, 102, 103, 104, 105, 106, 107, 108, 109, 110, 111, 112, 113, 114, 115, 116, 117, 118, 119, 120, 121, 122, 123, 124, 125, 126, 127, 128, 129, 130, 131, 132, 133, 134, 135, 136, 137, 138, 139, 140, 141, 142, 143, 144, 145, 146, 147, 148, 149, 150, 151, 152, 153, 154, 155, 156, 157, 158, 159, 160, 161, 162, 163, 164, 165, 166, 167, 168, 169, 170, 171, 172, 173, 174, 175, 176, 177, 178, 179, 180, 181, 182, 183, 184, 185, 186, 187, 188, 189, 190, 191, 192, 193, 194, 195, 196, 197, 198, 199, 200, 201, 202, 203, 204, 205, 206, 207, 208, 209, 210, 211, 212, 213, 214, 215, 216, 217, 218, 219, 220, 221, 222, 223, 224, 225, 226, 227, 228, 229, 230, 231, 232, 233, 234, 235, 236, 237, 238, 239, 240, 241, 242, 243, 244, 245, 246, 247, 248, 249, 250, 251, 252, 253, 254, 255, 256, 257, 258, 259, 260, 261, 262, 263, 264, 265, 266, 267, 268, 269, 270, 271, 272, 273, 274, 275, 276, 277, 278, 279, 280, 281, 282, 283, 284, 285, 286, 287, 288, 289, 290, 291, 292, 293, 294, 295, 296, 297, 298, 299, 300, 301, 302, 303, 304, 305, 306, 307, 308, 309, 310, 311, 312, 313, 314, 315, 316, 317, 318, 319, 320, 321, 322, 323, 324, 325, 326, 327, 328, 329, 330, 331, 332, 333, 334, 335, 336, 337, 338, 339, 340, 341, 342, 343, 344, 345, 346, 347, 348, 349, 350, 351, 352, 353, 354, 355, 356, 357, 358, 359, 360, 361, 362, 363, 364, 365, 366, 367, 368, 369, 370, 371, 372, 373, 374, 375, 376, 377, 378, 379, 380, 381, 382, 383, 384, 385, 386, 387, 388, 389, 390, 391, 392, 393, 394, 395, 396, 397, 398, 399, 400, 401, 402, 403, 404, 405, 406, 407, 408, 409, 410, 411, 412, 413, 414, 415, 416, 417, 418, 419, 420, 421, 422, 423, 424, 425, 426, 427, 428, 429, 430, 431, 432, 433, 434, 435, 436, 437, 438, 439, 440, 441, 442, 443, 444, 445, 446, 447, 448, 449, 450, 451, 452, 453, 454, 455, 456, 457, 458, 459, 460, 461, 462, 463, 464, 465, 466, 467, 468, 469, 470, 471, 472, 473, 474, 475, 476, 477, 478, 479, 480, 481, 482, 483, 484, 485, 486, 487, 488, 489, 490, 491, 492, 493, 494, 495, 496, 497, 498, 499, 500, 501, 502, 503, 504, 505, 506, 507, 508, 509, 510, 511, 512, 513, 514, 515, 516, 517, 518, 519, 520, 521, 522, 523, 524, 525, 526, 527, 528, 529, 530, 531, 532, 533, 534, 535, 536, 537, 538, 539, 540, 541, 542, 543, 544, 545, 546, 547, 548, 549, 550, 551, 552, 553, 554, 555, 556, 557, 558, 559, 560, 561, 562, 563, 564, 565, 566, 567, 568, 569, 570, 571, 572, 573, 574, 575, 576, 577, 578, 579, 580, 581, 582, 583, 584, 585, 586, 587, 588, 589, 590, 591, 592, 593, 594, 595, 596, 597, 598, 599, 600, 601, 602, 603, 604, 605, 606, 607, 608, 609, 610, 611, 612, 613, 614, 615, 616, 617, 618, 619, 620, 621, 622, 623, 624, 625, 626, 627, 628, 629, 630, 631, 632, 633, 634, 635, 636, 637, 638, 639, 640, 641, 642, 643, 644, 645, 646, 647, 648, 649, 650, 651, 652, 653, 654, 655, 656, 657, 658, 659, 660, 661, 662, 663, 664, 665, 666, 667, 668, 669, 670, 671, 672, 673, 674, 675, 676, 677, 678, 679, 680, 681, 682, 683, 684, 685, 686, 687, 688, 689, 690, 691, 692, 693, 694, 695, 696, 697, 698, 699, 700, 701, 702, 703, 704, 705, 706, 707, 708, 709, 710, 711, 712, 713, 714, 715, 716, 717, 718, 719, 720, 721, 722, 723, 724, 725, 726, 727, 728, 729, 730, 731, 732, 733, 734, 735, 736, 737, 738, 739, 740, 741, 742, 743, 744, 745, 746, 747, 748, 749, 750, 751, 752, 753, 754, 755, 756, 757, 758, 759, 760, 761, 762, 763, 764, 765, 766, 767, 768, 769, 770, 771, 772, 773, 774, 775, 776, 777, 778, 779, 780, 781, 782, 783, 784, 785, 786, 787, 788, 789, 790, 791, 792, 793, 794, 795, 796, 797, 798, 799, 800, 801, 802, 803, 804, 805, 806, 807, 808, 809, 810, 811, 812, 813, 814, 815, 816, 817, 818, 819, 820, 821, 822, 823, 824, 825, 826, 827, 828, 829, 830, 831, 832, 833, 834, 835, 836, 837, 838, 839, 840, 841, 842, 843, 844, 845, 846, 847, 848, 849, 850, 851, 852, 853, 854, 855, 856, 857, 858, 859, 860, 861, 862, 863, 864, 865, 866, 867, 868, 869, 870, 871, 872],
      "AcquisitionTime": ["200250.537500", "200250.997500", "200251.457500", "200251.917500", "200252.377500", "200252.837500", "200253.297500", "200253.757500", "200254.217500", "200254.677500", "200255.137500", "200255.597500", "200256.057500", "200256.517500", "200256.977500", "200257.437500", "200257.897500", "200258.357500", "200258.817500", "200259.277500", "200259.737500", "200300.197500", "200300.657500", "200301.117500", "200301.577500", "200302.037500", "200302.497500", "200302.957500", "200303.417500", "200303.877500", "200304.337500", "200304.797500", "200305.257500", "200305.717500", "200306.177500", "200306.637500", "200307.097500", "200307.557500", "200308.017500", "200308.477500", "200308.937500", "200309.397500", "200309.857500", "200310.317500", "200310.777500", "200311.237500", "200311.697500", "200312.157500", "200312.617500", "200313.077500", "200313.537500", "200313.997500", "200314.457500", "200314.917500", "200315.377500", "200315.837500", "200316.297500", "200316.757500", "200317.217500", "200317.677500", "200318.137500", "200318.597500", "200319.057500", "200319.517500", "200319.977500", "200320.437500", "200320.897500", "200321.357500", "200321.817500", "200322.277500", "200322.737500", "200323.197500", "200323.657500", "200324.117500", "200324.577500", "200325.037500", "200325.497500", "200325.957500", "200326.417500", "200326.877500", "200327.337500", "200327.797500", "200328.257500", "200328.717500", "200329.177500", "200329.637500", "200330.097500", "200330.557500", "200331.017500", "200331.477500", "200331.937500", "200332.397500", "200332.857500", "200333.317500", "200333.777500", "200334.237500", "200334.697500", "200335.157500", "200335.617500", "200336.077500", "200336.537500", "200336.997500", "200337.457500", "200337.917500", "200338.377500", "200338.837500", "200339.297500", "200339.757500", "200340.217500", "200340.677500", "200341.137500", "200341.597500", "200342.057500", "200342.517500", "200342.977500", "200343.437500", "200343.897500", "200344.357500", "200344.817500", "200345.277500", "200345.737500", "200346.197500", "200346.657500", "200347.117500", "200347.577500", "200348.037500", "200348.497500", "200348.957500", "200349.417500", "200349.877500", "200350.337500", "200350.797500", "200351.257500", "200351.717500", "200352.177500", "200352.637500", "200353.097500", "200353.557500", "200354.017500", "200354.477500", "200354.937500", "200355.397500", "200355.857500", "200356.317500", "200356.777500", "200357.237500", "200357.697500", "200358.157500", "200358.617500", "200359.077500", "200359.537500", "200359.997500", "200400.457500", "200400.917500", "200401.377500", "200401.837500", "200402.297500", "200402.757500", "200403.217500", "200403.677500", "200404.137500", "200404.597500", "200405.057500", "200405.517500", "200405.977500", "200406.437500", "200406.897500", "200407.357500", "200407.817500", "200408.277500", "200408.737500", "200409.197500", "200409.657500", "200410.117500", "200410.577500", "200411.037500", "200411.497500", "200411.957500", "200412.417500", "200412.877500", "200413.337500", "200413.797500", "200414.257500", "200414.717500", "200415.177500", "200415.637500", "200416.097500", "200416.557500", "200417.017500", "200417.477500", "200417.937500", "200418.397500", "200418.857500", "200419.317500", "200419.777500", "200420.237500", "200420.697500", "200421.157500", "200421.617500", "200422.077500", "200422.537500", "200422.997500", "200423.457500", "200423.917500", "200424.377500", "200424.837500", "200425.297500", "200425.757500", "200426.217500", "200426.677500", "200427.137500", "200427.597500", "200428.057500", "200428.517500", "200428.977500", "200429.437500", "200429.897500", "200430.357500", "200430.817500", "200431.277500", "200431.737500", "200432.197500", "200432.657500", "200433.117500", "200433.577500", "200434.037500", "200434.497500", "200434.957500", "200435.417500", "200435.877500", "200436.337500", "200436.797500", "200437.257500", "200437.717500", "200438.177500", "200438.637500", "200439.097500", "200439.557500", "200440.017500", "200440.477500", "200440.937500", "200441.397500", "200441.857500", "200442.317500", "200442.777500", "200443.237500", "200443.697500", "200444.157500", "200444.617500", "200445.077500", "200445.537500", "200445.997500", "200446.457500", "200446.917500", "200447.377500", "200447.837500", "200448.297500", "200448.757500", "200449.217500", "200449.677500", "200450.137500", "200450.597500", "200451.057500", "200451.517500", "200451.977500", "200452.437500", "200452.897500", "200453.357500", "200453.817500", "200454.277500", "200454.737500", "200455.197500", "200455.657500", "200456.117500", "200456.577500", "200457.037500", "200457.497500", "200457.957500", "200458.417500", "200458.877500", "200459.337500", "200459.797500", "200500.257500", "200500.717500", "200501.177500", "200501.637500", "200502.097500", "200502.557500", "200503.017500", "200503.477500", "200503.937500", "200504.397500", "200504.857500", "200505.317500", "200505.777500", "200506.237500", "200506.697500", "200507.157500", "200507.617500", "200508.077500", "200508.537500", "200508.997500", "200509.457500", "200509.917500", "200510.377500", "200510.837500", "200511.297500", "200511.757500", "200512.217500", "200512.677500", "200513.137500", "200513.597500", "200514.057500", "200514.517500", "200514.977500", "200515.437500", "200515.897500", "200516.357500", "200516.817500", "200517.277500", "200517.737500", "200518.197500", "200518.657500", "200519.117500", "200519.577500", "200520.037500", "200520.497500", "200520.957500", "200521.417500", "200521.877500", "200522.337500", "200522.797500", "200523.257500", "200523.717500", "200524.177500", "200524.637500", "200525.097500", "200525.557500", "200526.017500", "200526.477500", "200526.937500", "200527.397500", "200527.857500", "200528.317500", "200528.777500", "200529.237500", "200529.697500", "200530.157500", "200530.617500", "200531.077500", "200531.537500", "200531.997500", "200532.457500", "200532.917500", "200533.377500", "200533.837500", "200534.297500", "200534.757500", "200535.217500", "200535.677500", "200536.137500", "200536.597500", "200537.057500", "200537.517500", "200537.977500", "200538.437500", "200538.897500", "200539.357500", "200539.817500", "200540.277500", "200540.737500", "200541.197500", "200541.657500", "200542.117500", "200542.577500", "200543.037500", "200543.497500", "200543.957500", "200544.417500", "200544.877500", "200545.337500", "200545.797500", "200546.257500", "200546.717500", "200547.177500", "200547.637500", "200548.097500", "200548.557500", "200549.017500", "200549.477500", "200549.937500", "200550.397500", "200550.857500", "200551.317500", "200551.777500", "200552.237500", "200552.697500", "200553.157500", "200553.617500", "200554.077500", "200554.537500", "200554.997500", "200555.457500", "200555.917500", "200556.377500", "200556.837500", "200557.297500", "200557.757500", "200558.217500", "200558.677500", "200559.137500", "200559.597500", "200600.057500", "200600.517500", "200600.977500", "200601.437500", "200601.897500", "200602.357500", "200602.817500", "200603.277500", "200603.737500", "200604.197500", "200604.657500", "200605.117500", "200605.577500", "200606.037500", "200606.497500", "200606.957500", "200607.417500", "200607.877500", "200608.337500", "200608.797500", "200609.257500", "200609.717500", "200610.177500", "200610.637500", "200611.097500", "200611.557500", "200612.017500", "200612.477500", "200612.937500", "200613.397500", "200613.857500", "200614.317500", "200614.777500", "200615.237500", "200615.697500", "200616.157500", "200616.617500", "200617.077500", "200617.537500", "200617.997500", "200618.457500", "200618.917500", "200619.377500", "200619.837500", "200620.297500", "200620.757500", "200621.217500", "200621.677500", "200622.137500", "200622.597500", "200623.057500", "200623.517500", "200623.977500", "200624.437500", "200624.897500", "200625.357500", "200625.817500", "200626.277500", "200626.737500", "200627.197500", "200627.657500", "200628.117500", "200628.577500", "200629.037500", "200629.497500", "200629.957500", "200630.417500", "200630.877500", "200631.337500", "200631.797500", "200632.257500", "200632.717500", "200633.177500", "200633.637500", "200634.097500", "200634.557500", "200635.017500", "200635.477500", "200635.937500", "200636.397500", "200636.857500", "200637.317500", "200637.777500", "200638.237500", "200638.697500", "200639.157500", "200639.617500", "200640.077500", "200640.537500", "200640.997500", "200641.457500", "200641.917500", "200642.377500", "200642.837500", "200643.297500", "200643.757500", "200644.217500", "200644.677500", "200645.137500", "200645.597500", "200646.057500", "200646.517500", "200646.977500", "200647.437500", "200647.897500", "200648.357500", "200648.817500", "200649.277500", "200649.737500", "200650.197500", "200650.657500", "200651.117500", "200651.577500", "200652.037500", "200652.497500", "200652.957500", "200653.417500", "200653.877500", "200654.337500", "200654.797500", "200655.257500", "200655.717500", "200656.177500", "200656.637500", "200657.097500", "200657.557500", "200658.017500", "200658.477500", "200658.937500", "200659.397500", "200659.857500", "200700.317500", "200700.777500", "200701.237500", "200701.697500", "200702.157500", "200702.617500", "200703.077500", "200703.537500", "200703.997500", "200704.457500", "200704.917500", "200705.377500", "200705.837500", "200706.297500", "200706.757500", "200707.217500", "200707.677500", "200708.137500", "200708.597500", "200709.057500", "200709.517500", "200709.977500", "200710.437500", "200710.897500", "200711.357500", "200711.817500", "200712.277500", "200712.737500", "200713.197500", "200713.657500", "200714.117500", "200714.577500", "200715.037500", "200715.497500", "200715.957500", "200716.417500", "200716.877500", "200717.337500", "200717.797500", "200718.257500", "200718.717500", "200719.177500", "200719.637500", "200720.097500", "200720.557500", "200721.017500", "200721.477500", "200721.937500", "200722.397500", "200722.857500", "200723.317500", "200723.777500", "200724.237500", "200724.697500", "200725.157500", "200725.617500", "200726.077500", "200726.537500", "200726.997500", "200727.457500", "200727.917500", "200728.377500", "200728.837500", "200729.297500", "200729.757500", "200730.217500", "200730.677500", "200731.137500", "200731.597500", "200732.057500", "200732.517500", "200732.977500", "200733.437500", "200733.897500", "200734.357500", "200734.817500", "200735.277500", "200735.737500", "200736.197500", "200736.657500", "200737.117500", "200737.577500", "200738.037500", "200738.497500", "200738.957500", "200739.417500", "200739.877500", "200740.337500", "200740.797500", "200741.257500", "200741.717500", "200742.177500", "200742.637500", "200743.097500", "200743.557500", "200744.017500", "200744.477500", "200744.937500", "200745.397500", "200745.857500", "200746.317500", "200746.777500", "200747.237500", "200747.697500", "200748.157500", "200748.617500", "200749.077500", "200749.537500", "200749.997500", "200750.457500", "200750.917500", "200751.377500", "200751.837500", "200752.297500", "200752.757500", "200753.217500", "200753.677500", "200754.137500", "200754.597500", "200755.057500", "200755.517500", "200755.977500", "200756.437500", "200756.897500", "200757.357500", "200757.817500", "200758.277500", "200758.737500", "200759.197500", "200759.657500", "200800.117500", "200800.577500", "200801.037500", "200801.497500", "200801.957500", "200802.417500", "200802.877500", "200803.337500", "200803.797500", "200804.257500", "200804.717500", "200805.177500", "200805.637500", "200806.097500", "200806.557500", "200807.017500", "200807.477500", "200807.937500", "200808.397500", "200808.857500", "200809.317500", "200809.777500", "200810.237500", "200810.697500", "200811.157500", "200811.617500", "200812.077500", "200812.537500", "200812.997500", "200813.457500", "200813.917500", "200814.377500", "200814.837500", "200815.297500", "200815.757500", "200816.217500", "200816.677500", "200817.137500", "200817.597500", "200818.057500", "200818.517500", "200818.977500", "200819.437500", "200819.897500", "200820.357500", "200820.817500", "200821.277500", "200821.737500", "200822.197500", "200822.657500", "200823.117500", "200823.577500", "200824.037500", "200824.497500", "200824.957500", "200825.417500", "200825.877500", "200826.337500", "200826.797500", "200827.257500", "200827.717500", "200828.177500", "200828.637500", "200829.097500", "200829.557500", "200830.017500", "200830.477500", "200830.937500", "200831.397500", "200831.857500", "200832.317500", "200832.777500", "200833.237500", "200833.697500", "200834.157500", "200834.617500", "200835.077500", "200835.537500", "200835.997500", "200836.457500", "200836.917500", "200837.377500", "200837.837500", "200838.297500", "200838.757500", "200839.217500", "200839.677500", "200840.137500", "200840.597500", "200841.057500", "200841.517500", "200841.977500", "200842.437500", "200842.897500", "200843.357500", "200843.817500", "200844.277500", "200844.737500", "200845.197500", "200845.657500", "200846.117500", "200846.577500", "200847.037500", "200847.497500", "200847.957500", "200848.417500", "200848.877500", "200849.337500", "200849.797500", "200850.257500", "200850.717500", "200851.177500", "200851.637500", "200852.097500", "200852.557500", "200853.017500", "200853.477500", "200853.937500", "200854.397500", "200854.857500", "200855.317500", "200855.777500", "200856.237500", "200856.697500", "200857.157500", "200857.617500", "200858.077500", "200858.537500", "200858.997500", "200859.457500", "200859.917500", "200900.377500", "200900.837500", "200901.297500", "200901.757500", "200902.217500", "200902.677500", "200903.137500", "200903.597500", "200904.057500", "200904.517500", "200904.977500", "200905.437500", "200905.897500", "200906.357500", "200906.817500", "200907.277500", "200907.737500", "200908.197500", "200908.657500", "200909.117500", "200909.577500", "200910.037500", "200910.497500", "200910.957500", "200911.417500", "200911.877500", "200912.337500", "200912.797500", "200913.257500", "200913.717500", "200914.177500", "200914.637500", "200915.097500", "200915.557500", "200916.017500", "200916.477500", "200916.937500", "200917.397500", "200917.857500", "200918.317500", "200918.777500", "200919.237500", "200919.697500", "200920.157500", "200920.617500", "200921.077500", "200921.537500", "200921.997500", "200922.457500", "200922.917500", "200923.377500", "200923.837500", "200924.297500", "200924.757500", "200925.217500", "200925.677500", "200926.137500", "200926.597500", "200927.057500", "200927.517500", "200927.977500", "200928.437500", "200928.897500", "200929.357500", "200929.817500", "200930.277500", "200930.737500", "200931.197500"],
