{
  "AcquisitionMatrixPE": 82,
  "AcquisitionNumber": 1,
  "AcquisitionTime": "19:34:2.992500",
  "BandwidthPerPixelPhaseEncode": 24.888,
  "BaseResolution": 82,
  "BodyPartExamined": "BRAIN",
  "ConsistencyInfo": "N4_VE11E_LATEST_20181129",
  "ConversionSoftware": "dcm2niix",
  "ConversionSoftwareVersion": "v1.0.20201102",
  "DerivedVendorReportedEchoSpacing": 0.00049,
  "DeviceSerialNumber": "66112",
  "DwellTime": 2e-06,
  "EchoTime": 0.0272,
  "EchoTrainLength": 82,
  "EffectiveEchoSpacing": 0.00049,
  "FlipAngle": 44,
  "ImageComments": "Unaliased MB8/PE3",
  "ImageOrientationPatientDICOM": [0.997558, -0.0562444, -0.0414188, 0.0500105, 0.989081, -0.138631],
  "ImageType": [
    "ORIGINAL",
    "PRIMARY",
    "M",
    "MB",
    "ND",
    "NORM",
    "MOSAIC"
],
  "ImagingFrequency": 123.259,
  "InPlanePhaseEncodingDirectionDICOM": "COL",
  "InstitutionAddress": "Maynard 3,Hanover,NH,US,03755",
  "InstitutionName": "Dartmouth College - PBS",
  "InstitutionalDepartmentName": "Department",
  "MRAcquisitionType": "2D",
  "MagneticFieldStrength": 3,
  "Manufacturer": "Siemens",
  "ManufacturersModelName": "Prisma",
  "Modality": "MR",
  "MultibandAccelerationFactor": 8,
  "PartialFourier": 1,
  "PatientPosition": "HFS",
  "PercentPhaseFOV": 100,
  "PercentSampling": 100,
  "PhaseEncodingDirection": "j-",
  "PhaseEncodingSteps": 82,
  "PhaseResolution": 1,
  "PixelBandwidth": 3050,
  "ProcedureStepDescription": "Wager_Wager^1076_spacetop",
  "ProtocolName": "func_run-02_task-social_acq-ap-mb8",
  "PulseSequenceDetails": "%CustomerSeq%\\cmrr_mbep2d_bold",
  "ReceiveCoilActiveElements": "HEA;HEP",
  "ReceiveCoilName": "Head_32",
  "ReconMatrixPE": 82,
  "RepetitionTime": 0.46,
  "SAR": 0.0967532,
  "ScanOptions": "FS",
  "ScanningSequence": "EP",
  "SequenceName": "epfid2d1_82",
  "SequenceVariant": "SK\\SS",
  "SeriesDescription": "func_run-02_task-social_acq-ap-mb8",
  "SeriesNumber": 14,
  "ShimSetting": [4218, -7713, -7278, 240, -125, -51, -84, 82],
  "SliceThickness": 2.7,
  "SliceTiming": [0, 0.25, 0.0625, 0.3125, 0.125, 0.3775, 0.1875, 0, 0.25, 0.0625, 0.3125, 0.125, 0.3775, 0.1875, 0, 0.25, 0.0625, 0.3125, 0.125, 0.3775, 0.1875, 0, 0.25, 0.0625, 0.3125, 0.125, 0.3775, 0.1875, 0, 0.25, 0.0625, 0.3125, 0.125, 0.3775, 0.1875, 0, 0.25, 0.0625, 0.3125, 0.125, 0.3775, 0.1875, 0, 0.25, 0.0625, 0.3125, 0.125, 0.3775, 0.1875, 0, 0.25, 0.0625, 0.3125, 0.125, 0.3775, 0.1875],
  "SoftwareVersions": "syngo MR E11",
  "SpacingBetweenSlices": 2.7,
  "StationName": "AWP66112",
  "TaskName": "social",
  "TotalReadoutTime": 0.03969,
  "TxRefAmp": 243.874,
  "WipMemBlock": "59612bcf-2416-41c8-88a2-0f8276e4f51a||Sequence: R016 ve11e/master r/434b28f1; Aug  7 2019 18:53:46 by eja",
  "dcmmeta_affine": [
    [-2.6763739585876465, 0.1341744214296341, -0.13166221976280212, 106.23872375488281],
    [0.15089964866638184, 2.6536307334899902, -0.36779728531837463, -102.8181381225586],
    [-0.11112368106842041, 0.3719373643398285, 2.6715893745422363, -82.62708282470703],
    [0.0, 0.0, 0.0, 1.0]
],
  "dcmmeta_reorient_transform": [
    [0.0, -1.0, 0.0, 81.0],
    [1.0, 0.0, 0.0, 0.0],
    [0.0, 0.0, 1.0, 0.0],
    [0.0, 0.0, 0.0, 1.0]
],
  "dcmmeta_shape": [82, 82, 56, 872],
  "dcmmeta_slice_dim": 2,
  "dcmmeta_version": 0.6,
  "global": {
    "const": {
      "AccessionNumber": "A004729",
      "AcquisitionMatrix": [82, 0, 0, 82],
      "AngioFlag": "N",
      "BitsAllocated": 16,
      "BitsStored": 16,
      "BodyPartExamined": "BRAIN",
      "Columns": 656,
      "EchoNumbers": 1,
      "EchoTime": 27.2,
      "EchoTrainLength": 82,
      "FlipAngle": 44.0,
      "HighBit": 15,
      "ImageOrientationPatient": [0.99755754061333, -0.0562444129073, -0.0414188264223, 0.05001046242876, 0.98908055597886, -0.138631192133],
      "ImagePositionPatient": [-923.7342359461, -830.40980729382, 86.138363673087],
      "ImageType": [
        "ORIGINAL",
        "PRIMARY",
        "M",
        "MB",
        "ND",
        "NORM",
        "MOSAIC"
],
      "ImagedNucleus": "1H",
      "ImagingFrequency": 123.259132,
      "InPlanePhaseEncodingDirection": "COL",
      "MRAcquisitionType": "2D",
      "MagneticFieldStrength": 3.0,
      "Manufacturer": "SIEMENS",
      "ManufacturerModelName": "Prisma",
      "Modality": "MR",
      "NumberOfAverages": 1.0,
      "NumberOfPhaseEncodingSteps": 82,
      "PercentPhaseFieldOfView": 100.0,
      "PercentSampling": 100.0,
      "PerformedProcedureStepStartTime": "184906.386000",
      "PhotometricInterpretation": "MONOCHROME2",
      "PixelBandwidth": 3050.0,
      "PixelRepresentation": 0,
      "PixelSpacing": [2.6829268932343, 2.6829268932343],
      "ProtocolName": "func_run-02_task-social_acq-ap-mb8",
      "RepetitionTime": 460.0,
      "Rows": 656,
      "SAR": 0.096753159521,
      "SamplesPerPixel": 1,
      "ScanOptions": "FS",
      "ScanningSequence": "EP",
      "SequenceName": "epfid2d1_82",
      "SequenceVariant": [
        "SK",
        "SS"
],
      "SeriesDescription": "func_run-02_task-social_acq-ap-mb8",
      "SeriesNumber": 14,
      "SeriesTime": "193416.710000",
      "SliceLocation": -72.932233274337,
      "SliceThickness": 2.7000000476837,
      "SmallestImagePixelValue": 0,
      "SoftwareVersions": "syngo MR E11",
      "SpacingBetweenSlices": 2.6999999283105,
      "SpecificCharacterSet": "ISO_IR 100",
      "StudyID": "1",
      "StudyTime": "184906.303000",
      "TransmitCoilName": "Body",
      "VariableFlipAngleFlag": "N",
      "WindowCenterWidthExplanation": "Algo1"
    },
    "slices": {}
  },
  "time": {
    "samples": {
      "AcquisitionNumber": [1, 2, 3, 4, 5, 6, 7, 8, 9, 10, 11, 12, 13, 14, 15, 16, 17, 18, 19, 20, 21, 22, 23, 24, 25, 26, 27, 28, 29, 30, 31, 32, 33, 34, 35, 36, 37, 38, 39, 40, 41, 42, 43, 44, 45, 46, 47, 48, 49, 50, 51, 52, 53, 54, 55, 56, 57, 58, 59, 60, 61, 62, 63, 64, 65, 66, 67, 68, 69, 70, 71, 72, 73, 74, 75, 76, 77, 78, 79, 80, 81, 82, 83, 84, 85, 86, 87, 88, 89, 90, 91, 92, 93, 94, 95, 96, 97, 98, 99, 100, 101, 102, 103, 104, 105, 106, 107, 108, 109, 110, 111, 112, 113, 114, 115, 116, 117, 118, 119, 120, 121, 122, 123, 124, 125, 126, 127, 128, 129, 130, 131, 132, 133, 134, 135, 136, 137, 138, 139, 140, 141, 142, 143, 144, 145, 146, 147, 148, 149, 150, 151, 152, 153, 154, 155, 156, 157, 158, 159, 160, 161, 162, 163, 164, 165, 166, 167, 168, 169, 170, 171, 172, 173, 174, 175, 176, 177, 178, 179, 180, 181, 182, 183, 184, 185, 186, 187, 188, 189, 190, 191, 192, 193, 194, 195, 196, 197, 198, 199, 200, 201, 202, 203, 204, 205, 206, 207, 208, 209, 210, 211, 212, 213, 214, 215, 216, 217, 218, 219, 220, 221, 222, 223, 224, 225, 226, 227, 228, 229, 230, 231, 232, 233, 234, 235, 236, 237, 238, 239, 240, 241, 242, 243, 244, 245, 246, 247, 248, 249, 250, 251, 252, 253, 254, 255, 256, 257, 258, 259, 260, 261, 262, 263, 264, 265, 266, 267, 268, 269, 270, 271, 272, 273, 274, 275, 276, 277, 278, 279, 280, 281, 282, 283, 284, 285, 286, 287, 288, 289, 290, 291, 292, 293, 294, 295, 296, 297, 298, 299, 300, 301, 302, 303, 304, 305, 306, 307, 308, 309, 310, 311, 312, 313, 314, 315, 316, 317, 318, 319, 320, 321, 322, 323, 324, 325, 326, 327, 328, 329, 330, 331, 332, 333, 334, 335, 336, 337, 338, 339, 340, 341, 342, 343, 344, 345, 346, 347, 348, 349, 350, 351, 352, 353, 354, 355, 356, 357, 358, 359, 360, 361, 362, 363, 364, 365, 366, 367, 368, 369, 370, 371, 372, 373, 374, 375, 376, 377, 378, 379, 380, 381, 382, 383, 384, 385, 386, 387, 388, 389, 390, 391, 392, 393, 394, 395, 396, 397, 398, 399, 400, 401, 402, 403, 404, 405, 406, 407, 408, 409, 410, 411, 412, 413, 414, 415, 416, 417, 418, 419, 420, 421, 422, 423, 424, 425, 426, 427, 428, 429, 430, 431, 432, 433, 434, 435, 436, 437, 438, 439, 440, 441, 442, 443, 444, 445, 446, 447, 448, 449, 450, 451, 452, 453, 454, 455, 456, 457, 458, 459, 460, 461, 462, 463, 464, 465, 466, 467, 468, 469, 470, 471, 472, 473, 474, 475, 476, 477, 478, 479, 480, 481, 482, 483, 484, 485, 486, 487, 488, 489, 490, 491, 492, 493, 494, 495, 496, 497, 498, 499, 500, 501, 502, 503, 504, 505, 506, 507, 508, 509, 510, 511, 512, 513, 514, 515, 516, 517, 518, 519, 520, 521, 522, 523, 524, 525, 526, 527, 528, 529, 530, 531, 532, 533, 534, 535, 536, 537, 538, 539, 540, 541, 542, 543, 544, 545, 546, 547, 548, 549, 550, 551, 552, 553, 554, 555, 556, 557, 558, 559, 560, 561, 562, 563, 564, 565, 566, 567, 568, 569, 570, 571, 572, 573, 574, 575, 576, 577, 578, 579, 580, 581, 582, 583, 584, 585, 586, 587, 588, 589, 590, 591, 592, 593, 594, 595, 596, 597, 598, 599, 600, 601, 602, 603, 604, 605, 606, 607, 608, 609, 610, 611, 612, 613, 614, 615, 616, 617, 618, 619, 620, 621, 622, 623, 624, 625, 626, 627, 628, 629, 630, 631, 632, 633, 634, 635, 636, 637, 638, 639, 640, 641, 642, 643, 644, 645, 646, 647, 648, 649, 650, 651, 652, 653, 654, 655, 656, 657, 658, 659, 660, 661, 662, 663, 664, 665, 666, 667, 668, 669, 670, 671, 672, 673, 674, 675, 676, 677, 678, 679, 680, 681, 682, 683, 684, 685, 686, 687, 688, 689, 690, 691, 692, 693, 694, 695, 696, 697, 698, 699, 700, 701, 702, 703, 704, 705, 706, 707, 708, 709, 710, 711, 712, 713, 714, 715, 716, 717, 718, 719, 720, 721, 722, 723, 724, 725, 726, 727, 728, 729, 730, 731, 732, 733, 734, 735, 736, 737, 738, 739, 740, 741, 742, 743, 744, 745, 746, 747, 748, 749, 750, 751, 752, 753, 754, 755, 756, 757, 758, 759, 760, 761, 762, 763, 764, 765, 766, 767, 768, 769, 770, 771, 772, 773, 774, 775, 776, 777, 778, 779, 780, 781, 782, 783, 784, 785, 786, 787, 788, 789, 790, 791, 792, 793, 794, 795, 796, 797, 798, 799, 800, 801, 802, 803, 804, 805, 806, 807, 808, 809, 810, 811, 812, 813, 814, 815, 816, 817, 818, 819, 820, 821, 822, 823, 824, 825, 826, 827, 828, 829, 830, 831, 832, 833, 834, 835, 836, 837, 838, 839, 840, 841, 842, 843, 844, 845, 846, 847, 848, 849, 850, 851, 852, 853, 854, 855, 856, 857, 858, 859, 860, 861, 862, 863, 864, 865, 866, 867, 868, 869, 870, 871, 872],
      "AcquisitionTime": ["193402.992500", "193403.452500", "193403.912500", "193404.372500", "193404.832500", "193405.292500", "193405.752500", "193406.212500", "193406.672500", "193407.132500", "193407.592500", "193408.052500", "193408.512500", "193408.972500", "193409.432500", "193409.892500", "193410.352500", "193410.812500", "193411.272500", "193411.732500", "193412.192500", "193412.652500", "193413.112500", "193413.572500", "193414.032500", "193414.492500", "193414.952500", "193415.412500", "193415.872500", "193416.332500", "193416.792500", "193417.252500", "193417.712500", "193418.172500", "193418.632500", "193419.092500", "193419.552500", "193420.012500", "193420.472500", "193420.932500", "193421.392500", "193421.852500", "193422.312500", "193422.772500", "193423.232500", "193423.692500", "193424.152500", "193424.612500", "193425.072500", "193425.532500", "193425.992500", "193426.452500", "193426.912500", "193427.372500", "193427.832500", "193428.292500", "193428.752500", "193429.212500", "193429.672500", "193430.132500", "193430.592500", "193431.052500", "193431.512500", "193431.972500", "193432.432500", "193432.892500", "193433.352500", "193433.812500", "193434.272500", "193434.732500", "193435.192500", "193435.652500", "193436.112500", "193436.572500", "193437.032500", "193437.492500", "193437.952500", "193438.412500", "193438.872500", "193439.332500", "193439.792500", "193440.252500", "193440.712500", "193441.172500", "193441.632500", "193442.092500", "193442.552500", "193443.012500", "193443.472500", "193443.932500", "193444.392500", "193444.852500", "193445.312500", "193445.772500", "193446.232500", "193446.692500", "193447.152500", "193447.612500", "193448.072500", "193448.532500", "193448.992500", "193449.452500", "193449.912500", "193450.372500", "193450.832500", "193451.292500", "193451.752500", "193452.212500", "193452.672500", "193453.132500", "193453.592500", "193454.052500", "193454.512500", "193454.972500", "193455.432500", "193455.892500", "193456.352500", "193456.812500", "193457.272500", "193457.732500", "193458.192500", "193458.652500", "193459.112500", "193459.572500", "193500.032500", "193500.492500", "193500.952500", "193501.412500", "193501.872500", "193502.332500", "193502.792500", "193503.252500", "193503.712500", "193504.172500", "193504.632500", "193505.092500", "193505.552500", "193506.012500", "193506.472500", "193506.932500", "193507.392500", "193507.852500", "193508.312500", "193508.772500", "193509.232500", "193509.692500", "193510.152500", "193510.612500", "193511.072500", "193511.532500", "193511.992500", "193512.452500", "193512.912500", "193513.372500", "193513.832500", "193514.292500", "193514.752500", "193515.212500", "193515.672500", "193516.132500", "193516.592500", "193517.052500", "193517.512500", "193517.972500", "193518.432500", "193518.892500", "193519.352500", "193519.812500", "193520.272500", "193520.732500", "193521.192500", "193521.652500", "193522.112500", "193522.572500", "193523.032500", "193523.492500", "193523.952500", "193524.412500", "193524.872500", "193525.332500", "193525.792500", "193526.252500", "193526.712500", "193527.172500", "193527.632500", "193528.092500", "193528.552500", "193529.012500", "193529.472500", "193529.932500", "193530.392500", "193530.852500", "193531.312500", "193531.772500", "193532.232500", "193532.692500", "193533.152500", "193533.612500", "193534.072500", "193534.532500", "193534.992500", "193535.452500", "193535.912500", "193536.372500", "193536.832500", "193537.292500", "193537.752500", "193538.212500", "193538.672500", "193539.132500", "193539.592500", "193540.052500", "193540.512500", "193540.972500", "193541.432500", "193541.892500", "193542.352500", "193542.812500", "193543.272500", "193543.732500", "193544.192500", "193544.652500", "193545.112500", "193545.572500", "193546.032500", "193546.492500", "193546.952500", "193547.412500", "193547.872500", "193548.332500", "193548.792500", "193549.252500", "193549.712500", "193550.172500", "193550.632500", "193551.092500", "193551.552500", "193552.012500", "193552.472500", "193552.932500", "193553.392500", "193553.852500", "193554.312500", "193554.772500", "193555.232500", "193555.692500", "193556.152500", "193556.612500", "193557.072500", "193557.532500", "193557.992500", "193558.452500", "193558.912500", "193559.372500", "193559.832500", "193600.292500", "193600.752500", "193601.212500", "193601.672500", "193602.132500", "193602.592500", "193603.052500", "193603.512500", "193603.972500", "193604.432500", "193604.892500", "193605.352500", "193605.812500", "193606.272500", "193606.732500", "193607.192500", "193607.652500", "193608.112500", "193608.572500", "193609.032500", "193609.492500", "193609.952500", "193610.412500", "193610.872500", "193611.332500", "193611.792500", "193612.252500", "193612.712500", "193613.172500", "193613.632500", "193614.092500", "193614.552500", "193615.012500", "193615.472500", "193615.932500", "193616.392500", "193616.852500", "193617.312500", "193617.772500", "193618.232500", "193618.692500", "193619.152500", "193619.612500", "193620.072500", "193620.532500", "193620.992500", "193621.452500", "193621.912500", "193622.372500", "193622.832500", "193623.292500", "193623.752500", "193624.212500", "193624.672500", "193625.132500", "193625.592500", "193626.052500", "193626.512500", "193626.972500", "193627.432500", "193627.892500", "193628.352500", "193628.812500", "193629.272500", "193629.732500", "193630.192500", "193630.652500", "193631.112500", "193631.572500", "193632.032500", "193632.492500", "193632.952500", "193633.412500", "193633.872500", "193634.332500", "193634.792500", "193635.252500", "193635.712500", "193636.172500", "193636.632500", "193637.092500", "193637.552500", "193638.012500", "193638.472500", "193638.932500", "193639.392500", "193639.852500", "193640.312500", "193640.772500", "193641.232500", "193641.692500", "193642.152500", "193642.612500", "193643.072500", "193643.532500", "193643.992500", "193644.452500", "193644.912500", "193645.372500", "193645.832500", "193646.292500", "193646.752500", "193647.212500", "193647.672500", "193648.132500", "193648.592500", "193649.052500", "193649.512500", "193649.972500", "193650.432500", "193650.892500", "193651.352500", "193651.812500", "193652.272500", "193652.732500", "193653.192500", "193653.652500", "193654.112500", "193654.572500", "193655.032500", "193655.492500", "193655.952500", "193656.412500", "193656.872500", "193657.332500", "193657.792500", "193658.252500", "193658.712500", "193659.172500", "193659.632500", "193700.092500", "193700.552500", "193701.012500", "193701.472500", "193701.932500", "193702.392500", "193702.852500", "193703.312500", "193703.772500", "193704.232500", "193704.692500", "193705.152500", "193705.612500", "193706.072500", "193706.532500", "193706.992500", "193707.452500", "193707.912500", "193708.372500", "193708.832500", "193709.292500", "193709.752500", "193710.212500", "193710.672500", "193711.132500", "193711.592500", "193712.052500", "193712.512500", "193712.972500", "193713.432500", "193713.892500", "193714.352500", "193714.812500", "193715.272500", "193715.732500", "193716.192500", "193716.652500", "193717.112500", "193717.572500", "193718.032500", "193718.492500", "193718.952500", "193719.412500", "193719.872500", "193720.332500", "193720.792500", "193721.252500", "193721.712500", "193722.172500", "193722.632500", "193723.092500", "193723.552500", "193724.012500", "193724.472500", "193724.932500", "193725.392500", "193725.852500", "193726.312500", "193726.772500", "193727.232500", "193727.692500", "193728.152500", "193728.612500", "193729.072500", "193729.532500", "193729.992500", "193730.452500", "193730.912500", "193731.372500", "193731.832500", "193732.292500", "193732.752500", "193733.212500", "193733.672500", "193734.132500", "193734.592500", "193735.052500", "193735.512500", "193735.972500", "193736.432500", "193736.892500", "193737.352500", "193737.812500", "193738.272500", "193738.732500", "193739.192500", "193739.652500", "193740.112500", "193740.572500", "193741.032500", "193741.492500", "193741.952500", "193742.412500", "193742.872500", "193743.332500", "193743.792500", "193744.252500", "193744.712500", "193745.172500", "193745.632500", "193746.092500", "193746.552500", "193747.012500", "193747.472500", "193747.932500", "193748.392500", "193748.852500", "193749.312500", "193749.772500", "193750.232500", "193750.692500", "193751.152500", "193751.612500", "193752.072500", "193752.532500", "193752.992500", "193753.452500", "193753.912500", "193754.372500", "193754.832500", "193755.292500", "193755.752500", "193756.212500", "193756.672500", "193757.132500", "193757.592500", "193758.052500", "193758.512500", "193758.972500", "193759.432500", "193759.892500", "193800.352500", "193800.812500", "193801.272500", "193801.732500", "193802.192500", "193802.652500", "193803.112500", "193803.572500", "193804.032500", "193804.492500", "193804.952500", "193805.412500", "193805.872500", "193806.332500", "193806.792500", "193807.252500", "193807.712500", "193808.172500", "193808.632500", "193809.092500", "193809.552500", "193810.012500", "193810.472500", "193810.932500", "193811.392500", "193811.852500", "193812.312500", "193812.772500", "193813.232500", "193813.692500", "193814.152500", "193814.612500", "193815.072500", "193815.532500", "193815.992500", "193816.452500", "193816.912500", "193817.372500", "193817.832500", "193818.292500", "193818.752500", "193819.212500", "193819.672500", "193820.132500", "193820.592500", "193821.052500", "193821.512500", "193821.972500", "193822.432500", "193822.892500", "193823.352500", "193823.812500", "193824.272500", "193824.732500", "193825.192500", "193825.652500", "193826.112500", "193826.572500", "193827.032500", "193827.492500", "193827.952500", "193828.412500", "193828.872500", "193829.332500", "193829.792500", "193830.252500", "193830.712500", "193831.172500", "193831.632500", "193832.092500", "193832.552500", "193833.012500", "193833.472500", "193833.932500", "193834.392500", "193834.852500", "193835.312500", "193835.772500", "193836.232500", "193836.692500", "193837.152500", "193837.612500", "193838.072500", "193838.532500", "193838.992500", "193839.452500", "193839.912500", "193840.372500", "193840.832500", "193841.292500", "193841.752500", "193842.212500", "193842.672500", "193843.132500", "193843.592500", "193844.052500", "193844.512500", "193844.972500", "193845.432500", "193845.892500", "193846.352500", "193846.812500", "193847.272500", "193847.732500", "193848.192500", "193848.652500", "193849.112500", "193849.572500", "193850.032500", "193850.492500", "193850.952500", "193851.412500", "193851.872500", "193852.332500", "193852.792500", "193853.252500", "193853.712500", "193854.172500", "193854.632500", "193855.092500", "193855.552500", "193856.012500", "193856.472500", "193856.932500", "193857.392500", "193857.852500", "193858.312500", "193858.772500", "193859.232500", "193859.692500", "193900.152500", "193900.612500", "193901.072500", "193901.532500", "193901.992500", "193902.452500", "193902.912500", "193903.372500", "193903.832500", "193904.292500", "193904.752500", "193905.212500", "193905.672500", "193906.132500", "193906.592500", "193907.052500", "193907.512500", "193907.972500", "193908.432500", "193908.892500", "193909.352500", "193909.812500", "193910.272500", "193910.732500", "193911.192500", "193911.652500", "193912.112500", "193912.572500", "193913.032500", "193913.492500", "193913.952500", "193914.412500", "193914.872500", "193915.332500", "193915.792500", "193916.252500", "193916.712500", "193917.172500", "193917.632500", "193918.092500", "193918.552500", "193919.012500", "193919.472500", "193919.932500", "193920.392500", "193920.852500", "193921.312500", "193921.772500", "193922.232500", "193922.692500", "193923.152500", "193923.612500", "193924.072500", "193924.532500", "193924.992500", "193925.452500", "193925.912500", "193926.372500", "193926.832500", "193927.292500", "193927.752500", "193928.212500", "193928.672500", "193929.132500", "193929.592500", "193930.052500", "193930.512500", "193930.972500", "193931.432500", "193931.892500", "193932.352500", "193932.812500", "193933.272500", "193933.732500", "193934.192500", "193934.652500", "193935.112500", "193935.572500", "193936.032500", "193936.492500", "193936.952500", "193937.412500", "193937.872500", "193938.332500", "193938.792500", "193939.252500", "193939.712500", "193940.172500", "193940.632500", "193941.092500", "193941.552500", "193942.012500", "193942.472500", "193942.932500", "193943.392500", "193943.852500", "193944.312500", "193944.772500", "193945.232500", "193945.692500", "193946.152500", "193946.612500", "193947.072500", "193947.532500", "193947.992500", "193948.452500", "193948.912500", "193949.372500", "193949.832500", "193950.292500", "193950.752500", "193951.212500", "193951.672500", "193952.132500", "193952.592500", "193953.052500", "193953.512500", "193953.972500", "193954.432500", "193954.892500", "193955.352500", "193955.812500", "193956.272500", "193956.732500", "193957.192500", "193957.652500", "193958.112500", "193958.572500", "193959.032500", "193959.492500", "193959.952500", "194000.412500", "194000.872500", "194001.332500", "194001.792500", "194002.252500", "194002.712500", "194003.172500", "194003.632500", "194004.092500", "194004.552500", "194005.012500", "194005.472500", "194005.932500", "194006.392500", "194006.852500", "194007.312500", "194007.772500", "194008.232500", "194008.692500", "194009.152500", "194009.612500", "194010.072500", "194010.532500", "194010.992500", "194011.452500", "194011.912500", "194012.372500", "194012.832500", "194013.292500", "194013.752500", "194014.212500", "194014.672500", "194015.132500", "194015.592500", "194016.052500", "194016.512500", "194016.972500", "194017.432500", "194017.892500", "194018.352500", "194018.812500", "194019.272500", "194019.732500", "194020.192500", "194020.652500", "194021.112500", "194021.572500", "194022.032500", "194022.492500", "194022.952500", "194023.412500", "194023.872500", "194024.332500", "194024.792500", "194025.252500", "194025.712500", "194026.172500", "194026.632500", "194027.092500", "194027.552500", "194028.012500", "194028.472500", "194028.932500", "194029.392500", "194029.852500", "194030.312500", "194030.772500", "194031.232500", "194031.692500", "194032.152500", "194032.612500", "194033.072500", "194033.532500", "194033.992500", "194034.452500", "194034.912500", "194035.372500", "194035.832500", "194036.292500", "194036.752500", "194037.212500", "194037.672500", "194038.132500", "194038.592500", "194039.052500", "194039.512500", "194039.972500", "194040.432500", "194040.892500", "194041.352500", "194041.812500", "194042.272500", "194042.732500", "194043.192500", "194043.652500"],
