{
  "AcquisitionMatrixPE": 82,
  "AcquisitionNumber": 1,
  "AcquisitionTime": "19:27:5.897500",
  "BandwidthPerPixelPhaseEncode": 24.888,
  "BaseResolution": 82,
  "BodyPartExamined": "BRAIN",
  "ConsistencyInfo": "N4_VE11E_LATEST_20181129",
  "ConversionSoftware": "dcm2niix",
  "ConversionSoftwareVersion": "v1.0.20201102",
  "DerivedVendorReportedEchoSpacing": 0.00049,
  "DeviceSerialNumber": "66112",
  "DwellTime": 2e-06,
  "EchoTime": 0.0272,
  "EchoTrainLength": 82,
  "EffectiveEchoSpacing": 0.00049,
  "FlipAngle": 44,
  "ImageComments": "Unaliased MB8/PE3",
  "ImageOrientationPatientDICOM": [0.997558, -0.0562444, -0.0414188, 0.0500105, 0.989081, -0.138631],
  "ImageType": [
    "ORIGINAL",
    "PRIMARY",
    "M",
    "MB",
    "ND",
    "NORM",
    "MOSAIC"
],
  "ImagingFrequency": 123.259,
  "InPlanePhaseEncodingDirectionDICOM": "COL",
  "InstitutionAddress": "Maynard 3,Hanover,NH,US,03755",
  "InstitutionName": "Dartmouth College - PBS",
  "InstitutionalDepartmentName": "Department",
  "MRAcquisitionType": "2D",
  "MagneticFieldStrength": 3,
  "Manufacturer": "Siemens",
  "ManufacturersModelName": "Prisma",
  "Modality": "MR",
  "MultibandAccelerationFactor": 8,
  "PartialFourier": 1,
  "PatientPosition": "HFS",
  "PercentPhaseFOV": 100,
  "PercentSampling": 100,
  "PhaseEncodingDirection": "j-",
  "PhaseEncodingSteps": 82,
  "PhaseResolution": 1,
  "PixelBandwidth": 3050,
  "ProcedureStepDescription": "Wager_Wager^1076_spacetop",
  "ProtocolName": "func_run-01_task-social_acq-ap-mb8",
  "PulseSequenceDetails": "%CustomerSeq%\\cmrr_mbep2d_bold",
  "ReceiveCoilActiveElements": "HEA;HEP",
  "ReceiveCoilName": "Head_32",
  "ReconMatrixPE": 82,
  "RepetitionTime": 0.46,
  "SAR": 0.0967532,
  "ScanOptions": "FS",
  "ScanningSequence": "EP",
  "SequenceName": "epfid2d1_82",
  "SequenceVariant": "SK\\SS",
  "SeriesDescription": "func_run-01_task-social_acq-ap-mb8",
  "SeriesNumber": 12,
  "ShimSetting": [4218, -7713, -7278, 240, -125, -51, -84, 82],
  "SliceThickness": 2.7,
  "SliceTiming": [0, 0.2525, 0.0625, 0.315, 0.125, 0.3775, 0.19, 0, 0.2525, 0.0625, 0.315, 0.125, 0.3775, 0.19, 0, 0.2525, 0.0625, 0.315, 0.125, 0.3775, 0.19, 0, 0.2525, 0.0625, 0.315, 0.125, 0.3775, 0.19, 0, 0.2525, 0.0625, 0.315, 0.125, 0.3775, 0.19, 0, 0.2525, 0.0625, 0.315, 0.125, 0.3775, 0.19, 0, 0.2525, 0.0625, 0.315, 0.125, 0.3775, 0.19, 0, 0.2525, 0.0625, 0.315, 0.125, 0.3775, 0.19],
  "SoftwareVersions": "syngo MR E11",
  "SpacingBetweenSlices": 2.7,
  "StationName": "AWP66112",
  "TaskName": "social",
  "TotalReadoutTime": 0.03969,
  "TxRefAmp": 243.874,
  "WipMemBlock": "338a2666-8bbc-4728-b4ee-80eae5465523||Sequence: R016 ve11e/master r/434b28f1; Aug  7 2019 18:53:46 by eja",
  "dcmmeta_affine": [
    [-2.6763739585876465, 0.1341744214296341, -0.13166221976280212, 106.23872375488281],
    [0.15089964866638184, 2.6536307334899902, -0.36779728531837463, -102.8181381225586],
    [-0.11112368106842041, 0.3719373643398285, 2.6715893745422363, -82.62708282470703],
    [0.0, 0.0, 0.0, 1.0]
],
  "dcmmeta_reorient_transform": [
    [0.0, -1.0, 0.0, 81.0],
    [1.0, 0.0, 0.0, 0.0],
    [0.0, 0.0, 1.0, 0.0],
    [0.0, 0.0, 0.0, 1.0]
],
  "dcmmeta_shape": [82, 82, 56, 872],
  "dcmmeta_slice_dim": 2,
  "dcmmeta_version": 0.6,
  "global": {
    "const": {
      "AccessionNumber": "A004729",
      "AcquisitionMatrix": [82, 0, 0, 82],
      "AngioFlag": "N",
      "BitsAllocated": 16,
      "BitsStored": 16,
      "BodyPartExamined": "BRAIN",
      "Columns": 656,
      "EchoNumbers": 1,
      "EchoTime": 27.2,
      "EchoTrainLength": 82,
      "FlipAngle": 44.0,
      "HighBit": 15,
      "ImageOrientationPatient": [0.99755754061333, -0.0562444129073, -0.0414188264223, 0.05001046242876, 0.98908055597886, -0.138631192133],
      "ImagePositionPatient": [-923.7342359461, -830.40980729382, 86.138363673087],
      "ImageType": [
        "ORIGINAL",
        "PRIMARY",
        "M",
        "MB",
        "ND",
        "NORM",
        "MOSAIC"
],
      "ImagedNucleus": "1H",
      "ImagingFrequency": 123.259125,
      "InPlanePhaseEncodingDirection": "COL",
      "MRAcquisitionType": "2D",
      "MagneticFieldStrength": 3.0,
      "Manufacturer": "SIEMENS",
      "ManufacturerModelName": "Prisma",
      "Modality": "MR",
      "NumberOfAverages": 1.0,
      "NumberOfPhaseEncodingSteps": 82,
      "PercentPhaseFieldOfView": 100.0,
      "PercentSampling": 100.0,
      "PerformedProcedureStepStartTime": "184906.386000",
      "PhotometricInterpretation": "MONOCHROME2",
      "PixelBandwidth": 3050.0,
      "PixelRepresentation": 0,
      "PixelSpacing": [2.6829268932343, 2.6829268932343],
      "ProtocolName": "func_run-01_task-social_acq-ap-mb8",
      "RepetitionTime": 460.0,
      "Rows": 656,
      "SAR": 0.096753159521,
      "SamplesPerPixel": 1,
      "ScanOptions": "FS",
      "ScanningSequence": "EP",
      "SequenceName": "epfid2d1_82",
      "SequenceVariant": [
        "SK",
        "SS"
],
      "SeriesDescription": "func_run-01_task-social_acq-ap-mb8",
      "SeriesNumber": 12,
      "SeriesTime": "192716.857000",
      "SliceLocation": -72.932233274337,
      "SliceThickness": 2.7000000476837,
      "SmallestImagePixelValue": 0,
      "SoftwareVersions": "syngo MR E11",
      "SpacingBetweenSlices": 2.6999999283105,
      "SpecificCharacterSet": "ISO_IR 100",
      "StudyID": "1",
      "StudyTime": "184906.303000",
      "TransmitCoilName": "Body",
      "VariableFlipAngleFlag": "N",
      "WindowCenterWidthExplanation": "Algo1"
    },
    "slices": {}
  },
  "time": {
    "samples": {
      "AcquisitionNumber": [1, 2, 3, 4, 5, 6, 7, 8, 9, 10, 11, 12, 13, 14, 15, 16, 17, 18, 19, 20, 21, 22, 23, 24, 25, 26, 27, 28, 29, 30, 31, 32, 33, 34, 35, 36, 37, 38, 39, 40, 41, 42, 43, 44, 45, 46, 47, 48, 49, 50, 51, 52, 53, 54, 55, 56, 57, 58, 59, 60, 61, 62, 63, 64, 65, 66, 67, 68, 69, 70, 71, 72, 73, 74, 75, 76, 77, 78, 79, 80, 81, 82, 83, 84, 85, 86, 87, 88, 89, 90, 91, 92, 93, 94, 95, 96, 97, 98, 99, 100, 101, 102, 103, 104, 105, 106, 107, 108, 109, 110, 111, 112, 113, 114, 115, 116, 117, 118, 119, 120, 121, 122, 123, 124, 125, 126, 127, 128, 129, 130, 131, 132, 133, 134, 135, 136, 137, 138, 139, 140, 141, 142, 143, 144, 145, 146, 147, 148, 149, 150, 151, 152, 153, 154, 155, 156, 157, 158, 159, 160, 161, 162, 163, 164, 165, 166, 167, 168, 169, 170, 171, 172, 173, 174, 175, 176, 177, 178, 179, 180, 181, 182, 183, 184, 185, 186, 187, 188, 189, 190, 191, 192, 193, 194, 195, 196, 197, 198, 199, 200, 201, 202, 203, 204, 205, 206, 207, 208, 209, 210, 211, 212, 213, 214, 215, 216, 217, 218, 219, 220, 221, 222, 223, 224, 225, 226, 227, 228, 229, 230, 231, 232, 233, 234, 235, 236, 237, 238, 239, 240, 241, 242, 243, 244, 245, 246, 247, 248, 249, 250, 251, 252, 253, 254, 255, 256, 257, 258, 259, 260, 261, 262, 263, 264, 265, 266, 267, 268, 269, 270, 271, 272, 273, 274, 275, 276, 277, 278, 279, 280, 281, 282, 283, 284, 285, 286, 287, 288, 289, 290, 291, 292, 293, 294, 295, 296, 297, 298, 299, 300, 301, 302, 303, 304, 305, 306, 307, 308, 309, 310, 311, 312, 313, 314, 315, 316, 317, 318, 319, 320, 321, 322, 323, 324, 325, 326, 327, 328, 329, 330, 331, 332, 333, 334, 335, 336, 337, 338, 339, 340, 341, 342, 343, 344, 345, 346, 347, 348, 349, 350, 351, 352, 353, 354, 355, 356, 357, 358, 359, 360, 361, 362, 363, 364, 365, 366, 367, 368, 369, 370, 371, 372, 373, 374, 375, 376, 377, 378, 379, 380, 381, 382, 383, 384, 385, 386, 387, 388, 389, 390, 391, 392, 393, 394, 395, 396, 397, 398, 399, 400, 401, 402, 403, 404, 405, 406, 407, 408, 409, 410, 411, 412, 413, 414, 415, 416, 417, 418, 419, 420, 421, 422, 423, 424, 425, 426, 427, 428, 429, 430, 431, 432, 433, 434, 435, 436, 437, 438, 439, 440, 441, 442, 443, 444, 445, 446, 447, 448, 449, 450, 451, 452, 453, 454, 455, 456, 457, 458, 459, 460, 461, 462, 463, 464, 465, 466, 467, 468, 469, 470, 471, 472, 473, 474, 475, 476, 477, 478, 479, 480, 481, 482, 483, 484, 485, 486, 487, 488, 489, 490, 491, 492, 493, 494, 495, 496, 497, 498, 499, 500, 501, 502, 503, 504, 505, 506, 507, 508, 509, 510, 511, 512, 513, 514, 515, 516, 517, 518, 519, 520, 521, 522, 523, 524, 525, 526, 527, 528, 529, 530, 531, 532, 533, 534, 535, 536, 537, 538, 539, 540, 541, 542, 543, 544, 545, 546, 547, 548, 549, 550, 551, 552, 553, 554, 555, 556, 557, 558, 559, 560, 561, 562, 563, 564, 565, 566, 567, 568, 569, 570, 571, 572, 573, 574, 575, 576, 577, 578, 579, 580, 581, 582, 583, 584, 585, 586, 587, 588, 589, 590, 591, 592, 593, 594, 595, 596, 597, 598, 599, 600, 601, 602, 603, 604, 605, 606, 607, 608, 609, 610, 611, 612, 613, 614, 615, 616, 617, 618, 619, 620, 621, 622, 623, 624, 625, 626, 627, 628, 629, 630, 631, 632, 633, 634, 635, 636, 637, 638, 639, 640, 641, 642, 643, 644, 645, 646, 647, 648, 649, 650, 651, 652, 653, 654, 655, 656, 657, 658, 659, 660, 661, 662, 663, 664, 665, 666, 667, 668, 669, 670, 671, 672, 673, 674, 675, 676, 677, 678, 679, 680, 681, 682, 683, 684, 685, 686, 687, 688, 689, 690, 691, 692, 693, 694, 695, 696, 697, 698, 699, 700, 701, 702, 703, 704, 705, 706, 707, 708, 709, 710, 711, 712, 713, 714, 715, 716, 717, 718, 719, 720, 721, 722, 723, 724, 725, 726, 727, 728, 729, 730, 731, 732, 733, 734, 735, 736, 737, 738, 739, 740, 741, 742, 743, 744, 745, 746, 747, 748, 749, 750, 751, 752, 753, 754, 755, 756, 757, 758, 759, 760, 761, 762, 763, 764, 765, 766, 767, 768, 769, 770, 771, 772, 773, 774, 775, 776, 777, 778, 779, 780, 781, 782, 783, 784, 785, 786, 787, 788, 789, 790, 791, 792, 793, 794, 795, 796, 797, 798, 799, 800, 801, 802, 803, 804, 805, 806, 807, 808, 809, 810, 811, 812, 813, 814, 815, 816, 817, 818, 819, 820, 821, 822, 823, 824, 825, 826, 827, 828, 829, 830, 831, 832, 833, 834, 835, 836, 837, 838, 839, 840, 841, 842, 843, 844, 845, 846, 847, 848, 849, 850, 851, 852, 853, 854, 855, 856, 857, 858, 859, 860, 861, 862, 863, 864, 865, 866, 867, 868, 869, 870, 871, 872],
      "AcquisitionTime": ["192705.897500", "192706.357500", "192706.817500", "192707.277500", "192707.737500", "192708.197500", "192708.657500", "192709.117500", "192709.577500", "192710.037500", "192710.497500", "192710.957500", "192711.417500", "192711.877500", "192712.337500", "192712.797500", "192713.257500", "192713.717500", "192714.177500", "192714.637500", "192715.097500", "192715.557500", "192716.017500", "192716.477500", "192716.937500", "192717.397500", "192717.857500", "192718.317500", "192718.777500", "192719.237500", "192719.697500", "192720.157500", "192720.617500", "192721.077500", "192721.537500", "192721.997500", "192722.457500", "192722.917500", "192723.377500", "192723.837500", "192724.297500", "192724.757500", "192725.217500", "192725.677500", "192726.137500", "192726.597500", "192727.057500", "192727.517500", "192727.977500", "192728.437500", "192728.897500", "192729.357500", "192729.817500", "192730.277500", "192730.737500", "192731.197500", "192731.657500", "192732.117500", "192732.577500", "192733.037500", "192733.497500", "192733.957500", "192734.417500", "192734.877500", "192735.337500", "192735.797500", "192736.257500", "192736.717500", "192737.177500", "192737.637500", "192738.097500", "192738.557500", "192739.017500", "192739.477500", "192739.937500", "192740.397500", "192740.857500", "192741.317500", "192741.777500", "192742.237500", "192742.697500", "192743.157500", "192743.617500", "192744.077500", "192744.537500", "192744.997500", "192745.457500", "192745.917500", "192746.377500", "192746.837500", "192747.297500", "192747.757500", "192748.217500", "192748.677500", "192749.137500", "192749.597500", "192750.057500", "192750.517500", "192750.977500", "192751.437500", "192751.897500", "192752.357500", "192752.817500", "192753.277500", "192753.737500", "192754.197500", "192754.657500", "192755.117500", "192755.577500", "192756.037500", "192756.497500", "192756.957500", "192757.417500", "192757.877500", "192758.337500", "192758.797500", "192759.257500", "192759.717500", "192800.177500", "192800.637500", "192801.097500", "192801.557500", "192802.017500", "192802.477500", "192802.937500", "192803.397500", "192803.857500", "192804.317500", "192804.777500", "192805.237500", "192805.697500", "192806.157500", "192806.617500", "192807.077500", "192807.537500", "192807.997500", "192808.457500", "192808.917500", "192809.377500", "192809.837500", "192810.297500", "192810.757500", "192811.217500", "192811.677500", "192812.137500", "192812.597500", "192813.057500", "192813.517500", "192813.977500", "192814.437500", "192814.897500", "192815.357500", "192815.817500", "192816.277500", "192816.737500", "192817.197500", "192817.657500", "192818.117500", "192818.577500", "192819.037500", "192819.497500", "192819.957500", "192820.417500", "192820.877500", "192821.337500", "192821.797500", "192822.257500", "192822.717500", "192823.177500", "192823.637500", "192824.097500", "192824.557500", "192825.017500", "192825.477500", "192825.937500", "192826.397500", "192826.857500", "192827.317500", "192827.777500", "192828.237500", "192828.697500", "192829.157500", "192829.617500", "192830.077500", "192830.537500", "192830.997500", "192831.457500", "192831.917500", "192832.377500", "192832.837500", "192833.297500", "192833.757500", "192834.217500", "192834.677500", "192835.137500", "192835.597500", "192836.057500", "192836.517500", "192836.977500", "192837.437500", "192837.897500", "192838.357500", "192838.817500", "192839.277500", "192839.737500", "192840.197500", "192840.657500", "192841.117500", "192841.577500", "192842.037500", "192842.497500", "192842.957500", "192843.417500", "192843.877500", "192844.337500", "192844.797500", "192845.257500", "192845.717500", "192846.177500", "192846.637500", "192847.097500", "192847.557500", "192848.017500", "192848.477500", "192848.937500", "192849.397500", "192849.857500", "192850.317500", "192850.777500", "192851.237500", "192851.697500", "192852.157500", "192852.617500", "192853.077500", "192853.537500", "192853.997500", "192854.457500", "192854.917500", "192855.377500", "192855.837500", "192856.297500", "192856.757500", "192857.217500", "192857.677500", "192858.137500", "192858.597500", "192859.057500", "192859.517500", "192859.977500", "192900.437500", "192900.897500", "192901.357500", "192901.817500", "192902.277500", "192902.737500", "192903.197500", "192903.657500", "192904.117500", "192904.577500", "192905.037500", "192905.497500", "192905.957500", "192906.417500", "192906.877500", "192907.337500", "192907.797500", "192908.257500", "192908.717500", "192909.177500", "192909.637500", "192910.097500", "192910.557500", "192911.017500", "192911.477500", "192911.937500", "192912.397500", "192912.857500", "192913.317500", "192913.777500", "192914.237500", "192914.697500", "192915.157500", "192915.617500", "192916.077500", "192916.537500", "192916.997500", "192917.457500", "192917.917500", "192918.377500", "192918.837500", "192919.297500", "192919.757500", "192920.217500", "192920.677500", "192921.137500", "192921.597500", "192922.057500", "192922.517500", "192922.977500", "192923.437500", "192923.897500", "192924.357500", "192924.817500", "192925.277500", "192925.737500", "192926.197500", "192926.657500", "192927.117500", "192927.577500", "192928.037500", "192928.497500", "192928.957500", "192929.417500", "192929.877500", "192930.337500", "192930.797500", "192931.257500", "192931.717500", "192932.177500", "192932.637500", "192933.097500", "192933.557500", "192934.017500", "192934.477500", "192934.937500", "192935.397500", "192935.857500", "192936.317500", "192936.777500", "192937.237500", "192937.697500", "192938.157500", "192938.617500", "192939.077500", "192939.537500", "192939.997500", "192940.457500", "192940.917500", "192941.377500", "192941.837500", "192942.297500", "192942.757500", "192943.217500", "192943.677500", "192944.137500", "192944.597500", "192945.057500", "192945.517500", "192945.977500", "192946.437500", "192946.897500", "192947.357500", "192947.817500", "192948.277500", "192948.737500", "192949.197500", "192949.657500", "192950.117500", "192950.577500", "192951.037500", "192951.497500", "192951.957500", "192952.417500", "192952.877500", "192953.337500", "192953.797500", "192954.257500", "192954.717500", "192955.177500", "192955.637500", "192956.097500", "192956.557500", "192957.017500", "192957.477500", "192957.937500", "192958.397500", "192958.857500", "192959.317500", "192959.777500", "193000.237500", "193000.697500", "193001.157500", "193001.617500", "193002.077500", "193002.537500", "193002.997500", "193003.457500", "193003.917500", "193004.377500", "193004.837500", "193005.297500", "193005.757500", "193006.217500", "193006.677500", "193007.137500", "193007.597500", "193008.057500", "193008.517500", "193008.977500", "193009.437500", "193009.897500", "193010.357500", "193010.817500", "193011.277500", "193011.737500", "193012.197500", "193012.657500", "193013.117500", "193013.577500", "193014.037500", "193014.497500", "193014.957500", "193015.417500", "193015.877500", "193016.337500", "193016.797500", "193017.257500", "193017.717500", "193018.177500", "193018.637500", "193019.097500", "193019.557500", "193020.017500", "193020.477500", "193020.937500", "193021.397500", "193021.857500", "193022.317500", "193022.777500", "193023.237500", "193023.697500", "193024.157500", "193024.617500", "193025.077500", "193025.537500", "193025.997500", "193026.457500", "193026.917500", "193027.377500", "193027.837500", "193028.297500", "193028.757500", "193029.217500", "193029.677500", "193030.137500", "193030.597500", "193031.057500", "193031.517500", "193031.977500", "193032.437500", "193032.897500", "193033.357500", "193033.817500", "193034.277500", "193034.737500", "193035.197500", "193035.657500", "193036.117500", "193036.577500", "193037.037500", "193037.497500", "193037.957500", "193038.417500", "193038.877500", "193039.337500", "193039.797500", "193040.257500", "193040.717500", "193041.177500", "193041.637500", "193042.097500", "193042.557500", "193043.017500", "193043.477500", "193043.937500", "193044.397500", "193044.857500", "193045.317500", "193045.777500", "193046.237500", "193046.697500", "193047.157500", "193047.617500", "193048.077500", "193048.537500", "193048.997500", "193049.457500", "193049.917500", "193050.377500", "193050.837500", "193051.297500", "193051.757500", "193052.217500", "193052.677500", "193053.137500", "193053.597500", "193054.057500", "193054.517500", "193054.977500", "193055.437500", "193055.897500", "193056.357500", "193056.817500", "193057.277500", "193057.737500", "193058.197500", "193058.657500", "193059.117500", "193059.577500", "193100.037500", "193100.497500", "193100.957500", "193101.417500", "193101.877500", "193102.337500", "193102.797500", "193103.257500", "193103.717500", "193104.177500", "193104.637500", "193105.097500", "193105.557500", "193106.017500", "193106.477500", "193106.937500", "193107.397500", "193107.857500", "193108.317500", "193108.777500", "193109.237500", "193109.697500", "193110.157500", "193110.617500", "193111.077500", "193111.537500", "193111.997500", "193112.457500", "193112.917500", "193113.377500", "193113.837500", "193114.297500", "193114.757500", "193115.217500", "193115.677500", "193116.137500", "193116.597500", "193117.057500", "193117.517500", "193117.977500", "193118.437500", "193118.897500", "193119.357500", "193119.817500", "193120.277500", "193120.737500", "193121.197500", "193121.657500", "193122.117500", "193122.577500", "193123.037500", "193123.497500", "193123.957500", "193124.417500", "193124.877500", "193125.337500", "193125.797500", "193126.257500", "193126.717500", "193127.177500", "193127.637500", "193128.097500", "193128.557500", "193129.017500", "193129.477500", "193129.937500", "193130.397500", "193130.857500", "193131.317500", "193131.777500", "193132.237500", "193132.697500", "193133.157500", "193133.617500", "193134.077500", "193134.537500", "193134.997500", "193135.457500", "193135.917500", "193136.377500", "193136.837500", "193137.297500", "193137.757500", "193138.217500", "193138.677500", "193139.137500", "193139.597500", "193140.057500", "193140.517500", "193140.977500", "193141.437500", "193141.897500", "193142.357500", "193142.817500", "193143.277500", "193143.737500", "193144.197500", "193144.657500", "193145.117500", "193145.577500", "193146.037500", "193146.497500", "193146.957500", "193147.417500", "193147.877500", "193148.337500", "193148.797500", "193149.257500", "193149.717500", "193150.177500", "193150.637500", "193151.097500", "193151.557500", "193152.017500", "193152.477500", "193152.937500", "193153.397500", "193153.857500", "193154.317500", "193154.777500", "193155.237500", "193155.697500", "193156.157500", "193156.617500", "193157.077500", "193157.537500", "193157.997500", "193158.457500", "193158.917500", "193159.377500", "193159.837500", "193200.297500", "193200.757500", "193201.217500", "193201.677500", "193202.137500", "193202.597500", "193203.057500", "193203.517500", "193203.977500", "193204.437500", "193204.897500", "193205.357500", "193205.817500", "193206.277500", "193206.737500", "193207.197500", "193207.657500", "193208.117500", "193208.577500", "193209.037500", "193209.497500", "193209.957500", "193210.417500", "193210.877500", "193211.337500", "193211.797500", "193212.257500", "193212.717500", "193213.177500", "193213.637500", "193214.097500", "193214.557500", "193215.017500", "193215.477500", "193215.937500", "193216.397500", "193216.857500", "193217.317500", "193217.777500", "193218.237500", "193218.697500", "193219.157500", "193219.617500", "193220.077500", "193220.537500", "193220.997500", "193221.457500", "193221.917500", "193222.377500", "193222.837500", "193223.297500", "193223.757500", "193224.217500", "193224.677500", "193225.137500", "193225.597500", "193226.057500", "193226.517500", "193226.977500", "193227.437500", "193227.897500", "193228.357500", "193228.817500", "193229.277500", "193229.737500", "193230.197500", "193230.657500", "193231.117500", "193231.577500", "193232.037500", "193232.497500", "193232.957500", "193233.417500", "193233.877500", "193234.337500", "193234.797500", "193235.257500", "193235.717500", "193236.177500", "193236.637500", "193237.097500", "193237.557500", "193238.017500", "193238.477500", "193238.937500", "193239.397500", "193239.857500", "193240.317500", "193240.777500", "193241.237500", "193241.697500", "193242.157500", "193242.617500", "193243.077500", "193243.537500", "193243.997500", "193244.457500", "193244.917500", "193245.377500", "193245.837500", "193246.297500", "193246.757500", "193247.217500", "193247.677500", "193248.137500", "193248.597500", "193249.057500", "193249.517500", "193249.977500", "193250.437500", "193250.897500", "193251.357500", "193251.817500", "193252.277500", "193252.737500", "193253.197500", "193253.657500", "193254.117500", "193254.577500", "193255.037500", "193255.497500", "193255.957500", "193256.417500", "193256.877500", "193257.337500", "193257.797500", "193258.257500", "193258.717500", "193259.177500", "193259.637500", "193300.097500", "193300.557500", "193301.017500", "193301.477500", "193301.937500", "193302.397500", "193302.857500", "193303.317500", "193303.777500", "193304.237500", "193304.697500", "193305.157500", "193305.617500", "193306.077500", "193306.537500", "193306.997500", "193307.457500", "193307.917500", "193308.377500", "193308.837500", "193309.297500", "193309.757500", "193310.217500", "193310.677500", "193311.137500", "193311.597500", "193312.057500", "193312.517500", "193312.977500", "193313.437500", "193313.897500", "193314.357500", "193314.817500", "193315.277500", "193315.737500", "193316.197500", "193316.657500", "193317.117500", "193317.577500", "193318.037500", "193318.497500", "193318.957500", "193319.417500", "193319.877500", "193320.337500", "193320.797500", "193321.257500", "193321.717500", "193322.177500", "193322.637500", "193323.097500", "193323.557500", "193324.017500", "193324.477500", "193324.937500", "193325.397500", "193325.857500", "193326.317500", "193326.777500", "193327.237500", "193327.697500", "193328.157500", "193328.617500", "193329.077500", "193329.537500", "193329.997500", "193330.457500", "193330.917500", "193331.377500", "193331.837500", "193332.297500", "193332.757500", "193333.217500", "193333.677500", "193334.137500", "193334.597500", "193335.057500", "193335.517500", "193335.977500", "193336.437500", "193336.897500", "193337.357500", "193337.817500", "193338.277500", "193338.737500", "193339.197500", "193339.657500", "193340.117500", "193340.577500", "193341.037500", "193341.497500", "193341.957500", "193342.417500", "193342.877500", "193343.337500", "193343.797500", "193344.257500", "193344.717500", "193345.177500", "193345.637500", "193346.097500", "193346.557500"],
