{
  "AcquisitionMatrixPE": 82,
  "AcquisitionNumber": 1,
  "AcquisitionTime": "15:45:24.927500",
  "BandwidthPerPixelPhaseEncode": 24.888,
  "BaseResolution": 82,
  "BodyPartExamined": "BRAIN",
  "ConsistencyInfo": "N4_VE11C_LATEST_20160120",
  "ConversionSoftware": "dcm2niix",
  "ConversionSoftwareVersion": "v1.0.20201102",
  "DerivedVendorReportedEchoSpacing": 0.00049,
  "DeviceSerialNumber": "66112",
  "DwellTime": 2e-06,
  "EchoTime": 0.0272,
  "EchoTrainLength": 82,
  "EffectiveEchoSpacing": 0.00049,
  "FlipAngle": 44,
  "ImageComments": "Unaliased MB8/PE3",
  "ImageOrientationPatientDICOM": [0.995257, -0.0972834, -0.000270088, 0.0972351, 0.994667, 0.0344042],
  "ImageType": [
    "ORIGINAL",
    "PRIMARY",
    "M",
    "MB",
    "ND",
    "NORM",
    "MOSAIC"
],
  "ImagingFrequency": 123.252,
  "InPlanePhaseEncodingDirectionDICOM": "COL",
  "InstitutionAddress": "Maynard 3,Hanover,NH,US,03755",
  "InstitutionName": "Dartmouth College - PBS",
  "InstitutionalDepartmentName": "Department",
  "MRAcquisitionType": "2D",
  "MagneticFieldStrength": 3,
  "Manufacturer": "Siemens",
  "ManufacturersModelName": "Prisma",
  "Modality": "MR",
  "MultibandAccelerationFactor": 8,
  "PartialFourier": 1,
  "PatientPosition": "HFS",
  "PercentPhaseFOV": 100,
  "PercentSampling": 100,
  "PhaseEncodingDirection": "j-",
  "PhaseEncodingSteps": 82,
  "PhaseResolution": 1,
  "PixelBandwidth": 3050,
  "ProcedureStepDescription": "Wager_Wager^1076_spacetop",
  "ProtocolName": "func_run-04_task-social_acq-ap-mb8",
  "PulseSequenceDetails": "%CustomerSeq%\\cmrr_mbep2d_bold",
  "ReceiveCoilActiveElements": "HEA;HEP",
  "ReceiveCoilName": "Head_32",
  "ReconMatrixPE": 82,
  "RepetitionTime": 0.46,
  "SAR": 0.0718788,
  "ScanOptions": "FS",
  "ScanningSequence": "EP",
  "SequenceName": "epfid2d1_82",
  "SequenceVariant": "SK\\SS",
  "SeriesDescription": "func_run-04_task-social_acq-ap-mb8",
  "SeriesNumber": 14,
  "ShimSetting": [4146, -7746, -7238, 575, -77, -210, -73, 60],
  "SliceThickness": 2.7,
  "SliceTiming": [0, 0.2525, 0.0625, 0.315, 0.125, 0.3775, 0.19, 0, 0.2525, 0.0625, 0.315, 0.125, 0.3775, 0.19, 0, 0.2525, 0.0625, 0.315, 0.125, 0.3775, 0.19, 0, 0.2525, 0.0625, 0.315, 0.125, 0.3775, 0.19, 0, 0.2525, 0.0625, 0.315, 0.125, 0.3775, 0.19, 0, 0.2525, 0.0625, 0.315, 0.125, 0.3775, 0.19, 0, 0.2525, 0.0625, 0.315, 0.125, 0.3775, 0.19, 0, 0.2525, 0.0625, 0.315, 0.125, 0.3775, 0.19],
  "SoftwareVersions": "syngo MR E11",
  "SpacingBetweenSlices": 2.7,
  "StationName": "AWP66112",
  "TaskName": "social",
  "TotalReadoutTime": 0.03969,
  "TxRefAmp": 229.808,
  "WipMemBlock": "245211ef-6326-4afc-b87a-721703ae7860||Sequence: R016 ve11c/master r/e634e98; Dec 19 2017 11:00:25 by eja",
  "dcmmeta_affine": [
    [-2.670200824737549, 0.2608746588230133, 0.008311435580253601, 99.66780090332031],
    [0.26100432872772217, 2.6686177253723145, 0.09252157807350159, -108.89730834960938],
    [-0.0007246253080666065, -0.09230389446020126, 2.69840145111084, -64.31317901611328],
    [0.0, 0.0, 0.0, 1.0]
],
  "dcmmeta_reorient_transform": [
    [0.0, -1.0, 0.0, 81.0],
    [1.0, 0.0, 0.0, 0.0],
    [0.0, 0.0, 1.0, 0.0],
    [0.0, 0.0, 0.0, 1.0]
],
  "dcmmeta_shape": [82, 82, 56, 872],
  "dcmmeta_slice_dim": 2,
  "dcmmeta_version": 0.6,
  "global": {
    "const": {
      "AccessionNumber": "A003843",
      "AcquisitionMatrix": [82, 0, 0, 82],
      "AngioFlag": "N",
      "BitsAllocated": 16,
      "BitsStored": 16,
      "BodyPartExamined": "BRAIN",
      "Columns": 656,
      "EchoNumbers": 1,
      "EchoTime": 27.2,
      "EchoTrainLength": 82,
      "FlipAngle": 44.0,
      "HighBit": 15,
      "ImageOrientationPatient": [0.99525668078267, -0.0972834333797, -0.0002700876031, 0.09723509329323, 0.99466662208189, 0.03440417922947],
      "ImagePositionPatient": [-962.01733713295, -798.24581077751, -98.073043156416],
      "ImageType": [
        "ORIGINAL",
        "PRIMARY",
        "M",
        "MB",
        "ND",
        "NORM",
        "MOSAIC"
],
      "ImagedNucleus": "1H",
      "ImagingFrequency": 123.252216,
      "InPlanePhaseEncodingDirection": "COL",
      "MRAcquisitionType": "2D",
      "MagneticFieldStrength": 3.0,
      "Manufacturer": "SIEMENS",
      "ManufacturerModelName": "Prisma",
      "Modality": "MR",
      "NumberOfAverages": 1.0,
      "NumberOfPhaseEncodingSteps": 82,
      "PercentPhaseFieldOfView": 100.0,
      "PercentSampling": 100.0,
      "PerformedProcedureStepStartTime": "151055.170000",
      "PhotometricInterpretation": "MONOCHROME2",
      "PixelBandwidth": 3050.0,
      "PixelRepresentation": 0,
      "PixelSpacing": [2.6829268932343, 2.6829268932343],
      "ProtocolName": "func_run-04_task-social_acq-ap-mb8",
      "RepetitionTime": 460.0,
      "Rows": 656,
      "SAR": 0.07187882946215,
      "SamplesPerPixel": 1,
      "ScanOptions": "FS",
      "ScanningSequence": "EP",
      "SequenceName": "epfid2d1_82",
      "SequenceVariant": [
        "SK",
        "SS"
],
      "SeriesDescription": "func_run-04_task-social_acq-ap-mb8",
      "SeriesNumber": 14,
      "SeriesTime": "154547.066000",
      "SliceLocation": -67.69990354117,
      "SliceThickness": 2.7000000476837,
      "SmallestImagePixelValue": 0,
      "SoftwareVersions": "syngo MR E11",
      "SpacingBetweenSlices": 2.6999999297427,
      "SpecificCharacterSet": "ISO_IR 100",
      "StudyID": "1",
      "StudyTime": "151055.053000",
      "TransmitCoilName": "Body",
      "VariableFlipAngleFlag": "N",
      "WindowCenterWidthExplanation": "Algo1",
      "dBdt": 0.0},
    "slices": {}
  },
  "time": {
    "samples": {
      "AcquisitionNumber": [1, 2, 3, 4, 5, 6, 7, 8, 9, 10, 11, 12, 13, 14, 15, 16, 17, 18, 19, 20, 21, 22, 23, 24, 25, 26, 27, 28, 29, 30, 31, 32, 33, 34, 35, 36, 37, 38, 39, 40, 41, 42, 43, 44, 45, 46, 47, 48, 49, 50, 51, 52, 53, 54, 55, 56, 57, 58, 59, 60, 61, 62, 63, 64, 65, 66, 67, 68, 69, 70, 71, 72, 73, 74, 75, 76, 77, 78, 79, 80, 81, 82, 83, 84, 85, 86, 87, 88, 89, 90, 91, 92, 93, 94, 95, 96, 97, 98, 99, 100, 101, 102, 103, 104, 105, 106, 107, 108, 109, 110, 111, 112, 113, 114, 115, 116, 117, 118, 119, 120, 121, 122, 123, 124, 125, 126, 127, 128, 129, 130, 131, 132, 133, 134, 135, 136, 137, 138, 139, 140, 141, 142, 143, 144, 145, 146, 147, 148, 149, 150, 151, 152, 153, 154, 155, 156, 157, 158, 159, 160, 161, 162, 163, 164, 165, 166, 167, 168, 169, 170, 171, 172, 173, 174, 175, 176, 177, 178, 179, 180, 181, 182, 183, 184, 185, 186, 187, 188, 189, 190, 191, 192, 193, 194, 195, 196, 197, 198, 199, 200, 201, 202, 203, 204, 205, 206, 207, 208, 209, 210, 211, 212, 213, 214, 215, 216, 217, 218, 219, 220, 221, 222, 223, 224, 225, 226, 227, 228, 229, 230, 231, 232, 233, 234, 235, 236, 237, 238, 239, 240, 241, 242, 243, 244, 245, 246, 247, 248, 249, 250, 251, 252, 253, 254, 255, 256, 257, 258, 259, 260, 261, 262, 263, 264, 265, 266, 267, 268, 269, 270, 271, 272, 273, 274, 275, 276, 277, 278, 279, 280, 281, 282, 283, 284, 285, 286, 287, 288, 289, 290, 291, 292, 293, 294, 295, 296, 297, 298, 299, 300, 301, 302, 303, 304, 305, 306, 307, 308, 309, 310, 311, 312, 313, 314, 315, 316, 317, 318, 319, 320, 321, 322, 323, 324, 325, 326, 327, 328, 329, 330, 331, 332, 333, 334, 335, 336, 337, 338, 339, 340, 341, 342, 343, 344, 345, 346, 347, 348, 349, 350, 351, 352, 353, 354, 355, 356, 357, 358, 359, 360, 361, 362, 363, 364, 365, 366, 367, 368, 369, 370, 371, 372, 373, 374, 375, 376, 377, 378, 379, 380, 381, 382, 383, 384, 385, 386, 387, 388, 389, 390, 391, 392, 393, 394, 395, 396, 397, 398, 399, 400, 401, 402, 403, 404, 405, 406, 407, 408, 409, 410, 411, 412, 413, 414, 415, 416, 417, 418, 419, 420, 421, 422, 423, 424, 425, 426, 427, 428, 429, 430, 431, 432, 433, 434, 435, 436, 437, 438, 439, 440, 441, 442, 443, 444, 445, 446, 447, 448, 449, 450, 451, 452, 453, 454, 455, 456, 457, 458, 459, 460, 461, 462, 463, 464, 465, 466, 467, 468, 469, 470, 471, 472, 473, 474, 475, 476, 477, 478, 479, 480, 481, 482, 483, 484, 485, 486, 487, 488, 489, 490, 491, 492, 493, 494, 495, 496, 497, 498, 499, 500, 501, 502, 503, 504, 505, 506, 507, 508, 509, 510, 511, 512, 513, 514, 515, 516, 517, 518, 519, 520, 521, 522, 523, 524, 525, 526, 527, 528, 529, 530, 531, 532, 533, 534, 535, 536, 537, 538, 539, 540, 541, 542, 543, 544, 545, 546, 547, 548, 549, 550, 551, 552, 553, 554, 555, 556, 557, 558, 559, 560, 561, 562, 563, 564, 565, 566, 567, 568, 569, 570, 571, 572, 573, 574, 575, 576, 577, 578, 579, 580, 581, 582, 583, 584, 585, 586, 587, 588, 589, 590, 591, 592, 593, 594, 595, 596, 597, 598, 599, 600, 601, 602, 603, 604, 605, 606, 607, 608, 609, 610, 611, 612, 613, 614, 615, 616, 617, 618, 619, 620, 621, 622, 623, 624, 625, 626, 627, 628, 629, 630, 631, 632, 633, 634, 635, 636, 637, 638, 639, 640, 641, 642, 643, 644, 645, 646, 647, 648, 649, 650, 651, 652, 653, 654, 655, 656, 657, 658, 659, 660, 661, 662, 663, 664, 665, 666, 667, 668, 669, 670, 671, 672, 673, 674, 675, 676, 677, 678, 679, 680, 681, 682, 683, 684, 685, 686, 687, 688, 689, 690, 691, 692, 693, 694, 695, 696, 697, 698, 699, 700, 701, 702, 703, 704, 705, 706, 707, 708, 709, 710, 711, 712, 713, 714, 715, 716, 717, 718, 719, 720, 721, 722, 723, 724, 725, 726, 727, 728, 729, 730, 731, 732, 733, 734, 735, 736, 737, 738, 739, 740, 741, 742, 743, 744, 745, 746, 747, 748, 749, 750, 751, 752, 753, 754, 755, 756, 757, 758, 759, 760, 761, 762, 763, 764, 765, 766, 767, 768, 769, 770, 771, 772, 773, 774, 775, 776, 777, 778, 779, 780, 781, 782, 783, 784, 785, 786, 787, 788, 789, 790, 791, 792, 793, 794, 795, 796, 797, 798, 799, 800, 801, 802, 803, 804, 805, 806, 807, 808, 809, 810, 811, 812, 813, 814, 815, 816, 817, 818, 819, 820, 821, 822, 823, 824, 825, 826, 827, 828, 829, 830, 831, 832, 833, 834, 835, 836, 837, 838, 839, 840, 841, 842, 843, 844, 845, 846, 847, 848, 849, 850, 851, 852, 853, 854, 855, 856, 857, 858, 859, 860, 861, 862, 863, 864, 865, 866, 867, 868, 869, 870, 871, 872],
      "AcquisitionTime": ["154524.927500", "154525.387500", "154525.847500", "154526.307500", "154526.767500", "154527.227500", "154527.687500", "154528.147500", "154528.607500", "154529.067500", "154529.527500", "154529.987500", "154530.447500", "154530.907500", "154531.367500", "154531.827500", "154532.287500", "154532.747500", "154533.207500", "154533.667500", "154534.127500", "154534.587500", "154535.047500", "154535.507500", "154535.967500", "154536.427500", "154536.887500", "154537.347500", "154537.807500", "154538.267500", "154538.727500", "154539.187500", "154539.647500", "154540.107500", "154540.567500", "154541.027500", "154541.487500", "154541.947500", "154542.407500", "154542.867500", "154543.327500", "154543.787500", "154544.247500", "154544.707500", "154545.167500", "154545.627500", "154546.087500", "154546.547500", "154547.007500", "154547.467500", "154547.927500", "154548.387500", "154548.847500", "154549.307500", "154549.767500", "154550.227500", "154550.687500", "154551.147500", "154551.607500", "154552.067500", "154552.527500", "154552.987500", "154553.447500", "154553.907500", "154554.367500", "154554.827500", "154555.287500", "154555.747500", "154556.207500", "154556.667500", "154557.127500", "154557.587500", "154558.047500", "154558.507500", "154558.967500", "154559.427500", "154559.887500", "154600.347500", "154600.807500", "154601.267500", "154601.727500", "154602.187500", "154602.647500", "154603.107500", "154603.567500", "154604.027500", "154604.487500", "154604.947500", "154605.407500", "154605.867500", "154606.327500", "154606.787500", "154607.247500", "154607.707500", "154608.167500", "154608.627500", "154609.087500", "154609.547500", "154610.007500", "154610.467500", "154610.927500", "154611.387500", "154611.847500", "154612.307500", "154612.767500", "154613.227500", "154613.687500", "154614.147500", "154614.607500", "154615.067500", "154615.527500", "154615.987500", "154616.447500", "154616.907500", "154617.367500", "154617.827500", "154618.287500", "154618.747500", "154619.207500", "154619.667500", "154620.127500", "154620.587500", "154621.047500", "154621.507500", "154621.967500", "154622.427500", "154622.887500", "154623.347500", "154623.807500", "154624.267500", "154624.727500", "154625.187500", "154625.647500", "154626.107500", "154626.567500", "154627.027500", "154627.487500", "154627.947500", "154628.407500", "154628.867500", "154629.327500", "154629.787500", "154630.247500", "154630.707500", "154631.167500", "154631.627500", "154632.087500", "154632.547500", "154633.007500", "154633.467500", "154633.927500", "154634.387500", "154634.847500", "154635.307500", "154635.767500", "154636.227500", "154636.687500", "154637.147500", "154637.607500", "154638.067500", "154638.527500", "154638.987500", "154639.447500", "154639.907500", "154640.367500", "154640.827500", "154641.287500", "154641.747500", "154642.207500", "154642.667500", "154643.127500", "154643.587500", "154644.047500", "154644.507500", "154644.967500", "154645.427500", "154645.887500", "154646.347500", "154646.807500", "154647.267500", "154647.727500", "154648.187500", "154648.647500", "154649.107500", "154649.567500", "154650.027500", "154650.487500", "154650.947500", "154651.407500", "154651.867500", "154652.327500", "154652.787500", "154653.247500", "154653.707500", "154654.167500", "154654.627500", "154655.087500", "154655.547500", "154656.007500", "154656.467500", "154656.927500", "154657.387500", "154657.847500", "154658.307500", "154658.767500", "154659.227500", "154659.687500", "154700.147500", "154700.607500", "154701.067500", "154701.527500", "154701.987500", "154702.447500", "154702.907500", "154703.367500", "154703.827500", "154704.287500", "154704.747500", "154705.207500", "154705.667500", "154706.127500", "154706.587500", "154707.047500", "154707.507500", "154707.967500", "154708.427500", "154708.887500", "154709.347500", "154709.807500", "154710.267500", "154710.727500", "154711.187500", "154711.647500", "154712.107500", "154712.567500", "154713.027500", "154713.487500", "154713.947500", "154714.407500", "154714.867500", "154715.327500", "154715.787500", "154716.247500", "154716.707500", "154717.167500", "154717.627500", "154718.087500", "154718.547500", "154719.007500", "154719.467500", "154719.927500", "154720.387500", "154720.847500", "154721.307500", "154721.767500", "154722.227500", "154722.687500", "154723.147500", "154723.607500", "154724.067500", "154724.527500", "154724.987500", "154725.447500", "154725.907500", "154726.367500", "154726.827500", "154727.287500", "154727.747500", "154728.207500", "154728.667500", "154729.127500", "154729.587500", "154730.047500", "154730.507500", "154730.967500", "154731.427500", "154731.887500", "154732.347500", "154732.807500", "154733.267500", "154733.727500", "154734.187500", "154734.647500", "154735.107500", "154735.567500", "154736.027500", "154736.487500", "154736.947500", "154737.407500", "154737.867500", "154738.327500", "154738.787500", "154739.247500", "154739.707500", "154740.167500", "154740.627500", "154741.087500", "154741.547500", "154742.007500", "154742.467500", "154742.927500", "154743.387500", "154743.847500", "154744.307500", "154744.767500", "154745.227500", "154745.687500", "154746.147500", "154746.607500", "154747.067500", "154747.527500", "154747.987500", "154748.447500", "154748.907500", "154749.367500", "154749.827500", "154750.287500", "154750.747500", "154751.207500", "154751.667500", "154752.127500", "154752.587500", "154753.047500", "154753.507500", "154753.967500", "154754.427500", "154754.887500", "154755.347500", "154755.807500", "154756.267500", "154756.727500", "154757.187500", "154757.647500", "154758.107500", "154758.567500", "154759.027500", "154759.487500", "154759.947500", "154800.407500", "154800.867500", "154801.327500", "154801.787500", "154802.247500", "154802.707500", "154803.167500", "154803.627500", "154804.087500", "154804.547500", "154805.007500", "154805.467500", "154805.927500", "154806.387500", "154806.847500", "154807.307500", "154807.767500", "154808.227500", "154808.687500", "154809.147500", "154809.607500", "154810.067500", "154810.527500", "154810.987500", "154811.447500", "154811.907500", "154812.367500", "154812.827500", "154813.287500", "154813.747500", "154814.207500", "154814.667500", "154815.127500", "154815.587500", "154816.047500", "154816.507500", "154816.967500", "154817.427500", "154817.887500", "154818.347500", "154818.807500", "154819.267500", "154819.727500", "154820.187500", "154820.647500", "154821.107500", "154821.567500", "154822.027500", "154822.487500", "154822.947500", "154823.407500", "154823.867500", "154824.327500", "154824.787500", "154825.247500", "154825.707500", "154826.167500", "154826.627500", "154827.087500", "154827.547500", "154828.007500", "154828.467500", "154828.927500", "154829.387500", "154829.847500", "154830.307500", "154830.767500", "154831.227500", "154831.687500", "154832.147500", "154832.607500", "154833.067500", "154833.527500", "154833.987500", "154834.447500", "154834.907500", "154835.367500", "154835.827500", "154836.287500", "154836.747500", "154837.207500", "154837.667500", "154838.127500", "154838.587500", "154839.047500", "154839.507500", "154839.967500", "154840.427500", "154840.887500", "154841.347500", "154841.807500", "154842.267500", "154842.727500", "154843.187500", "154843.647500", "154844.107500", "154844.567500", "154845.027500", "154845.487500", "154845.947500", "154846.407500", "154846.867500", "154847.327500", "154847.787500", "154848.247500", "154848.707500", "154849.167500", "154849.627500", "154850.087500", "154850.547500", "154851.007500", "154851.467500", "154851.927500", "154852.387500", "154852.847500", "154853.307500", "154853.767500", "154854.227500", "154854.687500", "154855.147500", "154855.607500", "154856.067500", "154856.527500", "154856.987500", "154857.447500", "154857.907500", "154858.367500", "154858.827500", "154859.287500", "154859.747500", "154900.207500", "154900.667500", "154901.127500", "154901.587500", "154902.047500", "154902.507500", "154902.967500", "154903.427500", "154903.887500", "154904.347500", "154904.807500", "154905.267500", "154905.727500", "154906.187500", "154906.647500", "154907.107500", "154907.567500", "154908.027500", "154908.487500", "154908.947500", "154909.407500", "154909.867500", "154910.327500", "154910.787500", "154911.247500", "154911.707500", "154912.167500", "154912.627500", "154913.087500", "154913.547500", "154914.007500", "154914.467500", "154914.927500", "154915.387500", "154915.847500", "154916.307500", "154916.767500", "154917.227500", "154917.687500", "154918.147500", "154918.607500", "154919.067500", "154919.527500", "154919.987500", "154920.447500", "154920.907500", "154921.367500", "154921.827500", "154922.287500", "154922.747500", "154923.207500", "154923.667500", "154924.127500", "154924.587500", "154925.047500", "154925.507500", "154925.967500", "154926.427500", "154926.887500", "154927.347500", "154927.807500", "154928.267500", "154928.727500", "154929.187500", "154929.647500", "154930.107500", "154930.567500", "154931.027500", "154931.487500", "154931.947500", "154932.407500", "154932.867500", "154933.327500", "154933.787500", "154934.247500", "154934.707500", "154935.167500", "154935.627500", "154936.087500", "154936.547500", "154937.007500", "154937.467500", "154937.927500", "154938.387500", "154938.847500", "154939.307500", "154939.767500", "154940.227500", "154940.687500", "154941.147500", "154941.607500", "154942.067500", "154942.527500", "154942.987500", "154943.447500", "154943.907500", "154944.367500", "154944.827500", "154945.287500", "154945.747500", "154946.207500", "154946.667500", "154947.127500", "154947.587500", "154948.047500", "154948.507500", "154948.967500", "154949.427500", "154949.887500", "154950.347500", "154950.807500", "154951.267500", "154951.727500", "154952.187500", "154952.647500", "154953.107500", "154953.567500", "154954.027500", "154954.487500", "154954.947500", "154955.407500", "154955.867500", "154956.327500", "154956.787500", "154957.247500", "154957.707500", "154958.167500", "154958.627500", "154959.087500", "154959.547500", "155000.007500", "155000.467500", "155000.927500", "155001.387500", "155001.847500", "155002.307500", "155002.767500", "155003.227500", "155003.687500", "155004.147500", "155004.607500", "155005.067500", "155005.527500", "155005.987500", "155006.447500", "155006.907500", "155007.367500", "155007.827500", "155008.287500", "155008.747500", "155009.207500", "155009.667500", "155010.127500", "155010.587500", "155011.047500", "155011.507500", "155011.967500", "155012.427500", "155012.887500", "155013.347500", "155013.807500", "155014.267500", "155014.727500", "155015.187500", "155015.647500", "155016.107500", "155016.567500", "155017.027500", "155017.487500", "155017.947500", "155018.407500", "155018.867500", "155019.327500", "155019.787500", "155020.247500", "155020.707500", "155021.167500", "155021.627500", "155022.087500", "155022.547500", "155023.007500", "155023.467500", "155023.927500", "155024.387500", "155024.847500", "155025.307500", "155025.767500", "155026.227500", "155026.687500", "155027.147500", "155027.607500", "155028.067500", "155028.527500", "155028.987500", "155029.447500", "155029.907500", "155030.367500", "155030.827500", "155031.287500", "155031.747500", "155032.207500", "155032.667500", "155033.127500", "155033.587500", "155034.047500", "155034.507500", "155034.967500", "155035.427500", "155035.887500", "155036.347500", "155036.807500", "155037.267500", "155037.727500", "155038.187500", "155038.647500", "155039.107500", "155039.567500", "155040.027500", "155040.487500", "155040.947500", "155041.407500", "155041.867500", "155042.327500", "155042.787500", "155043.247500", "155043.707500", "155044.167500", "155044.627500", "155045.087500", "155045.547500", "155046.007500", "155046.467500", "155046.927500", "155047.387500", "155047.847500", "155048.307500", "155048.767500", "155049.227500", "155049.687500", "155050.147500", "155050.607500", "155051.067500", "155051.527500", "155051.987500", "155052.447500", "155052.907500", "155053.367500", "155053.827500", "155054.287500", "155054.747500", "155055.207500", "155055.667500", "155056.127500", "155056.587500", "155057.047500", "155057.507500", "155057.967500", "155058.427500", "155058.887500", "155059.347500", "155059.807500", "155100.267500", "155100.727500", "155101.187500", "155101.647500", "155102.107500", "155102.567500", "155103.027500", "155103.487500", "155103.947500", "155104.407500", "155104.867500", "155105.327500", "155105.787500", "155106.247500", "155106.707500", "155107.167500", "155107.627500", "155108.087500", "155108.547500", "155109.007500", "155109.467500", "155109.927500", "155110.387500", "155110.847500", "155111.307500", "155111.767500", "155112.227500", "155112.687500", "155113.147500", "155113.607500", "155114.067500", "155114.527500", "155114.987500", "155115.447500", "155115.907500", "155116.367500", "155116.827500", "155117.287500", "155117.747500", "155118.207500", "155118.667500", "155119.127500", "155119.587500", "155120.047500", "155120.507500", "155120.967500", "155121.427500", "155121.887500", "155122.347500", "155122.807500", "155123.267500", "155123.727500", "155124.187500", "155124.647500", "155125.107500", "155125.567500", "155126.027500", "155126.487500", "155126.947500", "155127.407500", "155127.867500", "155128.327500", "155128.787500", "155129.247500", "155129.707500", "155130.167500", "155130.627500", "155131.087500", "155131.547500", "155132.007500", "155132.467500", "155132.927500", "155133.387500", "155133.847500", "155134.307500", "155134.767500", "155135.227500", "155135.687500", "155136.147500", "155136.607500", "155137.067500", "155137.527500", "155137.987500", "155138.447500", "155138.907500", "155139.367500", "155139.827500", "155140.287500", "155140.747500", "155141.207500", "155141.667500", "155142.127500", "155142.587500", "155143.047500", "155143.507500", "155143.967500", "155144.427500", "155144.887500", "155145.347500", "155145.807500", "155146.267500", "155146.727500", "155147.187500", "155147.647500", "155148.107500", "155148.567500", "155149.027500", "155149.487500", "155149.947500", "155150.407500", "155150.867500", "155151.327500", "155151.787500", "155152.247500", "155152.707500", "155153.167500", "155153.627500", "155154.087500", "155154.547500", "155155.007500", "155155.467500", "155155.927500", "155156.387500", "155156.847500", "155157.307500", "155157.767500", "155158.227500", "155158.687500", "155159.147500", "155159.607500", "155200.067500", "155200.527500", "155200.987500", "155201.447500", "155201.907500", "155202.367500", "155202.827500", "155203.287500", "155203.747500", "155204.207500", "155204.667500", "155205.127500", "155205.587500"],
