{
  "AcquisitionMatrixPE": 82,
  "AcquisitionNumber": 1,
  "AcquisitionTime": "15:52:24.757500",
  "BandwidthPerPixelPhaseEncode": 24.888,
  "BaseResolution": 82,
  "BodyPartExamined": "BRAIN",
  "ConsistencyInfo": "N4_VE11C_LATEST_20160120",
  "ConversionSoftware": "dcm2niix",
  "ConversionSoftwareVersion": "v1.0.20201102",
  "DerivedVendorReportedEchoSpacing": 0.00049,
  "DeviceSerialNumber": "66112",
  "DwellTime": 2e-06,
  "EchoTime": 0.0272,
  "EchoTrainLength": 82,
  "EffectiveEchoSpacing": 0.00049,
  "FlipAngle": 44,
  "ImageComments": "Unaliased MB8/PE3",
  "ImageOrientationPatientDICOM": [0.995257, -0.0972834, -0.000270088, 0.0972351, 0.994667, 0.0344042],
  "ImageType": [
    "ORIGINAL",
    "PRIMARY",
    "M",
    "MB",
    "ND",
    "NORM",
    "MOSAIC"
],
  "ImagingFrequency": 123.252,
  "InPlanePhaseEncodingDirectionDICOM": "COL",
  "InstitutionAddress": "Maynard 3,Hanover,NH,US,03755",
  "InstitutionName": "Dartmouth College - PBS",
  "InstitutionalDepartmentName": "Department",
  "MRAcquisitionType": "2D",
  "MagneticFieldStrength": 3,
  "Manufacturer": "Siemens",
  "ManufacturersModelName": "Prisma",
  "Modality": "MR",
  "MultibandAccelerationFactor": 8,
  "PartialFourier": 1,
  "PatientPosition": "HFS",
  "PercentPhaseFOV": 100,
  "PercentSampling": 100,
  "PhaseEncodingDirection": "j-",
  "PhaseEncodingSteps": 82,
  "PhaseResolution": 1,
  "PixelBandwidth": 3050,
  "ProcedureStepDescription": "Wager_Wager^1076_spacetop",
  "ProtocolName": "func_run-05_task-social_acq-ap-mb8",
  "PulseSequenceDetails": "%CustomerSeq%\\cmrr_mbep2d_bold",
  "ReceiveCoilActiveElements": "HEA;HEP",
  "ReceiveCoilName": "Head_32",
  "ReconMatrixPE": 82,
  "RepetitionTime": 0.46,
  "SAR": 0.0718788,
  "ScanOptions": "FS",
  "ScanningSequence": "EP",
  "SequenceName": "epfid2d1_82",
  "SequenceVariant": "SK\\SS",
  "SeriesDescription": "func_run-05_task-social_acq-ap-mb8",
  "SeriesNumber": 16,
  "ShimSetting": [4146, -7746, -7238, 575, -77, -210, -73, 60],
  "SliceThickness": 2.7,
  "SliceTiming": [0, 0.25, 0.0625, 0.315, 0.125, 0.3775, 0.1875, 0, 0.25, 0.0625, 0.315, 0.125, 0.3775, 0.1875, 0, 0.25, 0.0625, 0.315, 0.125, 0.3775, 0.1875, 0, 0.25, 0.0625, 0.315, 0.125, 0.3775, 0.1875, 0, 0.25, 0.0625, 0.315, 0.125, 0.3775, 0.1875, 0, 0.25, 0.0625, 0.315, 0.125, 0.3775, 0.1875, 0, 0.25, 0.0625, 0.315, 0.125, 0.3775, 0.1875, 0, 0.25, 0.0625, 0.315, 0.125, 0.3775, 0.1875],
  "SoftwareVersions": "syngo MR E11",
  "SpacingBetweenSlices": 2.7,
  "StationName": "AWP66112",
  "TaskName": "social",
  "TotalReadoutTime": 0.03969,
  "TxRefAmp": 229.808,
  "WipMemBlock": "93c4fb9e-fb9c-44c4-9429-ca6593f87719||Sequence: R016 ve11c/master r/e634e98; Dec 19 2017 11:00:25 by eja",
  "dcmmeta_affine": [
    [-2.670200824737549, 0.2608746588230133, 0.008311435580253601, 99.66780090332031],
    [0.26100432872772217, 2.6686177253723145, 0.09252157807350159, -108.89730834960938],
    [-0.0007246253080666065, -0.09230389446020126, 2.69840145111084, -64.31317901611328],
    [0.0, 0.0, 0.0, 1.0]
],
  "dcmmeta_reorient_transform": [
    [0.0, -1.0, 0.0, 81.0],
    [1.0, 0.0, 0.0, 0.0],
    [0.0, 0.0, 1.0, 0.0],
    [0.0, 0.0, 0.0, 1.0]
],
  "dcmmeta_shape": [82, 82, 56, 872],
  "dcmmeta_slice_dim": 2,
  "dcmmeta_version": 0.6,
  "global": {
    "const": {
      "AccessionNumber": "A003843",
      "AcquisitionMatrix": [82, 0, 0, 82],
      "AngioFlag": "N",
      "BitsAllocated": 16,
      "BitsStored": 16,
      "BodyPartExamined": "BRAIN",
      "Columns": 656,
      "EchoNumbers": 1,
      "EchoTime": 27.2,
      "EchoTrainLength": 82,
      "FlipAngle": 44.0,
      "HighBit": 15,
      "ImageOrientationPatient": [0.99525668078267, -0.0972834333797, -0.0002700876031, 0.09723509329323, 0.99466662208189, 0.03440417922947],
      "ImagePositionPatient": [-962.01733713295, -798.24581077751, -98.073043156416],
      "ImageType": [
        "ORIGINAL",
        "PRIMARY",
        "M",
        "MB",
        "ND",
        "NORM",
        "MOSAIC"
],
      "ImagedNucleus": "1H",
      "ImagingFrequency": 123.25222,
      "InPlanePhaseEncodingDirection": "COL",
      "MRAcquisitionType": "2D",
      "MagneticFieldStrength": 3.0,
      "Manufacturer": "SIEMENS",
      "ManufacturerModelName": "Prisma",
      "Modality": "MR",
      "NumberOfAverages": 1.0,
      "NumberOfPhaseEncodingSteps": 82,
      "PercentPhaseFieldOfView": 100.0,
      "PercentSampling": 100.0,
      "PerformedProcedureStepStartTime": "151055.170000",
      "PhotometricInterpretation": "MONOCHROME2",
      "PixelBandwidth": 3050.0,
      "PixelRepresentation": 0,
      "PixelSpacing": [2.6829268932343, 2.6829268932343],
      "ProtocolName": "func_run-05_task-social_acq-ap-mb8",
      "RepetitionTime": 460.0,
      "Rows": 656,
      "SAR": 0.07187882946215,
      "SamplesPerPixel": 1,
      "ScanOptions": "FS",
      "ScanningSequence": "EP",
      "SequenceName": "epfid2d1_82",
      "SequenceVariant": [
        "SK",
        "SS"
],
      "SeriesDescription": "func_run-05_task-social_acq-ap-mb8",
      "SeriesNumber": 16,
      "SeriesTime": "155247.144000",
      "SliceLocation": -67.69990354117,
      "SliceThickness": 2.7000000476837,
      "SmallestImagePixelValue": 0,
      "SoftwareVersions": "syngo MR E11",
      "SpacingBetweenSlices": 2.6999999297427,
      "SpecificCharacterSet": "ISO_IR 100",
      "StudyID": "1",
      "StudyTime": "151055.053000",
      "TransmitCoilName": "Body",
      "VariableFlipAngleFlag": "N",
      "WindowCenterWidthExplanation": "Algo1",
      "dBdt": 0.0},
    "slices": {}
  },
  "time": {
    "samples": {
      "AcquisitionNumber": [1, 2, 3, 4, 5, 6, 7, 8, 9, 10, 11, 12, 13, 14, 15, 16, 17, 18, 19, 20, 21, 22, 23, 24, 25, 26, 27, 28, 29, 30, 31, 32, 33, 34, 35, 36, 37, 38, 39, 40, 41, 42, 43, 44, 45, 46, 47, 48, 49, 50, 51, 52, 53, 54, 55, 56, 57, 58, 59, 60, 61, 62, 63, 64, 65, 66, 67, 68, 69, 70, 71, 72, 73, 74, 75, 76, 77, 78, 79, 80, 81, 82, 83, 84, 85, 86, 87, 88, 89, 90, 91, 92, 93, 94, 95, 96, 97, 98, 99, 100, 101, 102, 103, 104, 105, 106, 107, 108, 109, 110, 111, 112, 113, 114, 115, 116, 117, 118, 119, 120, 121, 122, 123, 124, 125, 126, 127, 128, 129, 130, 131, 132, 133, 134, 135, 136, 137, 138, 139, 140, 141, 142, 143, 144, 145, 146, 147, 148, 149, 150, 151, 152, 153, 154, 155, 156, 157, 158, 159, 160, 161, 162, 163, 164, 165, 166, 167, 168, 169, 170, 171, 172, 173, 174, 175, 176, 177, 178, 179, 180, 181, 182, 183, 184, 185, 186, 187, 188, 189, 190, 191, 192, 193, 194, 195, 196, 197, 198, 199, 200, 201, 202, 203, 204, 205, 206, 207, 208, 209, 210, 211, 212, 213, 214, 215, 216, 217, 218, 219, 220, 221, 222, 223, 224, 225, 226, 227, 228, 229, 230, 231, 232, 233, 234, 235, 236, 237, 238, 239, 240, 241, 242, 243, 244, 245, 246, 247, 248, 249, 250, 251, 252, 253, 254, 255, 256, 257, 258, 259, 260, 261, 262, 263, 264, 265, 266, 267, 268, 269, 270, 271, 272, 273, 274, 275, 276, 277, 278, 279, 280, 281, 282, 283, 284, 285, 286, 287, 288, 289, 290, 291, 292, 293, 294, 295, 296, 297, 298, 299, 300, 301, 302, 303, 304, 305, 306, 307, 308, 309, 310, 311, 312, 313, 314, 315, 316, 317, 318, 319, 320, 321, 322, 323, 324, 325, 326, 327, 328, 329, 330, 331, 332, 333, 334, 335, 336, 337, 338, 339, 340, 341, 342, 343, 344, 345, 346, 347, 348, 349, 350, 351, 352, 353, 354, 355, 356, 357, 358, 359, 360, 361, 362, 363, 364, 365, 366, 367, 368, 369, 370, 371, 372, 373, 374, 375, 376, 377, 378, 379, 380, 381, 382, 383, 384, 385, 386, 387, 388, 389, 390, 391, 392, 393, 394, 395, 396, 397, 398, 399, 400, 401, 402, 403, 404, 405, 406, 407, 408, 409, 410, 411, 412, 413, 414, 415, 416, 417, 418, 419, 420, 421, 422, 423, 424, 425, 426, 427, 428, 429, 430, 431, 432, 433, 434, 435, 436, 437, 438, 439, 440, 441, 442, 443, 444, 445, 446, 447, 448, 449, 450, 451, 452, 453, 454, 455, 456, 457, 458, 459, 460, 461, 462, 463, 464, 465, 466, 467, 468, 469, 470, 471, 472, 473, 474, 475, 476, 477, 478, 479, 480, 481, 482, 483, 484, 485, 486, 487, 488, 489, 490, 491, 492, 493, 494, 495, 496, 497, 498, 499, 500, 501, 502, 503, 504, 505, 506, 507, 508, 509, 510, 511, 512, 513, 514, 515, 516, 517, 518, 519, 520, 521, 522, 523, 524, 525, 526, 527, 528, 529, 530, 531, 532, 533, 534, 535, 536, 537, 538, 539, 540, 541, 542, 543, 544, 545, 546, 547, 548, 549, 550, 551, 552, 553, 554, 555, 556, 557, 558, 559, 560, 561, 562, 563, 564, 565, 566, 567, 568, 569, 570, 571, 572, 573, 574, 575, 576, 577, 578, 579, 580, 581, 582, 583, 584, 585, 586, 587, 588, 589, 590, 591, 592, 593, 594, 595, 596, 597, 598, 599, 600, 601, 602, 603, 604, 605, 606, 607, 608, 609, 610, 611, 612, 613, 614, 615, 616, 617, 618, 619, 620, 621, 622, 623, 624, 625, 626, 627, 628, 629, 630, 631, 632, 633, 634, 635, 636, 637, 638, 639, 640, 641, 642, 643, 644, 645, 646, 647, 648, 649, 650, 651, 652, 653, 654, 655, 656, 657, 658, 659, 660, 661, 662, 663, 664, 665, 666, 667, 668, 669, 670, 671, 672, 673, 674, 675, 676, 677, 678, 679, 680, 681, 682, 683, 684, 685, 686, 687, 688, 689, 690, 691, 692, 693, 694, 695, 696, 697, 698, 699, 700, 701, 702, 703, 704, 705, 706, 707, 708, 709, 710, 711, 712, 713, 714, 715, 716, 717, 718, 719, 720, 721, 722, 723, 724, 725, 726, 727, 728, 729, 730, 731, 732, 733, 734, 735, 736, 737, 738, 739, 740, 741, 742, 743, 744, 745, 746, 747, 748, 749, 750, 751, 752, 753, 754, 755, 756, 757, 758, 759, 760, 761, 762, 763, 764, 765, 766, 767, 768, 769, 770, 771, 772, 773, 774, 775, 776, 777, 778, 779, 780, 781, 782, 783, 784, 785, 786, 787, 788, 789, 790, 791, 792, 793, 794, 795, 796, 797, 798, 799, 800, 801, 802, 803, 804, 805, 806, 807, 808, 809, 810, 811, 812, 813, 814, 815, 816, 817, 818, 819, 820, 821, 822, 823, 824, 825, 826, 827, 828, 829, 830, 831, 832, 833, 834, 835, 836, 837, 838, 839, 840, 841, 842, 843, 844, 845, 846, 847, 848, 849, 850, 851, 852, 853, 854, 855, 856, 857, 858, 859, 860, 861, 862, 863, 864, 865, 866, 867, 868, 869, 870, 871, 872],
      "AcquisitionTime": ["155224.757500", "155225.217500", "155225.677500", "155226.137500", "155226.597500", "155227.057500", "155227.517500", "155227.977500", "155228.437500", "155228.897500", "155229.357500", "155229.817500", "155230.277500", "155230.737500", "155231.197500", "155231.657500", "155232.117500", "155232.577500", "155233.037500", "155233.497500", "155233.957500", "155234.417500", "155234.877500", "155235.337500", "155235.797500", "155236.257500", "155236.717500", "155237.177500", "155237.637500", "155238.097500", "155238.557500", "155239.017500", "155239.477500", "155239.937500", "155240.397500", "155240.857500", "155241.317500", "155241.777500", "155242.237500", "155242.697500", "155243.157500", "155243.617500", "155244.077500", "155244.537500", "155244.997500", "155245.457500", "155245.917500", "155246.377500", "155246.837500", "155247.297500", "155247.757500", "155248.217500", "155248.677500", "155249.137500", "155249.597500", "155250.057500", "155250.517500", "155250.977500", "155251.437500", "155251.897500", "155252.357500", "155252.817500", "155253.277500", "155253.737500", "155254.197500", "155254.657500", "155255.117500", "155255.577500", "155256.037500", "155256.497500", "155256.957500", "155257.417500", "155257.877500", "155258.337500", "155258.797500", "155259.257500", "155259.717500", "155300.177500", "155300.637500", "155301.097500", "155301.557500", "155302.017500", "155302.477500", "155302.937500", "155303.397500", "155303.857500", "155304.317500", "155304.777500", "155305.237500", "155305.697500", "155306.157500", "155306.617500", "155307.077500", "155307.537500", "155307.997500", "155308.457500", "155308.917500", "155309.377500", "155309.837500", "155310.297500", "155310.757500", "155311.217500", "155311.677500", "155312.137500", "155312.597500", "155313.057500", "155313.517500", "155313.977500", "155314.437500", "155314.897500", "155315.357500", "155315.817500", "155316.277500", "155316.737500", "155317.197500", "155317.657500", "155318.117500", "155318.577500", "155319.037500", "155319.497500", "155319.957500", "155320.417500", "155320.877500", "155321.337500", "155321.797500", "155322.257500", "155322.717500", "155323.177500", "155323.637500", "155324.097500", "155324.557500", "155325.017500", "155325.477500", "155325.937500", "155326.397500", "155326.857500", "155327.317500", "155327.777500", "155328.237500", "155328.697500", "155329.157500", "155329.617500", "155330.077500", "155330.537500", "155330.997500", "155331.457500", "155331.917500", "155332.377500", "155332.837500", "155333.297500", "155333.757500", "155334.217500", "155334.677500", "155335.137500", "155335.597500", "155336.057500", "155336.517500", "155336.977500", "155337.437500", "155337.897500", "155338.357500", "155338.817500", "155339.277500", "155339.737500", "155340.197500", "155340.657500", "155341.117500", "155341.577500", "155342.037500", "155342.497500", "155342.957500", "155343.417500", "155343.877500", "155344.337500", "155344.797500", "155345.257500", "155345.717500", "155346.177500", "155346.637500", "155347.097500", "155347.557500", "155348.017500", "155348.477500", "155348.937500", "155349.397500", "155349.857500", "155350.317500", "155350.777500", "155351.237500", "155351.697500", "155352.157500", "155352.617500", "155353.077500", "155353.537500", "155353.997500", "155354.457500", "155354.917500", "155355.377500", "155355.837500", "155356.297500", "155356.757500", "155357.217500", "155357.677500", "155358.137500", "155358.597500", "155359.057500", "155359.517500", "155359.977500", "155400.437500", "155400.897500", "155401.357500", "155401.817500", "155402.277500", "155402.737500", "155403.197500", "155403.657500", "155404.117500", "155404.577500", "155405.037500", "155405.497500", "155405.957500", "155406.417500", "155406.877500", "155407.337500", "155407.797500", "155408.257500", "155408.717500", "155409.177500", "155409.637500", "155410.097500", "155410.557500", "155411.017500", "155411.477500", "155411.937500", "155412.397500", "155412.857500", "155413.317500", "155413.777500", "155414.237500", "155414.697500", "155415.157500", "155415.617500", "155416.077500", "155416.537500", "155416.997500", "155417.457500", "155417.917500", "155418.377500", "155418.837500", "155419.297500", "155419.757500", "155420.217500", "155420.677500", "155421.137500", "155421.597500", "155422.057500", "155422.517500", "155422.977500", "155423.437500", "155423.897500", "155424.357500", "155424.817500", "155425.277500", "155425.737500", "155426.197500", "155426.657500", "155427.117500", "155427.577500", "155428.037500", "155428.497500", "155428.957500", "155429.417500", "155429.877500", "155430.337500", "155430.797500", "155431.257500", "155431.717500", "155432.177500", "155432.637500", "155433.097500", "155433.557500", "155434.017500", "155434.477500", "155434.937500", "155435.397500", "155435.857500", "155436.317500", "155436.777500", "155437.237500", "155437.697500", "155438.157500", "155438.617500", "155439.077500", "155439.537500", "155439.997500", "155440.457500", "155440.917500", "155441.377500", "155441.837500", "155442.297500", "155442.757500", "155443.217500", "155443.677500", "155444.137500", "155444.597500", "155445.057500", "155445.517500", "155445.977500", "155446.437500", "155446.897500", "155447.357500", "155447.817500", "155448.277500", "155448.737500", "155449.197500", "155449.657500", "155450.117500", "155450.577500", "155451.037500", "155451.497500", "155451.957500", "155452.417500", "155452.877500", "155453.337500", "155453.797500", "155454.257500", "155454.717500", "155455.177500", "155455.637500", "155456.097500", "155456.557500", "155457.017500", "155457.477500", "155457.937500", "155458.397500", "155458.857500", "155459.317500", "155459.777500", "155500.237500", "155500.697500", "155501.157500", "155501.617500", "155502.077500", "155502.537500", "155502.997500", "155503.457500", "155503.917500", "155504.377500", "155504.837500", "155505.297500", "155505.757500", "155506.217500", "155506.677500", "155507.137500", "155507.597500", "155508.057500", "155508.517500", "155508.977500", "155509.437500", "155509.897500", "155510.357500", "155510.817500", "155511.277500", "155511.737500", "155512.197500", "155512.657500", "155513.117500", "155513.577500", "155514.037500", "155514.497500", "155514.957500", "155515.417500", "155515.877500", "155516.337500", "155516.797500", "155517.257500", "155517.717500", "155518.177500", "155518.637500", "155519.097500", "155519.557500", "155520.017500", "155520.477500", "155520.937500", "155521.397500", "155521.857500", "155522.317500", "155522.777500", "155523.237500", "155523.697500", "155524.157500", "155524.617500", "155525.077500", "155525.537500", "155525.997500", "155526.457500", "155526.917500", "155527.377500", "155527.837500", "155528.297500", "155528.757500", "155529.217500", "155529.677500", "155530.137500", "155530.597500", "155531.057500", "155531.517500", "155531.977500", "155532.437500", "155532.897500", "155533.357500", "155533.817500", "155534.277500", "155534.737500", "155535.197500", "155535.657500", "155536.117500", "155536.577500", "155537.037500", "155537.497500", "155537.957500", "155538.417500", "155538.877500", "155539.337500", "155539.797500", "155540.257500", "155540.717500", "155541.177500", "155541.637500", "155542.097500", "155542.557500", "155543.017500", "155543.477500", "155543.937500", "155544.397500", "155544.857500", "155545.317500", "155545.777500", "155546.237500", "155546.697500", "155547.157500", "155547.617500", "155548.077500", "155548.537500", "155548.997500", "155549.457500", "155549.917500", "155550.377500", "155550.837500", "155551.297500", "155551.757500", "155552.217500", "155552.677500", "155553.137500", "155553.597500", "155554.057500", "155554.517500", "155554.977500", "155555.437500", "155555.897500", "155556.357500", "155556.817500", "155557.277500", "155557.737500", "155558.197500", "155558.657500", "155559.117500", "155559.577500", "155600.037500", "155600.497500", "155600.957500", "155601.417500", "155601.877500", "155602.337500", "155602.797500", "155603.257500", "155603.717500", "155604.177500", "155604.637500", "155605.097500", "155605.557500", "155606.017500", "155606.477500", "155606.937500", "155607.397500", "155607.857500", "155608.317500", "155608.777500", "155609.237500", "155609.697500", "155610.157500", "155610.617500", "155611.077500", "155611.537500", "155611.997500", "155612.457500", "155612.917500", "155613.377500", "155613.837500", "155614.297500", "155614.757500", "155615.217500", "155615.677500", "155616.137500", "155616.597500", "155617.057500", "155617.517500", "155617.977500", "155618.437500", "155618.897500", "155619.357500", "155619.817500", "155620.277500", "155620.737500", "155621.197500", "155621.657500", "155622.117500", "155622.577500", "155623.037500", "155623.497500", "155623.957500", "155624.417500", "155624.877500", "155625.337500", "155625.797500", "155626.257500", "155626.717500", "155627.177500", "155627.637500", "155628.097500", "155628.557500", "155629.017500", "155629.477500", "155629.937500", "155630.397500", "155630.857500", "155631.317500", "155631.777500", "155632.237500", "155632.697500", "155633.157500", "155633.617500", "155634.077500", "155634.537500", "155634.997500", "155635.457500", "155635.917500", "155636.377500", "155636.837500", "155637.297500", "155637.757500", "155638.217500", "155638.677500", "155639.137500", "155639.597500", "155640.057500", "155640.517500", "155640.977500", "155641.437500", "155641.897500", "155642.357500", "155642.817500", "155643.277500", "155643.737500", "155644.197500", "155644.657500", "155645.117500", "155645.577500", "155646.037500", "155646.497500", "155646.957500", "155647.417500", "155647.877500", "155648.337500", "155648.797500", "155649.257500", "155649.717500", "155650.177500", "155650.637500", "155651.097500", "155651.557500", "155652.017500", "155652.477500", "155652.937500", "155653.397500", "155653.857500", "155654.317500", "155654.777500", "155655.237500", "155655.697500", "155656.157500", "155656.617500", "155657.077500", "155657.537500", "155657.997500", "155658.457500", "155658.917500", "155659.377500", "155659.837500", "155700.297500", "155700.757500", "155701.217500", "155701.677500", "155702.137500", "155702.597500", "155703.057500", "155703.517500", "155703.977500", "155704.437500", "155704.897500", "155705.357500", "155705.817500", "155706.277500", "155706.737500", "155707.197500", "155707.657500", "155708.117500", "155708.577500", "155709.037500", "155709.497500", "155709.957500", "155710.417500", "155710.877500", "155711.337500", "155711.797500", "155712.257500", "155712.717500", "155713.177500", "155713.637500", "155714.097500", "155714.557500", "155715.017500", "155715.477500", "155715.937500", "155716.397500", "155716.857500", "155717.317500", "155717.777500", "155718.237500", "155718.697500", "155719.157500", "155719.617500", "155720.077500", "155720.537500", "155720.997500", "155721.457500", "155721.917500", "155722.377500", "155722.837500", "155723.297500", "155723.757500", "155724.217500", "155724.677500", "155725.137500", "155725.597500", "155726.057500", "155726.517500", "155726.977500", "155727.437500", "155727.897500", "155728.357500", "155728.817500", "155729.277500", "155729.737500", "155730.197500", "155730.657500", "155731.117500", "155731.577500", "155732.037500", "155732.497500", "155732.957500", "155733.417500", "155733.877500", "155734.337500", "155734.797500", "155735.257500", "155735.717500", "155736.177500", "155736.637500", "155737.097500", "155737.557500", "155738.017500", "155738.477500", "155738.937500", "155739.397500", "155739.857500", "155740.317500", "155740.777500", "155741.237500", "155741.697500", "155742.157500", "155742.617500", "155743.077500", "155743.537500", "155743.997500", "155744.457500", "155744.917500", "155745.377500", "155745.837500", "155746.297500", "155746.757500", "155747.217500", "155747.677500", "155748.137500", "155748.597500", "155749.057500", "155749.517500", "155749.977500", "155750.437500", "155750.897500", "155751.357500", "155751.817500", "155752.277500", "155752.737500", "155753.197500", "155753.657500", "155754.117500", "155754.577500", "155755.037500", "155755.497500", "155755.957500", "155756.417500", "155756.877500", "155757.337500", "155757.797500", "155758.257500", "155758.717500", "155759.177500", "155759.637500", "155800.097500", "155800.557500", "155801.017500", "155801.477500", "155801.937500", "155802.397500", "155802.857500", "155803.317500", "155803.777500", "155804.237500", "155804.697500", "155805.157500", "155805.617500", "155806.077500", "155806.537500", "155806.997500", "155807.457500", "155807.917500", "155808.377500", "155808.837500", "155809.297500", "155809.757500", "155810.217500", "155810.677500", "155811.137500", "155811.597500", "155812.057500", "155812.517500", "155812.977500", "155813.437500", "155813.897500", "155814.357500", "155814.817500", "155815.277500", "155815.737500", "155816.197500", "155816.657500", "155817.117500", "155817.577500", "155818.037500", "155818.497500", "155818.957500", "155819.417500", "155819.877500", "155820.337500", "155820.797500", "155821.257500", "155821.717500", "155822.177500", "155822.637500", "155823.097500", "155823.557500", "155824.017500", "155824.477500", "155824.937500", "155825.397500", "155825.857500", "155826.317500", "155826.777500", "155827.237500", "155827.697500", "155828.157500", "155828.617500", "155829.077500", "155829.537500", "155829.997500", "155830.457500", "155830.917500", "155831.377500", "155831.837500", "155832.297500", "155832.757500", "155833.217500", "155833.677500", "155834.137500", "155834.597500", "155835.057500", "155835.517500", "155835.977500", "155836.437500", "155836.897500", "155837.357500", "155837.817500", "155838.277500", "155838.737500", "155839.197500", "155839.657500", "155840.117500", "155840.577500", "155841.037500", "155841.497500", "155841.957500", "155842.417500", "155842.877500", "155843.337500", "155843.797500", "155844.257500", "155844.717500", "155845.177500", "155845.637500", "155846.097500", "155846.557500", "155847.017500", "155847.477500", "155847.937500", "155848.397500", "155848.857500", "155849.317500", "155849.777500", "155850.237500", "155850.697500", "155851.157500", "155851.617500", "155852.077500", "155852.537500", "155852.997500", "155853.457500", "155853.917500", "155854.377500", "155854.837500", "155855.297500", "155855.757500", "155856.217500", "155856.677500", "155857.137500", "155857.597500", "155858.057500", "155858.517500", "155858.977500", "155859.437500", "155859.897500", "155900.357500", "155900.817500", "155901.277500", "155901.737500", "155902.197500", "155902.657500", "155903.117500", "155903.577500", "155904.037500", "155904.497500", "155904.957500", "155905.417500"],
