{
  "AcquisitionMatrixPE": 82,
  "AcquisitionNumber": 1,
  "AcquisitionTime": "16:53:36.872500",
  "BandwidthPerPixelPhaseEncode": 24.888,
  "BaseResolution": 82,
  "BodyPartExamined": "BRAIN",
  "ConsistencyInfo": "N4_VE11C_LATEST_20160120",
  "ConversionSoftware": "dcm2niix",
  "ConversionSoftwareVersion": "v1.0.20201102",
  "DerivedVendorReportedEchoSpacing": 0.00049,
  "DeviceSerialNumber": "66112",
  "DwellTime": 2e-06,
  "EchoTime": 0.0272,
  "EchoTrainLength": 82,
  "EffectiveEchoSpacing": 0.00049,
  "FlipAngle": 44,
  "ImageComments": "Unaliased MB8/PE3",
  "ImageOrientationPatientDICOM": [0.992472, -0.120072, 0.024113, 0.117116, 0.988086, 0.0998523],
  "ImageType": [
    "ORIGINAL",
    "PRIMARY",
    "M",
    "MB",
    "ND",
    "NORM",
    "MOSAIC"
],
  "ImagingFrequency": 123.252,
  "InPlanePhaseEncodingDirectionDICOM": "COL",
  "InstitutionAddress": "Maynard 3,Hanover,NH,US,03755",
  "InstitutionName": "Dartmouth College - PBS",
  "InstitutionalDepartmentName": "Department",
  "MRAcquisitionType": "2D",
  "MagneticFieldStrength": 3,
  "Manufacturer": "Siemens",
  "ManufacturersModelName": "Prisma",
  "Modality": "MR",
  "MultibandAccelerationFactor": 8,
  "PartialFourier": 1,
  "PatientPosition": "HFS",
  "PercentPhaseFOV": 100,
  "PercentSampling": 100,
  "PhaseEncodingDirection": "j-",
  "PhaseEncodingSteps": 82,
  "PhaseResolution": 1,
  "PixelBandwidth": 3050,
  "ProcedureStepDescription": "Wager_Wager^1076_spacetop",
  "ProtocolName": "func_run-03_task-alignvideo_acq-ap-mb8",
  "PulseSequenceDetails": "%CustomerSeq%\\cmrr_mbep2d_bold",
  "ReceiveCoilActiveElements": "HEA;HEP",
  "ReceiveCoilName": "Head_32",
  "ReconMatrixPE": 82,
  "RepetitionTime": 0.46,
  "SAR": 0.0719599,
  "ScanOptions": "FS",
  "ScanningSequence": "EP",
  "SequenceName": "epfid2d1_82",
  "SequenceVariant": "SK\\SS",
  "SeriesDescription": "func_run-03_task-alignvideo_acq-ap-mb8",
  "SeriesNumber": 34,
  "ShimSetting": [4145, -7744, -7241, 551, -78, -193, -65, 62],
  "SliceThickness": 2.7,
  "SliceTiming": [0, 0.25, 0.0625, 0.315, 0.125, 0.3775, 0.1875, 0, 0.25, 0.0625, 0.315, 0.125, 0.3775, 0.1875, 0, 0.25, 0.0625, 0.315, 0.125, 0.3775, 0.1875, 0, 0.25, 0.0625, 0.315, 0.125, 0.3775, 0.1875, 0, 0.25, 0.0625, 0.315, 0.125, 0.3775, 0.1875, 0, 0.25, 0.0625, 0.315, 0.125, 0.3775, 0.1875, 0, 0.25, 0.0625, 0.315, 0.125, 0.3775, 0.1875, 0, 0.25, 0.0625, 0.315, 0.125, 0.3775, 0.1875],
  "SoftwareVersions": "syngo MR E11",
  "SpacingBetweenSlices": 2.7,
  "StationName": "AWP66112",
  "TaskName": "alignvideo",
  "TotalReadoutTime": 0.03969,
  "TxRefAmp": 229.808,
  "WipMemBlock": "9f1dc199-46ab-419d-930a-78eaa23b7844||Sequence: R016 ve11c/master r/e634e98; Dec 19 2017 11:00:25 by eja",
  "dcmmeta_affine": [
    [-2.6627304553985596, 0.31421253085136414, 0.09670092165470123, 95.74491882324219],
    [0.32214510440826416, 2.6509618759155273, 0.2599468529224396, -114.96015930175781],
    [0.06469328701496124, -0.2678963541984558, 2.6857171058654785, -57.74821472167969],
    [0.0, 0.0, 0.0, 1.0]
],
  "dcmmeta_reorient_transform": [
    [0.0, -1.0, 0.0, 81.0],
    [1.0, 0.0, 0.0, 0.0],
    [0.0, 0.0, 1.0, 0.0],
    [0.0, 0.0, 0.0, 1.0]
],
  "dcmmeta_shape": [82, 82, 56, 1065],
  "dcmmeta_slice_dim": 2,
  "dcmmeta_version": 0.6,
  "global": {
    "const": {
      "AccessionNumber": "A003843",
      "AcquisitionMatrix": [82, 0, 0, 82],
      "AngioFlag": "N",
      "BitsAllocated": 16,
      "BitsStored": 16,
      "BodyPartExamined": "BRAIN",
      "Columns": 656,
      "EchoNumbers": 1,
      "EchoTime": 27.2,
      "EchoTrainLength": 82,
      "FlipAngle": 44.0,
      "HighBit": 15,
      "ImageOrientationPatient": [0.99247227540773, -0.1200722617689, 0.02411295296532, 0.11711557232503, 0.98808575818273, 0.09985227686654],
      "ImagePositionPatient": [-975.57879745221, -768.13815995218, -174.90105036074],
      "ImageType": [
        "ORIGINAL",
        "PRIMARY",
        "M",
        "MB",
        "ND",
        "NORM",
        "MOSAIC"
],
      "ImagedNucleus": "1H",
      "ImagingFrequency": 123.252218,
      "InPlanePhaseEncodingDirection": "COL",
      "MRAcquisitionType": "2D",
      "MagneticFieldStrength": 3.0,
      "Manufacturer": "SIEMENS",
      "ManufacturerModelName": "Prisma",
      "Modality": "MR",
      "NumberOfAverages": 1.0,
      "NumberOfPhaseEncodingSteps": 82,
      "PercentPhaseFieldOfView": 100.0,
      "PercentSampling": 100.0,
      "PerformedProcedureStepStartTime": "151055.170000",
      "PhotometricInterpretation": "MONOCHROME2",
      "PixelBandwidth": 3050.0,
      "PixelRepresentation": 0,
      "PixelSpacing": [2.6829268932343, 2.6829268932343],
      "ProtocolName": "func_run-03_task-alignvideo_acq-ap-mb8",
      "RepetitionTime": 460.0,
      "Rows": 656,
      "SAR": 0.07195991976211,
      "SamplesPerPixel": 1,
      "ScanOptions": "FS",
      "ScanningSequence": "EP",
      "SequenceName": "epfid2d1_82",
      "SequenceVariant": [
        "SK",
        "SS"
],
      "SeriesDescription": "func_run-03_task-alignvideo_acq-ap-mb8",
      "SeriesNumber": 34,
      "SeriesTime": "165347.066000",
      "SliceLocation": -65.081586728617,
      "SliceThickness": 2.7000000476837,
      "SmallestImagePixelValue": 0,
      "SoftwareVersions": "syngo MR E11",
      "SpacingBetweenSlices": 2.7000000792595,
      "SpecificCharacterSet": "ISO_IR 100",
      "StudyID": "1",
      "StudyTime": "151055.053000",
      "TransmitCoilName": "Body",
      "VariableFlipAngleFlag": "N",
      "WindowCenterWidthExplanation": "Algo1",
      "dBdt": 0.0},
    "slices": {}
  },
  "time": {
    "samples": {
      "AcquisitionNumber": [1, 2, 3, 4, 5, 6, 7, 8, 9, 10, 11, 12, 13, 14, 15, 16, 17, 18, 19, 20, 21, 22, 23, 24, 25, 26, 27, 28, 29, 30, 31, 32, 33, 34, 35, 36, 37, 38, 39, 40, 41, 42, 43, 44, 45, 46, 47, 48, 49, 50, 51, 52, 53, 54, 55, 56, 57, 58, 59, 60, 61, 62, 63, 64, 65, 66, 67, 68, 69, 70, 71, 72, 73, 74, 75, 76, 77, 78, 79, 80, 81, 82, 83, 84, 85, 86, 87, 88, 89, 90, 91, 92, 93, 94, 95, 96, 97, 98, 99, 100, 101, 102, 103, 104, 105, 106, 107, 108, 109, 110, 111, 112, 113, 114, 115, 116, 117, 118, 119, 120, 121, 122, 123, 124, 125, 126, 127, 128, 129, 130, 131, 132, 133, 134, 135, 136, 137, 138, 139, 140, 141, 142, 143, 144, 145, 146, 147, 148, 149, 150, 151, 152, 153, 154, 155, 156, 157, 158, 159, 160, 161, 162, 163, 164, 165, 166, 167, 168, 169, 170, 171, 172, 173, 174, 175, 176, 177, 178, 179, 180, 181, 182, 183, 184, 185, 186, 187, 188, 189, 190, 191, 192, 193, 194, 195, 196, 197, 198, 199, 200, 201, 202, 203, 204, 205, 206, 207, 208, 209, 210, 211, 212, 213, 214, 215, 216, 217, 218, 219, 220, 221, 222, 223, 224, 225, 226, 227, 228, 229, 230, 231, 232, 233, 234, 235, 236, 237, 238, 239, 240, 241, 242, 243, 244, 245, 246, 247, 248, 249, 250, 251, 252, 253, 254, 255, 256, 257, 258, 259, 260, 261, 262, 263, 264, 265, 266, 267, 268, 269, 270, 271, 272, 273, 274, 275, 276, 277, 278, 279, 280, 281, 282, 283, 284, 285, 286, 287, 288, 289, 290, 291, 292, 293, 294, 295, 296, 297, 298, 299, 300, 301, 302, 303, 304, 305, 306, 307, 308, 309, 310, 311, 312, 313, 314, 315, 316, 317, 318, 319, 320, 321, 322, 323, 324, 325, 326, 327, 328, 329, 330, 331, 332, 333, 334, 335, 336, 337, 338, 339, 340, 341, 342, 343, 344, 345, 346, 347, 348, 349, 350, 351, 352, 353, 354, 355, 356, 357, 358, 359, 360, 361, 362, 363, 364, 365, 366, 367, 368, 369, 370, 371, 372, 373, 374, 375, 376, 377, 378, 379, 380, 381, 382, 383, 384, 385, 386, 387, 388, 389, 390, 391, 392, 393, 394, 395, 396, 397, 398, 399, 400, 401, 402, 403, 404, 405, 406, 407, 408, 409, 410, 411, 412, 413, 414, 415, 416, 417, 418, 419, 420, 421, 422, 423, 424, 425, 426, 427, 428, 429, 430, 431, 432, 433, 434, 435, 436, 437, 438, 439, 440, 441, 442, 443, 444, 445, 446, 447, 448, 449, 450, 451, 452, 453, 454, 455, 456, 457, 458, 459, 460, 461, 462, 463, 464, 465, 466, 467, 468, 469, 470, 471, 472, 473, 474, 475, 476, 477, 478, 479, 480, 481, 482, 483, 484, 485, 486, 487, 488, 489, 490, 491, 492, 493, 494, 495, 496, 497, 498, 499, 500, 501, 502, 503, 504, 505, 506, 507, 508, 509, 510, 511, 512, 513, 514, 515, 516, 517, 518, 519, 520, 521, 522, 523, 524, 525, 526, 527, 528, 529, 530, 531, 532, 533, 534, 535, 536, 537, 538, 539, 540, 541, 542, 543, 544, 545, 546, 547, 548, 549, 550, 551, 552, 553, 554, 555, 556, 557, 558, 559, 560, 561, 562, 563, 564, 565, 566, 567, 568, 569, 570, 571, 572, 573, 574, 575, 576, 577, 578, 579, 580, 581, 582, 583, 584, 585, 586, 587, 588, 589, 590, 591, 592, 593, 594, 595, 596, 597, 598, 599, 600, 601, 602, 603, 604, 605, 606, 607, 608, 609, 610, 611, 612, 613, 614, 615, 616, 617, 618, 619, 620, 621, 622, 623, 624, 625, 626, 627, 628, 629, 630, 631, 632, 633, 634, 635, 636, 637, 638, 639, 640, 641, 642, 643, 644, 645, 646, 647, 648, 649, 650, 651, 652, 653, 654, 655, 656, 657, 658, 659, 660, 661, 662, 663, 664, 665, 666, 667, 668, 669, 670, 671, 672, 673, 674, 675, 676, 677, 678, 679, 680, 681, 682, 683, 684, 685, 686, 687, 688, 689, 690, 691, 692, 693, 694, 695, 696, 697, 698, 699, 700, 701, 702, 703, 704, 705, 706, 707, 708, 709, 710, 711, 712, 713, 714, 715, 716, 717, 718, 719, 720, 721, 722, 723, 724, 725, 726, 727, 728, 729, 730, 731, 732, 733, 734, 735, 736, 737, 738, 739, 740, 741, 742, 743, 744, 745, 746, 747, 748, 749, 750, 751, 752, 753, 754, 755, 756, 757, 758, 759, 760, 761, 762, 763, 764, 765, 766, 767, 768, 769, 770, 771, 772, 773, 774, 775, 776, 777, 778, 779, 780, 781, 782, 783, 784, 785, 786, 787, 788, 789, 790, 791, 792, 793, 794, 795, 796, 797, 798, 799, 800, 801, 802, 803, 804, 805, 806, 807, 808, 809, 810, 811, 812, 813, 814, 815, 816, 817, 818, 819, 820, 821, 822, 823, 824, 825, 826, 827, 828, 829, 830, 831, 832, 833, 834, 835, 836, 837, 838, 839, 840, 841, 842, 843, 844, 845, 846, 847, 848, 849, 850, 851, 852, 853, 854, 855, 856, 857, 858, 859, 860, 861, 862, 863, 864, 865, 866, 867, 868, 869, 870, 871, 872, 873, 874, 875, 876, 877, 878, 879, 880, 881, 882, 883, 884, 885, 886, 887, 888, 889, 890, 891, 892, 893, 894, 895, 896, 897, 898, 899, 900, 901, 902, 903, 904, 905, 906, 907, 908, 909, 910, 911, 912, 913, 914, 915, 916, 917, 918, 919, 920, 921, 922, 923, 924, 925, 926, 927, 928, 929, 930, 931, 932, 933, 934, 935, 936, 937, 938, 939, 940, 941, 942, 943, 944, 945, 946, 947, 948, 949, 950, 951, 952, 953, 954, 955, 956, 957, 958, 959, 960, 961, 962, 963, 964, 965, 966, 967, 968, 969, 970, 971, 972, 973, 974, 975, 976, 977, 978, 979, 980, 981, 982, 983, 984, 985, 986, 987, 988, 989, 990, 991, 992, 993, 994, 995, 996, 997, 998, 999, 1000, 1001, 1002, 1003, 1004, 1005, 1006, 1007, 1008, 1009, 1010, 1011, 1012, 1013, 1014, 1015, 1016, 1017, 1018, 1019, 1020, 1021, 1022, 1023, 1024, 1025, 1026, 1027, 1028, 1029, 1030, 1031, 1032, 1033, 1034, 1035, 1036, 1037, 1038, 1039, 1040, 1041, 1042, 1043, 1044, 1045, 1046, 1047, 1048, 1049, 1050, 1051, 1052, 1053, 1054, 1055, 1056, 1057, 1058, 1059, 1060, 1061, 1062, 1063, 1064, 1065],
      "AcquisitionTime": ["165336.872500", "165337.332500", "165337.792500", "165338.252500", "165338.712500", "165339.172500", "165339.632500", "165340.092500", "165340.552500", "165341.012500", "165341.472500", "165341.932500", "165342.392500", "165342.852500", "165343.312500", "165343.772500", "165344.232500", "165344.692500", "165345.152500", "165345.612500", "165346.072500", "165346.532500", "165346.992500", "165347.452500", "165347.912500", "165348.372500", "165348.832500", "165349.292500", "165349.752500", "165350.212500", "165350.672500", "165351.132500", "165351.592500", "165352.052500", "165352.512500", "165352.972500", "165353.432500", "165353.892500", "165354.352500", "165354.812500", "165355.272500", "165355.732500", "165356.192500", "165356.652500", "165357.112500", "165357.572500", "165358.032500", "165358.492500", "165358.952500", "165359.412500", "165359.872500", "165400.332500", "165400.792500", "165401.252500", "165401.712500", "165402.172500", "165402.632500", "165403.092500", "165403.552500", "165404.012500", "165404.472500", "165404.932500", "165405.392500", "165405.852500", "165406.312500", "165406.772500", "165407.232500", "165407.692500", "165408.152500", "165408.612500", "165409.072500", "165409.532500", "165409.992500", "165410.452500", "165410.912500", "165411.372500", "165411.832500", "165412.292500", "165412.752500", "165413.212500", "165413.672500", "165414.132500", "165414.592500", "165415.052500", "165415.512500", "165415.972500", "165416.432500", "165416.892500", "165417.352500", "165417.812500", "165418.272500", "165418.732500", "165419.192500", "165419.652500", "165420.112500", "165420.572500", "165421.032500", "165421.492500", "165421.952500", "165422.412500", "165422.872500", "165423.332500", "165423.792500", "165424.252500", "165424.712500", "165425.172500", "165425.632500", "165426.092500", "165426.552500", "165427.012500", "165427.472500", "165427.932500", "165428.392500", "165428.852500", "165429.312500", "165429.772500", "165430.232500", "165430.692500", "165431.152500", "165431.612500", "165432.072500", "165432.532500", "165432.992500", "165433.452500", "165433.912500", "165434.372500", "165434.832500", "165435.292500", "165435.752500", "165436.212500", "165436.672500", "165437.132500", "165437.592500", "165438.052500", "165438.512500", "165438.972500", "165439.432500", "165439.892500", "165440.352500", "165440.812500", "165441.272500", "165441.732500", "165442.192500", "165442.652500", "165443.112500", "165443.572500", "165444.032500", "165444.492500", "165444.952500", "165445.412500", "165445.872500", "165446.332500", "165446.792500", "165447.252500", "165447.712500", "165448.172500", "165448.632500", "165449.092500", "165449.552500", "165450.012500", "165450.472500", "165450.932500", "165451.392500", "165451.852500", "165452.312500", "165452.772500", "165453.232500", "165453.692500", "165454.152500", "165454.612500", "165455.072500", "165455.532500", "165455.992500", "165456.452500", "165456.912500", "165457.372500", "165457.832500", "165458.292500", "165458.752500", "165459.212500", "165459.672500", "165500.132500", "165500.592500", "165501.052500", "165501.512500", "165501.972500", "165502.432500", "165502.892500", "165503.352500", "165503.812500", "165504.272500", "165504.732500", "165505.192500", "165505.652500", "165506.112500", "165506.572500", "165507.032500", "165507.492500", "165507.952500", "165508.412500", "165508.872500", "165509.332500", "165509.792500", "165510.252500", "165510.712500", "165511.172500", "165511.632500", "165512.092500", "165512.552500", "165513.012500", "165513.472500", "165513.932500", "165514.392500", "165514.852500", "165515.312500", "165515.772500", "165516.232500", "165516.692500", "165517.152500", "165517.612500", "165518.072500", "165518.532500", "165518.992500", "165519.452500", "165519.912500", "165520.372500", "165520.832500", "165521.292500", "165521.752500", "165522.212500", "165522.672500", "165523.132500", "165523.592500", "165524.052500", "165524.512500", "165524.972500", "165525.432500", "165525.892500", "165526.352500", "165526.812500", "165527.272500", "165527.732500", "165528.192500", "165528.652500", "165529.112500", "165529.572500", "165530.032500", "165530.492500", "165530.952500", "165531.412500", "165531.872500", "165532.332500", "165532.792500", "165533.252500", "165533.712500", "165534.172500", "165534.632500", "165535.092500", "165535.552500", "165536.012500", "165536.472500", "165536.932500", "165537.392500", "165537.852500", "165538.312500", "165538.772500", "165539.232500", "165539.692500", "165540.152500", "165540.612500", "165541.072500", "165541.532500", "165541.992500", "165542.452500", "165542.912500", "165543.372500", "165543.832500", "165544.292500", "165544.752500", "165545.212500", "165545.672500", "165546.132500", "165546.592500", "165547.052500", "165547.512500", "165547.972500", "165548.432500", "165548.892500", "165549.352500", "165549.812500", "165550.272500", "165550.732500", "165551.192500", "165551.652500", "165552.112500", "165552.572500", "165553.032500", "165553.492500", "165553.952500", "165554.412500", "165554.872500", "165555.332500", "165555.792500", "165556.252500", "165556.712500", "165557.172500", "165557.632500", "165558.092500", "165558.552500", "165559.012500", "165559.472500", "165559.932500", "165600.392500", "165600.852500", "165601.312500", "165601.772500", "165602.232500", "165602.692500", "165603.152500", "165603.612500", "165604.072500", "165604.532500", "165604.992500", "165605.452500", "165605.912500", "165606.372500", "165606.832500", "165607.292500", "165607.752500", "165608.212500", "165608.672500", "165609.132500", "165609.592500", "165610.052500", "165610.512500", "165610.972500", "165611.432500", "165611.892500", "165612.352500", "165612.812500", "165613.272500", "165613.732500", "165614.192500", "165614.652500", "165615.112500", "165615.572500", "165616.032500", "165616.492500", "165616.952500", "165617.412500", "165617.872500", "165618.332500", "165618.792500", "165619.252500", "165619.712500", "165620.172500", "165620.632500", "165621.092500", "165621.552500", "165622.012500", "165622.472500", "165622.932500", "165623.392500", "165623.852500", "165624.312500", "165624.772500", "165625.232500", "165625.692500", "165626.152500", "165626.612500", "165627.072500", "165627.532500", "165627.992500", "165628.452500", "165628.912500", "165629.372500", "165629.832500", "165630.292500", "165630.752500", "165631.212500", "165631.672500", "165632.132500", "165632.592500", "165633.052500", "165633.512500", "165633.972500", "165634.432500", "165634.892500", "165635.352500", "165635.812500", "165636.272500", "165636.732500", "165637.192500", "165637.652500", "165638.112500", "165638.572500", "165639.032500", "165639.492500", "165639.952500", "165640.412500", "165640.872500", "165641.332500", "165641.792500", "165642.252500", "165642.712500", "165643.172500", "165643.632500", "165644.092500", "165644.552500", "165645.012500", "165645.472500", "165645.932500", "165646.392500", "165646.852500", "165647.312500", "165647.772500", "165648.232500", "165648.692500", "165649.152500", "165649.612500", "165650.072500", "165650.532500", "165650.992500", "165651.452500", "165651.912500", "165652.372500", "165652.832500", "165653.292500", "165653.752500", "165654.212500", "165654.672500", "165655.132500", "165655.592500", "165656.052500", "165656.512500", "165656.972500", "165657.432500", "165657.892500", "165658.352500", "165658.812500", "165659.272500", "165659.732500", "165700.192500", "165700.652500", "165701.112500", "165701.572500", "165702.032500", "165702.492500", "165702.952500", "165703.412500", "165703.872500", "165704.332500", "165704.792500", "165705.252500", "165705.712500", "165706.172500", "165706.632500", "165707.092500", "165707.552500", "165708.012500", "165708.472500", "165708.932500", "165709.392500", "165709.852500", "165710.312500", "165710.772500", "165711.232500", "165711.692500", "165712.152500", "165712.612500", "165713.072500", "165713.532500", "165713.992500", "165714.452500", "165714.912500", "165715.372500", "165715.832500", "165716.292500", "165716.752500", "165717.212500", "165717.672500", "165718.132500", "165718.592500", "165719.052500", "165719.512500", "165719.972500", "165720.432500", "165720.892500", "165721.352500", "165721.812500", "165722.272500", "165722.732500", "165723.192500", "165723.652500", "165724.112500", "165724.572500", "165725.032500", "165725.492500", "165725.952500", "165726.412500", "165726.872500", "165727.332500", "165727.792500", "165728.252500", "165728.712500", "165729.172500", "165729.632500", "165730.092500", "165730.552500", "165731.012500", "165731.472500", "165731.932500", "165732.392500", "165732.852500", "165733.312500", "165733.772500", "165734.232500", "165734.692500", "165735.152500", "165735.612500", "165736.072500", "165736.532500", "165736.992500", "165737.452500", "165737.912500", "165738.372500", "165738.832500", "165739.292500", "165739.752500", "165740.212500", "165740.672500", "165741.132500", "165741.592500", "165742.052500", "165742.512500", "165742.972500", "165743.432500", "165743.892500", "165744.352500", "165744.812500", "165745.272500", "165745.732500", "165746.192500", "165746.652500", "165747.112500", "165747.572500", "165748.032500", "165748.492500", "165748.952500", "165749.412500", "165749.872500", "165750.332500", "165750.792500", "165751.252500", "165751.712500", "165752.172500", "165752.632500", "165753.092500", "165753.552500", "165754.012500", "165754.472500", "165754.932500", "165755.392500", "165755.852500", "165756.312500", "165756.772500", "165757.232500", "165757.692500", "165758.152500", "165758.612500", "165759.072500", "165759.532500", "165759.992500", "165800.452500", "165800.912500", "165801.372500", "165801.832500", "165802.292500", "165802.752500", "165803.212500", "165803.672500", "165804.132500", "165804.592500", "165805.052500", "165805.512500", "165805.972500", "165806.432500", "165806.892500", "165807.352500", "165807.812500", "165808.272500", "165808.732500", "165809.192500", "165809.652500", "165810.112500", "165810.572500", "165811.032500", "165811.492500", "165811.952500", "165812.412500", "165812.872500", "165813.332500", "165813.792500", "165814.252500", "165814.712500", "165815.172500", "165815.632500", "165816.092500", "165816.552500", "165817.012500", "165817.472500", "165817.932500", "165818.392500", "165818.852500", "165819.312500", "165819.772500", "165820.232500", "165820.692500", "165821.152500", "165821.612500", "165822.072500", "165822.532500", "165822.992500", "165823.452500", "165823.912500", "165824.372500", "165824.832500", "165825.292500", "165825.752500", "165826.212500", "165826.672500", "165827.132500", "165827.592500", "165828.052500", "165828.512500", "165828.972500", "165829.432500", "165829.892500", "165830.352500", "165830.812500", "165831.272500", "165831.732500", "165832.192500", "165832.652500", "165833.112500", "165833.572500", "165834.032500", "165834.492500", "165834.952500", "165835.412500", "165835.872500", "165836.332500", "165836.792500", "165837.252500", "165837.712500", "165838.172500", "165838.632500", "165839.092500", "165839.552500", "165840.012500", "165840.472500", "165840.932500", "165841.392500", "165841.852500", "165842.312500", "165842.772500", "165843.232500", "165843.692500", "165844.152500", "165844.612500", "165845.072500", "165845.532500", "165845.992500", "165846.452500", "165846.912500", "165847.372500", "165847.832500", "165848.292500", "165848.752500", "165849.212500", "165849.672500", "165850.132500", "165850.592500", "165851.052500", "165851.512500", "165851.972500", "165852.432500", "165852.892500", "165853.352500", "165853.812500", "165854.272500", "165854.732500", "165855.192500", "165855.652500", "165856.112500", "165856.572500", "165857.032500", "165857.492500", "165857.952500", "165858.412500", "165858.872500", "165859.332500", "165859.792500", "165900.252500", "165900.712500", "165901.172500", "165901.632500", "165902.092500", "165902.552500", "165903.012500", "165903.472500", "165903.932500", "165904.392500", "165904.852500", "165905.312500", "165905.772500", "165906.232500", "165906.692500", "165907.152500", "165907.612500", "165908.072500", "165908.532500", "165908.992500", "165909.452500", "165909.912500", "165910.372500", "165910.832500", "165911.292500", "165911.752500", "165912.212500", "165912.672500", "165913.132500", "165913.592500", "165914.052500", "165914.512500", "165914.972500", "165915.432500", "165915.892500", "165916.352500", "165916.812500", "165917.272500", "165917.732500", "165918.192500", "165918.652500", "165919.112500", "165919.572500", "165920.032500", "165920.492500", "165920.952500", "165921.412500", "165921.872500", "165922.332500", "165922.792500", "165923.252500", "165923.712500", "165924.172500", "165924.632500", "165925.092500", "165925.552500", "165926.012500", "165926.472500", "165926.932500", "165927.392500", "165927.852500", "165928.312500", "165928.772500", "165929.232500", "165929.692500", "165930.152500", "165930.612500", "165931.072500", "165931.532500", "165931.992500", "165932.452500", "165932.912500", "165933.372500", "165933.832500", "165934.292500", "165934.752500", "165935.212500", "165935.672500", "165936.132500", "165936.592500", "165937.052500", "165937.512500", "165937.972500", "165938.432500", "165938.892500", "165939.352500", "165939.812500", "165940.272500", "165940.732500", "165941.192500", "165941.652500", "165942.112500", "165942.572500", "165943.032500", "165943.492500", "165943.952500", "165944.412500", "165944.872500", "165945.332500", "165945.792500", "165946.252500", "165946.712500", "165947.172500", "165947.632500", "165948.092500", "165948.552500", "165949.012500", "165949.472500", "165949.932500", "165950.392500", "165950.852500", "165951.312500", "165951.772500", "165952.232500", "165952.692500", "165953.152500", "165953.612500", "165954.072500", "165954.532500", "165954.992500", "165955.452500", "165955.912500", "165956.372500", "165956.832500", "165957.292500", "165957.752500", "165958.212500", "165958.672500", "165959.132500", "165959.592500", "170000.052500", "170000.512500", "170000.972500", "170001.432500", "170001.892500", "170002.352500", "170002.812500", "170003.272500", "170003.732500", "170004.192500", "170004.652500", "170005.112500", "170005.572500", "170006.032500", "170006.492500", "170006.952500", "170007.412500", "170007.872500", "170008.332500", "170008.792500", "170009.252500", "170009.712500", "170010.172500", "170010.632500", "170011.092500", "170011.552500", "170012.012500", "170012.472500", "170012.932500", "170013.392500", "170013.852500", "170014.312500", "170014.772500", "170015.232500", "170015.692500", "170016.152500", "170016.612500", "170017.072500", "170017.532500", "170017.992500", "170018.452500", "170018.912500", "170019.372500", "170019.832500", "170020.292500", "170020.752500", "170021.212500", "170021.672500", "170022.132500", "170022.592500", "170023.052500", "170023.512500", "170023.972500", "170024.432500", "170024.892500", "170025.352500", "170025.812500", "170026.272500", "170026.732500", "170027.192500", "170027.652500", "170028.112500", "170028.572500", "170029.032500", "170029.492500", "170029.952500", "170030.412500", "170030.872500", "170031.332500", "170031.792500", "170032.252500", "170032.712500", "170033.172500", "170033.632500", "170034.092500", "170034.552500", "170035.012500", "170035.472500", "170035.932500", "170036.392500", "170036.852500", "170037.312500", "170037.772500", "170038.232500", "170038.692500", "170039.152500", "170039.612500", "170040.072500", "170040.532500", "170040.992500", "170041.452500", "170041.912500", "170042.372500", "170042.832500", "170043.292500", "170043.752500", "170044.212500", "170044.672500", "170045.132500", "170045.592500", "170046.052500", "170046.512500", "170046.972500", "170047.432500", "170047.892500", "170048.352500", "170048.812500", "170049.272500", "170049.732500", "170050.192500", "170050.652500", "170051.112500", "170051.572500", "170052.032500", "170052.492500", "170052.952500", "170053.412500", "170053.872500", "170054.332500", "170054.792500", "170055.252500", "170055.712500", "170056.172500", "170056.632500", "170057.092500", "170057.552500", "170058.012500", "170058.472500", "170058.932500", "170059.392500", "170059.852500", "170100.312500", "170100.772500", "170101.232500", "170101.692500", "170102.152500", "170102.612500", "170103.072500", "170103.532500", "170103.992500", "170104.452500", "170104.912500", "170105.372500", "170105.832500", "170106.292500", "170106.752500", "170107.212500", "170107.672500", "170108.132500", "170108.592500", "170109.052500", "170109.512500", "170109.972500", "170110.432500", "170110.892500", "170111.352500", "170111.812500", "170112.272500", "170112.732500", "170113.192500", "170113.652500", "170114.112500", "170114.572500", "170115.032500", "170115.492500", "170115.952500", "170116.412500", "170116.872500", "170117.332500", "170117.792500", "170118.252500", "170118.712500", "170119.172500", "170119.632500", "170120.092500", "170120.552500", "170121.012500", "170121.472500", "170121.932500", "170122.392500", "170122.852500", "170123.312500", "170123.772500", "170124.232500", "170124.692500", "170125.152500", "170125.612500", "170126.072500", "170126.532500", "170126.992500", "170127.452500", "170127.912500", "170128.372500", "170128.832500", "170129.292500", "170129.752500", "170130.212500", "170130.672500", "170131.132500", "170131.592500", "170132.052500", "170132.512500", "170132.972500", "170133.432500", "170133.892500", "170134.352500", "170134.812500", "170135.272500", "170135.732500", "170136.192500", "170136.652500", "170137.112500", "170137.572500", "170138.032500", "170138.492500", "170138.952500", "170139.412500", "170139.872500", "170140.332500", "170140.792500", "170141.252500", "170141.712500", "170142.172500", "170142.632500", "170143.092500", "170143.552500", "170144.012500", "170144.472500", "170144.932500", "170145.392500", "170145.852500", "170146.312500"],
