{
  "AcquisitionMatrixPE": 82,
  "AcquisitionNumber": 1,
  "AcquisitionTime": "13:15:15.870000",
  "BandwidthPerPixelPhaseEncode": 24.888,
  "BaseResolution": 82,
  "BodyPartExamined": "BRAIN",
  "ConsistencyInfo": "N4_VE11E_LATEST_20181129",
  "ConversionSoftware": "dcm2niix",
  "ConversionSoftwareVersion": "v1.0.20201102",
  "DerivedVendorReportedEchoSpacing": 0.00049,
  "DeviceSerialNumber": "66112",
  "DwellTime": 2e-06,
  "EchoTime": 0.0272,
  "EchoTrainLength": 82,
  "EffectiveEchoSpacing": 0.00049,
  "FlipAngle": 44,
  "ImageComments": "Unaliased MB8/PE3",
  "ImageOrientationPatientDICOM": [0.999259, 0.0227327, -0.0310731, -0.0231999, 0.999622, -0.0147555],
  "ImageType": [
    "ORIGINAL",
    "PRIMARY",
    "M",
    "MB",
    "ND",
    "NORM",
    "MOSAIC"
],
  "ImagingFrequency": 123.259,
  "InPlanePhaseEncodingDirectionDICOM": "COL",
  "InstitutionAddress": "Maynard 3,Hanover,NH,US,03755",
  "InstitutionName": "Dartmouth College - PBS",
  "InstitutionalDepartmentName": "Department",
  "MRAcquisitionType": "2D",
  "MagneticFieldStrength": 3,
  "Manufacturer": "Siemens",
  "ManufacturersModelName": "Prisma",
  "Modality": "MR",
  "MultibandAccelerationFactor": 8,
  "PartialFourier": 1,
  "PatientPosition": "HFS",
  "PercentPhaseFOV": 100,
  "PercentSampling": 100,
  "PhaseEncodingDirection": "j-",
  "PhaseEncodingSteps": 82,
  "PhaseResolution": 1,
  "PixelBandwidth": 3050,
  "ProcedureStepDescription": "Wager_Wager^1076_spacetop",
  "ProtocolName": "func_run-01_task-alignvideo_acq-ap-mb8",
  "PulseSequenceDetails": "%CustomerSeq%\\cmrr_mbep2d_bold",
  "ReceiveCoilActiveElements": "HEA;HEP",
  "ReceiveCoilName": "Head_32",
  "ReconMatrixPE": 82,
  "RepetitionTime": 0.46,
  "SAR": 0.112471,
  "ScanOptions": "FS",
  "ScanningSequence": "EP",
  "SequenceName": "epfid2d1_82",
  "SequenceVariant": "SK\\SS",
  "SeriesDescription": "func_run-01_task-alignvideo_acq-ap-mb8",
  "SeriesNumber": 30,
  "ShimSetting": [4225, -7754, -7257, 136, -100, -12, 59, 132],
  "SliceThickness": 2.7,
  "SliceTiming": [0, 0.25, 0.0625, 0.3125, 0.125, 0.3775, 0.1875, 0, 0.25, 0.0625, 0.3125, 0.125, 0.3775, 0.1875, 0, 0.25, 0.0625, 0.3125, 0.125, 0.3775, 0.1875, 0, 0.25, 0.0625, 0.3125, 0.125, 0.3775, 0.1875, 0, 0.25, 0.0625, 0.3125, 0.125, 0.3775, 0.1875, 0, 0.25, 0.0625, 0.3125, 0.125, 0.3775, 0.1875, 0, 0.25, 0.0625, 0.3125, 0.125, 0.3775, 0.1875, 0, 0.25, 0.0625, 0.3125, 0.125, 0.3775, 0.1875],
  "SoftwareVersions": "syngo MR E11",
  "SpacingBetweenSlices": 2.7,
  "StationName": "AWP66112",
  "TaskName": "alignvideo",
  "TotalReadoutTime": 0.03969,
  "TxRefAmp": 248.67,
  "WipMemBlock": "623149ec-8ea9-4cc7-b52d-d5ec2e4522e7||Sequence: R016 ve11e/master r/434b28f1; Aug  7 2019 18:53:46 by eja",
  "dcmmeta_affine": [
    [-2.6809377670288086, -0.0622435063123703, -0.08296004682779312, 116.25617980957031],
    [-0.06099029257893562, 2.681912660598755, -0.04175671935081482, -91.37535858154297],
    [-0.08336692303419113, 0.039587926119565964, 2.698402166366577, -72.18623352050781],
    [0.0, 0.0, 0.0, 1.0]
],
  "dcmmeta_reorient_transform": [
    [0.0, -1.0, 0.0, 81.0],
    [1.0, 0.0, 0.0, 0.0],
    [0.0, 0.0, 1.0, 0.0],
    [0.0, 0.0, 0.0, 1.0]
],
  "dcmmeta_shape": [82, 82, 56, 1073],
  "dcmmeta_slice_dim": 2,
  "dcmmeta_version": 0.6,
  "global": {
    "const": {
      "AccessionNumber": "A004806",
      "AcquisitionMatrix": [82, 0, 0, 82],
      "AngioFlag": "N",
      "BitsAllocated": 16,
      "BitsStored": 16,
      "BodyPartExamined": "BRAIN",
      "Columns": 656,
      "EchoNumbers": 1,
      "EchoTime": 27.2,
      "EchoTrainLength": 82,
      "FlipAngle": 44.0,
      "HighBit": 15,
      "ImageOrientationPatient": [0.99925856674529, 0.02273274544121, -0.0310731245749, -0.0231998519347, 0.99962194959068, -0.0147554995425],
      "ImagePositionPatient": [-862.77968121681, -913.07269819816, -33.691569397686],
      "ImageType": [
        "ORIGINAL",
        "PRIMARY",
        "M",
        "MB",
        "ND",
        "NORM",
        "MOSAIC"
],
      "ImagedNucleus": "1H",
      "ImagingFrequency": 123.259083,
      "InPlanePhaseEncodingDirection": "COL",
      "MRAcquisitionType": "2D",
      "MagneticFieldStrength": 3.0,
      "Manufacturer": "SIEMENS",
      "ManufacturerModelName": "Prisma",
      "Modality": "MR",
      "NumberOfAverages": 1.0,
      "NumberOfPhaseEncodingSteps": 82,
      "PercentPhaseFieldOfView": 100.0,
      "PercentSampling": 100.0,
      "PerformedProcedureStepStartTime": "113728.177000",
      "PhotometricInterpretation": "MONOCHROME2",
      "PixelBandwidth": 3050.0,
      "PixelRepresentation": 0,
      "PixelSpacing": [2.6829268932343, 2.6829268932343],
      "ProtocolName": "func_run-01_task-alignvideo_acq-ap-mb8",
      "RepetitionTime": 460.0,
      "Rows": 656,
      "SAR": 0.11247071163904,
      "SamplesPerPixel": 1,
      "ScanOptions": "FS",
      "ScanningSequence": "EP",
      "SequenceName": "epfid2d1_82",
      "SequenceVariant": [
        "SK",
        "SS"
],
      "SeriesDescription": "func_run-01_task-alignvideo_acq-ap-mb8",
      "SeriesNumber": 30,
      "SeriesTime": "131543.725000",
      "SliceLocation": -74.302432231934,
      "SliceThickness": 2.7000000476837,
      "SmallestImagePixelValue": 0,
      "SoftwareVersions": "syngo MR E11",
      "SpacingBetweenSlices": 2.7000000063532,
      "SpecificCharacterSet": "ISO_IR 100",
      "StudyID": "1",
      "StudyTime": "113728.078000",
      "TransmitCoilName": "Body",
      "VariableFlipAngleFlag": "N",
      "WindowCenterWidthExplanation": "Algo1"
    },
    "slices": {}
  },
  "time": {
    "samples": {
      "AcquisitionNumber": [1, 2, 3, 4, 5, 6, 7, 8, 9, 10, 11, 12, 13, 14, 15, 16, 17, 18, 19, 20, 21, 22, 23, 24, 25, 26, 27, 28, 29, 30, 31, 32, 33, 34, 35, 36, 37, 38, 39, 40, 41, 42, 43, 44, 45, 46, 47, 48, 49, 50, 51, 52, 53, 54, 55, 56, 57, 58, 59, 60, 61, 62, 63, 64, 65, 66, 67, 68, 69, 70, 71, 72, 73, 74, 75, 76, 77, 78, 79, 80, 81, 82, 83, 84, 85, 86, 87, 88, 89, 90, 91, 92, 93, 94, 95, 96, 97, 98, 99, 100, 101, 102, 103, 104, 105, 106, 107, 108, 109, 110, 111, 112, 113, 114, 115, 116, 117, 118, 119, 120, 121, 122, 123, 124, 125, 126, 127, 128, 129, 130, 131, 132, 133, 134, 135, 136, 137, 138, 139, 140, 141, 142, 143, 144, 145, 146, 147, 148, 149, 150, 151, 152, 153, 154, 155, 156, 157, 158, 159, 160, 161, 162, 163, 164, 165, 166, 167, 168, 169, 170, 171, 172, 173, 174, 175, 176, 177, 178, 179, 180, 181, 182, 183, 184, 185, 186, 187, 188, 189, 190, 191, 192, 193, 194, 195, 196, 197, 198, 199, 200, 201, 202, 203, 204, 205, 206, 207, 208, 209, 210, 211, 212, 213, 214, 215, 216, 217, 218, 219, 220, 221, 222, 223, 224, 225, 226, 227, 228, 229, 230, 231, 232, 233, 234, 235, 236, 237, 238, 239, 240, 241, 242, 243, 244, 245, 246, 247, 248, 249, 250, 251, 252, 253, 254, 255, 256, 257, 258, 259, 260, 261, 262, 263, 264, 265, 266, 267, 268, 269, 270, 271, 272, 273, 274, 275, 276, 277, 278, 279, 280, 281, 282, 283, 284, 285, 286, 287, 288, 289, 290, 291, 292, 293, 294, 295, 296, 297, 298, 299, 300, 301, 302, 303, 304, 305, 306, 307, 308, 309, 310, 311, 312, 313, 314, 315, 316, 317, 318, 319, 320, 321, 322, 323, 324, 325, 326, 327, 328, 329, 330, 331, 332, 333, 334, 335, 336, 337, 338, 339, 340, 341, 342, 343, 344, 345, 346, 347, 348, 349, 350, 351, 352, 353, 354, 355, 356, 357, 358, 359, 360, 361, 362, 363, 364, 365, 366, 367, 368, 369, 370, 371, 372, 373, 374, 375, 376, 377, 378, 379, 380, 381, 382, 383, 384, 385, 386, 387, 388, 389, 390, 391, 392, 393, 394, 395, 396, 397, 398, 399, 400, 401, 402, 403, 404, 405, 406, 407, 408, 409, 410, 411, 412, 413, 414, 415, 416, 417, 418, 419, 420, 421, 422, 423, 424, 425, 426, 427, 428, 429, 430, 431, 432, 433, 434, 435, 436, 437, 438, 439, 440, 441, 442, 443, 444, 445, 446, 447, 448, 449, 450, 451, 452, 453, 454, 455, 456, 457, 458, 459, 460, 461, 462, 463, 464, 465, 466, 467, 468, 469, 470, 471, 472, 473, 474, 475, 476, 477, 478, 479, 480, 481, 482, 483, 484, 485, 486, 487, 488, 489, 490, 491, 492, 493, 494, 495, 496, 497, 498, 499, 500, 501, 502, 503, 504, 505, 506, 507, 508, 509, 510, 511, 512, 513, 514, 515, 516, 517, 518, 519, 520, 521, 522, 523, 524, 525, 526, 527, 528, 529, 530, 531, 532, 533, 534, 535, 536, 537, 538, 539, 540, 541, 542, 543, 544, 545, 546, 547, 548, 549, 550, 551, 552, 553, 554, 555, 556, 557, 558, 559, 560, 561, 562, 563, 564, 565, 566, 567, 568, 569, 570, 571, 572, 573, 574, 575, 576, 577, 578, 579, 580, 581, 582, 583, 584, 585, 586, 587, 588, 589, 590, 591, 592, 593, 594, 595, 596, 597, 598, 599, 600, 601, 602, 603, 604, 605, 606, 607, 608, 609, 610, 611, 612, 613, 614, 615, 616, 617, 618, 619, 620, 621, 622, 623, 624, 625, 626, 627, 628, 629, 630, 631, 632, 633, 634, 635, 636, 637, 638, 639, 640, 641, 642, 643, 644, 645, 646, 647, 648, 649, 650, 651, 652, 653, 654, 655, 656, 657, 658, 659, 660, 661, 662, 663, 664, 665, 666, 667, 668, 669, 670, 671, 672, 673, 674, 675, 676, 677, 678, 679, 680, 681, 682, 683, 684, 685, 686, 687, 688, 689, 690, 691, 692, 693, 694, 695, 696, 697, 698, 699, 700, 701, 702, 703, 704, 705, 706, 707, 708, 709, 710, 711, 712, 713, 714, 715, 716, 717, 718, 719, 720, 721, 722, 723, 724, 725, 726, 727, 728, 729, 730, 731, 732, 733, 734, 735, 736, 737, 738, 739, 740, 741, 742, 743, 744, 745, 746, 747, 748, 749, 750, 751, 752, 753, 754, 755, 756, 757, 758, 759, 760, 761, 762, 763, 764, 765, 766, 767, 768, 769, 770, 771, 772, 773, 774, 775, 776, 777, 778, 779, 780, 781, 782, 783, 784, 785, 786, 787, 788, 789, 790, 791, 792, 793, 794, 795, 796, 797, 798, 799, 800, 801, 802, 803, 804, 805, 806, 807, 808, 809, 810, 811, 812, 813, 814, 815, 816, 817, 818, 819, 820, 821, 822, 823, 824, 825, 826, 827, 828, 829, 830, 831, 832, 833, 834, 835, 836, 837, 838, 839, 840, 841, 842, 843, 844, 845, 846, 847, 848, 849, 850, 851, 852, 853, 854, 855, 856, 857, 858, 859, 860, 861, 862, 863, 864, 865, 866, 867, 868, 869, 870, 871, 872, 873, 874, 875, 876, 877, 878, 879, 880, 881, 882, 883, 884, 885, 886, 887, 888, 889, 890, 891, 892, 893, 894, 895, 896, 897, 898, 899, 900, 901, 902, 903, 904, 905, 906, 907, 908, 909, 910, 911, 912, 913, 914, 915, 916, 917, 918, 919, 920, 921, 922, 923, 924, 925, 926, 927, 928, 929, 930, 931, 932, 933, 934, 935, 936, 937, 938, 939, 940, 941, 942, 943, 944, 945, 946, 947, 948, 949, 950, 951, 952, 953, 954, 955, 956, 957, 958, 959, 960, 961, 962, 963, 964, 965, 966, 967, 968, 969, 970, 971, 972, 973, 974, 975, 976, 977, 978, 979, 980, 981, 982, 983, 984, 985, 986, 987, 988, 989, 990, 991, 992, 993, 994, 995, 996, 997, 998, 999, 1000, 1001, 1002, 1003, 1004, 1005, 1006, 1007, 1008, 1009, 1010, 1011, 1012, 1013, 1014, 1015, 1016, 1017, 1018, 1019, 1020, 1021, 1022, 1023, 1024, 1025, 1026, 1027, 1028, 1029, 1030, 1031, 1032, 1033, 1034, 1035, 1036, 1037, 1038, 1039, 1040, 1041, 1042, 1043, 1044, 1045, 1046, 1047, 1048, 1049, 1050, 1051, 1052, 1053, 1054, 1055, 1056, 1057, 1058, 1059, 1060, 1061, 1062, 1063, 1064, 1065, 1066, 1067, 1068, 1069, 1070, 1071, 1072, 1073],
      "AcquisitionTime": ["131515.870000", "131516.330000", "131516.790000", "131517.250000", "131517.710000", "131518.170000", "131518.630000", "131519.090000", "131519.550000", "131520.010000", "131520.470000", "131520.930000", "131521.390000", "131521.850000", "131522.310000", "131522.770000", "131523.230000", "131523.690000", "131524.150000", "131524.610000", "131525.070000", "131525.530000", "131525.990000", "131526.450000", "131526.910000", "131527.370000", "131527.830000", "131528.290000", "131528.750000", "131529.210000", "131529.670000", "131530.130000", "131530.590000", "131531.050000", "131531.510000", "131531.970000", "131532.430000", "131532.890000", "131533.350000", "131533.810000", "131534.270000", "131534.730000", "131535.190000", "131535.650000", "131536.110000", "131536.570000", "131537.030000", "131537.490000", "131537.950000", "131538.410000", "131538.870000", "131539.330000", "131539.790000", "131540.250000", "131540.710000", "131541.170000", "131541.630000", "131542.090000", "131542.550000", "131543.010000", "131543.470000", "131543.930000", "131544.390000", "131544.850000", "131545.310000", "131545.770000", "131546.230000", "131546.690000", "131547.150000", "131547.610000", "131548.070000", "131548.530000", "131548.990000", "131549.450000", "131549.910000", "131550.370000", "131550.830000", "131551.290000", "131551.750000", "131552.210000", "131552.670000", "131553.130000", "131553.590000", "131554.050000", "131554.510000", "131554.970000", "131555.430000", "131555.890000", "131556.350000", "131556.810000", "131557.270000", "131557.730000", "131558.190000", "131558.650000", "131559.110000", "131559.570000", "131600.030000", "131600.490000", "131600.950000", "131601.410000", "131601.870000", "131602.330000", "131602.790000", "131603.250000", "131603.710000", "131604.170000", "131604.630000", "131605.090000", "131605.550000", "131606.010000", "131606.470000", "131606.930000", "131607.390000", "131607.850000", "131608.310000", "131608.770000", "131609.230000", "131609.690000", "131610.150000", "131610.610000", "131611.070000", "131611.530000", "131611.990000", "131612.450000", "131612.910000", "131613.370000", "131613.830000", "131614.290000", "131614.750000", "131615.210000", "131615.670000", "131616.130000", "131616.590000", "131617.050000", "131617.510000", "131617.970000", "131618.430000", "131618.890000", "131619.350000", "131619.810000", "131620.270000", "131620.730000", "131621.190000", "131621.650000", "131622.110000", "131622.570000", "131623.030000", "131623.490000", "131623.950000", "131624.410000", "131624.870000", "131625.330000", "131625.790000", "131626.250000", "131626.710000", "131627.170000", "131627.630000", "131628.090000", "131628.550000", "131629.010000", "131629.470000", "131629.930000", "131630.390000", "131630.850000", "131631.310000", "131631.770000", "131632.230000", "131632.690000", "131633.150000", "131633.610000", "131634.070000", "131634.530000", "131634.990000", "131635.450000", "131635.910000", "131636.370000", "131636.830000", "131637.290000", "131637.750000", "131638.210000", "131638.670000", "131639.130000", "131639.590000", "131640.050000", "131640.510000", "131640.970000", "131641.430000", "131641.890000", "131642.350000", "131642.810000", "131643.270000", "131643.730000", "131644.190000", "131644.650000", "131645.110000", "131645.570000", "131646.030000", "131646.490000", "131646.950000", "131647.410000", "131647.870000", "131648.330000", "131648.790000", "131649.250000", "131649.710000", "131650.170000", "131650.630000", "131651.090000", "131651.550000", "131652.010000", "131652.470000", "131652.930000", "131653.390000", "131653.850000", "131654.310000", "131654.770000", "131655.230000", "131655.690000", "131656.150000", "131656.610000", "131657.070000", "131657.530000", "131657.990000", "131658.450000", "131658.910000", "131659.370000", "131659.830000", "131700.290000", "131700.750000", "131701.210000", "131701.670000", "131702.130000", "131702.590000", "131703.050000", "131703.510000", "131703.970000", "131704.430000", "131704.890000", "131705.350000", "131705.810000", "131706.270000", "131706.730000", "131707.190000", "131707.650000", "131708.110000", "131708.570000", "131709.030000", "131709.490000", "131709.950000", "131710.410000", "131710.870000", "131711.330000", "131711.790000", "131712.250000", "131712.710000", "131713.170000", "131713.630000", "131714.090000", "131714.550000", "131715.010000", "131715.470000", "131715.930000", "131716.390000", "131716.850000", "131717.310000", "131717.770000", "131718.230000", "131718.690000", "131719.150000", "131719.610000", "131720.070000", "131720.530000", "131720.990000", "131721.450000", "131721.910000", "131722.370000", "131722.830000", "131723.290000", "131723.750000", "131724.210000", "131724.670000", "131725.130000", "131725.590000", "131726.050000", "131726.510000", "131726.970000", "131727.430000", "131727.890000", "131728.350000", "131728.810000", "131729.270000", "131729.730000", "131730.190000", "131730.650000", "131731.110000", "131731.570000", "131732.030000", "131732.490000", "131732.950000", "131733.410000", "131733.870000", "131734.330000", "131734.790000", "131735.250000", "131735.710000", "131736.170000", "131736.630000", "131737.090000", "131737.550000", "131738.010000", "131738.470000", "131738.930000", "131739.390000", "131739.850000", "131740.310000", "131740.770000", "131741.230000", "131741.690000", "131742.150000", "131742.610000", "131743.070000", "131743.530000", "131743.990000", "131744.450000", "131744.910000", "131745.370000", "131745.830000", "131746.290000", "131746.750000", "131747.210000", "131747.670000", "131748.130000", "131748.590000", "131749.050000", "131749.510000", "131749.970000", "131750.430000", "131750.890000", "131751.350000", "131751.810000", "131752.270000", "131752.730000", "131753.190000", "131753.650000", "131754.110000", "131754.570000", "131755.030000", "131755.490000", "131755.950000", "131756.410000", "131756.870000", "131757.330000", "131757.790000", "131758.250000", "131758.710000", "131759.170000", "131759.630000", "131800.090000", "131800.550000", "131801.010000", "131801.470000", "131801.930000", "131802.390000", "131802.850000", "131803.310000", "131803.770000", "131804.230000", "131804.690000", "131805.150000", "131805.610000", "131806.070000", "131806.530000", "131806.990000", "131807.450000", "131807.910000", "131808.370000", "131808.830000", "131809.290000", "131809.750000", "131810.210000", "131810.670000", "131811.130000", "131811.590000", "131812.050000", "131812.510000", "131812.970000", "131813.430000", "131813.890000", "131814.350000", "131814.810000", "131815.270000", "131815.730000", "131816.190000", "131816.650000", "131817.110000", "131817.570000", "131818.030000", "131818.490000", "131818.950000", "131819.410000", "131819.870000", "131820.330000", "131820.790000", "131821.250000", "131821.710000", "131822.170000", "131822.630000", "131823.090000", "131823.550000", "131824.010000", "131824.470000", "131824.930000", "131825.390000", "131825.850000", "131826.310000", "131826.770000", "131827.230000", "131827.690000", "131828.150000", "131828.610000", "131829.070000", "131829.530000", "131829.990000", "131830.450000", "131830.910000", "131831.370000", "131831.830000", "131832.290000", "131832.750000", "131833.210000", "131833.670000", "131834.130000", "131834.590000", "131835.050000", "131835.510000", "131835.970000", "131836.430000", "131836.890000", "131837.350000", "131837.810000", "131838.270000", "131838.730000", "131839.190000", "131839.650000", "131840.110000", "131840.570000", "131841.030000", "131841.490000", "131841.950000", "131842.410000", "131842.870000", "131843.330000", "131843.790000", "131844.250000", "131844.710000", "131845.170000", "131845.630000", "131846.090000", "131846.550000", "131847.010000", "131847.470000", "131847.930000", "131848.390000", "131848.850000", "131849.310000", "131849.770000", "131850.230000", "131850.690000", "131851.150000", "131851.610000", "131852.070000", "131852.530000", "131852.990000", "131853.450000", "131853.910000", "131854.370000", "131854.830000", "131855.290000", "131855.750000", "131856.210000", "131856.670000", "131857.130000", "131857.590000", "131858.050000", "131858.510000", "131858.970000", "131859.430000", "131859.890000", "131900.350000", "131900.810000", "131901.270000", "131901.730000", "131902.190000", "131902.650000", "131903.110000", "131903.570000", "131904.030000", "131904.490000", "131904.950000", "131905.410000", "131905.870000", "131906.330000", "131906.790000", "131907.250000", "131907.710000", "131908.170000", "131908.630000", "131909.090000", "131909.550000", "131910.010000", "131910.470000", "131910.930000", "131911.390000", "131911.850000", "131912.310000", "131912.770000", "131913.230000", "131913.690000", "131914.150000", "131914.610000", "131915.070000", "131915.530000", "131915.990000", "131916.450000", "131916.910000", "131917.370000", "131917.830000", "131918.290000", "131918.750000", "131919.210000", "131919.670000", "131920.130000", "131920.590000", "131921.050000", "131921.510000", "131921.970000", "131922.430000", "131922.890000", "131923.350000", "131923.810000", "131924.270000", "131924.730000", "131925.190000", "131925.650000", "131926.110000", "131926.570000", "131927.030000", "131927.490000", "131927.950000", "131928.410000", "131928.870000", "131929.330000", "131929.790000", "131930.250000", "131930.710000", "131931.170000", "131931.630000", "131932.090000", "131932.550000", "131933.010000", "131933.470000", "131933.930000", "131934.390000", "131934.850000", "131935.310000", "131935.770000", "131936.230000", "131936.690000", "131937.150000", "131937.610000", "131938.070000", "131938.530000", "131938.990000", "131939.450000", "131939.910000", "131940.370000", "131940.830000", "131941.290000", "131941.750000", "131942.210000", "131942.670000", "131943.130000", "131943.590000", "131944.050000", "131944.510000", "131944.970000", "131945.430000", "131945.890000", "131946.350000", "131946.810000", "131947.270000", "131947.730000", "131948.190000", "131948.650000", "131949.110000", "131949.570000", "131950.030000", "131950.490000", "131950.950000", "131951.410000", "131951.870000", "131952.330000", "131952.790000", "131953.250000", "131953.710000", "131954.170000", "131954.630000", "131955.090000", "131955.550000", "131956.010000", "131956.470000", "131956.930000", "131957.390000", "131957.850000", "131958.310000", "131958.770000", "131959.230000", "131959.690000", "132000.150000", "132000.610000", "132001.070000", "132001.530000", "132001.990000", "132002.450000", "132002.910000", "132003.370000", "132003.830000", "132004.290000", "132004.750000", "132005.210000", "132005.670000", "132006.130000", "132006.590000", "132007.050000", "132007.510000", "132007.970000", "132008.430000", "132008.890000", "132009.350000", "132009.810000", "132010.270000", "132010.730000", "132011.190000", "132011.650000", "132012.110000", "132012.570000", "132013.030000", "132013.490000", "132013.950000", "132014.410000", "132014.870000", "132015.330000", "132015.790000", "132016.250000", "132016.710000", "132017.170000", "132017.630000", "132018.090000", "132018.550000", "132019.010000", "132019.470000", "132019.930000", "132020.390000", "132020.850000", "132021.310000", "132021.770000", "132022.230000", "132022.690000", "132023.150000", "132023.610000", "132024.070000", "132024.530000", "132024.990000", "132025.450000", "132025.910000", "132026.370000", "132026.830000", "132027.290000", "132027.750000", "132028.210000", "132028.670000", "132029.130000", "132029.590000", "132030.050000", "132030.510000", "132030.970000", "132031.430000", "132031.890000", "132032.350000", "132032.810000", "132033.270000", "132033.730000", "132034.190000", "132034.650000", "132035.110000", "132035.570000", "132036.030000", "132036.490000", "132036.950000", "132037.410000", "132037.870000", "132038.330000", "132038.790000", "132039.250000", "132039.710000", "132040.170000", "132040.630000", "132041.090000", "132041.550000", "132042.010000", "132042.470000", "132042.930000", "132043.390000", "132043.850000", "132044.310000", "132044.770000", "132045.230000", "132045.690000", "132046.150000", "132046.610000", "132047.070000", "132047.530000", "132047.990000", "132048.450000", "132048.910000", "132049.370000", "132049.830000", "132050.290000", "132050.750000", "132051.210000", "132051.670000", "132052.130000", "132052.590000", "132053.050000", "132053.510000", "132053.970000", "132054.430000", "132054.890000", "132055.350000", "132055.810000", "132056.270000", "132056.730000", "132057.190000", "132057.650000", "132058.110000", "132058.570000", "132059.030000", "132059.490000", "132059.950000", "132100.410000", "132100.870000", "132101.330000", "132101.790000", "132102.250000", "132102.710000", "132103.170000", "132103.630000", "132104.090000", "132104.550000", "132105.010000", "132105.470000", "132105.930000", "132106.390000", "132106.850000", "132107.310000", "132107.770000", "132108.230000", "132108.690000", "132109.150000", "132109.610000", "132110.070000", "132110.530000", "132110.990000", "132111.450000", "132111.910000", "132112.370000", "132112.830000", "132113.290000", "132113.750000", "132114.210000", "132114.670000", "132115.130000", "132115.590000", "132116.050000", "132116.510000", "132116.970000", "132117.430000", "132117.890000", "132118.350000", "132118.810000", "132119.270000", "132119.730000", "132120.190000", "132120.650000", "132121.110000", "132121.570000", "132122.030000", "132122.490000", "132122.950000", "132123.410000", "132123.870000", "132124.330000", "132124.790000", "132125.250000", "132125.710000", "132126.170000", "132126.630000", "132127.090000", "132127.550000", "132128.010000", "132128.470000", "132128.930000", "132129.390000", "132129.850000", "132130.310000", "132130.770000", "132131.230000", "132131.690000", "132132.150000", "132132.610000", "132133.070000", "132133.530000", "132133.990000", "132134.450000", "132134.910000", "132135.370000", "132135.830000", "132136.290000", "132136.750000", "132137.210000", "132137.670000", "132138.130000", "132138.590000", "132139.050000", "132139.510000", "132139.970000", "132140.430000", "132140.890000", "132141.350000", "132141.810000", "132142.270000", "132142.730000", "132143.190000", "132143.650000", "132144.110000", "132144.570000", "132145.030000", "132145.490000", "132145.950000", "132146.410000", "132146.870000", "132147.330000", "132147.790000", "132148.250000", "132148.710000", "132149.170000", "132149.630000", "132150.090000", "132150.550000", "132151.010000", "132151.470000", "132151.930000", "132152.390000", "132152.850000", "132153.310000", "132153.770000", "132154.230000", "132154.690000", "132155.150000", "132155.610000", "132156.070000", "132156.530000", "132156.990000", "132157.450000", "132157.910000", "132158.370000", "132158.830000", "132159.290000", "132159.750000", "132200.210000", "132200.670000", "132201.130000", "132201.590000", "132202.050000", "132202.510000", "132202.970000", "132203.430000", "132203.890000", "132204.350000", "132204.810000", "132205.270000", "132205.730000", "132206.190000", "132206.650000", "132207.110000", "132207.570000", "132208.030000", "132208.490000", "132208.950000", "132209.410000", "132209.870000", "132210.330000", "132210.790000", "132211.250000", "132211.710000", "132212.170000", "132212.630000", "132213.090000", "132213.550000", "132214.010000", "132214.470000", "132214.930000", "132215.390000", "132215.850000", "132216.310000", "132216.770000", "132217.230000", "132217.690000", "132218.150000", "132218.610000", "132219.070000", "132219.530000", "132219.990000", "132220.450000", "132220.910000", "132221.370000", "132221.830000", "132222.290000", "132222.750000", "132223.210000", "132223.670000", "132224.130000", "132224.590000", "132225.050000", "132225.510000", "132225.970000", "132226.430000", "132226.890000", "132227.350000", "132227.810000", "132228.270000", "132228.730000", "132229.190000", "132229.650000", "132230.110000", "132230.570000", "132231.030000", "132231.490000", "132231.950000", "132232.410000", "132232.870000", "132233.330000", "132233.790000", "132234.250000", "132234.710000", "132235.170000", "132235.630000", "132236.090000", "132236.550000", "132237.010000", "132237.470000", "132237.930000", "132238.390000", "132238.850000", "132239.310000", "132239.770000", "132240.230000", "132240.690000", "132241.150000", "132241.610000", "132242.070000", "132242.530000", "132242.990000", "132243.450000", "132243.910000", "132244.370000", "132244.830000", "132245.290000", "132245.750000", "132246.210000", "132246.670000", "132247.130000", "132247.590000", "132248.050000", "132248.510000", "132248.970000", "132249.430000", "132249.890000", "132250.350000", "132250.810000", "132251.270000", "132251.730000", "132252.190000", "132252.650000", "132253.110000", "132253.570000", "132254.030000", "132254.490000", "132254.950000", "132255.410000", "132255.870000", "132256.330000", "132256.790000", "132257.250000", "132257.710000", "132258.170000", "132258.630000", "132259.090000", "132259.550000", "132300.010000", "132300.470000", "132300.930000", "132301.390000", "132301.850000", "132302.310000", "132302.770000", "132303.230000", "132303.690000", "132304.150000", "132304.610000", "132305.070000", "132305.530000", "132305.990000", "132306.450000", "132306.910000", "132307.370000", "132307.830000", "132308.290000", "132308.750000", "132309.210000", "132309.670000", "132310.130000", "132310.590000", "132311.050000", "132311.510000", "132311.970000", "132312.430000", "132312.890000", "132313.350000", "132313.810000", "132314.270000", "132314.730000", "132315.190000", "132315.650000", "132316.110000", "132316.570000", "132317.030000", "132317.490000", "132317.950000", "132318.410000", "132318.870000", "132319.330000", "132319.790000", "132320.250000", "132320.710000", "132321.170000", "132321.630000", "132322.090000", "132322.550000", "132323.010000", "132323.470000", "132323.930000", "132324.390000", "132324.850000", "132325.310000", "132325.770000", "132326.230000", "132326.690000", "132327.150000", "132327.610000", "132328.070000", "132328.530000", "132328.990000"],
