{
  "AcquisitionMatrixPE": 82,
  "AcquisitionNumber": 1,
  "AcquisitionTime": "16:32:30.640000",
  "BandwidthPerPixelPhaseEncode": 24.888,
  "BaseResolution": 82,
  "BodyPartExamined": "BRAIN",
  "ConsistencyInfo": "N4_VE11E_LATEST_20181129",
  "ConversionSoftware": "dcm2niix",
  "ConversionSoftwareVersion": "v1.0.20201102",
  "DerivedVendorReportedEchoSpacing": 0.00049,
  "DeviceSerialNumber": "66112",
  "DwellTime": 2e-06,
  "EchoTime": 0.0272,
  "EchoTrainLength": 82,
  "EffectiveEchoSpacing": 0.00049,
  "FlipAngle": 44,
  "ImageComments": "Unaliased MB8/PE3",
  "ImageOrientationPatientDICOM": [0.998224, -0.0591636, 0.00701249, 0.0580816, 0.992604, 0.106599],
  "ImageType": [
    "ORIGINAL",
    "PRIMARY",
    "M",
    "MB",
    "ND",
    "NORM",
    "MOSAIC"
],
  "ImagingFrequency": 123.252,
  "InPlanePhaseEncodingDirectionDICOM": "COL",
  "InstitutionAddress": "Maynard 3,Hanover,NH,US,03755",
  "InstitutionName": "Dartmouth College - PBS",
  "InstitutionalDepartmentName": "Department",
  "MRAcquisitionType": "2D",
  "MagneticFieldStrength": 3,
  "Manufacturer": "Siemens",
  "ManufacturersModelName": "Prisma",
  "Modality": "MR",
  "MultibandAccelerationFactor": 8,
  "PartialFourier": 1,
  "PatientPosition": "HFS",
  "PercentPhaseFOV": 100,
  "PercentSampling": 100,
  "PhaseEncodingDirection": "j-",
  "PhaseEncodingSteps": 82,
  "PhaseResolution": 1,
  "PixelBandwidth": 3050,
  "ProcedureStepDescription": "Wager_Wager^1076_spacetop",
  "ProtocolName": "func_run-01_task-faces_acq-ap-mb8",
  "PulseSequenceDetails": "%CustomerSeq%\\cmrr_mbep2d_bold",
  "ReceiveCoilActiveElements": "HEA;HEP",
  "ReceiveCoilName": "Head_32",
  "ReconMatrixPE": 82,
  "RepetitionTime": 0.46,
  "SAR": 0.0930797,
  "ScanOptions": "FS",
  "ScanningSequence": "EP",
  "SequenceName": "epfid2d1_82",
  "SequenceVariant": "SK\\SS",
  "SeriesDescription": "func_run-01_task-faces_acq-ap-mb8",
  "SeriesNumber": 16,
  "ShimSetting": [4150, -7888, -7279, 870, -74, -554, 251, 104],
  "SliceThickness": 2.7,
  "SliceTiming": [0, 0.25, 0.0625, 0.315, 0.125, 0.3775, 0.1875, 0, 0.25, 0.0625, 0.315, 0.125, 0.3775, 0.1875, 0, 0.25, 0.0625, 0.315, 0.125, 0.3775, 0.1875, 0, 0.25, 0.0625, 0.315, 0.125, 0.3775, 0.1875, 0, 0.25, 0.0625, 0.315, 0.125, 0.3775, 0.1875, 0, 0.25, 0.0625, 0.315, 0.125, 0.3775, 0.1875, 0, 0.25, 0.0625, 0.315, 0.125, 0.3775, 0.1875, 0, 0.25, 0.0625, 0.315, 0.125, 0.3775, 0.1875],
  "SoftwareVersions": "syngo MR E11",
  "SpacingBetweenSlices": 2.7,
  "StationName": "AWP66112",
  "TaskName": "faces",
  "TotalReadoutTime": 0.03969,
  "TxRefAmp": 233.552,
  "WipMemBlock": "c69b9ed1-823d-4c2f-93a0-955647fabab9||Sequence: R016 ve11e/master r/434b28f1; Aug  7 2019 18:53:46 by eja",
  "dcmmeta_affine": [
    [-2.678161144256592, 0.1558288186788559, 0.03582196310162544, 105.0788803100586],
    [0.15873149037361145, 2.6630847454071045, 0.2862057387828827, -120.65596771240234],
    [0.018814008682966232, -0.2859967350959778, 2.684548854827881, -58.59657287597656],
    [0.0, 0.0, 0.0, 1.0]
],
  "dcmmeta_reorient_transform": [
    [0.0, -1.0, 0.0, 81.0],
    [1.0, 0.0, 0.0, 0.0],
    [0.0, 0.0, 1.0, 0.0],
    [0.0, 0.0, 0.0, 1.0]
],
  "dcmmeta_shape": [82, 82, 56, 914],
  "dcmmeta_slice_dim": 2,
  "dcmmeta_version": 0.6,
  "global": {
    "const": {
      "AccessionNumber": "A004059",
      "AcquisitionMatrix": [82, 0, 0, 82],
      "AngioFlag": "N",
      "BitsAllocated": 16,
      "BitsStored": 16,
      "BodyPartExamined": "BRAIN",
      "Columns": 656,
      "EchoNumbers": 1,
      "EchoTime": 27.2,
      "EchoTrainLength": 82,
      "FlipAngle": 44.0,
      "HighBit": 15,
      "ImageOrientationPatient": [0.99822367159329, -0.0591635563406, 0.00701249398837, 0.05808164704509, 0.99260426310879, 0.10659877642254],
      "ImagePositionPatient": [-931.05612751454, -813.80325066664, -169.24298839946],
      "ImageType": [
        "ORIGINAL",
        "PRIMARY",
        "M",
        "MB",
        "ND",
        "NORM",
        "MOSAIC"
],
      "ImagedNucleus": "1H",
      "ImagingFrequency": 123.25222,
      "InPlanePhaseEncodingDirection": "COL",
      "MRAcquisitionType": "2D",
      "MagneticFieldStrength": 3.0,
      "Manufacturer": "SIEMENS",
      "ManufacturerModelName": "Prisma",
      "Modality": "MR",
      "NumberOfAverages": 1.0,
      "NumberOfPhaseEncodingSteps": 82,
      "PercentPhaseFieldOfView": 100.0,
      "PercentSampling": 100.0,
      "PerformedProcedureStepStartTime": "154052.298000",
      "PhotometricInterpretation": "MONOCHROME2",
      "PixelBandwidth": 3050.0,
      "PixelRepresentation": 0,
      "PixelSpacing": [2.6829268932343, 2.6829268932343],
      "ProtocolName": "func_run-01_task-faces_acq-ap-mb8",
      "RepetitionTime": 460.0,
      "Rows": 656,
      "SAR": 0.0930796883892,
      "SamplesPerPixel": 1,
      "ScanOptions": "FS",
      "ScanningSequence": "EP",
      "SequenceName": "epfid2d1_82",
      "SequenceVariant": [
        "SK",
        "SS"
],
      "SeriesDescription": "func_run-01_task-faces_acq-ap-mb8",
      "SeriesNumber": 16,
      "SeriesTime": "163256.825000",
      "SliceLocation": -69.656914229286,
      "SliceThickness": 2.7000000476837,
      "SmallestImagePixelValue": 0,
      "SoftwareVersions": "syngo MR E11",
      "SpacingBetweenSlices": 2.7000000012095,
      "SpecificCharacterSet": "ISO_IR 100",
      "StudyID": "2",
      "StudyTime": "154052.242000",
      "TransmitCoilName": "Body",
      "VariableFlipAngleFlag": "N",
      "WindowCenterWidthExplanation": "Algo1"
    },
    "slices": {}
  },
  "time": {
    "samples": {
      "AcquisitionNumber": [1, 2, 3, 4, 5, 6, 7, 8, 9, 10, 11, 12, 13, 14, 15, 16, 17, 18, 19, 20, 21, 22, 23, 24, 25, 26, 27, 28, 29, 30, 31, 32, 33, 34, 35, 36, 37, 38, 39, 40, 41, 42, 43, 44, 45, 46, 47, 48, 49, 50, 51, 52, 53, 54, 55, 56, 57, 58, 59, 60, 61, 62, 63, 64, 65, 66, 67, 68, 69, 70, 71, 72, 73, 74, 75, 76, 77, 78, 79, 80, 81, 82, 83, 84, 85, 86, 87, 88, 89, 90, 91, 92, 93, 94, 95, 96, 97, 98, 99, 100, 101, 102, 103, 104, 105, 106, 107, 108, 109, 110, 111, 112, 113, 114, 115, 116, 117, 118, 119, 120, 121, 122, 123, 124, 125, 126, 127, 128, 129, 130, 131, 132, 133, 134, 135, 136, 137, 138, 139, 140, 141, 142, 143, 144, 145, 146, 147, 148, 149, 150, 151, 152, 153, 154, 155, 156, 157, 158, 159, 160, 161, 162, 163, 164, 165, 166, 167, 168, 169, 170, 171, 172, 173, 174, 175, 176, 177, 178, 179, 180, 181, 182, 183, 184, 185, 186, 187, 188, 189, 190, 191, 192, 193, 194, 195, 196, 197, 198, 199, 200, 201, 202, 203, 204, 205, 206, 207, 208, 209, 210, 211, 212, 213, 214, 215, 216, 217, 218, 219, 220, 221, 222, 223, 224, 225, 226, 227, 228, 229, 230, 231, 232, 233, 234, 235, 236, 237, 238, 239, 240, 241, 242, 243, 244, 245, 246, 247, 248, 249, 250, 251, 252, 253, 254, 255, 256, 257, 258, 259, 260, 261, 262, 263, 264, 265, 266, 267, 268, 269, 270, 271, 272, 273, 274, 275, 276, 277, 278, 279, 280, 281, 282, 283, 284, 285, 286, 287, 288, 289, 290, 291, 292, 293, 294, 295, 296, 297, 298, 299, 300, 301, 302, 303, 304, 305, 306, 307, 308, 309, 310, 311, 312, 313, 314, 315, 316, 317, 318, 319, 320, 321, 322, 323, 324, 325, 326, 327, 328, 329, 330, 331, 332, 333, 334, 335, 336, 337, 338, 339, 340, 341, 342, 343, 344, 345, 346, 347, 348, 349, 350, 351, 352, 353, 354, 355, 356, 357, 358, 359, 360, 361, 362, 363, 364, 365, 366, 367, 368, 369, 370, 371, 372, 373, 374, 375, 376, 377, 378, 379, 380, 381, 382, 383, 384, 385, 386, 387, 388, 389, 390, 391, 392, 393, 394, 395, 396, 397, 398, 399, 400, 401, 402, 403, 404, 405, 406, 407, 408, 409, 410, 411, 412, 413, 414, 415, 416, 417, 418, 419, 420, 421, 422, 423, 424, 425, 426, 427, 428, 429, 430, 431, 432, 433, 434, 435, 436, 437, 438, 439, 440, 441, 442, 443, 444, 445, 446, 447, 448, 449, 450, 451, 452, 453, 454, 455, 456, 457, 458, 459, 460, 461, 462, 463, 464, 465, 466, 467, 468, 469, 470, 471, 472, 473, 474, 475, 476, 477, 478, 479, 480, 481, 482, 483, 484, 485, 486, 487, 488, 489, 490, 491, 492, 493, 494, 495, 496, 497, 498, 499, 500, 501, 502, 503, 504, 505, 506, 507, 508, 509, 510, 511, 512, 513, 514, 515, 516, 517, 518, 519, 520, 521, 522, 523, 524, 525, 526, 527, 528, 529, 530, 531, 532, 533, 534, 535, 536, 537, 538, 539, 540, 541, 542, 543, 544, 545, 546, 547, 548, 549, 550, 551, 552, 553, 554, 555, 556, 557, 558, 559, 560, 561, 562, 563, 564, 565, 566, 567, 568, 569, 570, 571, 572, 573, 574, 575, 576, 577, 578, 579, 580, 581, 582, 583, 584, 585, 586, 587, 588, 589, 590, 591, 592, 593, 594, 595, 596, 597, 598, 599, 600, 601, 602, 603, 604, 605, 606, 607, 608, 609, 610, 611, 612, 613, 614, 615, 616, 617, 618, 619, 620, 621, 622, 623, 624, 625, 626, 627, 628, 629, 630, 631, 632, 633, 634, 635, 636, 637, 638, 639, 640, 641, 642, 643, 644, 645, 646, 647, 648, 649, 650, 651, 652, 653, 654, 655, 656, 657, 658, 659, 660, 661, 662, 663, 664, 665, 666, 667, 668, 669, 670, 671, 672, 673, 674, 675, 676, 677, 678, 679, 680, 681, 682, 683, 684, 685, 686, 687, 688, 689, 690, 691, 692, 693, 694, 695, 696, 697, 698, 699, 700, 701, 702, 703, 704, 705, 706, 707, 708, 709, 710, 711, 712, 713, 714, 715, 716, 717, 718, 719, 720, 721, 722, 723, 724, 725, 726, 727, 728, 729, 730, 731, 732, 733, 734, 735, 736, 737, 738, 739, 740, 741, 742, 743, 744, 745, 746, 747, 748, 749, 750, 751, 752, 753, 754, 755, 756, 757, 758, 759, 760, 761, 762, 763, 764, 765, 766, 767, 768, 769, 770, 771, 772, 773, 774, 775, 776, 777, 778, 779, 780, 781, 782, 783, 784, 785, 786, 787, 788, 789, 790, 791, 792, 793, 794, 795, 796, 797, 798, 799, 800, 801, 802, 803, 804, 805, 806, 807, 808, 809, 810, 811, 812, 813, 814, 815, 816, 817, 818, 819, 820, 821, 822, 823, 824, 825, 826, 827, 828, 829, 830, 831, 832, 833, 834, 835, 836, 837, 838, 839, 840, 841, 842, 843, 844, 845, 846, 847, 848, 849, 850, 851, 852, 853, 854, 855, 856, 857, 858, 859, 860, 861, 862, 863, 864, 865, 866, 867, 868, 869, 870, 871, 872, 873, 874, 875, 876, 877, 878, 879, 880, 881, 882, 883, 884, 885, 886, 887, 888, 889, 890, 891, 892, 893, 894, 895, 896, 897, 898, 899, 900, 901, 902, 903, 904, 905, 906, 907, 908, 909, 910, 911, 912, 913, 914],
      "AcquisitionTime": ["163230.640000", "163231.100000", "163231.560000", "163232.020000", "163232.480000", "163232.940000", "163233.400000", "163233.860000", "163234.320000", "163234.780000", "163235.240000", "163235.700000", "163236.160000", "163236.620000", "163237.080000", "163237.540000", "163238.000000", "163238.460000", "163238.920000", "163239.380000", "163239.840000", "163240.300000", "163240.760000", "163241.220000", "163241.680000", "163242.140000", "163242.600000", "163243.060000", "163243.520000", "163243.980000", "163244.440000", "163244.900000", "163245.360000", "163245.820000", "163246.280000", "163246.740000", "163247.200000", "163247.660000", "163248.120000", "163248.580000", "163249.040000", "163249.500000", "163249.960000", "163250.420000", "163250.880000", "163251.340000", "163251.800000", "163252.260000", "163252.720000", "163253.180000", "163253.640000", "163254.100000", "163254.560000", "163255.020000", "163255.480000", "163255.940000", "163256.400000", "163256.860000", "163257.320000", "163257.780000", "163258.240000", "163258.700000", "163259.160000", "163259.620000", "163300.080000", "163300.540000", "163301.000000", "163301.460000", "163301.920000", "163302.380000", "163302.840000", "163303.300000", "163303.760000", "163304.220000", "163304.680000", "163305.140000", "163305.600000", "163306.060000", "163306.520000", "163306.980000", "163307.440000", "163307.900000", "163308.360000", "163308.820000", "163309.280000", "163309.740000", "163310.200000", "163310.660000", "163311.120000", "163311.580000", "163312.040000", "163312.500000", "163312.960000", "163313.420000", "163313.880000", "163314.340000", "163314.800000", "163315.260000", "163315.720000", "163316.180000", "163316.640000", "163317.100000", "163317.560000", "163318.020000", "163318.480000", "163318.940000", "163319.400000", "163319.860000", "163320.320000", "163320.780000", "163321.240000", "163321.700000", "163322.160000", "163322.620000", "163323.080000", "163323.540000", "163324.000000", "163324.460000", "163324.920000", "163325.380000", "163325.840000", "163326.300000", "163326.760000", "163327.220000", "163327.680000", "163328.140000", "163328.600000", "163329.060000", "163329.520000", "163329.980000", "163330.440000", "163330.900000", "163331.360000", "163331.820000", "163332.280000", "163332.740000", "163333.200000", "163333.660000", "163334.120000", "163334.580000", "163335.040000", "163335.500000", "163335.960000", "163336.420000", "163336.880000", "163337.340000", "163337.800000", "163338.260000", "163338.720000", "163339.180000", "163339.640000", "163340.100000", "163340.560000", "163341.020000", "163341.480000", "163341.940000", "163342.400000", "163342.860000", "163343.320000", "163343.780000", "163344.240000", "163344.700000", "163345.160000", "163345.620000", "163346.080000", "163346.540000", "163347.000000", "163347.460000", "163347.920000", "163348.380000", "163348.840000", "163349.300000", "163349.760000", "163350.220000", "163350.680000", "163351.140000", "163351.600000", "163352.060000", "163352.520000", "163352.980000", "163353.440000", "163353.900000", "163354.360000", "163354.820000", "163355.280000", "163355.740000", "163356.200000", "163356.660000", "163357.120000", "163357.580000", "163358.040000", "163358.500000", "163358.960000", "163359.420000", "163359.880000", "163400.340000", "163400.800000", "163401.260000", "163401.720000", "163402.180000", "163402.640000", "163403.100000", "163403.560000", "163404.020000", "163404.480000", "163404.940000", "163405.400000", "163405.860000", "163406.320000", "163406.780000", "163407.240000", "163407.700000", "163408.160000", "163408.620000", "163409.080000", "163409.540000", "163410.000000", "163410.460000", "163410.920000", "163411.380000", "163411.840000", "163412.300000", "163412.760000", "163413.220000", "163413.680000", "163414.140000", "163414.600000", "163415.060000", "163415.520000", "163415.980000", "163416.440000", "163416.900000", "163417.360000", "163417.820000", "163418.280000", "163418.740000", "163419.200000", "163419.660000", "163420.120000", "163420.580000", "163421.040000", "163421.500000", "163421.960000", "163422.420000", "163422.880000", "163423.340000", "163423.800000", "163424.260000", "163424.720000", "163425.180000", "163425.640000", "163426.100000", "163426.560000", "163427.020000", "163427.480000", "163427.940000", "163428.400000", "163428.860000", "163429.320000", "163429.780000", "163430.240000", "163430.700000", "163431.160000", "163431.620000", "163432.080000", "163432.540000", "163433.000000", "163433.460000", "163433.920000", "163434.380000", "163434.840000", "163435.300000", "163435.760000", "163436.220000", "163436.680000", "163437.140000", "163437.600000", "163438.060000", "163438.520000", "163438.980000", "163439.440000", "163439.900000", "163440.360000", "163440.820000", "163441.280000", "163441.740000", "163442.200000", "163442.660000", "163443.120000", "163443.580000", "163444.040000", "163444.500000", "163444.960000", "163445.420000", "163445.880000", "163446.340000", "163446.800000", "163447.260000", "163447.720000", "163448.180000", "163448.640000", "163449.100000", "163449.560000", "163450.020000", "163450.480000", "163450.940000", "163451.400000", "163451.860000", "163452.320000", "163452.780000", "163453.240000", "163453.700000", "163454.160000", "163454.620000", "163455.080000", "163455.540000", "163456.000000", "163456.460000", "163456.920000", "163457.380000", "163457.840000", "163458.300000", "163458.760000", "163459.220000", "163459.680000", "163500.140000", "163500.600000", "163501.060000", "163501.520000", "163501.980000", "163502.440000", "163502.900000", "163503.360000", "163503.820000", "163504.280000", "163504.740000", "163505.200000", "163505.660000", "163506.120000", "163506.580000", "163507.040000", "163507.500000", "163507.960000", "163508.420000", "163508.880000", "163509.340000", "163509.800000", "163510.260000", "163510.720000", "163511.180000", "163511.640000", "163512.100000", "163512.560000", "163513.020000", "163513.480000", "163513.940000", "163514.400000", "163514.860000", "163515.320000", "163515.780000", "163516.240000", "163516.700000", "163517.160000", "163517.620000", "163518.080000", "163518.540000", "163519.000000", "163519.460000", "163519.920000", "163520.380000", "163520.840000", "163521.300000", "163521.760000", "163522.220000", "163522.680000", "163523.140000", "163523.600000", "163524.060000", "163524.520000", "163524.980000", "163525.440000", "163525.900000", "163526.360000", "163526.820000", "163527.280000", "163527.740000", "163528.200000", "163528.660000", "163529.120000", "163529.580000", "163530.040000", "163530.500000", "163530.960000", "163531.420000", "163531.880000", "163532.340000", "163532.800000", "163533.260000", "163533.720000", "163534.180000", "163534.640000", "163535.100000", "163535.560000", "163536.020000", "163536.480000", "163536.940000", "163537.400000", "163537.860000", "163538.320000", "163538.780000", "163539.240000", "163539.700000", "163540.160000", "163540.620000", "163541.080000", "163541.540000", "163542.000000", "163542.460000", "163542.920000", "163543.380000", "163543.840000", "163544.300000", "163544.760000", "163545.220000", "163545.680000", "163546.140000", "163546.600000", "163547.060000", "163547.520000", "163547.980000", "163548.440000", "163548.900000", "163549.360000", "163549.820000", "163550.280000", "163550.740000", "163551.200000", "163551.660000", "163552.120000", "163552.580000", "163553.040000", "163553.500000", "163553.960000", "163554.420000", "163554.880000", "163555.340000", "163555.800000", "163556.260000", "163556.720000", "163557.180000", "163557.640000", "163558.100000", "163558.560000", "163559.020000", "163559.480000", "163559.940000", "163600.400000", "163600.860000", "163601.320000", "163601.780000", "163602.240000", "163602.700000", "163603.160000", "163603.620000", "163604.080000", "163604.540000", "163605.000000", "163605.460000", "163605.920000", "163606.380000", "163606.840000", "163607.300000", "163607.760000", "163608.220000", "163608.680000", "163609.140000", "163609.600000", "163610.060000", "163610.520000", "163610.980000", "163611.440000", "163611.900000", "163612.360000", "163612.820000", "163613.280000", "163613.740000", "163614.200000", "163614.660000", "163615.120000", "163615.580000", "163616.040000", "163616.500000", "163616.960000", "163617.420000", "163617.880000", "163618.340000", "163618.800000", "163619.260000", "163619.720000", "163620.180000", "163620.640000", "163621.100000", "163621.560000", "163622.020000", "163622.480000", "163622.940000", "163623.400000", "163623.860000", "163624.320000", "163624.780000", "163625.240000", "163625.700000", "163626.160000", "163626.620000", "163627.080000", "163627.540000", "163628.000000", "163628.460000", "163628.920000", "163629.380000", "163629.840000", "163630.300000", "163630.760000", "163631.220000", "163631.680000", "163632.140000", "163632.600000", "163633.060000", "163633.520000", "163633.980000", "163634.440000", "163634.900000", "163635.360000", "163635.820000", "163636.280000", "163636.740000", "163637.200000", "163637.660000", "163638.120000", "163638.580000", "163639.040000", "163639.500000", "163639.960000", "163640.420000", "163640.880000", "163641.340000", "163641.800000", "163642.260000", "163642.720000", "163643.180000", "163643.640000", "163644.100000", "163644.560000", "163645.020000", "163645.480000", "163645.940000", "163646.400000", "163646.860000", "163647.320000", "163647.780000", "163648.240000", "163648.700000", "163649.160000", "163649.620000", "163650.080000", "163650.540000", "163651.000000", "163651.460000", "163651.920000", "163652.380000", "163652.840000", "163653.300000", "163653.760000", "163654.220000", "163654.680000", "163655.140000", "163655.600000", "163656.060000", "163656.520000", "163656.980000", "163657.440000", "163657.900000", "163658.360000", "163658.820000", "163659.280000", "163659.740000", "163700.200000", "163700.660000", "163701.120000", "163701.580000", "163702.040000", "163702.500000", "163702.960000", "163703.420000", "163703.880000", "163704.340000", "163704.800000", "163705.260000", "163705.720000", "163706.180000", "163706.640000", "163707.100000", "163707.560000", "163708.020000", "163708.480000", "163708.940000", "163709.400000", "163709.860000", "163710.320000", "163710.780000", "163711.240000", "163711.700000", "163712.160000", "163712.620000", "163713.080000", "163713.540000", "163714.000000", "163714.460000", "163714.920000", "163715.380000", "163715.840000", "163716.300000", "163716.760000", "163717.220000", "163717.680000", "163718.140000", "163718.600000", "163719.060000", "163719.520000", "163719.980000", "163720.440000", "163720.900000", "163721.360000", "163721.820000", "163722.280000", "163722.740000", "163723.200000", "163723.660000", "163724.120000", "163724.580000", "163725.040000", "163725.500000", "163725.960000", "163726.420000", "163726.880000", "163727.340000", "163727.800000", "163728.260000", "163728.720000", "163729.180000", "163729.640000", "163730.100000", "163730.560000", "163731.020000", "163731.480000", "163731.940000", "163732.400000", "163732.860000", "163733.320000", "163733.780000", "163734.240000", "163734.700000", "163735.160000", "163735.620000", "163736.080000", "163736.540000", "163737.000000", "163737.460000", "163737.920000", "163738.380000", "163738.840000", "163739.300000", "163739.760000", "163740.220000", "163740.680000", "163741.140000", "163741.600000", "163742.060000", "163742.520000", "163742.980000", "163743.440000", "163743.900000", "163744.360000", "163744.820000", "163745.280000", "163745.740000", "163746.200000", "163746.660000", "163747.120000", "163747.580000", "163748.040000", "163748.500000", "163748.960000", "163749.420000", "163749.880000", "163750.340000", "163750.800000", "163751.260000", "163751.720000", "163752.180000", "163752.640000", "163753.100000", "163753.560000", "163754.020000", "163754.480000", "163754.940000", "163755.400000", "163755.860000", "163756.320000", "163756.780000", "163757.240000", "163757.700000", "163758.160000", "163758.620000", "163759.080000", "163759.540000", "163800.000000", "163800.460000", "163800.920000", "163801.380000", "163801.840000", "163802.300000", "163802.760000", "163803.220000", "163803.680000", "163804.140000", "163804.600000", "163805.060000", "163805.520000", "163805.980000", "163806.440000", "163806.900000", "163807.360000", "163807.820000", "163808.280000", "163808.740000", "163809.200000", "163809.660000", "163810.120000", "163810.580000", "163811.040000", "163811.500000", "163811.960000", "163812.420000", "163812.880000", "163813.340000", "163813.800000", "163814.260000", "163814.720000", "163815.180000", "163815.640000", "163816.100000", "163816.560000", "163817.020000", "163817.480000", "163817.940000", "163818.400000", "163818.860000", "163819.320000", "163819.780000", "163820.240000", "163820.700000", "163821.160000", "163821.620000", "163822.080000", "163822.540000", "163823.000000", "163823.460000", "163823.920000", "163824.380000", "163824.840000", "163825.300000", "163825.760000", "163826.220000", "163826.680000", "163827.140000", "163827.600000", "163828.060000", "163828.520000", "163828.980000", "163829.440000", "163829.900000", "163830.360000", "163830.820000", "163831.280000", "163831.740000", "163832.200000", "163832.660000", "163833.120000", "163833.580000", "163834.040000", "163834.500000", "163834.960000", "163835.420000", "163835.880000", "163836.340000", "163836.800000", "163837.260000", "163837.720000", "163838.180000", "163838.640000", "163839.100000", "163839.560000", "163840.020000", "163840.480000", "163840.940000", "163841.400000", "163841.860000", "163842.320000", "163842.780000", "163843.240000", "163843.700000", "163844.160000", "163844.620000", "163845.080000", "163845.540000", "163846.000000", "163846.460000", "163846.920000", "163847.380000", "163847.840000", "163848.300000", "163848.760000", "163849.220000", "163849.680000", "163850.140000", "163850.600000", "163851.060000", "163851.520000", "163851.980000", "163852.440000", "163852.900000", "163853.360000", "163853.820000", "163854.280000", "163854.740000", "163855.200000", "163855.660000", "163856.120000", "163856.580000", "163857.040000", "163857.500000", "163857.960000", "163858.420000", "163858.880000", "163859.340000", "163859.800000", "163900.260000", "163900.720000", "163901.180000", "163901.640000", "163902.100000", "163902.560000", "163903.020000", "163903.480000", "163903.940000", "163904.400000", "163904.860000", "163905.320000", "163905.780000", "163906.240000", "163906.700000", "163907.160000", "163907.620000", "163908.080000", "163908.540000", "163909.000000", "163909.460000", "163909.920000", "163910.380000", "163910.840000", "163911.300000", "163911.760000", "163912.220000", "163912.680000", "163913.140000", "163913.600000", "163914.060000", "163914.520000", "163914.980000", "163915.440000", "163915.900000", "163916.360000", "163916.820000", "163917.280000", "163917.740000", "163918.200000", "163918.660000", "163919.120000", "163919.580000", "163920.040000", "163920.500000", "163920.960000", "163921.420000", "163921.880000", "163922.340000", "163922.800000", "163923.260000", "163923.720000", "163924.180000", "163924.640000", "163925.100000", "163925.560000", "163926.020000", "163926.480000", "163926.940000", "163927.400000", "163927.860000", "163928.320000", "163928.780000", "163929.240000", "163929.700000", "163930.160000", "163930.620000"],
