{
  "AcquisitionMatrixPE": 82,
  "AcquisitionNumber": 1,
  "AcquisitionTime": "17:28:18.157500",
  "BandwidthPerPixelPhaseEncode": 24.888,
  "BaseResolution": 82,
  "BodyPartExamined": "BRAIN",
  "ConsistencyInfo": "N4_VE11E_LATEST_20181129",
  "ConversionSoftware": "dcm2niix",
  "ConversionSoftwareVersion": "v1.0.20201102",
  "DerivedVendorReportedEchoSpacing": 0.00049,
  "DeviceSerialNumber": "66112",
  "DwellTime": 2e-06,
  "EchoTime": 0.0272,
  "EchoTrainLength": 82,
  "EffectiveEchoSpacing": 0.00049,
  "FlipAngle": 44,
  "ImageComments": "Unaliased MB8/PE3",
  "ImageOrientationPatientDICOM": [0.998142, -0.0609336, 0.000369212, 0.0606993, 0.994799, 0.0817937],
  "ImageType": [
    "ORIGINAL",
    "PRIMARY",
    "M",
    "MB",
    "ND",
    "NORM",
    "MOSAIC"
],
  "ImagingFrequency": 123.252,
  "InPlanePhaseEncodingDirectionDICOM": "COL",
  "InstitutionAddress": "Maynard 3,Hanover,NH,US,03755",
  "InstitutionName": "Dartmouth College - PBS",
  "InstitutionalDepartmentName": "Department",
  "MRAcquisitionType": "2D",
  "MagneticFieldStrength": 3,
  "Manufacturer": "Siemens",
  "ManufacturersModelName": "Prisma",
  "Modality": "MR",
  "MultibandAccelerationFactor": 8,
  "PartialFourier": 1,
  "PatientPosition": "HFS",
  "PercentPhaseFOV": 100,
  "PercentSampling": 100,
  "PhaseEncodingDirection": "j-",
  "PhaseEncodingSteps": 82,
  "PhaseResolution": 1,
  "PixelBandwidth": 3050,
  "ProcedureStepDescription": "Wager_Wager^1076_spacetop",
  "ProtocolName": "func_run-04_task-alignvideo_acq-ap-mb8",
  "PulseSequenceDetails": "%CustomerSeq%\\cmrr_mbep2d_bold",
  "ReceiveCoilActiveElements": "HEA;HEP",
  "ReceiveCoilName": "Head_32",
  "ReconMatrixPE": 82,
  "RepetitionTime": 0.46,
  "SAR": 0.0930797,
  "ScanOptions": "FS",
  "ScanningSequence": "EP",
  "SequenceName": "epfid2d1_82",
  "SequenceVariant": "SK\\SS",
  "SeriesDescription": "func_run-04_task-alignvideo_acq-ap-mb8",
  "SeriesNumber": 34,
  "ShimSetting": [4150, -7888, -7279, 880, -75, -554, 248, 103],
  "SliceThickness": 2.7,
  "SliceTiming": [0, 0.2525, 0.0625, 0.315, 0.125, 0.3775, 0.1875, 0, 0.2525, 0.0625, 0.315, 0.125, 0.3775, 0.1875, 0, 0.2525, 0.0625, 0.315, 0.125, 0.3775, 0.1875, 0, 0.2525, 0.0625, 0.315, 0.125, 0.3775, 0.1875, 0, 0.2525, 0.0625, 0.315, 0.125, 0.3775, 0.1875, 0, 0.2525, 0.0625, 0.315, 0.125, 0.3775, 0.1875, 0, 0.2525, 0.0625, 0.315, 0.125, 0.3775, 0.1875, 0, 0.2525, 0.0625, 0.315, 0.125, 0.3775, 0.1875],
  "SoftwareVersions": "syngo MR E11",
  "SpacingBetweenSlices": 2.7,
  "StationName": "AWP66112",
  "TaskName": "alignvideo",
  "TotalReadoutTime": 0.03969,
  "TxRefAmp": 233.552,
  "WipMemBlock": "8358dd38-bb34-4584-ae6d-51b38331414b||Sequence: R016 ve11e/master r/434b28f1; Aug  7 2019 18:53:46 by eja",
  "dcmmeta_affine": [
    [-2.67794132232666, 0.16285167634487152, 0.014448444359004498, 105.27718353271484],
    [0.16348031163215637, 2.668973445892334, 0.22037217020988464, -120.01092529296875],
    [0.0009905699407681823, -0.2194465845823288, 2.690953016281128, -61.867759704589844],
    [0.0, 0.0, 0.0, 1.0]
],
  "dcmmeta_reorient_transform": [
    [0.0, -1.0, 0.0, 81.0],
    [1.0, 0.0, 0.0, 0.0],
    [0.0, 0.0, 1.0, 0.0],
    [0.0, 0.0, 0.0, 1.0]
],
  "dcmmeta_shape": [82, 82, 56, 914],
  "dcmmeta_slice_dim": 2,
  "dcmmeta_version": 0.6,
  "global": {
    "const": {
      "AccessionNumber": "A004059",
      "AcquisitionMatrix": [82, 0, 0, 82],
      "AngioFlag": "N",
      "BitsAllocated": 16,
      "BitsStored": 16,
      "BodyPartExamined": "BRAIN",
      "Columns": 656,
      "EchoNumbers": 1,
      "EchoTime": 27.2,
      "EchoTrainLength": 82,
      "FlipAngle": 44.0,
      "HighBit": 15,
      "ImageOrientationPatient": [0.99814175543373, -0.0609335682678, 0.00036921242596, 0.06069925789781, 0.99479916921756, 0.0817937223429],
      "ImagePositionPatient": [-933.77577186796, -815.25245348047, -142.90839530676],
      "ImageType": [
        "ORIGINAL",
        "PRIMARY",
        "M",
        "MB",
        "ND",
        "NORM",
        "MOSAIC"
],
      "ImagedNucleus": "1H",
      "ImagingFrequency": 123.252235,
      "InPlanePhaseEncodingDirection": "COL",
      "MRAcquisitionType": "2D",
      "MagneticFieldStrength": 3.0,
      "Manufacturer": "SIEMENS",
      "ManufacturerModelName": "Prisma",
      "Modality": "MR",
      "NumberOfAverages": 1.0,
      "NumberOfPhaseEncodingSteps": 82,
      "PercentPhaseFieldOfView": 100.0,
      "PercentSampling": 100.0,
      "PerformedProcedureStepStartTime": "154052.298000",
      "PhotometricInterpretation": "MONOCHROME2",
      "PixelBandwidth": 3050.0,
      "PixelRepresentation": 0,
      "PixelSpacing": [2.6829268932343, 2.6829268932343],
      "ProtocolName": "func_run-04_task-alignvideo_acq-ap-mb8",
      "RepetitionTime": 460.0,
      "Rows": 656,
      "SAR": 0.0930796883892,
      "SamplesPerPixel": 1,
      "ScanOptions": "FS",
      "ScanningSequence": "EP",
      "SequenceName": "epfid2d1_82",
      "SequenceVariant": [
        "SK",
        "SS"
],
      "SeriesDescription": "func_run-04_task-alignvideo_acq-ap-mb8",
      "SeriesNumber": 34,
      "SeriesTime": "172836.818000",
      "SliceLocation": -70.892298199419,
      "SliceThickness": 2.7000000476837,
      "SmallestImagePixelValue": 0,
      "SoftwareVersions": "syngo MR E11",
      "SpacingBetweenSlices": 2.7000000538613,
      "SpecificCharacterSet": "ISO_IR 100",
      "StudyID": "2",
      "StudyTime": "154052.242000",
      "TransmitCoilName": "Body",
      "VariableFlipAngleFlag": "N",
      "WindowCenterWidthExplanation": "Algo1"
    },
    "slices": {}
  },
  "time": {
    "samples": {
      "AcquisitionNumber": [1, 2, 3, 4, 5, 6, 7, 8, 9, 10, 11, 12, 13, 14, 15, 16, 17, 18, 19, 20, 21, 22, 23, 24, 25, 26, 27, 28, 29, 30, 31, 32, 33, 34, 35, 36, 37, 38, 39, 40, 41, 42, 43, 44, 45, 46, 47, 48, 49, 50, 51, 52, 53, 54, 55, 56, 57, 58, 59, 60, 61, 62, 63, 64, 65, 66, 67, 68, 69, 70, 71, 72, 73, 74, 75, 76, 77, 78, 79, 80, 81, 82, 83, 84, 85, 86, 87, 88, 89, 90, 91, 92, 93, 94, 95, 96, 97, 98, 99, 100, 101, 102, 103, 104, 105, 106, 107, 108, 109, 110, 111, 112, 113, 114, 115, 116, 117, 118, 119, 120, 121, 122, 123, 124, 125, 126, 127, 128, 129, 130, 131, 132, 133, 134, 135, 136, 137, 138, 139, 140, 141, 142, 143, 144, 145, 146, 147, 148, 149, 150, 151, 152, 153, 154, 155, 156, 157, 158, 159, 160, 161, 162, 163, 164, 165, 166, 167, 168, 169, 170, 171, 172, 173, 174, 175, 176, 177, 178, 179, 180, 181, 182, 183, 184, 185, 186, 187, 188, 189, 190, 191, 192, 193, 194, 195, 196, 197, 198, 199, 200, 201, 202, 203, 204, 205, 206, 207, 208, 209, 210, 211, 212, 213, 214, 215, 216, 217, 218, 219, 220, 221, 222, 223, 224, 225, 226, 227, 228, 229, 230, 231, 232, 233, 234, 235, 236, 237, 238, 239, 240, 241, 242, 243, 244, 245, 246, 247, 248, 249, 250, 251, 252, 253, 254, 255, 256, 257, 258, 259, 260, 261, 262, 263, 264, 265, 266, 267, 268, 269, 270, 271, 272, 273, 274, 275, 276, 277, 278, 279, 280, 281, 282, 283, 284, 285, 286, 287, 288, 289, 290, 291, 292, 293, 294, 295, 296, 297, 298, 299, 300, 301, 302, 303, 304, 305, 306, 307, 308, 309, 310, 311, 312, 313, 314, 315, 316, 317, 318, 319, 320, 321, 322, 323, 324, 325, 326, 327, 328, 329, 330, 331, 332, 333, 334, 335, 336, 337, 338, 339, 340, 341, 342, 343, 344, 345, 346, 347, 348, 349, 350, 351, 352, 353, 354, 355, 356, 357, 358, 359, 360, 361, 362, 363, 364, 365, 366, 367, 368, 369, 370, 371, 372, 373, 374, 375, 376, 377, 378, 379, 380, 381, 382, 383, 384, 385, 386, 387, 388, 389, 390, 391, 392, 393, 394, 395, 396, 397, 398, 399, 400, 401, 402, 403, 404, 405, 406, 407, 408, 409, 410, 411, 412, 413, 414, 415, 416, 417, 418, 419, 420, 421, 422, 423, 424, 425, 426, 427, 428, 429, 430, 431, 432, 433, 434, 435, 436, 437, 438, 439, 440, 441, 442, 443, 444, 445, 446, 447, 448, 449, 450, 451, 452, 453, 454, 455, 456, 457, 458, 459, 460, 461, 462, 463, 464, 465, 466, 467, 468, 469, 470, 471, 472, 473, 474, 475, 476, 477, 478, 479, 480, 481, 482, 483, 484, 485, 486, 487, 488, 489, 490, 491, 492, 493, 494, 495, 496, 497, 498, 499, 500, 501, 502, 503, 504, 505, 506, 507, 508, 509, 510, 511, 512, 513, 514, 515, 516, 517, 518, 519, 520, 521, 522, 523, 524, 525, 526, 527, 528, 529, 530, 531, 532, 533, 534, 535, 536, 537, 538, 539, 540, 541, 542, 543, 544, 545, 546, 547, 548, 549, 550, 551, 552, 553, 554, 555, 556, 557, 558, 559, 560, 561, 562, 563, 564, 565, 566, 567, 568, 569, 570, 571, 572, 573, 574, 575, 576, 577, 578, 579, 580, 581, 582, 583, 584, 585, 586, 587, 588, 589, 590, 591, 592, 593, 594, 595, 596, 597, 598, 599, 600, 601, 602, 603, 604, 605, 606, 607, 608, 609, 610, 611, 612, 613, 614, 615, 616, 617, 618, 619, 620, 621, 622, 623, 624, 625, 626, 627, 628, 629, 630, 631, 632, 633, 634, 635, 636, 637, 638, 639, 640, 641, 642, 643, 644, 645, 646, 647, 648, 649, 650, 651, 652, 653, 654, 655, 656, 657, 658, 659, 660, 661, 662, 663, 664, 665, 666, 667, 668, 669, 670, 671, 672, 673, 674, 675, 676, 677, 678, 679, 680, 681, 682, 683, 684, 685, 686, 687, 688, 689, 690, 691, 692, 693, 694, 695, 696, 697, 698, 699, 700, 701, 702, 703, 704, 705, 706, 707, 708, 709, 710, 711, 712, 713, 714, 715, 716, 717, 718, 719, 720, 721, 722, 723, 724, 725, 726, 727, 728, 729, 730, 731, 732, 733, 734, 735, 736, 737, 738, 739, 740, 741, 742, 743, 744, 745, 746, 747, 748, 749, 750, 751, 752, 753, 754, 755, 756, 757, 758, 759, 760, 761, 762, 763, 764, 765, 766, 767, 768, 769, 770, 771, 772, 773, 774, 775, 776, 777, 778, 779, 780, 781, 782, 783, 784, 785, 786, 787, 788, 789, 790, 791, 792, 793, 794, 795, 796, 797, 798, 799, 800, 801, 802, 803, 804, 805, 806, 807, 808, 809, 810, 811, 812, 813, 814, 815, 816, 817, 818, 819, 820, 821, 822, 823, 824, 825, 826, 827, 828, 829, 830, 831, 832, 833, 834, 835, 836, 837, 838, 839, 840, 841, 842, 843, 844, 845, 846, 847, 848, 849, 850, 851, 852, 853, 854, 855, 856, 857, 858, 859, 860, 861, 862, 863, 864, 865, 866, 867, 868, 869, 870, 871, 872, 873, 874, 875, 876, 877, 878, 879, 880, 881, 882, 883, 884, 885, 886, 887, 888, 889, 890, 891, 892, 893, 894, 895, 896, 897, 898, 899, 900, 901, 902, 903, 904, 905, 906, 907, 908, 909, 910, 911, 912, 913, 914],
      "AcquisitionTime": ["172818.157500", "172818.617500", "172819.077500", "172819.537500", "172819.997500", "172820.457500", "172820.917500", "172821.377500", "172821.837500", "172822.297500", "172822.757500", "172823.217500", "172823.677500", "172824.137500", "172824.597500", "172825.057500", "172825.517500", "172825.977500", "172826.437500", "172826.897500", "172827.357500", "172827.817500", "172828.277500", "172828.737500", "172829.197500", "172829.657500", "172830.117500", "172830.577500", "172831.037500", "172831.497500", "172831.957500", "172832.417500", "172832.877500", "172833.337500", "172833.797500", "172834.257500", "172834.717500", "172835.177500", "172835.637500", "172836.097500", "172836.557500", "172837.017500", "172837.477500", "172837.937500", "172838.397500", "172838.857500", "172839.317500", "172839.777500", "172840.237500", "172840.697500", "172841.157500", "172841.617500", "172842.077500", "172842.537500", "172842.997500", "172843.457500", "172843.917500", "172844.377500", "172844.837500", "172845.297500", "172845.757500", "172846.217500", "172846.677500", "172847.137500", "172847.597500", "172848.057500", "172848.517500", "172848.977500", "172849.437500", "172849.897500", "172850.357500", "172850.817500", "172851.277500", "172851.737500", "172852.197500", "172852.657500", "172853.117500", "172853.577500", "172854.037500", "172854.497500", "172854.957500", "172855.417500", "172855.877500", "172856.337500", "172856.797500", "172857.257500", "172857.717500", "172858.177500", "172858.637500", "172859.097500", "172859.557500", "172900.017500", "172900.477500", "172900.937500", "172901.397500", "172901.857500", "172902.317500", "172902.777500", "172903.237500", "172903.697500", "172904.157500", "172904.617500", "172905.077500", "172905.537500", "172905.997500", "172906.457500", "172906.917500", "172907.377500", "172907.837500", "172908.297500", "172908.757500", "172909.217500", "172909.677500", "172910.137500", "172910.597500", "172911.057500", "172911.517500", "172911.977500", "172912.437500", "172912.897500", "172913.357500", "172913.817500", "172914.277500", "172914.737500", "172915.197500", "172915.657500", "172916.117500", "172916.577500", "172917.037500", "172917.497500", "172917.957500", "172918.417500", "172918.877500", "172919.337500", "172919.797500", "172920.257500", "172920.717500", "172921.177500", "172921.637500", "172922.097500", "172922.557500", "172923.017500", "172923.477500", "172923.937500", "172924.397500", "172924.857500", "172925.317500", "172925.777500", "172926.237500", "172926.697500", "172927.157500", "172927.617500", "172928.077500", "172928.537500", "172928.997500", "172929.457500", "172929.917500", "172930.377500", "172930.837500", "172931.297500", "172931.757500", "172932.217500", "172932.677500", "172933.137500", "172933.597500", "172934.057500", "172934.517500", "172934.977500", "172935.437500", "172935.897500", "172936.357500", "172936.817500", "172937.277500", "172937.737500", "172938.197500", "172938.657500", "172939.117500", "172939.577500", "172940.037500", "172940.497500", "172940.957500", "172941.417500", "172941.877500", "172942.337500", "172942.797500", "172943.257500", "172943.717500", "172944.177500", "172944.637500", "172945.097500", "172945.557500", "172946.017500", "172946.477500", "172946.937500", "172947.397500", "172947.857500", "172948.317500", "172948.777500", "172949.237500", "172949.697500", "172950.157500", "172950.617500", "172951.077500", "172951.537500", "172951.997500", "172952.457500", "172952.917500", "172953.377500", "172953.837500", "172954.297500", "172954.757500", "172955.217500", "172955.677500", "172956.137500", "172956.597500", "172957.057500", "172957.517500", "172957.977500", "172958.437500", "172958.897500", "172959.357500", "172959.817500", "173000.277500", "173000.737500", "173001.197500", "173001.657500", "173002.117500", "173002.577500", "173003.037500", "173003.497500", "173003.957500", "173004.417500", "173004.877500", "173005.337500", "173005.797500", "173006.257500", "173006.717500", "173007.177500", "173007.637500", "173008.097500", "173008.557500", "173009.017500", "173009.477500", "173009.937500", "173010.397500", "173010.857500", "173011.317500", "173011.777500", "173012.237500", "173012.697500", "173013.157500", "173013.617500", "173014.077500", "173014.537500", "173014.997500", "173015.457500", "173015.917500", "173016.377500", "173016.837500", "173017.297500", "173017.757500", "173018.217500", "173018.677500", "173019.137500", "173019.597500", "173020.057500", "173020.517500", "173020.977500", "173021.437500", "173021.897500", "173022.357500", "173022.817500", "173023.277500", "173023.737500", "173024.197500", "173024.657500", "173025.117500", "173025.577500", "173026.037500", "173026.497500", "173026.957500", "173027.417500", "173027.877500", "173028.337500", "173028.797500", "173029.257500", "173029.717500", "173030.177500", "173030.637500", "173031.097500", "173031.557500", "173032.017500", "173032.477500", "173032.937500", "173033.397500", "173033.857500", "173034.317500", "173034.777500", "173035.237500", "173035.697500", "173036.157500", "173036.617500", "173037.077500", "173037.537500", "173037.997500", "173038.457500", "173038.917500", "173039.377500", "173039.837500", "173040.297500", "173040.757500", "173041.217500", "173041.677500", "173042.137500", "173042.597500", "173043.057500", "173043.517500", "173043.977500", "173044.437500", "173044.897500", "173045.357500", "173045.817500", "173046.277500", "173046.737500", "173047.197500", "173047.657500", "173048.117500", "173048.577500", "173049.037500", "173049.497500", "173049.957500", "173050.417500", "173050.877500", "173051.337500", "173051.797500", "173052.257500", "173052.717500", "173053.177500", "173053.637500", "173054.097500", "173054.557500", "173055.017500", "173055.477500", "173055.937500", "173056.397500", "173056.857500", "173057.317500", "173057.777500", "173058.237500", "173058.697500", "173059.157500", "173059.617500", "173100.077500", "173100.537500", "173100.997500", "173101.457500", "173101.917500", "173102.377500", "173102.837500", "173103.297500", "173103.757500", "173104.217500", "173104.677500", "173105.137500", "173105.597500", "173106.057500", "173106.517500", "173106.977500", "173107.437500", "173107.897500", "173108.357500", "173108.817500", "173109.277500", "173109.737500", "173110.197500", "173110.657500", "173111.117500", "173111.577500", "173112.037500", "173112.497500", "173112.957500", "173113.417500", "173113.877500", "173114.337500", "173114.797500", "173115.257500", "173115.717500", "173116.177500", "173116.637500", "173117.097500", "173117.557500", "173118.017500", "173118.477500", "173118.937500", "173119.397500", "173119.857500", "173120.317500", "173120.777500", "173121.237500", "173121.697500", "173122.157500", "173122.617500", "173123.077500", "173123.537500", "173123.997500", "173124.457500", "173124.917500", "173125.377500", "173125.837500", "173126.297500", "173126.757500", "173127.217500", "173127.677500", "173128.137500", "173128.597500", "173129.057500", "173129.517500", "173129.977500", "173130.437500", "173130.897500", "173131.357500", "173131.817500", "173132.277500", "173132.737500", "173133.197500", "173133.657500", "173134.117500", "173134.577500", "173135.037500", "173135.497500", "173135.957500", "173136.417500", "173136.877500", "173137.337500", "173137.797500", "173138.257500", "173138.717500", "173139.177500", "173139.637500", "173140.097500", "173140.557500", "173141.017500", "173141.477500", "173141.937500", "173142.397500", "173142.857500", "173143.317500", "173143.777500", "173144.237500", "173144.697500", "173145.157500", "173145.617500", "173146.077500", "173146.537500", "173146.997500", "173147.457500", "173147.917500", "173148.377500", "173148.837500", "173149.297500", "173149.757500", "173150.217500", "173150.677500", "173151.137500", "173151.597500", "173152.057500", "173152.517500", "173152.977500", "173153.437500", "173153.897500", "173154.357500", "173154.817500", "173155.277500", "173155.737500", "173156.197500", "173156.657500", "173157.117500", "173157.577500", "173158.037500", "173158.497500", "173158.957500", "173159.417500", "173159.877500", "173200.337500", "173200.797500", "173201.257500", "173201.717500", "173202.177500", "173202.637500", "173203.097500", "173203.557500", "173204.017500", "173204.477500", "173204.937500", "173205.397500", "173205.857500", "173206.317500", "173206.777500", "173207.237500", "173207.697500", "173208.157500", "173208.617500", "173209.077500", "173209.537500", "173209.997500", "173210.457500", "173210.917500", "173211.377500", "173211.837500", "173212.297500", "173212.757500", "173213.217500", "173213.677500", "173214.137500", "173214.597500", "173215.057500", "173215.517500", "173215.977500", "173216.437500", "173216.897500", "173217.357500", "173217.817500", "173218.277500", "173218.737500", "173219.197500", "173219.657500", "173220.117500", "173220.577500", "173221.037500", "173221.497500", "173221.957500", "173222.417500", "173222.877500", "173223.337500", "173223.797500", "173224.257500", "173224.717500", "173225.177500", "173225.637500", "173226.097500", "173226.557500", "173227.017500", "173227.477500", "173227.937500", "173228.397500", "173228.857500", "173229.317500", "173229.777500", "173230.237500", "173230.697500", "173231.157500", "173231.617500", "173232.077500", "173232.537500", "173232.997500", "173233.457500", "173233.917500", "173234.377500", "173234.837500", "173235.297500", "173235.757500", "173236.217500", "173236.677500", "173237.137500", "173237.597500", "173238.057500", "173238.517500", "173238.977500", "173239.437500", "173239.897500", "173240.357500", "173240.817500", "173241.277500", "173241.737500", "173242.197500", "173242.657500", "173243.117500", "173243.577500", "173244.037500", "173244.497500", "173244.957500", "173245.417500", "173245.877500", "173246.337500", "173246.797500", "173247.257500", "173247.717500", "173248.177500", "173248.637500", "173249.097500", "173249.557500", "173250.017500", "173250.477500", "173250.937500", "173251.397500", "173251.857500", "173252.317500", "173252.777500", "173253.237500", "173253.697500", "173254.157500", "173254.617500", "173255.077500", "173255.537500", "173255.997500", "173256.457500", "173256.917500", "173257.377500", "173257.837500", "173258.297500", "173258.757500", "173259.217500", "173259.677500", "173300.137500", "173300.597500", "173301.057500", "173301.517500", "173301.977500", "173302.437500", "173302.897500", "173303.357500", "173303.817500", "173304.277500", "173304.737500", "173305.197500", "173305.657500", "173306.117500", "173306.577500", "173307.037500", "173307.497500", "173307.957500", "173308.417500", "173308.877500", "173309.337500", "173309.797500", "173310.257500", "173310.717500", "173311.177500", "173311.637500", "173312.097500", "173312.557500", "173313.017500", "173313.477500", "173313.937500", "173314.397500", "173314.857500", "173315.317500", "173315.777500", "173316.237500", "173316.697500", "173317.157500", "173317.617500", "173318.077500", "173318.537500", "173318.997500", "173319.457500", "173319.917500", "173320.377500", "173320.837500", "173321.297500", "173321.757500", "173322.217500", "173322.677500", "173323.137500", "173323.597500", "173324.057500", "173324.517500", "173324.977500", "173325.437500", "173325.897500", "173326.357500", "173326.817500", "173327.277500", "173327.737500", "173328.197500", "173328.657500", "173329.117500", "173329.577500", "173330.037500", "173330.497500", "173330.957500", "173331.417500", "173331.877500", "173332.337500", "173332.797500", "173333.257500", "173333.717500", "173334.177500", "173334.637500", "173335.097500", "173335.557500", "173336.017500", "173336.477500", "173336.937500", "173337.397500", "173337.857500", "173338.317500", "173338.777500", "173339.237500", "173339.697500", "173340.157500", "173340.617500", "173341.077500", "173341.537500", "173341.997500", "173342.457500", "173342.917500", "173343.377500", "173343.837500", "173344.297500", "173344.757500", "173345.217500", "173345.677500", "173346.137500", "173346.597500", "173347.057500", "173347.517500", "173347.977500", "173348.437500", "173348.897500", "173349.357500", "173349.817500", "173350.277500", "173350.737500", "173351.197500", "173351.657500", "173352.117500", "173352.577500", "173353.037500", "173353.497500", "173353.957500", "173354.417500", "173354.877500", "173355.337500", "173355.797500", "173356.257500", "173356.717500", "173357.177500", "173357.637500", "173358.097500", "173358.557500", "173359.017500", "173359.477500", "173359.937500", "173400.397500", "173400.857500", "173401.317500", "173401.777500", "173402.237500", "173402.697500", "173403.157500", "173403.617500", "173404.077500", "173404.537500", "173404.997500", "173405.457500", "173405.917500", "173406.377500", "173406.837500", "173407.297500", "173407.757500", "173408.217500", "173408.677500", "173409.137500", "173409.597500", "173410.057500", "173410.517500", "173410.977500", "173411.437500", "173411.897500", "173412.357500", "173412.817500", "173413.277500", "173413.737500", "173414.197500", "173414.657500", "173415.117500", "173415.577500", "173416.037500", "173416.497500", "173416.957500", "173417.417500", "173417.877500", "173418.337500", "173418.797500", "173419.257500", "173419.717500", "173420.177500", "173420.637500", "173421.097500", "173421.557500", "173422.017500", "173422.477500", "173422.937500", "173423.397500", "173423.857500", "173424.317500", "173424.777500", "173425.237500", "173425.697500", "173426.157500", "173426.617500", "173427.077500", "173427.537500", "173427.997500", "173428.457500", "173428.917500", "173429.377500", "173429.837500", "173430.297500", "173430.757500", "173431.217500", "173431.677500", "173432.137500", "173432.597500", "173433.057500", "173433.517500", "173433.977500", "173434.437500", "173434.897500", "173435.357500", "173435.817500", "173436.277500", "173436.737500", "173437.197500", "173437.657500", "173438.117500", "173438.577500", "173439.037500", "173439.497500", "173439.957500", "173440.417500", "173440.877500", "173441.337500", "173441.797500", "173442.257500", "173442.717500", "173443.177500", "173443.637500", "173444.097500", "173444.557500", "173445.017500", "173445.477500", "173445.937500", "173446.397500", "173446.857500", "173447.317500", "173447.777500", "173448.237500", "173448.697500", "173449.157500", "173449.617500", "173450.077500", "173450.537500", "173450.997500", "173451.457500", "173451.917500", "173452.377500", "173452.837500", "173453.297500", "173453.757500", "173454.217500", "173454.677500", "173455.137500", "173455.597500", "173456.057500", "173456.517500", "173456.977500", "173457.437500", "173457.897500", "173458.357500", "173458.817500", "173459.277500", "173459.737500", "173500.197500", "173500.657500", "173501.117500", "173501.577500", "173502.037500", "173502.497500", "173502.957500", "173503.417500", "173503.877500", "173504.337500", "173504.797500", "173505.257500", "173505.717500", "173506.177500", "173506.637500", "173507.097500", "173507.557500", "173508.017500", "173508.477500", "173508.937500", "173509.397500", "173509.857500", "173510.317500", "173510.777500", "173511.237500", "173511.697500", "173512.157500", "173512.617500", "173513.077500", "173513.537500", "173513.997500", "173514.457500", "173514.917500", "173515.377500", "173515.837500", "173516.297500", "173516.757500", "173517.217500", "173517.677500", "173518.137500"],
