{
  "AcquisitionMatrixPE": 82,
  "AcquisitionNumber": 1,
  "AcquisitionTime": "15:54:55.952500",
  "BandwidthPerPixelPhaseEncode": 24.888,
  "BaseResolution": 82,
  "BodyPartExamined": "BRAIN",
  "ConsistencyInfo": "N4_VE11E_LATEST_20181129",
  "ConversionSoftware": "dcm2niix",
  "ConversionSoftwareVersion": "v1.0.20201102",
  "DerivedVendorReportedEchoSpacing": 0.00049,
  "DeviceSerialNumber": "66112",
  "DwellTime": 2e-06,
  "EchoTime": 0.0272,
  "EchoTrainLength": 82,
  "EffectiveEchoSpacing": 0.00049,
  "FlipAngle": 44,
  "ImageComments": "Unaliased MB8/PE3",
  "ImageOrientationPatientDICOM": [0.998224, -0.0591636, 0.00701249, 0.0580816, 0.992604, 0.106599],
  "ImageType": [
    "ORIGINAL",
    "PRIMARY",
    "M",
    "MB",
    "ND",
    "NORM",
    "MOSAIC"
],
  "ImagingFrequency": 123.252,
  "InPlanePhaseEncodingDirectionDICOM": "COL",
  "InstitutionAddress": "Maynard 3,Hanover,NH,US,03755",
  "InstitutionName": "Dartmouth College - PBS",
  "InstitutionalDepartmentName": "Department",
  "MRAcquisitionType": "2D",
  "MagneticFieldStrength": 3,
  "Manufacturer": "Siemens",
  "ManufacturersModelName": "Prisma",
  "Modality": "MR",
  "MultibandAccelerationFactor": 8,
  "PartialFourier": 1,
  "PatientPosition": "HFS",
  "PercentPhaseFOV": 100,
  "PercentSampling": 100,
  "PhaseEncodingDirection": "j-",
  "PhaseEncodingSteps": 82,
  "PhaseResolution": 1,
  "PixelBandwidth": 3050,
  "ProcedureStepDescription": "Wager_Wager^1076_spacetop",
  "ProtocolName": "func_run-01_task-narratives_acq-ap-mb8",
  "PulseSequenceDetails": "%CustomerSeq%\\cmrr_mbep2d_bold",
  "ReceiveCoilActiveElements": "HEA;HEP",
  "ReceiveCoilName": "Head_32",
  "ReconMatrixPE": 82,
  "RepetitionTime": 0.46,
  "SAR": 0.09311,
  "ScanOptions": "FS",
  "ScanningSequence": "EP",
  "SequenceName": "epfid2d1_82",
  "SequenceVariant": "SK\\SS",
  "SeriesDescription": "func_run-01_task-narratives_acq-ap-mb8",
  "SeriesNumber": 8,
  "ShimSetting": [4150, -7888, -7279, 870, -74, -554, 251, 104],
  "SliceThickness": 2.7,
  "SliceTiming": [0, 0.2525, 0.0625, 0.315, 0.125, 0.3775, 0.1875, 0, 0.2525, 0.0625, 0.315, 0.125, 0.3775, 0.1875, 0, 0.2525, 0.0625, 0.315, 0.125, 0.3775, 0.1875, 0, 0.2525, 0.0625, 0.315, 0.125, 0.3775, 0.1875, 0, 0.2525, 0.0625, 0.315, 0.125, 0.3775, 0.1875, 0, 0.2525, 0.0625, 0.315, 0.125, 0.3775, 0.1875, 0, 0.2525, 0.0625, 0.315, 0.125, 0.3775, 0.1875, 0, 0.2525, 0.0625, 0.315, 0.125, 0.3775, 0.1875],
  "SoftwareVersions": "syngo MR E11",
  "SpacingBetweenSlices": 2.7,
  "StationName": "AWP66112",
  "TaskName": "narratives",
  "TotalReadoutTime": 0.03969,
  "TxRefAmp": 233.552,
  "WipMemBlock": "97cc9507-2c7a-44a0-98d4-e506c49d13d0||Sequence: R016 ve11e/master r/434b28f1; Aug  7 2019 18:53:46 by eja",
  "dcmmeta_affine": [
    [-2.678161144256592, 0.1558288186788559, 0.03582196310162544, 105.0788803100586],
    [0.15873149037361145, 2.6630847454071045, 0.2862057387828827, -120.65596771240234],
    [0.018814008682966232, -0.2859967350959778, 2.684548854827881, -58.59657287597656],
    [0.0, 0.0, 0.0, 1.0]
],
  "dcmmeta_reorient_transform": [
    [0.0, -1.0, 0.0, 81.0],
    [1.0, 0.0, 0.0, 0.0],
    [0.0, 0.0, 1.0, 0.0],
    [0.0, 0.0, 0.0, 1.0]
],
  "dcmmeta_shape": [82, 82, 56, 967],
  "dcmmeta_slice_dim": 2,
  "dcmmeta_version": 0.6,
  "global": {
    "const": {
      "AccessionNumber": "A004059",
      "AcquisitionMatrix": [82, 0, 0, 82],
      "AngioFlag": "N",
      "BitsAllocated": 16,
      "BitsStored": 16,
      "BodyPartExamined": "BRAIN",
      "Columns": 656,
      "EchoNumbers": 1,
      "EchoTime": 27.2,
      "EchoTrainLength": 82,
      "FlipAngle": 44.0,
      "HighBit": 15,
      "ImageOrientationPatient": [0.99822367159329, -0.0591635563406, 0.00701249398837, 0.05808164704509, 0.99260426310879, 0.10659877642254],
      "ImagePositionPatient": [-931.05612751454, -813.80325066664, -169.24298839946],
      "ImageType": [
        "ORIGINAL",
        "PRIMARY",
        "M",
        "MB",
        "ND",
        "NORM",
        "MOSAIC"
],
      "ImagedNucleus": "1H",
      "ImagingFrequency": 123.252195,
      "InPlanePhaseEncodingDirection": "COL",
      "MRAcquisitionType": "2D",
      "MagneticFieldStrength": 3.0,
      "Manufacturer": "SIEMENS",
      "ManufacturerModelName": "Prisma",
      "Modality": "MR",
      "NumberOfAverages": 1.0,
      "NumberOfPhaseEncodingSteps": 82,
      "PercentPhaseFieldOfView": 100.0,
      "PercentSampling": 100.0,
      "PerformedProcedureStepStartTime": "154052.298000",
      "PhotometricInterpretation": "MONOCHROME2",
      "PixelBandwidth": 3050.0,
      "PixelRepresentation": 0,
      "PixelSpacing": [2.6829268932343, 2.6829268932343],
      "ProtocolName": "func_run-01_task-narratives_acq-ap-mb8",
      "RepetitionTime": 460.0,
      "Rows": 656,
      "SAR": 0.09310995173495,
      "SamplesPerPixel": 1,
      "ScanOptions": "FS",
      "ScanningSequence": "EP",
      "SequenceName": "epfid2d1_82",
      "SequenceVariant": [
        "SK",
        "SS"
],
      "SeriesDescription": "func_run-01_task-narratives_acq-ap-mb8",
      "SeriesNumber": 8,
      "SeriesTime": "155516.736000",
      "SliceLocation": -69.656914229286,
      "SliceThickness": 2.7000000476837,
      "SmallestImagePixelValue": 0,
      "SoftwareVersions": "syngo MR E11",
      "SpacingBetweenSlices": 2.7000000012095,
      "SpecificCharacterSet": "ISO_IR 100",
      "StudyID": "2",
      "StudyTime": "154052.242000",
      "TransmitCoilName": "Body",
      "VariableFlipAngleFlag": "N",
      "WindowCenterWidthExplanation": "Algo1"
    },
    "slices": {}
  },
  "time": {
    "samples": {
      "AcquisitionNumber": [1, 2, 3, 4, 5, 6, 7, 8, 9, 10, 11, 12, 13, 14, 15, 16, 17, 18, 19, 20, 21, 22, 23, 24, 25, 26, 27, 28, 29, 30, 31, 32, 33, 34, 35, 36, 37, 38, 39, 40, 41, 42, 43, 44, 45, 46, 47, 48, 49, 50, 51, 52, 53, 54, 55, 56, 57, 58, 59, 60, 61, 62, 63, 64, 65, 66, 67, 68, 69, 70, 71, 72, 73, 74, 75, 76, 77, 78, 79, 80, 81, 82, 83, 84, 85, 86, 87, 88, 89, 90, 91, 92, 93, 94, 95, 96, 97, 98, 99, 100, 101, 102, 103, 104, 105, 106, 107, 108, 109, 110, 111, 112, 113, 114, 115, 116, 117, 118, 119, 120, 121, 122, 123, 124, 125, 126, 127, 128, 129, 130, 131, 132, 133, 134, 135, 136, 137, 138, 139, 140, 141, 142, 143, 144, 145, 146, 147, 148, 149, 150, 151, 152, 153, 154, 155, 156, 157, 158, 159, 160, 161, 162, 163, 164, 165, 166, 167, 168, 169, 170, 171, 172, 173, 174, 175, 176, 177, 178, 179, 180, 181, 182, 183, 184, 185, 186, 187, 188, 189, 190, 191, 192, 193, 194, 195, 196, 197, 198, 199, 200, 201, 202, 203, 204, 205, 206, 207, 208, 209, 210, 211, 212, 213, 214, 215, 216, 217, 218, 219, 220, 221, 222, 223, 224, 225, 226, 227, 228, 229, 230, 231, 232, 233, 234, 235, 236, 237, 238, 239, 240, 241, 242, 243, 244, 245, 246, 247, 248, 249, 250, 251, 252, 253, 254, 255, 256, 257, 258, 259, 260, 261, 262, 263, 264, 265, 266, 267, 268, 269, 270, 271, 272, 273, 274, 275, 276, 277, 278, 279, 280, 281, 282, 283, 284, 285, 286, 287, 288, 289, 290, 291, 292, 293, 294, 295, 296, 297, 298, 299, 300, 301, 302, 303, 304, 305, 306, 307, 308, 309, 310, 311, 312, 313, 314, 315, 316, 317, 318, 319, 320, 321, 322, 323, 324, 325, 326, 327, 328, 329, 330, 331, 332, 333, 334, 335, 336, 337, 338, 339, 340, 341, 342, 343, 344, 345, 346, 347, 348, 349, 350, 351, 352, 353, 354, 355, 356, 357, 358, 359, 360, 361, 362, 363, 364, 365, 366, 367, 368, 369, 370, 371, 372, 373, 374, 375, 376, 377, 378, 379, 380, 381, 382, 383, 384, 385, 386, 387, 388, 389, 390, 391, 392, 393, 394, 395, 396, 397, 398, 399, 400, 401, 402, 403, 404, 405, 406, 407, 408, 409, 410, 411, 412, 413, 414, 415, 416, 417, 418, 419, 420, 421, 422, 423, 424, 425, 426, 427, 428, 429, 430, 431, 432, 433, 434, 435, 436, 437, 438, 439, 440, 441, 442, 443, 444, 445, 446, 447, 448, 449, 450, 451, 452, 453, 454, 455, 456, 457, 458, 459, 460, 461, 462, 463, 464, 465, 466, 467, 468, 469, 470, 471, 472, 473, 474, 475, 476, 477, 478, 479, 480, 481, 482, 483, 484, 485, 486, 487, 488, 489, 490, 491, 492, 493, 494, 495, 496, 497, 498, 499, 500, 501, 502, 503, 504, 505, 506, 507, 508, 509, 510, 511, 512, 513, 514, 515, 516, 517, 518, 519, 520, 521, 522, 523, 524, 525, 526, 527, 528, 529, 530, 531, 532, 533, 534, 535, 536, 537, 538, 539, 540, 541, 542, 543, 544, 545, 546, 547, 548, 549, 550, 551, 552, 553, 554, 555, 556, 557, 558, 559, 560, 561, 562, 563, 564, 565, 566, 567, 568, 569, 570, 571, 572, 573, 574, 575, 576, 577, 578, 579, 580, 581, 582, 583, 584, 585, 586, 587, 588, 589, 590, 591, 592, 593, 594, 595, 596, 597, 598, 599, 600, 601, 602, 603, 604, 605, 606, 607, 608, 609, 610, 611, 612, 613, 614, 615, 616, 617, 618, 619, 620, 621, 622, 623, 624, 625, 626, 627, 628, 629, 630, 631, 632, 633, 634, 635, 636, 637, 638, 639, 640, 641, 642, 643, 644, 645, 646, 647, 648, 649, 650, 651, 652, 653, 654, 655, 656, 657, 658, 659, 660, 661, 662, 663, 664, 665, 666, 667, 668, 669, 670, 671, 672, 673, 674, 675, 676, 677, 678, 679, 680, 681, 682, 683, 684, 685, 686, 687, 688, 689, 690, 691, 692, 693, 694, 695, 696, 697, 698, 699, 700, 701, 702, 703, 704, 705, 706, 707, 708, 709, 710, 711, 712, 713, 714, 715, 716, 717, 718, 719, 720, 721, 722, 723, 724, 725, 726, 727, 728, 729, 730, 731, 732, 733, 734, 735, 736, 737, 738, 739, 740, 741, 742, 743, 744, 745, 746, 747, 748, 749, 750, 751, 752, 753, 754, 755, 756, 757, 758, 759, 760, 761, 762, 763, 764, 765, 766, 767, 768, 769, 770, 771, 772, 773, 774, 775, 776, 777, 778, 779, 780, 781, 782, 783, 784, 785, 786, 787, 788, 789, 790, 791, 792, 793, 794, 795, 796, 797, 798, 799, 800, 801, 802, 803, 804, 805, 806, 807, 808, 809, 810, 811, 812, 813, 814, 815, 816, 817, 818, 819, 820, 821, 822, 823, 824, 825, 826, 827, 828, 829, 830, 831, 832, 833, 834, 835, 836, 837, 838, 839, 840, 841, 842, 843, 844, 845, 846, 847, 848, 849, 850, 851, 852, 853, 854, 855, 856, 857, 858, 859, 860, 861, 862, 863, 864, 865, 866, 867, 868, 869, 870, 871, 872, 873, 874, 875, 876, 877, 878, 879, 880, 881, 882, 883, 884, 885, 886, 887, 888, 889, 890, 891, 892, 893, 894, 895, 896, 897, 898, 899, 900, 901, 902, 903, 904, 905, 906, 907, 908, 909, 910, 911, 912, 913, 914, 915, 916, 917, 918, 919, 920, 921, 922, 923, 924, 925, 926, 927, 928, 929, 930, 931, 932, 933, 934, 935, 936, 937, 938, 939, 940, 941, 942, 943, 944, 945, 946, 947, 948, 949, 950, 951, 952, 953, 954, 955, 956, 957, 958, 959, 960, 961, 962, 963, 964, 965, 966, 967],
      "AcquisitionTime": ["155455.952500", "155456.412500", "155456.872500", "155457.332500", "155457.792500", "155458.252500", "155458.712500", "155459.172500", "155459.632500", "155500.092500", "155500.552500", "155501.012500", "155501.472500", "155501.932500", "155502.392500", "155502.852500", "155503.312500", "155503.772500", "155504.232500", "155504.692500", "155505.152500", "155505.612500", "155506.072500", "155506.532500", "155506.992500", "155507.452500", "155507.912500", "155508.372500", "155508.832500", "155509.292500", "155509.752500", "155510.212500", "155510.672500", "155511.132500", "155511.592500", "155512.052500", "155512.512500", "155512.972500", "155513.432500", "155513.892500", "155514.352500", "155514.812500", "155515.272500", "155515.732500", "155516.192500", "155516.652500", "155517.112500", "155517.572500", "155518.032500", "155518.492500", "155518.952500", "155519.412500", "155519.872500", "155520.332500", "155520.792500", "155521.252500", "155521.712500", "155522.172500", "155522.632500", "155523.092500", "155523.552500", "155524.012500", "155524.472500", "155524.932500", "155525.392500", "155525.852500", "155526.312500", "155526.772500", "155527.232500", "155527.692500", "155528.152500", "155528.612500", "155529.072500", "155529.532500", "155529.992500", "155530.452500", "155530.912500", "155531.372500", "155531.832500", "155532.292500", "155532.752500", "155533.212500", "155533.672500", "155534.132500", "155534.592500", "155535.052500", "155535.512500", "155535.972500", "155536.432500", "155536.892500", "155537.352500", "155537.812500", "155538.272500", "155538.732500", "155539.192500", "155539.652500", "155540.112500", "155540.572500", "155541.032500", "155541.492500", "155541.952500", "155542.412500", "155542.872500", "155543.332500", "155543.792500", "155544.252500", "155544.712500", "155545.172500", "155545.632500", "155546.092500", "155546.552500", "155547.012500", "155547.472500", "155547.932500", "155548.392500", "155548.852500", "155549.312500", "155549.772500", "155550.232500", "155550.692500", "155551.152500", "155551.612500", "155552.072500", "155552.532500", "155552.992500", "155553.452500", "155553.912500", "155554.372500", "155554.832500", "155555.292500", "155555.752500", "155556.212500", "155556.672500", "155557.132500", "155557.592500", "155558.052500", "155558.512500", "155558.972500", "155559.432500", "155559.892500", "155600.352500", "155600.812500", "155601.272500", "155601.732500", "155602.192500", "155602.652500", "155603.112500", "155603.572500", "155604.032500", "155604.492500", "155604.952500", "155605.412500", "155605.872500", "155606.332500", "155606.792500", "155607.252500", "155607.712500", "155608.172500", "155608.632500", "155609.092500", "155609.552500", "155610.012500", "155610.472500", "155610.932500", "155611.392500", "155611.852500", "155612.312500", "155612.772500", "155613.232500", "155613.692500", "155614.152500", "155614.612500", "155615.072500", "155615.532500", "155615.992500", "155616.452500", "155616.912500", "155617.372500", "155617.832500", "155618.292500", "155618.752500", "155619.212500", "155619.672500", "155620.132500", "155620.592500", "155621.052500", "155621.512500", "155621.972500", "155622.432500", "155622.892500", "155623.352500", "155623.812500", "155624.272500", "155624.732500", "155625.192500", "155625.652500", "155626.112500", "155626.572500", "155627.032500", "155627.492500", "155627.952500", "155628.412500", "155628.872500", "155629.332500", "155629.792500", "155630.252500", "155630.712500", "155631.172500", "155631.632500", "155632.092500", "155632.552500", "155633.012500", "155633.472500", "155633.932500", "155634.392500", "155634.852500", "155635.312500", "155635.772500", "155636.232500", "155636.692500", "155637.152500", "155637.612500", "155638.072500", "155638.532500", "155638.992500", "155639.452500", "155639.912500", "155640.372500", "155640.832500", "155641.292500", "155641.752500", "155642.212500", "155642.672500", "155643.132500", "155643.592500", "155644.052500", "155644.512500", "155644.972500", "155645.432500", "155645.892500", "155646.352500", "155646.812500", "155647.272500", "155647.732500", "155648.192500", "155648.652500", "155649.112500", "155649.572500", "155650.032500", "155650.492500", "155650.952500", "155651.412500", "155651.872500", "155652.332500", "155652.792500", "155653.252500", "155653.712500", "155654.172500", "155654.632500", "155655.092500", "155655.552500", "155656.012500", "155656.472500", "155656.932500", "155657.392500", "155657.852500", "155658.312500", "155658.772500", "155659.232500", "155659.692500", "155700.152500", "155700.612500", "155701.072500", "155701.532500", "155701.992500", "155702.452500", "155702.912500", "155703.372500", "155703.832500", "155704.292500", "155704.752500", "155705.212500", "155705.672500", "155706.132500", "155706.592500", "155707.052500", "155707.512500", "155707.972500", "155708.432500", "155708.892500", "155709.352500", "155709.812500", "155710.272500", "155710.732500", "155711.192500", "155711.652500", "155712.112500", "155712.572500", "155713.032500", "155713.492500", "155713.952500", "155714.412500", "155714.872500", "155715.332500", "155715.792500", "155716.252500", "155716.712500", "155717.172500", "155717.632500", "155718.092500", "155718.552500", "155719.012500", "155719.472500", "155719.932500", "155720.392500", "155720.852500", "155721.312500", "155721.772500", "155722.232500", "155722.692500", "155723.152500", "155723.612500", "155724.072500", "155724.532500", "155724.992500", "155725.452500", "155725.912500", "155726.372500", "155726.832500", "155727.292500", "155727.752500", "155728.212500", "155728.672500", "155729.132500", "155729.592500", "155730.052500", "155730.512500", "155730.972500", "155731.432500", "155731.892500", "155732.352500", "155732.812500", "155733.272500", "155733.732500", "155734.192500", "155734.652500", "155735.112500", "155735.572500", "155736.032500", "155736.492500", "155736.952500", "155737.412500", "155737.872500", "155738.332500", "155738.792500", "155739.252500", "155739.712500", "155740.172500", "155740.632500", "155741.092500", "155741.552500", "155742.012500", "155742.472500", "155742.932500", "155743.392500", "155743.852500", "155744.312500", "155744.772500", "155745.232500", "155745.692500", "155746.152500", "155746.612500", "155747.072500", "155747.532500", "155747.992500", "155748.452500", "155748.912500", "155749.372500", "155749.832500", "155750.292500", "155750.752500", "155751.212500", "155751.672500", "155752.132500", "155752.592500", "155753.052500", "155753.512500", "155753.972500", "155754.432500", "155754.892500", "155755.352500", "155755.812500", "155756.272500", "155756.732500", "155757.192500", "155757.652500", "155758.112500", "155758.572500", "155759.032500", "155759.492500", "155759.952500", "155800.412500", "155800.872500", "155801.332500", "155801.792500", "155802.252500", "155802.712500", "155803.172500", "155803.632500", "155804.092500", "155804.552500", "155805.012500", "155805.472500", "155805.932500", "155806.392500", "155806.852500", "155807.312500", "155807.772500", "155808.232500", "155808.692500", "155809.152500", "155809.612500", "155810.072500", "155810.532500", "155810.992500", "155811.452500", "155811.912500", "155812.372500", "155812.832500", "155813.292500", "155813.752500", "155814.212500", "155814.672500", "155815.132500", "155815.592500", "155816.052500", "155816.512500", "155816.972500", "155817.432500", "155817.892500", "155818.352500", "155818.812500", "155819.272500", "155819.732500", "155820.192500", "155820.652500", "155821.112500", "155821.572500", "155822.032500", "155822.492500", "155822.952500", "155823.412500", "155823.872500", "155824.332500", "155824.792500", "155825.252500", "155825.712500", "155826.172500", "155826.632500", "155827.092500", "155827.552500", "155828.012500", "155828.472500", "155828.932500", "155829.392500", "155829.852500", "155830.312500", "155830.772500", "155831.232500", "155831.692500", "155832.152500", "155832.612500", "155833.072500", "155833.532500", "155833.992500", "155834.452500", "155834.912500", "155835.372500", "155835.832500", "155836.292500", "155836.752500", "155837.212500", "155837.672500", "155838.132500", "155838.592500", "155839.052500", "155839.512500", "155839.972500", "155840.432500", "155840.892500", "155841.352500", "155841.812500", "155842.272500", "155842.732500", "155843.192500", "155843.652500", "155844.112500", "155844.572500", "155845.032500", "155845.492500", "155845.952500", "155846.412500", "155846.872500", "155847.332500", "155847.792500", "155848.252500", "155848.712500", "155849.172500", "155849.632500", "155850.092500", "155850.552500", "155851.012500", "155851.472500", "155851.932500", "155852.392500", "155852.852500", "155853.312500", "155853.772500", "155854.232500", "155854.692500", "155855.152500", "155855.612500", "155856.072500", "155856.532500", "155856.992500", "155857.452500", "155857.912500", "155858.372500", "155858.832500", "155859.292500", "155859.752500", "155900.212500", "155900.672500", "155901.132500", "155901.592500", "155902.052500", "155902.512500", "155902.972500", "155903.432500", "155903.892500", "155904.352500", "155904.812500", "155905.272500", "155905.732500", "155906.192500", "155906.652500", "155907.112500", "155907.572500", "155908.032500", "155908.492500", "155908.952500", "155909.412500", "155909.872500", "155910.332500", "155910.792500", "155911.252500", "155911.712500", "155912.172500", "155912.632500", "155913.092500", "155913.552500", "155914.012500", "155914.472500", "155914.932500", "155915.392500", "155915.852500", "155916.312500", "155916.772500", "155917.232500", "155917.692500", "155918.152500", "155918.612500", "155919.072500", "155919.532500", "155919.992500", "155920.452500", "155920.912500", "155921.372500", "155921.832500", "155922.292500", "155922.752500", "155923.212500", "155923.672500", "155924.132500", "155924.592500", "155925.052500", "155925.512500", "155925.972500", "155926.432500", "155926.892500", "155927.352500", "155927.812500", "155928.272500", "155928.732500", "155929.192500", "155929.652500", "155930.112500", "155930.572500", "155931.032500", "155931.492500", "155931.952500", "155932.412500", "155932.872500", "155933.332500", "155933.792500", "155934.252500", "155934.712500", "155935.172500", "155935.632500", "155936.092500", "155936.552500", "155937.012500", "155937.472500", "155937.932500", "155938.392500", "155938.852500", "155939.312500", "155939.772500", "155940.232500", "155940.692500", "155941.152500", "155941.612500", "155942.072500", "155942.532500", "155942.992500", "155943.452500", "155943.912500", "155944.372500", "155944.832500", "155945.292500", "155945.752500", "155946.212500", "155946.672500", "155947.132500", "155947.592500", "155948.052500", "155948.512500", "155948.972500", "155949.432500", "155949.892500", "155950.352500", "155950.812500", "155951.272500", "155951.732500", "155952.192500", "155952.652500", "155953.112500", "155953.572500", "155954.032500", "155954.492500", "155954.952500", "155955.412500", "155955.872500", "155956.332500", "155956.792500", "155957.252500", "155957.712500", "155958.172500", "155958.632500", "155959.092500", "155959.552500", "160000.012500", "160000.472500", "160000.932500", "160001.392500", "160001.852500", "160002.312500", "160002.772500", "160003.232500", "160003.692500", "160004.152500", "160004.612500", "160005.072500", "160005.532500", "160005.992500", "160006.452500", "160006.912500", "160007.372500", "160007.832500", "160008.292500", "160008.752500", "160009.212500", "160009.672500", "160010.132500", "160010.592500", "160011.052500", "160011.512500", "160011.972500", "160012.432500", "160012.892500", "160013.352500", "160013.812500", "160014.272500", "160014.732500", "160015.192500", "160015.652500", "160016.112500", "160016.572500", "160017.032500", "160017.492500", "160017.952500", "160018.412500", "160018.872500", "160019.332500", "160019.792500", "160020.252500", "160020.712500", "160021.172500", "160021.632500", "160022.092500", "160022.552500", "160023.012500", "160023.472500", "160023.932500", "160024.392500", "160024.852500", "160025.312500", "160025.772500", "160026.232500", "160026.692500", "160027.152500", "160027.612500", "160028.072500", "160028.532500", "160028.992500", "160029.452500", "160029.912500", "160030.372500", "160030.832500", "160031.292500", "160031.752500", "160032.212500", "160032.672500", "160033.132500", "160033.592500", "160034.052500", "160034.512500", "160034.972500", "160035.432500", "160035.892500", "160036.352500", "160036.812500", "160037.272500", "160037.732500", "160038.192500", "160038.652500", "160039.112500", "160039.572500", "160040.032500", "160040.492500", "160040.952500", "160041.412500", "160041.872500", "160042.332500", "160042.792500", "160043.252500", "160043.712500", "160044.172500", "160044.632500", "160045.092500", "160045.552500", "160046.012500", "160046.472500", "160046.932500", "160047.392500", "160047.852500", "160048.312500", "160048.772500", "160049.232500", "160049.692500", "160050.152500", "160050.612500", "160051.072500", "160051.532500", "160051.992500", "160052.452500", "160052.912500", "160053.372500", "160053.832500", "160054.292500", "160054.752500", "160055.212500", "160055.672500", "160056.132500", "160056.592500", "160057.052500", "160057.512500", "160057.972500", "160058.432500", "160058.892500", "160059.352500", "160059.812500", "160100.272500", "160100.732500", "160101.192500", "160101.652500", "160102.112500", "160102.572500", "160103.032500", "160103.492500", "160103.952500", "160104.412500", "160104.872500", "160105.332500", "160105.792500", "160106.252500", "160106.712500", "160107.172500", "160107.632500", "160108.092500", "160108.552500", "160109.012500", "160109.472500", "160109.932500", "160110.392500", "160110.852500", "160111.312500", "160111.772500", "160112.232500", "160112.692500", "160113.152500", "160113.612500", "160114.072500", "160114.532500", "160114.992500", "160115.452500", "160115.912500", "160116.372500", "160116.832500", "160117.292500", "160117.752500", "160118.212500", "160118.672500", "160119.132500", "160119.592500", "160120.052500", "160120.512500", "160120.972500", "160121.432500", "160121.892500", "160122.352500", "160122.812500", "160123.272500", "160123.732500", "160124.192500", "160124.652500", "160125.112500", "160125.572500", "160126.032500", "160126.492500", "160126.952500", "160127.412500", "160127.872500", "160128.332500", "160128.792500", "160129.252500", "160129.712500", "160130.172500", "160130.632500", "160131.092500", "160131.552500", "160132.012500", "160132.472500", "160132.932500", "160133.392500", "160133.852500", "160134.312500", "160134.772500", "160135.232500", "160135.692500", "160136.152500", "160136.612500", "160137.072500", "160137.532500", "160137.992500", "160138.452500", "160138.912500", "160139.372500", "160139.832500", "160140.292500", "160140.752500", "160141.212500", "160141.672500", "160142.132500", "160142.592500", "160143.052500", "160143.512500", "160143.972500", "160144.432500", "160144.892500", "160145.352500", "160145.812500", "160146.272500", "160146.732500", "160147.192500", "160147.652500", "160148.112500", "160148.572500", "160149.032500", "160149.492500", "160149.952500", "160150.412500", "160150.872500", "160151.332500", "160151.792500", "160152.252500", "160152.712500", "160153.172500", "160153.632500", "160154.092500", "160154.552500", "160155.012500", "160155.472500", "160155.932500", "160156.392500", "160156.852500", "160157.312500", "160157.772500", "160158.232500", "160158.692500", "160159.152500", "160159.612500", "160200.072500", "160200.532500", "160200.992500", "160201.452500", "160201.912500", "160202.372500", "160202.832500", "160203.292500", "160203.752500", "160204.212500", "160204.672500", "160205.132500", "160205.592500", "160206.052500", "160206.512500", "160206.972500", "160207.432500", "160207.892500", "160208.352500", "160208.812500", "160209.272500", "160209.732500", "160210.192500", "160210.652500", "160211.112500", "160211.572500", "160212.032500", "160212.492500", "160212.952500", "160213.412500", "160213.872500", "160214.332500", "160214.792500", "160215.252500", "160215.712500", "160216.172500", "160216.632500", "160217.092500", "160217.552500", "160218.012500", "160218.472500", "160218.932500", "160219.392500", "160219.852500", "160220.312500"],
