{
  "AcquisitionMatrixPE": 82,
  "AcquisitionNumber": 1,
  "AcquisitionTime": "11:42:59.537500",
  "BandwidthPerPixelPhaseEncode": 24.888,
  "BaseResolution": 82,
  "BodyPartExamined": "BRAIN",
  "ConsistencyInfo": "N4_VE11C_LATEST_20160120",
  "ConversionSoftware": "dcm2niix",
  "ConversionSoftwareVersion": "v1.0.20201102",
  "DerivedVendorReportedEchoSpacing": 0.00049,
  "DeviceSerialNumber": "66112",
  "DwellTime": 2e-06,
  "EchoTime": 0.0272,
  "EchoTrainLength": 82,
  "EffectiveEchoSpacing": 0.00049,
  "FlipAngle": 44,
  "ImageComments": "Unaliased MB8/PE3",
  "ImageOrientationPatientDICOM": [0.999984, -0.00562845, 0.000736891, 0.00558502, 0.998755, 0.0495635],
  "ImageType": [
    "ORIGINAL",
    "PRIMARY",
    "M",
    "MB",
    "ND",
    "NORM",
    "MOSAIC"
],
  "ImagingFrequency": 123.252,
  "InPlanePhaseEncodingDirectionDICOM": "COL",
  "InstitutionAddress": "Maynard 3,Hanover,NH,US,03755",
  "InstitutionName": "Dartmouth College - PBS",
  "InstitutionalDepartmentName": "Department",
  "MRAcquisitionType": "2D",
  "MagneticFieldStrength": 3,
  "Manufacturer": "Siemens",
  "ManufacturersModelName": "Prisma",
  "Modality": "MR",
  "MultibandAccelerationFactor": 8,
  "PartialFourier": 1,
  "PatientPosition": "HFS",
  "PercentPhaseFOV": 100,
  "PercentSampling": 100,
  "PhaseEncodingDirection": "j-",
  "PhaseEncodingSteps": 82,
  "PhaseResolution": 1,
  "PixelBandwidth": 3050,
  "ProcedureStepDescription": "Wager_Wager^1076_spacetop",
  "ProtocolName": "func_run-05_task-social_acq-ap-mb8",
  "PulseSequenceDetails": "%CustomerSeq%\\cmrr_mbep2d_bold",
  "ReceiveCoilActiveElements": "HEA;HEP",
  "ReceiveCoilName": "Head_32",
  "ReconMatrixPE": 82,
  "RepetitionTime": 0.46,
  "SAR": 0.104388,
  "ScanOptions": "FS",
  "ScanningSequence": "EP",
  "SequenceName": "epfid2d1_82",
  "SequenceVariant": "SK\\SS",
  "SeriesDescription": "func_run-05_task-social_acq-ap-mb8",
  "SeriesNumber": 22,
  "ShimSetting": [4143, -7741, -7304, 531, -43, -103, -25, 87],
  "SliceThickness": 2.7,
  "SliceTiming": [0, 0.25, 0.0625, 0.315, 0.125, 0.3775, 0.1875, 0, 0.25, 0.0625, 0.315, 0.125, 0.3775, 0.1875, 0, 0.25, 0.0625, 0.315, 0.125, 0.3775, 0.1875, 0, 0.25, 0.0625, 0.315, 0.125, 0.3775, 0.1875, 0, 0.25, 0.0625, 0.315, 0.125, 0.3775, 0.1875, 0, 0.25, 0.0625, 0.315, 0.125, 0.3775, 0.1875, 0, 0.25, 0.0625, 0.315, 0.125, 0.3775, 0.1875, 0, 0.25, 0.0625, 0.315, 0.125, 0.3775, 0.1875],
  "SoftwareVersions": "syngo MR E11",
  "SpacingBetweenSlices": 2.7,
  "StationName": "AWP66112",
  "TaskName": "social",
  "TotalReadoutTime": 0.03969,
  "TxRefAmp": 246.432,
  "WipMemBlock": "9c2c206e-2014-47ab-8135-2d33f761caa8||Sequence: R016 ve11c/master r/e634e98; Dec 19 2017 11:00:25 by eja",
  "dcmmeta_affine": [
    [-2.6828837394714355, 0.0149841895326972, 0.002740337513387203, 111.68264770507812],
    [0.015100730583071709, 2.6795876026153564, 0.1338081955909729, -95.49395751953125],
    [0.001977024832740426, -0.1329752504825592, 2.696681022644043, -78.8021240234375],
    [0.0, 0.0, 0.0, 1.0]
],
  "dcmmeta_reorient_transform": [
    [0.0, -1.0, 0.0, 81.0],
    [1.0, 0.0, 0.0, 0.0],
    [0.0, 0.0, 1.0, 0.0],
    [0.0, 0.0, 0.0, 1.0]
],
  "dcmmeta_shape": [82, 82, 56, 872],
  "dcmmeta_slice_dim": 2,
  "dcmmeta_version": 0.6,
  "global": {
    "const": {
      "AccessionNumber": "A003460",
      "AcquisitionMatrix": [82, 0, 0, 82],
      "AngioFlag": "N",
      "BitsAllocated": 16,
      "BitsStored": 16,
      "BodyPartExamined": "BRAIN",
      "Columns": 656,
      "EchoNumbers": 1,
      "EchoTime": 27.2,
      "EchoTrainLength": 82,
      "FlipAngle": 44.0,
      "HighBit": 15,
      "ImageOrientationPatient": [0.99998388861789, -0.0056284541616, 0.00073689103682, 0.00558501583612, 0.99875535877859, 0.04956350380222],
      "ImagePositionPatient": [-887.18444355247, -886.26037552663, -128.30442572317],
      "ImageType": [
        "ORIGINAL",
        "PRIMARY",
        "M",
        "MB",
        "ND",
        "NORM",
        "MOSAIC"
],
      "ImagedNucleus": "1H",
      "ImagingFrequency": 123.2522,
      "InPlanePhaseEncodingDirection": "COL",
      "MRAcquisitionType": "2D",
      "MagneticFieldStrength": 3.0,
      "Manufacturer": "SIEMENS",
      "ManufacturerModelName": "Prisma",
      "Modality": "MR",
      "NumberOfAverages": 1.0,
      "NumberOfPhaseEncodingSteps": 82,
      "PercentPhaseFieldOfView": 100.0,
      "PercentSampling": 100.0,
      "PerformedProcedureStepStartTime": "100222.423000",
      "PhotometricInterpretation": "MONOCHROME2",
      "PixelBandwidth": 3050.0,
      "PixelRepresentation": 0,
      "PixelSpacing": [2.6829268932343, 2.6829268932343],
      "ProtocolName": "func_run-05_task-social_acq-ap-mb8",
      "RepetitionTime": 460.0,
      "Rows": 656,
      "SAR": 0.10438770599089,
      "SamplesPerPixel": 1,
      "ScanOptions": "FS",
      "ScanningSequence": "EP",
      "SequenceName": "epfid2d1_82",
      "SequenceVariant": [
        "SK",
        "SS"
],
      "SeriesDescription": "func_run-05_task-social_acq-ap-mb8",
      "SeriesNumber": 22,
      "SeriesTime": "114318.961000",
      "SliceLocation": -83.324448289029,
      "SliceThickness": 2.7000000476837,
      "SmallestImagePixelValue": 0,
      "SoftwareVersions": "syngo MR E11",
      "SpacingBetweenSlices": 2.7000000390622,
      "SpecificCharacterSet": "ISO_IR 100",
      "StudyID": "4",
      "StudyTime": "100222.322000",
      "TransmitCoilName": "Body",
      "VariableFlipAngleFlag": "N",
      "WindowCenterWidthExplanation": "Algo1",
      "dBdt": 0.0},
    "slices": {}
  },
  "time": {
    "samples": {
      "AcquisitionNumber": [1, 2, 3, 4, 5, 6, 7, 8, 9, 10, 11, 12, 13, 14, 15, 16, 17, 18, 19, 20, 21, 22, 23, 24, 25, 26, 27, 28, 29, 30, 31, 32, 33, 34, 35, 36, 37, 38, 39, 40, 41, 42, 43, 44, 45, 46, 47, 48, 49, 50, 51, 52, 53, 54, 55, 56, 57, 58, 59, 60, 61, 62, 63, 64, 65, 66, 67, 68, 69, 70, 71, 72, 73, 74, 75, 76, 77, 78, 79, 80, 81, 82, 83, 84, 85, 86, 87, 88, 89, 90, 91, 92, 93, 94, 95, 96, 97, 98, 99, 100, 101, 102, 103, 104, 105, 106, 107, 108, 109, 110, 111, 112, 113, 114, 115, 116, 117, 118, 119, 120, 121, 122, 123, 124, 125, 126, 127, 128, 129, 130, 131, 132, 133, 134, 135, 136, 137, 138, 139, 140, 141, 142, 143, 144, 145, 146, 147, 148, 149, 150, 151, 152, 153, 154, 155, 156, 157, 158, 159, 160, 161, 162, 163, 164, 165, 166, 167, 168, 169, 170, 171, 172, 173, 174, 175, 176, 177, 178, 179, 180, 181, 182, 183, 184, 185, 186, 187, 188, 189, 190, 191, 192, 193, 194, 195, 196, 197, 198, 199, 200, 201, 202, 203, 204, 205, 206, 207, 208, 209, 210, 211, 212, 213, 214, 215, 216, 217, 218, 219, 220, 221, 222, 223, 224, 225, 226, 227, 228, 229, 230, 231, 232, 233, 234, 235, 236, 237, 238, 239, 240, 241, 242, 243, 244, 245, 246, 247, 248, 249, 250, 251, 252, 253, 254, 255, 256, 257, 258, 259, 260, 261, 262, 263, 264, 265, 266, 267, 268, 269, 270, 271, 272, 273, 274, 275, 276, 277, 278, 279, 280, 281, 282, 283, 284, 285, 286, 287, 288, 289, 290, 291, 292, 293, 294, 295, 296, 297, 298, 299, 300, 301, 302, 303, 304, 305, 306, 307, 308, 309, 310, 311, 312, 313, 314, 315, 316, 317, 318, 319, 320, 321, 322, 323, 324, 325, 326, 327, 328, 329, 330, 331, 332, 333, 334, 335, 336, 337, 338, 339, 340, 341, 342, 343, 344, 345, 346, 347, 348, 349, 350, 351, 352, 353, 354, 355, 356, 357, 358, 359, 360, 361, 362, 363, 364, 365, 366, 367, 368, 369, 370, 371, 372, 373, 374, 375, 376, 377, 378, 379, 380, 381, 382, 383, 384, 385, 386, 387, 388, 389, 390, 391, 392, 393, 394, 395, 396, 397, 398, 399, 400, 401, 402, 403, 404, 405, 406, 407, 408, 409, 410, 411, 412, 413, 414, 415, 416, 417, 418, 419, 420, 421, 422, 423, 424, 425, 426, 427, 428, 429, 430, 431, 432, 433, 434, 435, 436, 437, 438, 439, 440, 441, 442, 443, 444, 445, 446, 447, 448, 449, 450, 451, 452, 453, 454, 455, 456, 457, 458, 459, 460, 461, 462, 463, 464, 465, 466, 467, 468, 469, 470, 471, 472, 473, 474, 475, 476, 477, 478, 479, 480, 481, 482, 483, 484, 485, 486, 487, 488, 489, 490, 491, 492, 493, 494, 495, 496, 497, 498, 499, 500, 501, 502, 503, 504, 505, 506, 507, 508, 509, 510, 511, 512, 513, 514, 515, 516, 517, 518, 519, 520, 521, 522, 523, 524, 525, 526, 527, 528, 529, 530, 531, 532, 533, 534, 535, 536, 537, 538, 539, 540, 541, 542, 543, 544, 545, 546, 547, 548, 549, 550, 551, 552, 553, 554, 555, 556, 557, 558, 559, 560, 561, 562, 563, 564, 565, 566, 567, 568, 569, 570, 571, 572, 573, 574, 575, 576, 577, 578, 579, 580, 581, 582, 583, 584, 585, 586, 587, 588, 589, 590, 591, 592, 593, 594, 595, 596, 597, 598, 599, 600, 601, 602, 603, 604, 605, 606, 607, 608, 609, 610, 611, 612, 613, 614, 615, 616, 617, 618, 619, 620, 621, 622, 623, 624, 625, 626, 627, 628, 629, 630, 631, 632, 633, 634, 635, 636, 637, 638, 639, 640, 641, 642, 643, 644, 645, 646, 647, 648, 649, 650, 651, 652, 653, 654, 655, 656, 657, 658, 659, 660, 661, 662, 663, 664, 665, 666, 667, 668, 669, 670, 671, 672, 673, 674, 675, 676, 677, 678, 679, 680, 681, 682, 683, 684, 685, 686, 687, 688, 689, 690, 691, 692, 693, 694, 695, 696, 697, 698, 699, 700, 701, 702, 703, 704, 705, 706, 707, 708, 709, 710, 711, 712, 713, 714, 715, 716, 717, 718, 719, 720, 721, 722, 723, 724, 725, 726, 727, 728, 729, 730, 731, 732, 733, 734, 735, 736, 737, 738, 739, 740, 741, 742, 743, 744, 745, 746, 747, 748, 749, 750, 751, 752, 753, 754, 755, 756, 757, 758, 759, 760, 761, 762, 763, 764, 765, 766, 767, 768, 769, 770, 771, 772, 773, 774, 775, 776, 777, 778, 779, 780, 781, 782, 783, 784, 785, 786, 787, 788, 789, 790, 791, 792, 793, 794, 795, 796, 797, 798, 799, 800, 801, 802, 803, 804, 805, 806, 807, 808, 809, 810, 811, 812, 813, 814, 815, 816, 817, 818, 819, 820, 821, 822, 823, 824, 825, 826, 827, 828, 829, 830, 831, 832, 833, 834, 835, 836, 837, 838, 839, 840, 841, 842, 843, 844, 845, 846, 847, 848, 849, 850, 851, 852, 853, 854, 855, 856, 857, 858, 859, 860, 861, 862, 863, 864, 865, 866, 867, 868, 869, 870, 871, 872],
      "AcquisitionTime": ["114259.537500", "114259.997500", "114300.457500", "114300.917500", "114301.377500", "114301.837500", "114302.297500", "114302.757500", "114303.217500", "114303.677500", "114304.137500", "114304.597500", "114305.057500", "114305.517500", "114305.977500", "114306.437500", "114306.897500", "114307.357500", "114307.817500", "114308.277500", "114308.737500", "114309.197500", "114309.657500", "114310.117500", "114310.577500", "114311.037500", "114311.497500", "114311.957500", "114312.417500", "114312.877500", "114313.337500", "114313.797500", "114314.257500", "114314.717500", "114315.177500", "114315.637500", "114316.097500", "114316.557500", "114317.017500", "114317.477500", "114317.937500", "114318.397500", "114318.857500", "114319.317500", "114319.777500", "114320.237500", "114320.697500", "114321.157500", "114321.617500", "114322.077500", "114322.537500", "114322.997500", "114323.457500", "114323.917500", "114324.377500", "114324.837500", "114325.297500", "114325.757500", "114326.217500", "114326.677500", "114327.137500", "114327.597500", "114328.057500", "114328.517500", "114328.977500", "114329.437500", "114329.897500", "114330.357500", "114330.817500", "114331.277500", "114331.737500", "114332.197500", "114332.657500", "114333.117500", "114333.577500", "114334.037500", "114334.497500", "114334.957500", "114335.417500", "114335.877500", "114336.337500", "114336.797500", "114337.257500", "114337.717500", "114338.177500", "114338.637500", "114339.097500", "114339.557500", "114340.017500", "114340.477500", "114340.937500", "114341.397500", "114341.857500", "114342.317500", "114342.777500", "114343.237500", "114343.697500", "114344.157500", "114344.617500", "114345.077500", "114345.537500", "114345.997500", "114346.457500", "114346.917500", "114347.377500", "114347.837500", "114348.297500", "114348.757500", "114349.217500", "114349.677500", "114350.137500", "114350.597500", "114351.057500", "114351.517500", "114351.977500", "114352.437500", "114352.897500", "114353.357500", "114353.817500", "114354.277500", "114354.737500", "114355.197500", "114355.657500", "114356.117500", "114356.577500", "114357.037500", "114357.497500", "114357.957500", "114358.417500", "114358.877500", "114359.337500", "114359.797500", "114400.257500", "114400.717500", "114401.177500", "114401.637500", "114402.097500", "114402.557500", "114403.017500", "114403.477500", "114403.937500", "114404.397500", "114404.857500", "114405.317500", "114405.777500", "114406.237500", "114406.697500", "114407.157500", "114407.617500", "114408.077500", "114408.537500", "114408.997500", "114409.457500", "114409.917500", "114410.377500", "114410.837500", "114411.297500", "114411.757500", "114412.217500", "114412.677500", "114413.137500", "114413.597500", "114414.057500", "114414.517500", "114414.977500", "114415.437500", "114415.897500", "114416.357500", "114416.817500", "114417.277500", "114417.737500", "114418.197500", "114418.657500", "114419.117500", "114419.577500", "114420.037500", "114420.497500", "114420.957500", "114421.417500", "114421.877500", "114422.337500", "114422.797500", "114423.257500", "114423.717500", "114424.177500", "114424.637500", "114425.097500", "114425.557500", "114426.017500", "114426.477500", "114426.937500", "114427.397500", "114427.857500", "114428.317500", "114428.777500", "114429.237500", "114429.697500", "114430.157500", "114430.617500", "114431.077500", "114431.537500", "114431.997500", "114432.457500", "114432.917500", "114433.377500", "114433.837500", "114434.297500", "114434.757500", "114435.217500", "114435.677500", "114436.137500", "114436.597500", "114437.057500", "114437.517500", "114437.977500", "114438.437500", "114438.897500", "114439.357500", "114439.817500", "114440.277500", "114440.737500", "114441.197500", "114441.657500", "114442.117500", "114442.577500", "114443.037500", "114443.497500", "114443.957500", "114444.417500", "114444.877500", "114445.337500", "114445.797500", "114446.257500", "114446.717500", "114447.177500", "114447.637500", "114448.097500", "114448.557500", "114449.017500", "114449.477500", "114449.937500", "114450.397500", "114450.857500", "114451.317500", "114451.777500", "114452.237500", "114452.697500", "114453.157500", "114453.617500", "114454.077500", "114454.537500", "114454.997500", "114455.457500", "114455.917500", "114456.377500", "114456.837500", "114457.297500", "114457.757500", "114458.217500", "114458.677500", "114459.137500", "114459.597500", "114500.057500", "114500.517500", "114500.977500", "114501.437500", "114501.897500", "114502.357500", "114502.817500", "114503.277500", "114503.737500", "114504.197500", "114504.657500", "114505.117500", "114505.577500", "114506.037500", "114506.497500", "114506.957500", "114507.417500", "114507.877500", "114508.337500", "114508.797500", "114509.257500", "114509.717500", "114510.177500", "114510.637500", "114511.097500", "114511.557500", "114512.017500", "114512.477500", "114512.937500", "114513.397500", "114513.857500", "114514.317500", "114514.777500", "114515.237500", "114515.697500", "114516.157500", "114516.617500", "114517.077500", "114517.537500", "114517.997500", "114518.457500", "114518.917500", "114519.377500", "114519.837500", "114520.297500", "114520.757500", "114521.217500", "114521.677500", "114522.137500", "114522.597500", "114523.057500", "114523.517500", "114523.977500", "114524.437500", "114524.897500", "114525.357500", "114525.817500", "114526.277500", "114526.737500", "114527.197500", "114527.657500", "114528.117500", "114528.577500", "114529.037500", "114529.497500", "114529.957500", "114530.417500", "114530.877500", "114531.337500", "114531.797500", "114532.257500", "114532.717500", "114533.177500", "114533.637500", "114534.097500", "114534.557500", "114535.017500", "114535.477500", "114535.937500", "114536.397500", "114536.857500", "114537.317500", "114537.777500", "114538.237500", "114538.697500", "114539.157500", "114539.617500", "114540.077500", "114540.537500", "114540.997500", "114541.457500", "114541.917500", "114542.377500", "114542.837500", "114543.297500", "114543.757500", "114544.217500", "114544.677500", "114545.137500", "114545.597500", "114546.057500", "114546.517500", "114546.977500", "114547.437500", "114547.897500", "114548.357500", "114548.817500", "114549.277500", "114549.737500", "114550.197500", "114550.657500", "114551.117500", "114551.577500", "114552.037500", "114552.497500", "114552.957500", "114553.417500", "114553.877500", "114554.337500", "114554.797500", "114555.257500", "114555.717500", "114556.177500", "114556.637500", "114557.097500", "114557.557500", "114558.017500", "114558.477500", "114558.937500", "114559.397500", "114559.857500", "114600.317500", "114600.777500", "114601.237500", "114601.697500", "114602.157500", "114602.617500", "114603.077500", "114603.537500", "114603.997500", "114604.457500", "114604.917500", "114605.377500", "114605.837500", "114606.297500", "114606.757500", "114607.217500", "114607.677500", "114608.137500", "114608.597500", "114609.057500", "114609.517500", "114609.977500", "114610.437500", "114610.897500", "114611.357500", "114611.817500", "114612.277500", "114612.737500", "114613.197500", "114613.657500", "114614.117500", "114614.577500", "114615.037500", "114615.497500", "114615.957500", "114616.417500", "114616.877500", "114617.337500", "114617.797500", "114618.257500", "114618.717500", "114619.177500", "114619.637500", "114620.097500", "114620.557500", "114621.017500", "114621.477500", "114621.937500", "114622.397500", "114622.857500", "114623.317500", "114623.777500", "114624.237500", "114624.697500", "114625.157500", "114625.617500", "114626.077500", "114626.537500", "114626.997500", "114627.457500", "114627.917500", "114628.377500", "114628.837500", "114629.297500", "114629.757500", "114630.217500", "114630.677500", "114631.137500", "114631.597500", "114632.057500", "114632.517500", "114632.977500", "114633.437500", "114633.897500", "114634.357500", "114634.817500", "114635.277500", "114635.737500", "114636.197500", "114636.657500", "114637.117500", "114637.577500", "114638.037500", "114638.497500", "114638.957500", "114639.417500", "114639.877500", "114640.337500", "114640.797500", "114641.257500", "114641.717500", "114642.177500", "114642.637500", "114643.097500", "114643.557500", "114644.017500", "114644.477500", "114644.937500", "114645.397500", "114645.857500", "114646.317500", "114646.777500", "114647.237500", "114647.697500", "114648.157500", "114648.617500", "114649.077500", "114649.537500", "114649.997500", "114650.457500", "114650.917500", "114651.377500", "114651.837500", "114652.297500", "114652.757500", "114653.217500", "114653.677500", "114654.137500", "114654.597500", "114655.057500", "114655.517500", "114655.977500", "114656.437500", "114656.897500", "114657.357500", "114657.817500", "114658.277500", "114658.737500", "114659.197500", "114659.657500", "114700.117500", "114700.577500", "114701.037500", "114701.497500", "114701.957500", "114702.417500", "114702.877500", "114703.337500", "114703.797500", "114704.257500", "114704.717500", "114705.177500", "114705.637500", "114706.097500", "114706.557500", "114707.017500", "114707.477500", "114707.937500", "114708.397500", "114708.857500", "114709.317500", "114709.777500", "114710.237500", "114710.697500", "114711.157500", "114711.617500", "114712.077500", "114712.537500", "114712.997500", "114713.457500", "114713.917500", "114714.377500", "114714.837500", "114715.297500", "114715.757500", "114716.217500", "114716.677500", "114717.137500", "114717.597500", "114718.057500", "114718.517500", "114718.977500", "114719.437500", "114719.897500", "114720.357500", "114720.817500", "114721.277500", "114721.737500", "114722.197500", "114722.657500", "114723.117500", "114723.577500", "114724.037500", "114724.497500", "114724.957500", "114725.417500", "114725.877500", "114726.337500", "114726.797500", "114727.257500", "114727.717500", "114728.177500", "114728.637500", "114729.097500", "114729.557500", "114730.017500", "114730.477500", "114730.937500", "114731.397500", "114731.857500", "114732.317500", "114732.777500", "114733.237500", "114733.697500", "114734.157500", "114734.617500", "114735.077500", "114735.537500", "114735.997500", "114736.457500", "114736.917500", "114737.377500", "114737.837500", "114738.297500", "114738.757500", "114739.217500", "114739.677500", "114740.137500", "114740.597500", "114741.057500", "114741.517500", "114741.977500", "114742.437500", "114742.897500", "114743.357500", "114743.817500", "114744.277500", "114744.737500", "114745.197500", "114745.657500", "114746.117500", "114746.577500", "114747.037500", "114747.497500", "114747.957500", "114748.417500", "114748.877500", "114749.337500", "114749.797500", "114750.257500", "114750.717500", "114751.177500", "114751.637500", "114752.097500", "114752.557500", "114753.017500", "114753.477500", "114753.937500", "114754.397500", "114754.857500", "114755.317500", "114755.777500", "114756.237500", "114756.697500", "114757.157500", "114757.617500", "114758.077500", "114758.537500", "114758.997500", "114759.457500", "114759.917500", "114800.377500", "114800.837500", "114801.297500", "114801.757500", "114802.217500", "114802.677500", "114803.137500", "114803.597500", "114804.057500", "114804.517500", "114804.977500", "114805.437500", "114805.897500", "114806.357500", "114806.817500", "114807.277500", "114807.737500", "114808.197500", "114808.657500", "114809.117500", "114809.577500", "114810.037500", "114810.497500", "114810.957500", "114811.417500", "114811.877500", "114812.337500", "114812.797500", "114813.257500", "114813.717500", "114814.177500", "114814.637500", "114815.097500", "114815.557500", "114816.017500", "114816.477500", "114816.937500", "114817.397500", "114817.857500", "114818.317500", "114818.777500", "114819.237500", "114819.697500", "114820.157500", "114820.617500", "114821.077500", "114821.537500", "114821.997500", "114822.457500", "114822.917500", "114823.377500", "114823.837500", "114824.297500", "114824.757500", "114825.217500", "114825.677500", "114826.137500", "114826.597500", "114827.057500", "114827.517500", "114827.977500", "114828.437500", "114828.897500", "114829.357500", "114829.817500", "114830.277500", "114830.737500", "114831.197500", "114831.657500", "114832.117500", "114832.577500", "114833.037500", "114833.497500", "114833.957500", "114834.417500", "114834.877500", "114835.337500", "114835.797500", "114836.257500", "114836.717500", "114837.177500", "114837.637500", "114838.097500", "114838.557500", "114839.017500", "114839.477500", "114839.937500", "114840.397500", "114840.857500", "114841.317500", "114841.777500", "114842.237500", "114842.697500", "114843.157500", "114843.617500", "114844.077500", "114844.537500", "114844.997500", "114845.457500", "114845.917500", "114846.377500", "114846.837500", "114847.297500", "114847.757500", "114848.217500", "114848.677500", "114849.137500", "114849.597500", "114850.057500", "114850.517500", "114850.977500", "114851.437500", "114851.897500", "114852.357500", "114852.817500", "114853.277500", "114853.737500", "114854.197500", "114854.657500", "114855.117500", "114855.577500", "114856.037500", "114856.497500", "114856.957500", "114857.417500", "114857.877500", "114858.337500", "114858.797500", "114859.257500", "114859.717500", "114900.177500", "114900.637500", "114901.097500", "114901.557500", "114902.017500", "114902.477500", "114902.937500", "114903.397500", "114903.857500", "114904.317500", "114904.777500", "114905.237500", "114905.697500", "114906.157500", "114906.617500", "114907.077500", "114907.537500", "114907.997500", "114908.457500", "114908.917500", "114909.377500", "114909.837500", "114910.297500", "114910.757500", "114911.217500", "114911.677500", "114912.137500", "114912.597500", "114913.057500", "114913.517500", "114913.977500", "114914.437500", "114914.897500", "114915.357500", "114915.817500", "114916.277500", "114916.737500", "114917.197500", "114917.657500", "114918.117500", "114918.577500", "114919.037500", "114919.497500", "114919.957500", "114920.417500", "114920.877500", "114921.337500", "114921.797500", "114922.257500", "114922.717500", "114923.177500", "114923.637500", "114924.097500", "114924.557500", "114925.017500", "114925.477500", "114925.937500", "114926.397500", "114926.857500", "114927.317500", "114927.777500", "114928.237500", "114928.697500", "114929.157500", "114929.617500", "114930.077500", "114930.537500", "114930.997500", "114931.457500", "114931.917500", "114932.377500", "114932.837500", "114933.297500", "114933.757500", "114934.217500", "114934.677500", "114935.137500", "114935.597500", "114936.057500", "114936.517500", "114936.977500", "114937.437500", "114937.897500", "114938.357500", "114938.817500", "114939.277500", "114939.737500", "114940.197500"],
