{
  "AcquisitionMatrixPE": 82,
  "AcquisitionNumber": 1,
  "AcquisitionTime": "11:27:21.640000",
  "BandwidthPerPixelPhaseEncode": 24.888,
  "BaseResolution": 82,
  "BodyPartExamined": "BRAIN",
  "ConsistencyInfo": "N4_VE11C_LATEST_20160120",
  "ConversionSoftware": "dcm2niix",
  "ConversionSoftwareVersion": "v1.0.20201102",
  "DerivedVendorReportedEchoSpacing": 0.00049,
  "DeviceSerialNumber": "66112",
  "DwellTime": 2e-06,
  "EchoTime": 0.0272,
  "EchoTrainLength": 82,
  "EffectiveEchoSpacing": 0.00049,
  "FlipAngle": 44,
  "ImageComments": "Unaliased MB8/PE3",
  "ImageOrientationPatientDICOM": [0.999984, -0.00562845, 0.000736891, 0.00558502, 0.998755, 0.0495635],
  "ImageType": [
    "ORIGINAL",
    "PRIMARY",
    "M",
    "MB",
    "ND",
    "NORM",
    "MOSAIC"
],
  "ImagingFrequency": 123.252,
  "InPlanePhaseEncodingDirectionDICOM": "COL",
  "InstitutionAddress": "Maynard 3,Hanover,NH,US,03755",
  "InstitutionName": "Dartmouth College - PBS",
  "InstitutionalDepartmentName": "Department",
  "MRAcquisitionType": "2D",
  "MagneticFieldStrength": 3,
  "Manufacturer": "Siemens",
  "ManufacturersModelName": "Prisma",
  "Modality": "MR",
  "MultibandAccelerationFactor": 8,
  "PartialFourier": 1,
  "PatientPosition": "HFS",
  "PercentPhaseFOV": 100,
  "PercentSampling": 100,
  "PhaseEncodingDirection": "j-",
  "PhaseEncodingSteps": 82,
  "PhaseResolution": 1,
  "PixelBandwidth": 3050,
  "ProcedureStepDescription": "Wager_Wager^1076_spacetop",
  "ProtocolName": "func_run-03_task-social_acq-ap-mb8",
  "PulseSequenceDetails": "%CustomerSeq%\\cmrr_mbep2d_bold",
  "ReceiveCoilActiveElements": "HEA;HEP",
  "ReceiveCoilName": "Head_32",
  "ReconMatrixPE": 82,
  "RepetitionTime": 0.46,
  "SAR": 0.104388,
  "ScanOptions": "FS",
  "ScanningSequence": "EP",
  "SequenceName": "epfid2d1_82",
  "SequenceVariant": "SK\\SS",
  "SeriesDescription": "func_run-03_task-social_acq-ap-mb8",
  "SeriesNumber": 18,
  "ShimSetting": [4143, -7741, -7304, 531, -43, -103, -25, 87],
  "SliceThickness": 2.7,
  "SliceTiming": [0, 0.25, 0.0625, 0.3125, 0.125, 0.375, 0.1875, 0, 0.25, 0.0625, 0.3125, 0.125, 0.375, 0.1875, 0, 0.25, 0.0625, 0.3125, 0.125, 0.375, 0.1875, 0, 0.25, 0.0625, 0.3125, 0.125, 0.375, 0.1875, 0, 0.25, 0.0625, 0.3125, 0.125, 0.375, 0.1875, 0, 0.25, 0.0625, 0.3125, 0.125, 0.375, 0.1875, 0, 0.25, 0.0625, 0.3125, 0.125, 0.375, 0.1875, 0, 0.25, 0.0625, 0.3125, 0.125, 0.375, 0.1875],
  "SoftwareVersions": "syngo MR E11",
  "SpacingBetweenSlices": 2.7,
  "StationName": "AWP66112",
  "TaskName": "social",
  "TotalReadoutTime": 0.03969,
  "TxRefAmp": 246.432,
  "WipMemBlock": "762d78cb-d952-41ec-9b63-75c2e8cab28f||Sequence: R016 ve11c/master r/e634e98; Dec 19 2017 11:00:25 by eja",
  "dcmmeta_affine": [
    [-2.6828837394714355, 0.0149841895326972, 0.002740337513387203, 111.68264770507812],
    [0.015100730583071709, 2.6795876026153564, 0.1338081955909729, -95.49395751953125],
    [0.001977024832740426, -0.1329752504825592, 2.696681022644043, -78.8021240234375],
    [0.0, 0.0, 0.0, 1.0]
],
  "dcmmeta_reorient_transform": [
    [0.0, -1.0, 0.0, 81.0],
    [1.0, 0.0, 0.0, 0.0],
    [0.0, 0.0, 1.0, 0.0],
    [0.0, 0.0, 0.0, 1.0]
],
  "dcmmeta_shape": [82, 82, 56, 872],
  "dcmmeta_slice_dim": 2,
  "dcmmeta_version": 0.6,
  "global": {
    "const": {
      "AccessionNumber": "A003460",
      "AcquisitionMatrix": [82, 0, 0, 82],
      "AngioFlag": "N",
      "BitsAllocated": 16,
      "BitsStored": 16,
      "BodyPartExamined": "BRAIN",
      "Columns": 656,
      "EchoNumbers": 1,
      "EchoTime": 27.2,
      "EchoTrainLength": 82,
      "FlipAngle": 44.0,
      "HighBit": 15,
      "ImageOrientationPatient": [0.99998388861789, -0.0056284541616, 0.00073689103682, 0.00558501583612, 0.99875535877859, 0.04956350380222],
      "ImagePositionPatient": [-887.18444355247, -886.26037552663, -128.30442572317],
      "ImageType": [
        "ORIGINAL",
        "PRIMARY",
        "M",
        "MB",
        "ND",
        "NORM",
        "MOSAIC"
],
      "ImagedNucleus": "1H",
      "ImagingFrequency": 123.252194,
      "InPlanePhaseEncodingDirection": "COL",
      "MRAcquisitionType": "2D",
      "MagneticFieldStrength": 3.0,
      "Manufacturer": "SIEMENS",
      "ManufacturerModelName": "Prisma",
      "Modality": "MR",
      "NumberOfAverages": 1.0,
      "NumberOfPhaseEncodingSteps": 82,
      "PercentPhaseFieldOfView": 100.0,
      "PercentSampling": 100.0,
      "PerformedProcedureStepStartTime": "100222.423000",
      "PhotometricInterpretation": "MONOCHROME2",
      "PixelBandwidth": 3050.0,
      "PixelRepresentation": 0,
      "PixelSpacing": [2.6829268932343, 2.6829268932343],
      "ProtocolName": "func_run-03_task-social_acq-ap-mb8",
      "RepetitionTime": 460.0,
      "Rows": 656,
      "SAR": 0.10438770599089,
      "SamplesPerPixel": 1,
      "ScanOptions": "FS",
      "ScanningSequence": "EP",
      "SequenceName": "epfid2d1_82",
      "SequenceVariant": [
        "SK",
        "SS"
],
      "SeriesDescription": "func_run-03_task-social_acq-ap-mb8",
      "SeriesNumber": 18,
      "SeriesTime": "112738.826000",
      "SliceLocation": -83.324448289029,
      "SliceThickness": 2.7000000476837,
      "SmallestImagePixelValue": 0,
      "SoftwareVersions": "syngo MR E11",
      "SpacingBetweenSlices": 2.7000000390622,
      "SpecificCharacterSet": "ISO_IR 100",
      "StudyID": "4",
      "StudyTime": "100222.322000",
      "TransmitCoilName": "Body",
      "VariableFlipAngleFlag": "N",
      "WindowCenterWidthExplanation": "Algo1",
      "dBdt": 0.0},
    "slices": {}
  },
  "time": {
    "samples": {
      "AcquisitionNumber": [1, 2, 3, 4, 5, 6, 7, 8, 9, 10, 11, 12, 13, 14, 15, 16, 17, 18, 19, 20, 21, 22, 23, 24, 25, 26, 27, 28, 29, 30, 31, 32, 33, 34, 35, 36, 37, 38, 39, 40, 41, 42, 43, 44, 45, 46, 47, 48, 49, 50, 51, 52, 53, 54, 55, 56, 57, 58, 59, 60, 61, 62, 63, 64, 65, 66, 67, 68, 69, 70, 71, 72, 73, 74, 75, 76, 77, 78, 79, 80, 81, 82, 83, 84, 85, 86, 87, 88, 89, 90, 91, 92, 93, 94, 95, 96, 97, 98, 99, 100, 101, 102, 103, 104, 105, 106, 107, 108, 109, 110, 111, 112, 113, 114, 115, 116, 117, 118, 119, 120, 121, 122, 123, 124, 125, 126, 127, 128, 129, 130, 131, 132, 133, 134, 135, 136, 137, 138, 139, 140, 141, 142, 143, 144, 145, 146, 147, 148, 149, 150, 151, 152, 153, 154, 155, 156, 157, 158, 159, 160, 161, 162, 163, 164, 165, 166, 167, 168, 169, 170, 171, 172, 173, 174, 175, 176, 177, 178, 179, 180, 181, 182, 183, 184, 185, 186, 187, 188, 189, 190, 191, 192, 193, 194, 195, 196, 197, 198, 199, 200, 201, 202, 203, 204, 205, 206, 207, 208, 209, 210, 211, 212, 213, 214, 215, 216, 217, 218, 219, 220, 221, 222, 223, 224, 225, 226, 227, 228, 229, 230, 231, 232, 233, 234, 235, 236, 237, 238, 239, 240, 241, 242, 243, 244, 245, 246, 247, 248, 249, 250, 251, 252, 253, 254, 255, 256, 257, 258, 259, 260, 261, 262, 263, 264, 265, 266, 267, 268, 269, 270, 271, 272, 273, 274, 275, 276, 277, 278, 279, 280, 281, 282, 283, 284, 285, 286, 287, 288, 289, 290, 291, 292, 293, 294, 295, 296, 297, 298, 299, 300, 301, 302, 303, 304, 305, 306, 307, 308, 309, 310, 311, 312, 313, 314, 315, 316, 317, 318, 319, 320, 321, 322, 323, 324, 325, 326, 327, 328, 329, 330, 331, 332, 333, 334, 335, 336, 337, 338, 339, 340, 341, 342, 343, 344, 345, 346, 347, 348, 349, 350, 351, 352, 353, 354, 355, 356, 357, 358, 359, 360, 361, 362, 363, 364, 365, 366, 367, 368, 369, 370, 371, 372, 373, 374, 375, 376, 377, 378, 379, 380, 381, 382, 383, 384, 385, 386, 387, 388, 389, 390, 391, 392, 393, 394, 395, 396, 397, 398, 399, 400, 401, 402, 403, 404, 405, 406, 407, 408, 409, 410, 411, 412, 413, 414, 415, 416, 417, 418, 419, 420, 421, 422, 423, 424, 425, 426, 427, 428, 429, 430, 431, 432, 433, 434, 435, 436, 437, 438, 439, 440, 441, 442, 443, 444, 445, 446, 447, 448, 449, 450, 451, 452, 453, 454, 455, 456, 457, 458, 459, 460, 461, 462, 463, 464, 465, 466, 467, 468, 469, 470, 471, 472, 473, 474, 475, 476, 477, 478, 479, 480, 481, 482, 483, 484, 485, 486, 487, 488, 489, 490, 491, 492, 493, 494, 495, 496, 497, 498, 499, 500, 501, 502, 503, 504, 505, 506, 507, 508, 509, 510, 511, 512, 513, 514, 515, 516, 517, 518, 519, 520, 521, 522, 523, 524, 525, 526, 527, 528, 529, 530, 531, 532, 533, 534, 535, 536, 537, 538, 539, 540, 541, 542, 543, 544, 545, 546, 547, 548, 549, 550, 551, 552, 553, 554, 555, 556, 557, 558, 559, 560, 561, 562, 563, 564, 565, 566, 567, 568, 569, 570, 571, 572, 573, 574, 575, 576, 577, 578, 579, 580, 581, 582, 583, 584, 585, 586, 587, 588, 589, 590, 591, 592, 593, 594, 595, 596, 597, 598, 599, 600, 601, 602, 603, 604, 605, 606, 607, 608, 609, 610, 611, 612, 613, 614, 615, 616, 617, 618, 619, 620, 621, 622, 623, 624, 625, 626, 627, 628, 629, 630, 631, 632, 633, 634, 635, 636, 637, 638, 639, 640, 641, 642, 643, 644, 645, 646, 647, 648, 649, 650, 651, 652, 653, 654, 655, 656, 657, 658, 659, 660, 661, 662, 663, 664, 665, 666, 667, 668, 669, 670, 671, 672, 673, 674, 675, 676, 677, 678, 679, 680, 681, 682, 683, 684, 685, 686, 687, 688, 689, 690, 691, 692, 693, 694, 695, 696, 697, 698, 699, 700, 701, 702, 703, 704, 705, 706, 707, 708, 709, 710, 711, 712, 713, 714, 715, 716, 717, 718, 719, 720, 721, 722, 723, 724, 725, 726, 727, 728, 729, 730, 731, 732, 733, 734, 735, 736, 737, 738, 739, 740, 741, 742, 743, 744, 745, 746, 747, 748, 749, 750, 751, 752, 753, 754, 755, 756, 757, 758, 759, 760, 761, 762, 763, 764, 765, 766, 767, 768, 769, 770, 771, 772, 773, 774, 775, 776, 777, 778, 779, 780, 781, 782, 783, 784, 785, 786, 787, 788, 789, 790, 791, 792, 793, 794, 795, 796, 797, 798, 799, 800, 801, 802, 803, 804, 805, 806, 807, 808, 809, 810, 811, 812, 813, 814, 815, 816, 817, 818, 819, 820, 821, 822, 823, 824, 825, 826, 827, 828, 829, 830, 831, 832, 833, 834, 835, 836, 837, 838, 839, 840, 841, 842, 843, 844, 845, 846, 847, 848, 849, 850, 851, 852, 853, 854, 855, 856, 857, 858, 859, 860, 861, 862, 863, 864, 865, 866, 867, 868, 869, 870, 871, 872],
      "AcquisitionTime": ["112721.640000", "112722.100000", "112722.560000", "112723.020000", "112723.480000", "112723.940000", "112724.400000", "112724.860000", "112725.320000", "112725.780000", "112726.240000", "112726.700000", "112727.160000", "112727.620000", "112728.080000", "112728.540000", "112729.000000", "112729.460000", "112729.920000", "112730.380000", "112730.840000", "112731.300000", "112731.760000", "112732.220000", "112732.680000", "112733.140000", "112733.600000", "112734.060000", "112734.520000", "112734.980000", "112735.440000", "112735.900000", "112736.360000", "112736.820000", "112737.280000", "112737.740000", "112738.200000", "112738.660000", "112739.120000", "112739.580000", "112740.040000", "112740.500000", "112740.960000", "112741.420000", "112741.880000", "112742.340000", "112742.800000", "112743.260000", "112743.720000", "112744.180000", "112744.640000", "112745.100000", "112745.560000", "112746.020000", "112746.480000", "112746.940000", "112747.400000", "112747.860000", "112748.320000", "112748.780000", "112749.240000", "112749.700000", "112750.160000", "112750.620000", "112751.080000", "112751.540000", "112752.000000", "112752.460000", "112752.920000", "112753.380000", "112753.840000", "112754.300000", "112754.760000", "112755.220000", "112755.680000", "112756.140000", "112756.600000", "112757.060000", "112757.520000", "112757.980000", "112758.440000", "112758.900000", "112759.360000", "112759.820000", "112800.280000", "112800.740000", "112801.200000", "112801.660000", "112802.120000", "112802.580000", "112803.040000", "112803.500000", "112803.960000", "112804.420000", "112804.880000", "112805.340000", "112805.800000", "112806.260000", "112806.720000", "112807.180000", "112807.640000", "112808.100000", "112808.560000", "112809.020000", "112809.480000", "112809.940000", "112810.400000", "112810.860000", "112811.320000", "112811.780000", "112812.240000", "112812.700000", "112813.160000", "112813.620000", "112814.080000", "112814.540000", "112815.000000", "112815.460000", "112815.920000", "112816.380000", "112816.840000", "112817.300000", "112817.760000", "112818.220000", "112818.680000", "112819.140000", "112819.600000", "112820.060000", "112820.520000", "112820.980000", "112821.440000", "112821.900000", "112822.360000", "112822.820000", "112823.280000", "112823.740000", "112824.200000", "112824.660000", "112825.120000", "112825.580000", "112826.040000", "112826.500000", "112826.960000", "112827.420000", "112827.880000", "112828.340000", "112828.800000", "112829.260000", "112829.720000", "112830.180000", "112830.640000", "112831.100000", "112831.560000", "112832.020000", "112832.480000", "112832.940000", "112833.400000", "112833.860000", "112834.320000", "112834.780000", "112835.240000", "112835.700000", "112836.160000", "112836.620000", "112837.080000", "112837.540000", "112838.000000", "112838.460000", "112838.920000", "112839.380000", "112839.840000", "112840.300000", "112840.760000", "112841.220000", "112841.680000", "112842.140000", "112842.600000", "112843.060000", "112843.520000", "112843.980000", "112844.440000", "112844.900000", "112845.360000", "112845.820000", "112846.280000", "112846.740000", "112847.200000", "112847.660000", "112848.120000", "112848.580000", "112849.040000", "112849.500000", "112849.960000", "112850.420000", "112850.880000", "112851.340000", "112851.800000", "112852.260000", "112852.720000", "112853.180000", "112853.640000", "112854.100000", "112854.560000", "112855.020000", "112855.480000", "112855.940000", "112856.400000", "112856.860000", "112857.320000", "112857.780000", "112858.240000", "112858.700000", "112859.160000", "112859.620000", "112900.080000", "112900.540000", "112901.000000", "112901.460000", "112901.920000", "112902.380000", "112902.840000", "112903.300000", "112903.760000", "112904.220000", "112904.680000", "112905.140000", "112905.600000", "112906.060000", "112906.520000", "112906.980000", "112907.440000", "112907.900000", "112908.360000", "112908.820000", "112909.280000", "112909.740000", "112910.200000", "112910.660000", "112911.120000", "112911.580000", "112912.040000", "112912.500000", "112912.960000", "112913.420000", "112913.880000", "112914.340000", "112914.800000", "112915.260000", "112915.720000", "112916.180000", "112916.640000", "112917.100000", "112917.560000", "112918.020000", "112918.480000", "112918.940000", "112919.400000", "112919.860000", "112920.320000", "112920.780000", "112921.240000", "112921.700000", "112922.160000", "112922.620000", "112923.080000", "112923.540000", "112924.000000", "112924.460000", "112924.920000", "112925.380000", "112925.840000", "112926.300000", "112926.760000", "112927.220000", "112927.680000", "112928.140000", "112928.600000", "112929.060000", "112929.520000", "112929.980000", "112930.440000", "112930.900000", "112931.360000", "112931.820000", "112932.280000", "112932.740000", "112933.200000", "112933.660000", "112934.120000", "112934.580000", "112935.040000", "112935.500000", "112935.960000", "112936.420000", "112936.880000", "112937.340000", "112937.800000", "112938.260000", "112938.720000", "112939.180000", "112939.640000", "112940.100000", "112940.560000", "112941.020000", "112941.480000", "112941.940000", "112942.400000", "112942.860000", "112943.320000", "112943.780000", "112944.240000", "112944.700000", "112945.160000", "112945.620000", "112946.080000", "112946.540000", "112947.000000", "112947.460000", "112947.920000", "112948.380000", "112948.840000", "112949.300000", "112949.760000", "112950.220000", "112950.680000", "112951.140000", "112951.600000", "112952.060000", "112952.520000", "112952.980000", "112953.440000", "112953.900000", "112954.360000", "112954.820000", "112955.280000", "112955.740000", "112956.200000", "112956.660000", "112957.120000", "112957.580000", "112958.040000", "112958.500000", "112958.960000", "112959.420000", "112959.880000", "113000.340000", "113000.800000", "113001.260000", "113001.720000", "113002.180000", "113002.640000", "113003.100000", "113003.560000", "113004.020000", "113004.480000", "113004.940000", "113005.400000", "113005.860000", "113006.320000", "113006.780000", "113007.240000", "113007.700000", "113008.160000", "113008.620000", "113009.080000", "113009.540000", "113010.000000", "113010.460000", "113010.920000", "113011.380000", "113011.840000", "113012.300000", "113012.760000", "113013.220000", "113013.680000", "113014.140000", "113014.600000", "113015.060000", "113015.520000", "113015.980000", "113016.440000", "113016.900000", "113017.360000", "113017.820000", "113018.280000", "113018.740000", "113019.200000", "113019.660000", "113020.120000", "113020.580000", "113021.040000", "113021.500000", "113021.960000", "113022.420000", "113022.880000", "113023.340000", "113023.800000", "113024.260000", "113024.720000", "113025.180000", "113025.640000", "113026.100000", "113026.560000", "113027.020000", "113027.480000", "113027.940000", "113028.400000", "113028.860000", "113029.320000", "113029.780000", "113030.240000", "113030.700000", "113031.160000", "113031.620000", "113032.080000", "113032.540000", "113033.000000", "113033.460000", "113033.920000", "113034.380000", "113034.840000", "113035.300000", "113035.760000", "113036.220000", "113036.680000", "113037.140000", "113037.600000", "113038.060000", "113038.520000", "113038.980000", "113039.440000", "113039.900000", "113040.360000", "113040.820000", "113041.280000", "113041.740000", "113042.200000", "113042.660000", "113043.120000", "113043.580000", "113044.040000", "113044.500000", "113044.960000", "113045.420000", "113045.880000", "113046.340000", "113046.800000", "113047.260000", "113047.720000", "113048.180000", "113048.640000", "113049.100000", "113049.560000", "113050.020000", "113050.480000", "113050.940000", "113051.400000", "113051.860000", "113052.320000", "113052.780000", "113053.240000", "113053.700000", "113054.160000", "113054.620000", "113055.080000", "113055.540000", "113056.000000", "113056.460000", "113056.920000", "113057.380000", "113057.840000", "113058.300000", "113058.760000", "113059.220000", "113059.680000", "113100.140000", "113100.600000", "113101.060000", "113101.520000", "113101.980000", "113102.440000", "113102.900000", "113103.360000", "113103.820000", "113104.280000", "113104.740000", "113105.200000", "113105.660000", "113106.120000", "113106.580000", "113107.040000", "113107.500000", "113107.960000", "113108.420000", "113108.880000", "113109.340000", "113109.800000", "113110.260000", "113110.720000", "113111.180000", "113111.640000", "113112.100000", "113112.560000", "113113.020000", "113113.480000", "113113.940000", "113114.400000", "113114.860000", "113115.320000", "113115.780000", "113116.240000", "113116.700000", "113117.160000", "113117.620000", "113118.080000", "113118.540000", "113119.000000", "113119.460000", "113119.920000", "113120.380000", "113120.840000", "113121.300000", "113121.760000", "113122.220000", "113122.680000", "113123.140000", "113123.600000", "113124.060000", "113124.520000", "113124.980000", "113125.440000", "113125.900000", "113126.360000", "113126.820000", "113127.280000", "113127.740000", "113128.200000", "113128.660000", "113129.120000", "113129.580000", "113130.040000", "113130.500000", "113130.960000", "113131.420000", "113131.880000", "113132.340000", "113132.800000", "113133.260000", "113133.720000", "113134.180000", "113134.640000", "113135.100000", "113135.560000", "113136.020000", "113136.480000", "113136.940000", "113137.400000", "113137.860000", "113138.320000", "113138.780000", "113139.240000", "113139.700000", "113140.160000", "113140.620000", "113141.080000", "113141.540000", "113142.000000", "113142.460000", "113142.920000", "113143.380000", "113143.840000", "113144.300000", "113144.760000", "113145.220000", "113145.680000", "113146.140000", "113146.600000", "113147.060000", "113147.520000", "113147.980000", "113148.440000", "113148.900000", "113149.360000", "113149.820000", "113150.280000", "113150.740000", "113151.200000", "113151.660000", "113152.120000", "113152.580000", "113153.040000", "113153.500000", "113153.960000", "113154.420000", "113154.880000", "113155.340000", "113155.800000", "113156.260000", "113156.720000", "113157.180000", "113157.640000", "113158.100000", "113158.560000", "113159.020000", "113159.480000", "113159.940000", "113200.400000", "113200.860000", "113201.320000", "113201.780000", "113202.240000", "113202.700000", "113203.160000", "113203.620000", "113204.080000", "113204.540000", "113205.000000", "113205.460000", "113205.920000", "113206.380000", "113206.840000", "113207.300000", "113207.760000", "113208.220000", "113208.680000", "113209.140000", "113209.600000", "113210.060000", "113210.520000", "113210.980000", "113211.440000", "113211.900000", "113212.360000", "113212.820000", "113213.280000", "113213.740000", "113214.200000", "113214.660000", "113215.120000", "113215.580000", "113216.040000", "113216.500000", "113216.960000", "113217.420000", "113217.880000", "113218.340000", "113218.800000", "113219.260000", "113219.720000", "113220.180000", "113220.640000", "113221.100000", "113221.560000", "113222.020000", "113222.480000", "113222.940000", "113223.400000", "113223.860000", "113224.320000", "113224.780000", "113225.240000", "113225.700000", "113226.160000", "113226.620000", "113227.080000", "113227.540000", "113228.000000", "113228.460000", "113228.920000", "113229.380000", "113229.840000", "113230.300000", "113230.760000", "113231.220000", "113231.680000", "113232.140000", "113232.600000", "113233.060000", "113233.520000", "113233.980000", "113234.440000", "113234.900000", "113235.360000", "113235.820000", "113236.280000", "113236.740000", "113237.200000", "113237.660000", "113238.120000", "113238.580000", "113239.040000", "113239.500000", "113239.960000", "113240.420000", "113240.880000", "113241.340000", "113241.800000", "113242.260000", "113242.720000", "113243.180000", "113243.640000", "113244.100000", "113244.560000", "113245.020000", "113245.480000", "113245.940000", "113246.400000", "113246.860000", "113247.320000", "113247.780000", "113248.240000", "113248.700000", "113249.160000", "113249.620000", "113250.080000", "113250.540000", "113251.000000", "113251.460000", "113251.920000", "113252.380000", "113252.840000", "113253.300000", "113253.760000", "113254.220000", "113254.680000", "113255.140000", "113255.600000", "113256.060000", "113256.520000", "113256.980000", "113257.440000", "113257.900000", "113258.360000", "113258.820000", "113259.280000", "113259.740000", "113300.200000", "113300.660000", "113301.120000", "113301.580000", "113302.040000", "113302.500000", "113302.960000", "113303.420000", "113303.880000", "113304.340000", "113304.800000", "113305.260000", "113305.720000", "113306.180000", "113306.640000", "113307.100000", "113307.560000", "113308.020000", "113308.480000", "113308.940000", "113309.400000", "113309.860000", "113310.320000", "113310.780000", "113311.240000", "113311.700000", "113312.160000", "113312.620000", "113313.080000", "113313.540000", "113314.000000", "113314.460000", "113314.920000", "113315.380000", "113315.840000", "113316.300000", "113316.760000", "113317.220000", "113317.680000", "113318.140000", "113318.600000", "113319.060000", "113319.520000", "113319.980000", "113320.440000", "113320.900000", "113321.360000", "113321.820000", "113322.280000", "113322.740000", "113323.200000", "113323.660000", "113324.120000", "113324.580000", "113325.040000", "113325.500000", "113325.960000", "113326.420000", "113326.880000", "113327.340000", "113327.800000", "113328.260000", "113328.720000", "113329.180000", "113329.640000", "113330.100000", "113330.560000", "113331.020000", "113331.480000", "113331.940000", "113332.400000", "113332.860000", "113333.320000", "113333.780000", "113334.240000", "113334.700000", "113335.160000", "113335.620000", "113336.080000", "113336.540000", "113337.000000", "113337.460000", "113337.920000", "113338.380000", "113338.840000", "113339.300000", "113339.760000", "113340.220000", "113340.680000", "113341.140000", "113341.600000", "113342.060000", "113342.520000", "113342.980000", "113343.440000", "113343.900000", "113344.360000", "113344.820000", "113345.280000", "113345.740000", "113346.200000", "113346.660000", "113347.120000", "113347.580000", "113348.040000", "113348.500000", "113348.960000", "113349.420000", "113349.880000", "113350.340000", "113350.800000", "113351.260000", "113351.720000", "113352.180000", "113352.640000", "113353.100000", "113353.560000", "113354.020000", "113354.480000", "113354.940000", "113355.400000", "113355.860000", "113356.320000", "113356.780000", "113357.240000", "113357.700000", "113358.160000", "113358.620000", "113359.080000", "113359.540000", "113400.000000", "113400.460000", "113400.920000", "113401.380000", "113401.840000", "113402.300000"],
