{
  "AcquisitionMatrixPE": 82,
  "AcquisitionNumber": 1,
  "AcquisitionTime": "11:50:0.157500",
  "BandwidthPerPixelPhaseEncode": 24.888,
  "BaseResolution": 82,
  "BodyPartExamined": "BRAIN",
  "ConsistencyInfo": "N4_VE11C_LATEST_20160120",
  "ConversionSoftware": "dcm2niix",
  "ConversionSoftwareVersion": "v1.0.20201102",
  "DerivedVendorReportedEchoSpacing": 0.00049,
  "DeviceSerialNumber": "66112",
  "DwellTime": 2e-06,
  "EchoTime": 0.0272,
  "EchoTrainLength": 82,
  "EffectiveEchoSpacing": 0.00049,
  "FlipAngle": 44,
  "ImageComments": "Unaliased MB8/PE3",
  "ImageOrientationPatientDICOM": [0.999984, -0.00562845, 0.000736891, 0.00558502, 0.998755, 0.0495635],
  "ImageType": [
    "ORIGINAL",
    "PRIMARY",
    "M",
    "MB",
    "ND",
    "NORM",
    "MOSAIC"
],
  "ImagingFrequency": 123.252,
  "InPlanePhaseEncodingDirectionDICOM": "COL",
  "InstitutionAddress": "Maynard 3,Hanover,NH,US,03755",
  "InstitutionName": "Dartmouth College - PBS",
  "InstitutionalDepartmentName": "Department",
  "MRAcquisitionType": "2D",
  "MagneticFieldStrength": 3,
  "Manufacturer": "Siemens",
  "ManufacturersModelName": "Prisma",
  "Modality": "MR",
  "MultibandAccelerationFactor": 8,
  "PartialFourier": 1,
  "PatientPosition": "HFS",
  "PercentPhaseFOV": 100,
  "PercentSampling": 100,
  "PhaseEncodingDirection": "j-",
  "PhaseEncodingSteps": 82,
  "PhaseResolution": 1,
  "PixelBandwidth": 3050,
  "ProcedureStepDescription": "Wager_Wager^1076_spacetop",
  "ProtocolName": "func_run-06_task-social_acq-ap-mb8",
  "PulseSequenceDetails": "%CustomerSeq%\\cmrr_mbep2d_bold",
  "ReceiveCoilActiveElements": "HEA;HEP",
  "ReceiveCoilName": "Head_32",
  "ReconMatrixPE": 82,
  "RepetitionTime": 0.46,
  "SAR": 0.104388,
  "ScanOptions": "FS",
  "ScanningSequence": "EP",
  "SequenceName": "epfid2d1_82",
  "SequenceVariant": "SK\\SS",
  "SeriesDescription": "func_run-06_task-social_acq-ap-mb8",
  "SeriesNumber": 24,
  "ShimSetting": [4143, -7741, -7304, 531, -43, -103, -25, 87],
  "SliceThickness": 2.7,
  "SliceTiming": [0, 0.25, 0.0625, 0.3125, 0.125, 0.375, 0.1875, 0, 0.25, 0.0625, 0.3125, 0.125, 0.375, 0.1875, 0, 0.25, 0.0625, 0.3125, 0.125, 0.375, 0.1875, 0, 0.25, 0.0625, 0.3125, 0.125, 0.375, 0.1875, 0, 0.25, 0.0625, 0.3125, 0.125, 0.375, 0.1875, 0, 0.25, 0.0625, 0.3125, 0.125, 0.375, 0.1875, 0, 0.25, 0.0625, 0.3125, 0.125, 0.375, 0.1875, 0, 0.25, 0.0625, 0.3125, 0.125, 0.375, 0.1875],
  "SoftwareVersions": "syngo MR E11",
  "SpacingBetweenSlices": 2.7,
  "StationName": "AWP66112",
  "TaskName": "social",
  "TotalReadoutTime": 0.03969,
  "TxRefAmp": 246.432,
  "WipMemBlock": "62cd55c4-ee02-4067-a38a-b0905bec23c2||Sequence: R016 ve11c/master r/e634e98; Dec 19 2017 11:00:25 by eja",
  "dcmmeta_affine": [
    [-2.6828837394714355, 0.0149841895326972, 0.002740337513387203, 111.68264770507812],
    [0.015100730583071709, 2.6795876026153564, 0.1338081955909729, -95.49395751953125],
    [0.001977024832740426, -0.1329752504825592, 2.696681022644043, -78.8021240234375],
    [0.0, 0.0, 0.0, 1.0]
],
  "dcmmeta_reorient_transform": [
    [0.0, -1.0, 0.0, 81.0],
    [1.0, 0.0, 0.0, 0.0],
    [0.0, 0.0, 1.0, 0.0],
    [0.0, 0.0, 0.0, 1.0]
],
  "dcmmeta_shape": [82, 82, 56, 872],
  "dcmmeta_slice_dim": 2,
  "dcmmeta_version": 0.6,
  "global": {
    "const": {
      "AccessionNumber": "A003460",
      "AcquisitionMatrix": [82, 0, 0, 82],
      "AngioFlag": "N",
      "BitsAllocated": 16,
      "BitsStored": 16,
      "BodyPartExamined": "BRAIN",
      "Columns": 656,
      "EchoNumbers": 1,
      "EchoTime": 27.2,
      "EchoTrainLength": 82,
      "FlipAngle": 44.0,
      "HighBit": 15,
      "ImageOrientationPatient": [0.99998388861789, -0.0056284541616, 0.00073689103682, 0.00558501583612, 0.99875535877859, 0.04956350380222],
      "ImagePositionPatient": [-887.18444355247, -886.26037552663, -128.30442572317],
      "ImageType": [
        "ORIGINAL",
        "PRIMARY",
        "M",
        "MB",
        "ND",
        "NORM",
        "MOSAIC"
],
      "ImagedNucleus": "1H",
      "ImagingFrequency": 123.2522,
      "InPlanePhaseEncodingDirection": "COL",
      "MRAcquisitionType": "2D",
      "MagneticFieldStrength": 3.0,
      "Manufacturer": "SIEMENS",
      "ManufacturerModelName": "Prisma",
      "Modality": "MR",
      "NumberOfAverages": 1.0,
      "NumberOfPhaseEncodingSteps": 82,
      "PercentPhaseFieldOfView": 100.0,
      "PercentSampling": 100.0,
      "PerformedProcedureStepStartTime": "100222.423000",
      "PhotometricInterpretation": "MONOCHROME2",
      "PixelBandwidth": 3050.0,
      "PixelRepresentation": 0,
      "PixelSpacing": [2.6829268932343, 2.6829268932343],
      "ProtocolName": "func_run-06_task-social_acq-ap-mb8",
      "RepetitionTime": 460.0,
      "Rows": 656,
      "SAR": 0.10438770599089,
      "SamplesPerPixel": 1,
      "ScanOptions": "FS",
      "ScanningSequence": "EP",
      "SequenceName": "epfid2d1_82",
      "SequenceVariant": [
        "SK",
        "SS"
],
      "SeriesDescription": "func_run-06_task-social_acq-ap-mb8",
      "SeriesNumber": 24,
      "SeriesTime": "115018.830000",
      "SliceLocation": -83.324448289029,
      "SliceThickness": 2.7000000476837,
      "SmallestImagePixelValue": 0,
      "SoftwareVersions": "syngo MR E11",
      "SpacingBetweenSlices": 2.7000000390622,
      "SpecificCharacterSet": "ISO_IR 100",
      "StudyID": "4",
      "StudyTime": "100222.322000",
      "TransmitCoilName": "Body",
      "VariableFlipAngleFlag": "N",
      "WindowCenterWidthExplanation": "Algo1",
      "dBdt": 0.0},
    "slices": {}
  },
  "time": {
    "samples": {
      "AcquisitionNumber": [1, 2, 3, 4, 5, 6, 7, 8, 9, 10, 11, 12, 13, 14, 15, 16, 17, 18, 19, 20, 21, 22, 23, 24, 25, 26, 27, 28, 29, 30, 31, 32, 33, 34, 35, 36, 37, 38, 39, 40, 41, 42, 43, 44, 45, 46, 47, 48, 49, 50, 51, 52, 53, 54, 55, 56, 57, 58, 59, 60, 61, 62, 63, 64, 65, 66, 67, 68, 69, 70, 71, 72, 73, 74, 75, 76, 77, 78, 79, 80, 81, 82, 83, 84, 85, 86, 87, 88, 89, 90, 91, 92, 93, 94, 95, 96, 97, 98, 99, 100, 101, 102, 103, 104, 105, 106, 107, 108, 109, 110, 111, 112, 113, 114, 115, 116, 117, 118, 119, 120, 121, 122, 123, 124, 125, 126, 127, 128, 129, 130, 131, 132, 133, 134, 135, 136, 137, 138, 139, 140, 141, 142, 143, 144, 145, 146, 147, 148, 149, 150, 151, 152, 153, 154, 155, 156, 157, 158, 159, 160, 161, 162, 163, 164, 165, 166, 167, 168, 169, 170, 171, 172, 173, 174, 175, 176, 177, 178, 179, 180, 181, 182, 183, 184, 185, 186, 187, 188, 189, 190, 191, 192, 193, 194, 195, 196, 197, 198, 199, 200, 201, 202, 203, 204, 205, 206, 207, 208, 209, 210, 211, 212, 213, 214, 215, 216, 217, 218, 219, 220, 221, 222, 223, 224, 225, 226, 227, 228, 229, 230, 231, 232, 233, 234, 235, 236, 237, 238, 239, 240, 241, 242, 243, 244, 245, 246, 247, 248, 249, 250, 251, 252, 253, 254, 255, 256, 257, 258, 259, 260, 261, 262, 263, 264, 265, 266, 267, 268, 269, 270, 271, 272, 273, 274, 275, 276, 277, 278, 279, 280, 281, 282, 283, 284, 285, 286, 287, 288, 289, 290, 291, 292, 293, 294, 295, 296, 297, 298, 299, 300, 301, 302, 303, 304, 305, 306, 307, 308, 309, 310, 311, 312, 313, 314, 315, 316, 317, 318, 319, 320, 321, 322, 323, 324, 325, 326, 327, 328, 329, 330, 331, 332, 333, 334, 335, 336, 337, 338, 339, 340, 341, 342, 343, 344, 345, 346, 347, 348, 349, 350, 351, 352, 353, 354, 355, 356, 357, 358, 359, 360, 361, 362, 363, 364, 365, 366, 367, 368, 369, 370, 371, 372, 373, 374, 375, 376, 377, 378, 379, 380, 381, 382, 383, 384, 385, 386, 387, 388, 389, 390, 391, 392, 393, 394, 395, 396, 397, 398, 399, 400, 401, 402, 403, 404, 405, 406, 407, 408, 409, 410, 411, 412, 413, 414, 415, 416, 417, 418, 419, 420, 421, 422, 423, 424, 425, 426, 427, 428, 429, 430, 431, 432, 433, 434, 435, 436, 437, 438, 439, 440, 441, 442, 443, 444, 445, 446, 447, 448, 449, 450, 451, 452, 453, 454, 455, 456, 457, 458, 459, 460, 461, 462, 463, 464, 465, 466, 467, 468, 469, 470, 471, 472, 473, 474, 475, 476, 477, 478, 479, 480, 481, 482, 483, 484, 485, 486, 487, 488, 489, 490, 491, 492, 493, 494, 495, 496, 497, 498, 499, 500, 501, 502, 503, 504, 505, 506, 507, 508, 509, 510, 511, 512, 513, 514, 515, 516, 517, 518, 519, 520, 521, 522, 523, 524, 525, 526, 527, 528, 529, 530, 531, 532, 533, 534, 535, 536, 537, 538, 539, 540, 541, 542, 543, 544, 545, 546, 547, 548, 549, 550, 551, 552, 553, 554, 555, 556, 557, 558, 559, 560, 561, 562, 563, 564, 565, 566, 567, 568, 569, 570, 571, 572, 573, 574, 575, 576, 577, 578, 579, 580, 581, 582, 583, 584, 585, 586, 587, 588, 589, 590, 591, 592, 593, 594, 595, 596, 597, 598, 599, 600, 601, 602, 603, 604, 605, 606, 607, 608, 609, 610, 611, 612, 613, 614, 615, 616, 617, 618, 619, 620, 621, 622, 623, 624, 625, 626, 627, 628, 629, 630, 631, 632, 633, 634, 635, 636, 637, 638, 639, 640, 641, 642, 643, 644, 645, 646, 647, 648, 649, 650, 651, 652, 653, 654, 655, 656, 657, 658, 659, 660, 661, 662, 663, 664, 665, 666, 667, 668, 669, 670, 671, 672, 673, 674, 675, 676, 677, 678, 679, 680, 681, 682, 683, 684, 685, 686, 687, 688, 689, 690, 691, 692, 693, 694, 695, 696, 697, 698, 699, 700, 701, 702, 703, 704, 705, 706, 707, 708, 709, 710, 711, 712, 713, 714, 715, 716, 717, 718, 719, 720, 721, 722, 723, 724, 725, 726, 727, 728, 729, 730, 731, 732, 733, 734, 735, 736, 737, 738, 739, 740, 741, 742, 743, 744, 745, 746, 747, 748, 749, 750, 751, 752, 753, 754, 755, 756, 757, 758, 759, 760, 761, 762, 763, 764, 765, 766, 767, 768, 769, 770, 771, 772, 773, 774, 775, 776, 777, 778, 779, 780, 781, 782, 783, 784, 785, 786, 787, 788, 789, 790, 791, 792, 793, 794, 795, 796, 797, 798, 799, 800, 801, 802, 803, 804, 805, 806, 807, 808, 809, 810, 811, 812, 813, 814, 815, 816, 817, 818, 819, 820, 821, 822, 823, 824, 825, 826, 827, 828, 829, 830, 831, 832, 833, 834, 835, 836, 837, 838, 839, 840, 841, 842, 843, 844, 845, 846, 847, 848, 849, 850, 851, 852, 853, 854, 855, 856, 857, 858, 859, 860, 861, 862, 863, 864, 865, 866, 867, 868, 869, 870, 871, 872],
      "AcquisitionTime": ["115000.157500", "115000.617500", "115001.077500", "115001.537500", "115001.997500", "115002.457500", "115002.917500", "115003.377500", "115003.837500", "115004.297500", "115004.757500", "115005.217500", "115005.677500", "115006.137500", "115006.597500", "115007.057500", "115007.517500", "115007.977500", "115008.437500", "115008.897500", "115009.357500", "115009.817500", "115010.277500", "115010.737500", "115011.197500", "115011.657500", "115012.117500", "115012.577500", "115013.037500", "115013.497500", "115013.957500", "115014.417500", "115014.877500", "115015.337500", "115015.797500", "115016.257500", "115016.717500", "115017.177500", "115017.637500", "115018.097500", "115018.557500", "115019.017500", "115019.477500", "115019.937500", "115020.397500", "115020.857500", "115021.317500", "115021.777500", "115022.237500", "115022.697500", "115023.157500", "115023.617500", "115024.077500", "115024.537500", "115024.997500", "115025.457500", "115025.917500", "115026.377500", "115026.837500", "115027.297500", "115027.757500", "115028.217500", "115028.677500", "115029.137500", "115029.597500", "115030.057500", "115030.517500", "115030.977500", "115031.437500", "115031.897500", "115032.357500", "115032.817500", "115033.277500", "115033.737500", "115034.197500", "115034.657500", "115035.117500", "115035.577500", "115036.037500", "115036.497500", "115036.957500", "115037.417500", "115037.877500", "115038.337500", "115038.797500", "115039.257500", "115039.717500", "115040.177500", "115040.637500", "115041.097500", "115041.557500", "115042.017500", "115042.477500", "115042.937500", "115043.397500", "115043.857500", "115044.317500", "115044.777500", "115045.237500", "115045.697500", "115046.157500", "115046.617500", "115047.077500", "115047.537500", "115047.997500", "115048.457500", "115048.917500", "115049.377500", "115049.837500", "115050.297500", "115050.757500", "115051.217500", "115051.677500", "115052.137500", "115052.597500", "115053.057500", "115053.517500", "115053.977500", "115054.437500", "115054.897500", "115055.357500", "115055.817500", "115056.277500", "115056.737500", "115057.197500", "115057.657500", "115058.117500", "115058.577500", "115059.037500", "115059.497500", "115059.957500", "115100.417500", "115100.877500", "115101.337500", "115101.797500", "115102.257500", "115102.717500", "115103.177500", "115103.637500", "115104.097500", "115104.557500", "115105.017500", "115105.477500", "115105.937500", "115106.397500", "115106.857500", "115107.317500", "115107.777500", "115108.237500", "115108.697500", "115109.157500", "115109.617500", "115110.077500", "115110.537500", "115110.997500", "115111.457500", "115111.917500", "115112.377500", "115112.837500", "115113.297500", "115113.757500", "115114.217500", "115114.677500", "115115.137500", "115115.597500", "115116.057500", "115116.517500", "115116.977500", "115117.437500", "115117.897500", "115118.357500", "115118.817500", "115119.277500", "115119.737500", "115120.197500", "115120.657500", "115121.117500", "115121.577500", "115122.037500", "115122.497500", "115122.957500", "115123.417500", "115123.877500", "115124.337500", "115124.797500", "115125.257500", "115125.717500", "115126.177500", "115126.637500", "115127.097500", "115127.557500", "115128.017500", "115128.477500", "115128.937500", "115129.397500", "115129.857500", "115130.317500", "115130.777500", "115131.237500", "115131.697500", "115132.157500", "115132.617500", "115133.077500", "115133.537500", "115133.997500", "115134.457500", "115134.917500", "115135.377500", "115135.837500", "115136.297500", "115136.757500", "115137.217500", "115137.677500", "115138.137500", "115138.597500", "115139.057500", "115139.517500", "115139.977500", "115140.437500", "115140.897500", "115141.357500", "115141.817500", "115142.277500", "115142.737500", "115143.197500", "115143.657500", "115144.117500", "115144.577500", "115145.037500", "115145.497500", "115145.957500", "115146.417500", "115146.877500", "115147.337500", "115147.797500", "115148.257500", "115148.717500", "115149.177500", "115149.637500", "115150.097500", "115150.557500", "115151.017500", "115151.477500", "115151.937500", "115152.397500", "115152.857500", "115153.317500", "115153.777500", "115154.237500", "115154.697500", "115155.157500", "115155.617500", "115156.077500", "115156.537500", "115156.997500", "115157.457500", "115157.917500", "115158.377500", "115158.837500", "115159.297500", "115159.757500", "115200.217500", "115200.677500", "115201.137500", "115201.597500", "115202.057500", "115202.517500", "115202.977500", "115203.437500", "115203.897500", "115204.357500", "115204.817500", "115205.277500", "115205.737500", "115206.197500", "115206.657500", "115207.117500", "115207.577500", "115208.037500", "115208.497500", "115208.957500", "115209.417500", "115209.877500", "115210.337500", "115210.797500", "115211.257500", "115211.717500", "115212.177500", "115212.637500", "115213.097500", "115213.557500", "115214.017500", "115214.477500", "115214.937500", "115215.397500", "115215.857500", "115216.317500", "115216.777500", "115217.237500", "115217.697500", "115218.157500", "115218.617500", "115219.077500", "115219.537500", "115219.997500", "115220.457500", "115220.917500", "115221.377500", "115221.837500", "115222.297500", "115222.757500", "115223.217500", "115223.677500", "115224.137500", "115224.597500", "115225.057500", "115225.517500", "115225.977500", "115226.437500", "115226.897500", "115227.357500", "115227.817500", "115228.277500", "115228.737500", "115229.197500", "115229.657500", "115230.117500", "115230.577500", "115231.037500", "115231.497500", "115231.957500", "115232.417500", "115232.877500", "115233.337500", "115233.797500", "115234.257500", "115234.717500", "115235.177500", "115235.637500", "115236.097500", "115236.557500", "115237.017500", "115237.477500", "115237.937500", "115238.397500", "115238.857500", "115239.317500", "115239.777500", "115240.237500", "115240.697500", "115241.157500", "115241.617500", "115242.077500", "115242.537500", "115242.997500", "115243.457500", "115243.917500", "115244.377500", "115244.837500", "115245.297500", "115245.757500", "115246.217500", "115246.677500", "115247.137500", "115247.597500", "115248.057500", "115248.517500", "115248.977500", "115249.437500", "115249.897500", "115250.357500", "115250.817500", "115251.277500", "115251.737500", "115252.197500", "115252.657500", "115253.117500", "115253.577500", "115254.037500", "115254.497500", "115254.957500", "115255.417500", "115255.877500", "115256.337500", "115256.797500", "115257.257500", "115257.717500", "115258.177500", "115258.637500", "115259.097500", "115259.557500", "115300.017500", "115300.477500", "115300.937500", "115301.397500", "115301.857500", "115302.317500", "115302.777500", "115303.237500", "115303.697500", "115304.157500", "115304.617500", "115305.077500", "115305.537500", "115305.997500", "115306.457500", "115306.917500", "115307.377500", "115307.837500", "115308.297500", "115308.757500", "115309.217500", "115309.677500", "115310.137500", "115310.597500", "115311.057500", "115311.517500", "115311.977500", "115312.437500", "115312.897500", "115313.357500", "115313.817500", "115314.277500", "115314.737500", "115315.197500", "115315.657500", "115316.117500", "115316.577500", "115317.037500", "115317.497500", "115317.957500", "115318.417500", "115318.877500", "115319.337500", "115319.797500", "115320.257500", "115320.717500", "115321.177500", "115321.637500", "115322.097500", "115322.557500", "115323.017500", "115323.477500", "115323.937500", "115324.397500", "115324.857500", "115325.317500", "115325.777500", "115326.237500", "115326.697500", "115327.157500", "115327.617500", "115328.077500", "115328.537500", "115328.997500", "115329.457500", "115329.917500", "115330.377500", "115330.837500", "115331.297500", "115331.757500", "115332.217500", "115332.677500", "115333.137500", "115333.597500", "115334.057500", "115334.517500", "115334.977500", "115335.437500", "115335.897500", "115336.357500", "115336.817500", "115337.277500", "115337.737500", "115338.197500", "115338.657500", "115339.117500", "115339.577500", "115340.037500", "115340.497500", "115340.957500", "115341.417500", "115341.877500", "115342.337500", "115342.797500", "115343.257500", "115343.717500", "115344.177500", "115344.637500", "115345.097500", "115345.557500", "115346.017500", "115346.477500", "115346.937500", "115347.397500", "115347.857500", "115348.317500", "115348.777500", "115349.237500", "115349.697500", "115350.157500", "115350.617500", "115351.077500", "115351.537500", "115351.997500", "115352.457500", "115352.917500", "115353.377500", "115353.837500", "115354.297500", "115354.757500", "115355.217500", "115355.677500", "115356.137500", "115356.597500", "115357.057500", "115357.517500", "115357.977500", "115358.437500", "115358.897500", "115359.357500", "115359.817500", "115400.277500", "115400.737500", "115401.197500", "115401.657500", "115402.117500", "115402.577500", "115403.037500", "115403.497500", "115403.957500", "115404.417500", "115404.877500", "115405.337500", "115405.797500", "115406.257500", "115406.717500", "115407.177500", "115407.637500", "115408.097500", "115408.557500", "115409.017500", "115409.477500", "115409.937500", "115410.397500", "115410.857500", "115411.317500", "115411.777500", "115412.237500", "115412.697500", "115413.157500", "115413.617500", "115414.077500", "115414.537500", "115414.997500", "115415.457500", "115415.917500", "115416.377500", "115416.837500", "115417.297500", "115417.757500", "115418.217500", "115418.677500", "115419.137500", "115419.597500", "115420.057500", "115420.517500", "115420.977500", "115421.437500", "115421.897500", "115422.357500", "115422.817500", "115423.277500", "115423.737500", "115424.197500", "115424.657500", "115425.117500", "115425.577500", "115426.037500", "115426.497500", "115426.957500", "115427.417500", "115427.877500", "115428.337500", "115428.797500", "115429.257500", "115429.717500", "115430.177500", "115430.637500", "115431.097500", "115431.557500", "115432.017500", "115432.477500", "115432.937500", "115433.397500", "115433.857500", "115434.317500", "115434.777500", "115435.237500", "115435.697500", "115436.157500", "115436.617500", "115437.077500", "115437.537500", "115437.997500", "115438.457500", "115438.917500", "115439.377500", "115439.837500", "115440.297500", "115440.757500", "115441.217500", "115441.677500", "115442.137500", "115442.597500", "115443.057500", "115443.517500", "115443.977500", "115444.437500", "115444.897500", "115445.357500", "115445.817500", "115446.277500", "115446.737500", "115447.197500", "115447.657500", "115448.117500", "115448.577500", "115449.037500", "115449.497500", "115449.957500", "115450.417500", "115450.877500", "115451.337500", "115451.797500", "115452.257500", "115452.717500", "115453.177500", "115453.637500", "115454.097500", "115454.557500", "115455.017500", "115455.477500", "115455.937500", "115456.397500", "115456.857500", "115457.317500", "115457.777500", "115458.237500", "115458.697500", "115459.157500", "115459.617500", "115500.077500", "115500.537500", "115500.997500", "115501.457500", "115501.917500", "115502.377500", "115502.837500", "115503.297500", "115503.757500", "115504.217500", "115504.677500", "115505.137500", "115505.597500", "115506.057500", "115506.517500", "115506.977500", "115507.437500", "115507.897500", "115508.357500", "115508.817500", "115509.277500", "115509.737500", "115510.197500", "115510.657500", "115511.117500", "115511.577500", "115512.037500", "115512.497500", "115512.957500", "115513.417500", "115513.877500", "115514.337500", "115514.797500", "115515.257500", "115515.717500", "115516.177500", "115516.637500", "115517.097500", "115517.557500", "115518.017500", "115518.477500", "115518.937500", "115519.397500", "115519.857500", "115520.317500", "115520.777500", "115521.237500", "115521.697500", "115522.157500", "115522.617500", "115523.077500", "115523.537500", "115523.997500", "115524.457500", "115524.917500", "115525.377500", "115525.837500", "115526.297500", "115526.757500", "115527.217500", "115527.677500", "115528.137500", "115528.597500", "115529.057500", "115529.517500", "115529.977500", "115530.437500", "115530.897500", "115531.357500", "115531.817500", "115532.277500", "115532.737500", "115533.197500", "115533.657500", "115534.117500", "115534.577500", "115535.037500", "115535.497500", "115535.957500", "115536.417500", "115536.877500", "115537.337500", "115537.797500", "115538.257500", "115538.717500", "115539.177500", "115539.637500", "115540.097500", "115540.557500", "115541.017500", "115541.477500", "115541.937500", "115542.397500", "115542.857500", "115543.317500", "115543.777500", "115544.237500", "115544.697500", "115545.157500", "115545.617500", "115546.077500", "115546.537500", "115546.997500", "115547.457500", "115547.917500", "115548.377500", "115548.837500", "115549.297500", "115549.757500", "115550.217500", "115550.677500", "115551.137500", "115551.597500", "115552.057500", "115552.517500", "115552.977500", "115553.437500", "115553.897500", "115554.357500", "115554.817500", "115555.277500", "115555.737500", "115556.197500", "115556.657500", "115557.117500", "115557.577500", "115558.037500", "115558.497500", "115558.957500", "115559.417500", "115559.877500", "115600.337500", "115600.797500", "115601.257500", "115601.717500", "115602.177500", "115602.637500", "115603.097500", "115603.557500", "115604.017500", "115604.477500", "115604.937500", "115605.397500", "115605.857500", "115606.317500", "115606.777500", "115607.237500", "115607.697500", "115608.157500", "115608.617500", "115609.077500", "115609.537500", "115609.997500", "115610.457500", "115610.917500", "115611.377500", "115611.837500", "115612.297500", "115612.757500", "115613.217500", "115613.677500", "115614.137500", "115614.597500", "115615.057500", "115615.517500", "115615.977500", "115616.437500", "115616.897500", "115617.357500", "115617.817500", "115618.277500", "115618.737500", "115619.197500", "115619.657500", "115620.117500", "115620.577500", "115621.037500", "115621.497500", "115621.957500", "115622.417500", "115622.877500", "115623.337500", "115623.797500", "115624.257500", "115624.717500", "115625.177500", "115625.637500", "115626.097500", "115626.557500", "115627.017500", "115627.477500", "115627.937500", "115628.397500", "115628.857500", "115629.317500", "115629.777500", "115630.237500", "115630.697500", "115631.157500", "115631.617500", "115632.077500", "115632.537500", "115632.997500", "115633.457500", "115633.917500", "115634.377500", "115634.837500", "115635.297500", "115635.757500", "115636.217500", "115636.677500", "115637.137500", "115637.597500", "115638.057500", "115638.517500", "115638.977500", "115639.437500", "115639.897500", "115640.357500", "115640.817500"],
