{
  "AcquisitionMatrixPE": 140,
  "AcquisitionNumber": 1,
  "AcquisitionTime": "12:23:35.982500",
  "BandwidthPerPixelPhaseEncode": 10.352,
  "BaseResolution": 140,
  "BodyPartExamined": "BRAIN",
  "ConsistencyInfo": "N4_VE11E_LATEST_20181129",
  "ConversionSoftware": "dcm2niix",
  "ConversionSoftwareVersion": "v1.0.20201102",
  "DerivedVendorReportedEchoSpacing": 0.000689998,
  "DeviceSerialNumber": "66112",
  "DiffusionScheme": "Monopolar",
  "DwellTime": 2.1e-06,
  "EchoTime": 0.088,
  "EchoTrainLength": 105,
  "EffectiveEchoSpacing": 0.000689998,
  "FlipAngle": 90,
  "ImageComments": "Unaliased MB3/PE3",
  "ImageOrientationPatientDICOM": [0.998129, 0.0505824, 0.0343477, -0.0526591, 0.996653, 0.0625204],
  "ImageType": [
    "ORIGINAL",
    "PRIMARY",
    "DIFFUSION",
    "NONE",
    "MB",
    "ND"
],
  "ImagingFrequency": 123.259,
  "InPlanePhaseEncodingDirectionDICOM": "COL",
  "InstitutionAddress": "Maynard 3,Hanover,NH,US,03755",
  "InstitutionName": "Dartmouth College - PBS",
  "InstitutionalDepartmentName": "Department",
  "IntendedFor": [
    "ses-01/dwi/sub-0101_ses-01_acq-96dirX6b0Xmb_dwi.nii.gz"
],
  "MRAcquisitionType": "2D",
  "MagneticFieldStrength": 3,
  "Manufacturer": "Siemens",
  "ManufacturersModelName": "Prisma",
  "Modality": "MR",
  "MultibandAccelerationFactor": 3,
  "PartialFourier": 0.75,
  "PatientPosition": "HFS",
  "PercentPhaseFOV": 100,
  "PercentSampling": 100,
  "PhaseEncodingDirection": "j",
  "PhaseEncodingSteps": 105,
  "PhaseResolution": 1,
  "PixelBandwidth": 1700,
  "ProcedureStepDescription": "Wager_Wager^1076_spacetop",
  "ProtocolName": "dwi_acq-discorr-PA",
  "PulseSequenceDetails": "%CustomerSeq%\\cmrr_mbep2d_diff",
  "ReceiveCoilActiveElements": "HEA;HEP",
  "ReceiveCoilName": "Head_32",
  "ReconMatrixPE": 140,
  "RepetitionTime": 4.1,
  "SAR": 0.213004,
  "ScanOptions": "PFP\\FS",
  "ScanningSequence": "EP",
  "SequenceName": "ep_b0",
  "SequenceVariant": "SK\\SS",
  "SeriesDescription": "dwi_acq-discorr-PA",
  "SeriesNumber": 6,
  "ShimSetting": [4245, -7754, -7250, 41, -204, -103, -78, 58],
  "SliceThickness": 1.7,
  "SliceTiming": [0, 2.11719, 0.14844, 2.26562, 0.29688, 2.41406, 0.45312, 2.57031, 0.60156, 2.71875, 0.75781, 2.86719, 0.90625, 3.02344, 1.05469, 3.17188, 1.21094, 3.32031, 1.35938, 3.47656, 1.50781, 3.625, 1.66406, 3.77344, 1.8125, 3.92969, 1.96094, 0, 2.11719, 0.14844, 2.26562, 0.29688, 2.41406, 0.45312, 2.57031, 0.60156, 2.71875, 0.75781, 2.86719, 0.90625, 3.02344, 1.05469, 3.17188, 1.21094, 3.32031, 1.35938, 3.47656, 1.50781, 3.625, 1.66406, 3.77344, 1.8125, 3.92969, 1.96094, 0, 2.11719, 0.14844, 2.26562, 0.29688, 2.41406, 0.45312, 2.57031, 0.60156, 2.71875, 0.75781, 2.86719, 0.90625, 3.02344, 1.05469, 3.17188, 1.21094, 3.32031, 1.35938, 3.47656, 1.50781, 3.625, 1.66406, 3.77344, 1.8125, 3.92969, 1.96094],
  "SoftwareVersions": "syngo MR E11",
  "SpacingBetweenSlices": 1.7,
  "StationName": "AWP66112",
  "TotalReadoutTime": 0.0959097,
  "TxRefAmp": 318.564,
  "WipMemBlock": "cdbe01a4-c0d1-43a8-a421-d247c8374896||Sequence: R016 ve11e/master r/434b28f1; Aug  7 2019 19:06:17 by eja",
  "dcmmeta_affine": [
    [-1.711078405380249, -0.09027275443077087, 0.052819252014160156, 128.7086181640625],
    [-0.08671273291110992, 1.708548903465271, 0.109161376953125, -86.59542083740234],
    [0.05888177454471588, -0.10717776417732239, 1.6956710815429688, -70.01748657226562],
    [0.0, 0.0, 0.0, 1.0]
],
  "dcmmeta_reorient_transform": [
    [0.0, -1.0, 0.0, 139.0],
    [1.0, 0.0, 0.0, 0.0],
    [0.0, 0.0, -1.0, 80.0],
    [0.0, 0.0, 0.0, 1.0]
],
  "dcmmeta_shape": [140, 140, 81],
  "dcmmeta_slice_dim": 2,
  "dcmmeta_version": 0.6,
  "global": {
    "const": {
      "AccessionNumber": "A004332",
      "AcquisitionMatrix": [140, 0, 0, 140],
      "AcquisitionNumber": 1,
      "AngioFlag": "N",
      "BitsAllocated": 16,
      "BitsStored": 16,
      "BodyPartExamined": "BRAIN",
      "Columns": 140,
      "EchoNumbers": 1,
      "EchoTime": 88.0,
      "EchoTrainLength": 105,
      "FlipAngle": 90.0,
      "HighBit": 15,
      "ImageOrientationPatient": [0.99812907664181, 0.05058242596922, 0.03434770072697, -0.0526591043471, 0.99665351199005, 0.06252036282104],
      "ImageType": [
        "ORIGINAL",
        "PRIMARY",
        "DIFFUSION",
        "NONE",
        "MB",
        "ND"
],
      "ImagedNucleus": "1H",
      "ImagingFrequency": 123.259082,
      "InPlanePhaseEncodingDirection": "COL",
      "MRAcquisitionType": "2D",
      "MagneticFieldStrength": 3.0,
      "Manufacturer": "SIEMENS",
      "ManufacturerModelName": "Prisma",
      "Modality": "MR",
      "NumberOfAverages": 1.0,
      "NumberOfPhaseEncodingSteps": 105,
      "PercentPhaseFieldOfView": 100.0,
      "PercentSampling": 100.0,
      "PerformedProcedureStepStartTime": "121439.055000",
      "PhotometricInterpretation": "MONOCHROME2",
      "PixelBandwidth": 1700.0,
      "PixelRepresentation": 0,
      "PixelSpacing": [1.7142857313156, 1.7142857313156],
      "ProtocolName": "dwi_acq-discorr-PA",
      "RepetitionTime": 4100.0,
      "Rows": 140,
      "SAR": 0.21300447859397,
      "SamplesPerPixel": 1,
      "ScanOptions": [
        "PFP",
        "FS"
],
      "ScanningSequence": "EP",
      "SequenceName": "ep_b0",
      "SequenceVariant": [
        "SK",
        "SS"
],
      "SeriesDescription": "dwi_acq-discorr-PA",
      "SeriesNumber": 6,
      "SeriesTime": "122340.568000",
      "SliceThickness": 1.7000000476837,
      "SmallestImagePixelValue": 0,
      "SoftwareVersions": "syngo MR E11",
      "SpacingBetweenSlices": 1.7,
      "SpecificCharacterSet": "ISO_IR 100",
      "StudyID": "1",
      "StudyTime": "121438.987000",
      "TransmitCoilName": "Body",
      "VariableFlipAngleFlag": "N",
      "WindowCenterWidthExplanation": "Algo1"
    },
    "slices": {
      "AcquisitionTime": ["122335.982500", "122338.100000", "122336.135000", "122338.250000", "122336.285000", "122338.400000", "122336.437500", "122338.552500", "122336.587500", "122338.702500", "122336.740000", "122338.855000", "122336.890000", "122339.005000", "122337.040000", "122339.157500", "122337.192500", "122339.307500", "122337.342500", "122339.457500", "122337.495000", "122339.610000", "122337.645000", "122339.760000", "122337.797500", "122339.912500", "122337.947500", "122335.982500", "122338.100000", "122336.135000", "122338.250000", "122336.285000", "122338.400000", "122336.437500", "122338.552500", "122336.587500", "122338.702500", "122336.740000", "122338.855000", "122336.890000", "122339.005000", "122337.040000", "122339.157500", "122337.192500", "122339.307500", "122337.342500", "122339.457500", "122337.495000", "122339.610000", "122337.645000", "122339.760000", "122337.797500", "122339.912500", "122337.947500", "122335.982500", "122338.100000", "122336.135000", "122338.250000", "122336.285000", "122338.400000", "122336.437500", "122338.552500", "122336.587500", "122338.702500", "122336.740000", "122338.855000", "122336.890000", "122339.005000", "122337.040000", "122339.157500", "122337.192500", "122339.307500", "122337.342500", "122339.457500", "122337.495000", "122339.610000", "122337.645000", "122339.760000", "122337.797500", "122339.912500", "122337.947500"],
      "ContentTime": ["122340.571000", "122340.676000", "122340.577000", "122340.682000", "122340.583000", "122340.688000", "122340.598000", "122340.695000", "122340.604000", "122340.701000", "122340.611000", "122340.717000", "122340.617000", "122340.723000", "122340.623000", "122340.729000", "122340.629000", "122340.735000", "122340.646000", "122340.741000", "122340.652000", "122340.747000", "122340.658000", "122340.753000", "122340.664000", "122340.759000", "122340.670000", "122340.573000", "122340.678000", "122340.579000", "122340.684000", "122340.585000", "122340.690000", "122340.600000", "122340.697000", "122340.606000", "122340.703000", "122340.613000", "122340.719000", "122340.619000", "122340.725000", "122340.625000", "122340.731000", "122340.631000", "122340.737000", "122340.648000", "122340.743000", "122340.654000", "122340.749000", "122340.660000", "122340.755000", "122340.666000", "122340.761000", "122340.672000", "122340.575000", "122340.680000", "122340.581000", "122340.686000", "122340.596000", "122340.692000", "122340.602000", "122340.699000", "122340.608000", "122340.714000", "122340.615000", "122340.721000", "122340.621000", "122340.727000", "122340.627000", "122340.733000", "122340.633000", "122340.739000", "122340.650000", "122340.745000", "122340.656000", "122340.751000", "122340.662000", "122340.757000", "122340.668000", "122340.763000", "122340.674000"],
      "CsaImage.GSWDDataType": [
        "predicted",
        "predicted",
        "predicted",
        "predicted",
        "predicted",
        "predicted",
        "predicted",
        "predicted",
        "predicted",
        "predicted",
        "predicted",
        "predicted",
        "predicted",
        "predicted",
        "predicted",
        "predicted",
        "predicted",
        "predicted",
        "predicted",
        "predicted",
        "predicted",
        "predicted",
        "predicted",
        "measured",
        "predicted",
        "measured",
        "predicted",
        "predicted",
        "predicted",
        "predicted",
        "predicted",
        "predicted",
        "predicted",
        "predicted",
        "predicted",
        "predicted",
        "predicted",
        "predicted",
        "predicted",
        "predicted",
        "predicted",
        "predicted",
        "predicted",
        "predicted",
        "predicted",
        "predicted",
        "predicted",
        "predicted",
        "predicted",
        "predicted",
        "measured",
        "predicted",
        "measured",
        "predicted",
        "predicted",
        "predicted",
        "predicted",
        "predicted",
        "predicted",
        "predicted",
        "predicted",
        "predicted",
        "predicted",
        "predicted",
        "predicted",
        "predicted",
        "predicted",
        "predicted",
        "predicted",
        "predicted",
        "predicted",
        "predicted",
        "predicted",
        "predicted",
        "predicted",
        "predicted",
        "predicted",
        "measured",
        "predicted",
        "measured",
        "predicted"
],
      "CsaImage.ICE_Dims": [
        "X_1_1_1_1_1_1_1_1_1_1_1_80",
        "X_1_1_1_1_1_1_42_1_1_2_1_80",
        "X_1_1_1_1_1_1_2_1_1_3_1_80",
        "X_1_1_1_1_1_1_43_1_1_4_1_80",
        "X_1_1_1_1_1_1_3_1_1_5_1_80",
        "X_1_1_1_1_1_1_44_1_1_6_1_80",
        "X_1_1_1_1_1_1_4_1_1_7_1_80",
        "X_1_1_1_1_1_1_45_1_1_8_1_80",
        "X_1_1_1_1_1_1_5_1_1_9_1_80",
        "X_1_1_1_1_1_1_46_1_1_10_1_80",
        "X_1_1_1_1_1_1_6_1_1_11_1_80",
        "X_1_1_1_1_1_1_47_1_1_12_1_80",
        "X_1_1_1_1_1_1_7_1_1_13_1_80",
        "X_1_1_1_1_1_1_48_1_1_14_1_80",
        "X_1_1_1_1_1_1_8_1_1_15_1_80",
        "X_1_1_1_1_1_1_49_1_1_16_1_80",
        "X_1_1_1_1_1_1_9_1_1_17_1_80",
        "X_1_1_1_1_1_1_50_1_1_18_1_80",
        "X_1_1_1_1_1_1_10_1_1_19_1_80",
        "X_1_1_1_1_1_1_51_1_1_20_1_80",
        "X_1_1_1_1_1_1_11_1_1_21_1_80",
        "X_1_1_1_1_1_1_52_1_1_22_1_80",
        "X_1_1_1_1_1_1_12_1_1_23_1_80",
        "X_1_1_1_1_1_1_53_1_1_24_1_80",
        "X_1_1_1_1_1_1_13_1_1_25_1_80",
        "X_1_1_1_1_1_1_54_1_1_26_1_80",
        "X_1_1_1_1_1_1_14_1_1_27_1_80",
        "X_1_1_1_1_1_1_55_1_1_28_1_80",
        "X_1_1_1_1_1_1_15_1_1_29_1_80",
        "X_1_1_1_1_1_1_56_1_1_30_1_80",
        "X_1_1_1_1_1_1_16_1_1_31_1_80",
        "X_1_1_1_1_1_1_57_1_1_32_1_80",
        "X_1_1_1_1_1_1_17_1_1_33_1_80",
        "X_1_1_1_1_1_1_58_1_1_34_1_80",
        "X_1_1_1_1_1_1_18_1_1_35_1_80",
        "X_1_1_1_1_1_1_59_1_1_36_1_80",
        "X_1_1_1_1_1_1_19_1_1_37_1_80",
        "X_1_1_1_1_1_1_60_1_1_38_1_80",
        "X_1_1_1_1_1_1_20_1_1_39_1_80",
        "X_1_1_1_1_1_1_61_1_1_40_1_80",
        "X_1_1_1_1_1_1_21_1_1_41_1_80",
        "X_1_1_1_1_1_1_62_1_1_42_1_80",
        "X_1_1_1_1_1_1_22_1_1_43_1_80",
        "X_1_1_1_1_1_1_63_1_1_44_1_80",
        "X_1_1_1_1_1_1_23_1_1_45_1_80",
        "X_1_1_1_1_1_1_64_1_1_46_1_80",
        "X_1_1_1_1_1_1_24_1_1_47_1_80",
        "X_1_1_1_1_1_1_65_1_1_48_1_80",
        "X_1_1_1_1_1_1_25_1_1_49_1_80",
        "X_1_1_1_1_1_1_66_1_1_50_1_80",
        "X_1_1_1_1_1_1_26_1_1_51_1_80",
        "X_1_1_1_1_1_1_67_1_1_52_1_80",
        "X_1_1_1_1_1_1_27_1_1_53_1_80",
        "X_1_1_1_1_1_1_68_1_1_54_1_80",
        "X_1_1_1_1_1_1_28_1_1_55_1_80",
        "X_1_1_1_1_1_1_69_1_1_56_1_80",
        "X_1_1_1_1_1_1_29_1_1_57_1_80",
        "X_1_1_1_1_1_1_70_1_1_58_1_80",
        "X_1_1_1_1_1_1_30_1_1_59_1_80",
        "X_1_1_1_1_1_1_71_1_1_60_1_80",
        "X_1_1_1_1_1_1_31_1_1_61_1_80",
        "X_1_1_1_1_1_1_72_1_1_62_1_80",
        "X_1_1_1_1_1_1_32_1_1_63_1_80",
        "X_1_1_1_1_1_1_73_1_1_64_1_80",
        "X_1_1_1_1_1_1_33_1_1_65_1_80",
        "X_1_1_1_1_1_1_74_1_1_66_1_80",
        "X_1_1_1_1_1_1_34_1_1_67_1_80",
        "X_1_1_1_1_1_1_75_1_1_68_1_80",
        "X_1_1_1_1_1_1_35_1_1_69_1_80",
        "X_1_1_1_1_1_1_76_1_1_70_1_80",
        "X_1_1_1_1_1_1_36_1_1_71_1_80",
        "X_1_1_1_1_1_1_77_1_1_72_1_80",
        "X_1_1_1_1_1_1_37_1_1_73_1_80",
        "X_1_1_1_1_1_1_78_1_1_74_1_80",
        "X_1_1_1_1_1_1_38_1_1_75_1_80",
        "X_1_1_1_1_1_1_79_1_1_76_1_80",
        "X_1_1_1_1_1_1_39_1_1_77_1_80",
        "X_1_1_1_1_1_1_80_1_1_78_1_80",
        "X_1_1_1_1_1_1_40_1_1_79_1_80",
        "X_1_1_1_1_1_1_81_1_1_80_1_80",
        "X_1_1_1_1_1_1_41_1_1_81_1_80"
],
      "CsaImage.ProtocolSliceNumber": [0, 1, 2, 3, 4, 5, 6, 7, 8, 9, 10, 11, 12, 13, 14, 15, 16, 17, 18, 19, 20, 21, 22, 23, 24, 25, 26, 27, 28, 29, 30, 31, 32, 33, 34, 35, 36, 37, 38, 39, 40, 41, 42, 43, 44, 45, 46, 47, 48, 49, 50, 51, 52, 53, 54, 55, 56, 57, 58, 59, 60, 61, 62, 63, 64, 65, 66, 67, 68, 69, 70, 71, 72, 73, 74, 75, 76, 77, 78, 79, 80],
      "CsaImage.RFSWDDataType": [
        "predicted",
        "predicted",
        "predicted",
        "predicted",
        "predicted",
        "predicted",
        "predicted",
        "predicted",
        "predicted",
        "predicted",
        "predicted",
        "predicted",
        "predicted",
        "predicted",
        "predicted",
        "predicted",
        "predicted",
        "predicted",
        "predicted",
        "predicted",
        "predicted",
        "predicted",
        "predicted",
        "measured",
        "predicted",
        "measured",
        "predicted",
        "predicted",
        "predicted",
        "predicted",
        "predicted",
        "predicted",
        "predicted",
        "predicted",
        "predicted",
        "predicted",
        "predicted",
        "predicted",
        "predicted",
        "predicted",
        "predicted",
        "predicted",
        "predicted",
        "predicted",
        "predicted",
        "predicted",
        "predicted",
        "predicted",
        "predicted",
        "predicted",
        "measured",
        "predicted",
        "measured",
        "predicted",
        "predicted",
        "predicted",
        "predicted",
        "predicted",
        "predicted",
        "predicted",
        "predicted",
        "predicted",
        "predicted",
        "predicted",
        "predicted",
        "predicted",
        "predicted",
        "predicted",
        "predicted",
        "predicted",
        "predicted",
        "predicted",
        "predicted",
        "predicted",
        "predicted",
        "predicted",
        "predicted",
        "measured",
        "predicted",
        "measured",
        "predicted"
],
      "CsaImage.SlicePosition_PCS": [
        [-116.16067818, -150.89294225, -84.91504604],
        [-116.21349767, -151.00210172, -83.21937496],
        [-116.26631716, -151.1112631, -81.52370387],
        [-116.31913665, -151.22042257, -79.82804042],
        [-116.37195638, -151.32958395, -78.13236934],
        [-116.42477587, -151.43874532, -76.43669826],
        [-116.47759536, -151.54790479, -74.74103099],
        [-116.53041485, -151.65706617, -73.04535991],
        [-116.58323458, -151.76622564, -71.34969264],
        [-116.63605407, -151.87538702, -69.65402156],
        [-116.68887356, -151.98454839, -67.9583543],
        [-116.74169329, -152.09370786, -66.26268321],
        [-116.79451278, -152.20286924, -64.56701595],
        [-116.84733227, -152.31202871, -62.87134487],
        [-116.90015176, -152.42119009, -61.1756776],
        [-116.95297149, -152.53035146, -59.48000652],
        [-117.00579098, -152.63951093, -57.78433925],
        [-117.05861047, -152.74867231, -56.08866817],
        [-117.11142996, -152.85783178, -54.3930009],
        [-117.16424969, -152.96699316, -52.69732982],
        [-117.21706918, -153.07615262, -51.00166255],
        [-117.26988867, -153.185314, -49.30599147],
        [-117.32270816, -153.29447538, -47.6103242],
        [-117.37552789, -153.40363485, -45.91465312],
        [-117.42834738, -153.51279623, -44.21898586],
        [-117.48116711, -153.62195569, -42.52331668],
        [-117.53398636, -153.73111707, -40.82764751],
        [-117.58680609, -153.84027845, -39.13197833],
        [-117.63962582, -153.94943792, -37.43630916],
        [-117.69244507, -154.0585993, -35.74063999],
        [-117.7452648, -154.16775877, -34.0449689],
        [-117.79808405, -154.27692014, -32.34929973],
        [-117.85090378, -154.38607961, -30.65363056],
        [-117.90372351, -154.49524099, -28.95796138],
        [-117.95654276, -154.60440237, -27.26229316],
        [-118.00936249, -154.71356184, -25.56662399],
        [-118.06218222, -154.82272321, -23.87095481],
        [-118.11500147, -154.93188268, -22.17528564],
        [-118.1678212, -155.04104406, -20.47961646],
        [-118.22064045, -155.15020544, -18.78394681],
        [-118.27346018, -155.25936491, -17.08827764],
        [-118.32627991, -155.36852628, -15.39260846],
        [-118.37909916, -155.47768575, -13.69693929],
        [-118.43191889, -155.58684713, -12.00127015],
        [-118.48473862, -155.6960066, -10.30560094],
        [-118.53755787, -155.80516798, -8.60993177],
        [-118.5903776, -155.91432935, -6.91426259],
        [-118.64319733, -156.02348882, -5.21859342],
        [-118.69601658, -156.1326502, -3.52292377],
        [-118.74883631, -156.24180967, -1.82725459],
        [-118.80165556, -156.35097105, -0.13158542],
        [-118.85447529, -156.46013242, 1.56408375],
        [-118.90729502, -156.56929189, 3.25975293],
        [-118.96011427, -156.67845327, 4.9554221],
        [-119.012934, -156.78761274, 6.65109128],
        [-119.06575373, -156.89677412, 8.34676045],
        [-119.11857298, -157.00593549, 10.04242963],
        [-119.17139271, -157.11509496, 11.7380988],
        [-119.22421196, -157.22425634, 13.43376797],
        [-119.27703169, -157.33341581, 15.12943715],
        [-119.32985142, -157.44257719, 16.82510632],
        [-119.38267067, -157.55173666, 18.5207755],
        [-119.4354904, -157.66089803, 20.21644467],
        [-119.48831013, -157.77005941, 21.91211384],
        [-119.54112938, -157.87922079, 23.60778493],
        [-119.59394911, -157.98837835, 25.30345219],
        [-119.64676884, -158.09753973, 26.99912327],
        [-119.69958809, -158.2067011, 28.69479054],
        [-119.75240782, -158.31586248, 30.39046162],
        [-119.80522707, -158.42502386, 32.08612889],
        [-119.8580468, -158.53418142, 33.78179997],
        [-119.91086653, -158.6433428, 35.47746724],
        [-119.96368578, -158.75250417, 37.17313832],
        [-120.01650551, -158.86166555, 38.86880559],
        [-120.06932524, -158.97082693, 40.56447667],
        [-120.12214449, -159.07998449, 42.26014393],
        [-120.17496422, -159.18914587, 43.95581502],
        [-120.22778347, -159.29830724, 45.65148228],
        [-120.2806032, -159.40746862, 47.34715336],
        [-120.33342293, -159.51662618, 49.04282063],
        [-120.38624218, -159.62578756, 50.73849171]
],
      "CsaImage.TimeAfterStart": [16.4, 18.515, 16.5525, 18.6675, 16.7025, 18.8175, 16.8525, 18.97, 17.005, 19.12, 17.155, 19.2725, 17.3075, 19.4225, 17.4575, 19.5725, 17.61, 19.725, 17.76, 19.875, 17.9125, 20.0275, 18.0625, 20.1775, 18.2125, 20.33, 18.365, 16.4, 18.515, 16.5525, 18.6675, 16.7025, 18.8175, 16.8525, 18.97, 17.005, 19.12, 17.155, 19.2725, 17.3075, 19.4225, 17.4575, 19.5725, 17.61, 19.725, 17.76, 19.875, 17.9125, 20.0275, 18.0625, 20.1775, 18.2125, 20.33, 18.365, 16.4, 18.515, 16.5525, 18.6675, 16.7025, 18.8175, 16.8525, 18.97, 17.005, 19.12, 17.155, 19.2725, 17.3075, 19.4225, 17.4575, 19.5725, 17.61, 19.725, 17.76, 19.875, 17.9125, 20.0275, 18.0625, 20.1775, 18.2125, 20.33, 18.365],
      "ImagePositionPatient": [
        [-116.16067817889, -150.892942252, -84.915046037136],
        [-116.21349766932, -151.00210172161, -83.219374955593],
        [-116.26631715976, -151.11126309856, -81.52370387405],
        [-116.31913665019, -151.22042256816, -79.828040421901],
        [-116.37195637904, -151.32958394512, -78.132369340358],
        [-116.42477586947, -151.43874532207, -76.436698258815],
        [-116.47759535991, -151.54790479167, -74.74103099197],
        [-116.53041485034, -151.65706616863, -73.045359910427],
        [-116.58323457919, -151.76622563823, -71.349692643581],
        [-116.63605406962, -151.87538701518, -69.654021562038],
        [-116.68887356006, -151.98454839214, -67.958354295192],
        [-116.74169328891, -152.09370786174, -66.262683213649],
        [-116.79451277934, -152.2028692387, -64.567015946804],
        [-116.84733226977, -152.3120287083, -62.871344865261],
        [-116.90015176021, -152.42119008525, -61.175677598415],
        [-116.95297148906, -152.53035146221, -59.480006516872],
        [-117.00579097949, -152.63951093181, -57.784339250026],
        [-117.05861046992, -152.74867230876, -56.088668168483],
        [-117.11142996036, -152.85783177837, -54.393000901638],
        [-117.16424968921, -152.96699315532, -52.697329820095],
        [-117.21706917964, -153.07615262493, -51.001662553249],
        [-117.26988867007, -153.18531400188, -49.305991471706],
        [-117.32270816051, -153.29447537883, -47.61032420486],
        [-117.37552788936, -153.40363484844, -45.914653123317],
        [-117.42834737979, -153.51279622539, -44.218985856472],
        [-117.48116710864, -153.62195569499, -42.523316682277],
        [-117.53398636065, -153.73111707195, -40.827647508083],
        [-117.58680608951, -153.8402784489, -39.131978333889],
        [-117.63962581836, -153.94943791851, -37.436309159694],
        [-117.69244507037, -154.05859929546, -35.7406399855],
        [-117.74526479922, -154.16775876506, -34.044968903957],
        [-117.79808405124, -154.27692014202, -32.349299729763],
        [-117.85090378009, -154.38607961162, -30.653630555568],
        [-117.90372350894, -154.49524098857, -28.957961381374],
        [-117.95654276095, -154.60440236553, -27.262293160854],
        [-118.00936248981, -154.71356183513, -25.56662398666],
        [-118.06218221866, -154.82272321208, -23.870954812465],
        [-118.11500147067, -154.93188268169, -22.175285638271],
        [-118.16782119952, -155.04104405864, -20.479616464077],
        [-118.22064045154, -155.1502054356, -18.783946813045],
        [-118.27346018039, -155.2593649052, -17.088277638851],
        [-118.32627990924, -155.36852628215, -15.392608464656],
        [-118.37909916125, -155.47768575176, -13.696939290462],
        [-118.4319188901, -155.58684712871, -12.00127014607],
        [-118.48473861896, -155.69600659831, -10.305600942073],
        [-118.53755787097, -155.80516797527, -8.609931767879],
        [-118.59037759982, -155.91432935222, -6.9142625936847],
        [-118.64319732867, -156.02348882183, -5.2185934194903],
        [-118.69601658069, -156.13265019878, -3.5229237684589],
        [-118.74883630954, -156.24180966838, -1.8272545942645],
        [-118.80165556155, -156.35097104534, -0.1315854200702],
        [-118.8544752904, -156.46013242229, 1.5640837541242],
        [-118.90729501925, -156.56929189189, 3.2597529283185],
        [-118.96011427127, -156.67845326885, 4.9554221025128],
        [-119.01293400012, -156.78761273845, 6.6510912767072],
        [-119.06575372897, -156.8967741154, 8.3467604509015],
        [-119.11857298099, -157.00593549236, 10.042429625096],
        [-119.17139270984, -157.11509496196, 11.73809879929],
        [-119.22421196185, -157.22425633892, 13.433767973485],
        [-119.2770316907, -157.33341580852, 15.129437147679],
        [-119.32985141955, -157.44257718547, 16.825106321873],
        [-119.38267067157, -157.55173665508, 18.520775496068],
        [-119.43549040042, -157.66089803203, 20.216444670262],
        [-119.48831012927, -157.77005940898, 21.912113844456],
        [-119.54112938128, -157.87922078594, 23.607784925999],
        [-119.59394911014, -157.98837834819, 25.303452192845],
        [-119.64676883899, -158.09753972515, 26.999123274388],
        [-119.699588091, -158.2067011021, 28.694790541234],
        [-119.75240781985, -158.31586247905, 30.390461622776],
        [-119.80522707187, -158.42502385601, 32.086128889622],
        [-119.85804680072, -158.53418141826, 33.781799971165],
        [-119.91086652957, -158.64334279521, 35.477467238011],
        [-119.96368578158, -158.75250417217, 37.173138319554],
        [-120.01650551044, -158.86166554912, 38.8688055864],
        [-120.06932523929, -158.97082692607, 40.564476667943],
        [-120.1221444913, -159.07998448833, 42.260143934788],
        [-120.17496422015, -159.18914586528, 43.955815016331],
        [-120.22778347217, -159.29830724224, 45.651482283177],
        [-120.28060320102, -159.40746861919, 47.34715336472],
        [-120.33342292987, -159.51662618144, 49.042820631566],
        [-120.38624218188, -159.6257875584, 50.738491713109]
],
      "InstanceCreationTime": ["122340.571000", "122340.676000", "122340.577000", "122340.682000", "122340.583000", "122340.688000", "122340.598000", "122340.695000", "122340.604000", "122340.701000", "122340.611000", "122340.717000", "122340.617000", "122340.723000", "122340.623000", "122340.729000", "122340.629000", "122340.735000", "122340.646000", "122340.741000", "122340.652000", "122340.747000", "122340.658000", "122340.753000", "122340.664000", "122340.759000", "122340.670000", "122340.573000", "122340.678000", "122340.579000", "122340.684000", "122340.585000", "122340.690000", "122340.600000", "122340.697000", "122340.606000", "122340.703000", "122340.613000", "122340.719000", "122340.619000", "122340.725000", "122340.625000", "122340.731000", "122340.631000", "122340.737000", "122340.648000", "122340.743000", "122340.654000", "122340.749000", "122340.660000", "122340.755000", "122340.666000", "122340.761000", "122340.672000", "122340.575000", "122340.680000", "122340.581000", "122340.686000", "122340.596000", "122340.692000", "122340.602000", "122340.699000", "122340.608000", "122340.714000", "122340.615000", "122340.721000", "122340.621000", "122340.727000", "122340.627000", "122340.733000", "122340.633000", "122340.739000", "122340.650000", "122340.745000", "122340.656000", "122340.751000", "122340.662000", "122340.757000", "122340.668000", "122340.763000", "122340.674000"],
      "InstanceNumber": [1, 2, 3, 4, 5, 6, 7, 8, 9, 10, 11, 12, 13, 14, 15, 16, 17, 18, 19, 20, 21, 22, 23, 24, 25, 26, 27, 28, 29, 30, 31, 32, 33, 34, 35, 36, 37, 38, 39, 40, 41, 42, 43, 44, 45, 46, 47, 48, 49, 50, 51, 52, 53, 54, 55, 56, 57, 58, 59, 60, 61, 62, 63, 64, 65, 66, 67, 68, 69, 70, 71, 72, 73, 74, 75, 76, 77, 78, 79, 80, 81],
      "LargestImagePixelValue": [46629, 37681, 41693, 39263, 47318, 55746, 65535, 65502, 65535, 49085, 58691, 53988, 46231, 34542, 29541, 30971, 35080, 41833, 50070, 57468, 65535, 65535, 65535, 53705, 62807, 65535, 65535, 65535, 65535, 65535, 65535, 65535, 65535, 65535, 65535, 65535, 65535, 62340, 60668, 55319, 57192, 54844, 50915, 63589, 51624, 59136, 48697, 55990, 56961, 55874, 57946, 60007, 60485, 50589, 49773, 51754, 59550, 52074, 53274, 65535, 65535, 65535, 65535, 65535, 65535, 65397, 65535, 65535, 63633, 56701, 58596, 54582, 52822, 57723, 53996, 65535, 33559, 18942, 16584, 14749, 11623],
      "SliceLocation": [-71.400418427783, -69.70041663215, -68.000414714043, -66.300420528369, -64.600418602854, -62.900416684747, -61.200418694094, -59.500416775986, -57.800418777925, -56.100416859818, -54.40041874669, -52.70041694365, -51.000418830522, -49.300417034889, -47.600418921761, -45.900416996246, -44.200419005593, -42.500417087486, -40.800419096832, -39.100417171317, -37.400419180664, -35.700417262557, -34.000419149429, -32.300417346389, -30.600419233261, -28.90041933271, -27.2004193245, -25.500419301475, -23.800419400924, -22.100419392714, -20.400417589674, -18.700417581464, -17.000417680914, -15.300417657888, -13.600418600923, -11.900418700372, -10.200418677347, -8.5004187916119, -6.8004187685864, -5.1004182847541, -3.4004183842035, -1.7004183611781, -0.000418475443, 1.699581517856, 3.3995814481329, 5.0995814563429, 6.7995814793683, 8.4995813799189, 10.199581863751, 11.899581764302, 13.599581772512, 15.299581795537, 16.999581696088, 18.699581704298, 20.399581604848, 22.099581627874, 23.799581636084, 25.499581536634, 27.199581544844, 28.899581445395, 30.59958146842, 32.299581354155, 33.999581377181, 35.699581400206, 37.399583310906, 39.099581186492, 40.799583112007, 42.499581217727, 44.199583143242, 45.899581248962, 47.599582929528, 49.299581050064, 50.999582960763, 52.699581081299, 54.399583006814, 56.099580867585, 57.7995827931, 59.49958089882, 61.199582824335, 62.899580699921, 64.599582610621],
