{
  "AcquisitionMatrixPE": 82,
  "AcquisitionNumber": 1,
  "AcquisitionTime": "21:02:8.022500",
  "BandwidthPerPixelPhaseEncode": 24.888,
  "BaseResolution": 82,
  "BodyPartExamined": "BRAIN",
  "ConsistencyInfo": "N4_VE11E_LATEST_20181129",
  "ConversionSoftware": "dcm2niix",
  "ConversionSoftwareVersion": "v1.0.20201102",
  "DerivedVendorReportedEchoSpacing": 0.00049,
  "DeviceSerialNumber": "66112",
  "DwellTime": 2e-06,
  "EchoTime": 0.0272,
  "EchoTrainLength": 82,
  "EffectiveEchoSpacing": 0.00049,
  "FlipAngle": 44,
  "ImageComments": "Unaliased MB8/PE3",
  "ImageOrientationPatientDICOM": [0.995409, 0.0751772, 0.0592433, -0.0835868, 0.984312, 0.15538],
  "ImageType": [
    "ORIGINAL",
    "PRIMARY",
    "M",
    "MB",
    "ND",
    "NORM",
    "MOSAIC"
],
  "ImagingFrequency": 123.259,
  "InPlanePhaseEncodingDirectionDICOM": "COL",
  "InstitutionAddress": "Maynard 3,Hanover,NH,US,03755",
  "InstitutionName": "Dartmouth College - PBS",
  "InstitutionalDepartmentName": "Department",
  "MRAcquisitionType": "2D",
  "MagneticFieldStrength": 3,
  "Manufacturer": "Siemens",
  "ManufacturersModelName": "Prisma",
  "Modality": "MR",
  "MultibandAccelerationFactor": 8,
  "PartialFourier": 1,
  "PatientPosition": "HFS",
  "PercentPhaseFOV": 100,
  "PercentSampling": 100,
  "PhaseEncodingDirection": "j-",
  "PhaseEncodingSteps": 82,
  "PhaseResolution": 1,
  "PixelBandwidth": 3050,
  "ProcedureStepDescription": "Wager_Wager^1076_spacetop",
  "ProtocolName": "func_run-01_task-narratives_acq-ap-mb8",
  "PulseSequenceDetails": "%CustomerSeq%\\cmrr_mbep2d_bold",
  "ReceiveCoilActiveElements": "HEA;HEP",
  "ReceiveCoilName": "Head_32",
  "ReconMatrixPE": 82,
  "RepetitionTime": 0.46,
  "SAR": 0.102912,
  "ScanOptions": "FS",
  "ScanningSequence": "EP",
  "SequenceName": "epfid2d1_82",
  "SequenceVariant": "SK\\SS",
  "SeriesDescription": "func_run-01_task-narratives_acq-ap-mb8",
  "SeriesNumber": 8,
  "ShimSetting": [4241, -7796, -7204, 312, -87, 23, -57, 52],
  "SliceThickness": 2.7,
  "SliceTiming": [0, 0.2525, 0.0625, 0.315, 0.1275, 0.3775, 0.19, 0, 0.2525, 0.0625, 0.315, 0.1275, 0.3775, 0.19, 0, 0.2525, 0.0625, 0.315, 0.1275, 0.3775, 0.19, 0, 0.2525, 0.0625, 0.315, 0.1275, 0.3775, 0.19, 0, 0.2525, 0.0625, 0.315, 0.1275, 0.3775, 0.19, 0, 0.2525, 0.0625, 0.315, 0.1275, 0.3775, 0.19, 0, 0.2525, 0.0625, 0.315, 0.1275, 0.3775, 0.19, 0, 0.2525, 0.0625, 0.315, 0.1275, 0.3775, 0.19],
  "SoftwareVersions": "syngo MR E11",
  "SpacingBetweenSlices": 2.7,
  "StationName": "AWP66112",
  "TaskName": "narratives",
  "TotalReadoutTime": 0.03969,
  "TxRefAmp": 242.033,
  "WipMemBlock": "854cbb57-193d-4f78-bbd8-02d5dc4968ae||Sequence: R016 ve11e/master r/434b28f1; Aug  7 2019 18:53:46 by eja",
  "dcmmeta_affine": [
    [-2.6706089973449707, -0.2242572158575058, 0.125908762216568, 118.72057342529297],
    [-0.20169483125209808, 2.6408374309539795, 0.43096980452537537, -87.61688995361328],
    [0.15894542634487152, -0.4168728291988373, 2.662407159805298, -39.041053771972656],
    [0.0, 0.0, 0.0, 1.0]
],
  "dcmmeta_reorient_transform": [
    [0.0, -1.0, 0.0, 81.0],
    [1.0, 0.0, 0.0, 0.0],
    [0.0, 0.0, 1.0, 0.0],
    [0.0, 0.0, 0.0, 1.0]
],
  "dcmmeta_shape": [82, 82, 56, 967],
  "dcmmeta_slice_dim": 2,
  "dcmmeta_version": 0.6,
  "global": {
    "const": {
      "AccessionNumber": "A004442",
      "AcquisitionMatrix": [82, 0, 0, 82],
      "AngioFlag": "N",
      "BitsAllocated": 16,
      "BitsStored": 16,
      "BodyPartExamined": "BRAIN",
      "Columns": 656,
      "EchoNumbers": 1,
      "EchoTime": 27.2,
      "EchoTrainLength": 82,
      "FlipAngle": 44.0,
      "HighBit": 15,
      "ImageOrientationPatient": [0.99540877327314, 0.07517716512225, 0.059243294431, -0.0835867759227, 0.98431211856196, 0.15537987045601],
      "ImagePositionPatient": [-802.65869597731, -942.09771368199, -238.06759309475],
      "ImageType": [
        "ORIGINAL",
        "PRIMARY",
        "M",
        "MB",
        "ND",
        "NORM",
        "MOSAIC"
],
      "ImagedNucleus": "1H",
      "ImagingFrequency": 123.259078,
      "InPlanePhaseEncodingDirection": "COL",
      "MRAcquisitionType": "2D",
      "MagneticFieldStrength": 3.0,
      "Manufacturer": "SIEMENS",
      "ManufacturerModelName": "Prisma",
      "Modality": "MR",
      "NumberOfAverages": 1.0,
      "NumberOfPhaseEncodingSteps": 82,
      "PercentPhaseFieldOfView": 100.0,
      "PercentSampling": 100.0,
      "PerformedProcedureStepStartTime": "205448.078000",
      "PhotometricInterpretation": "MONOCHROME2",
      "PixelBandwidth": 3050.0,
      "PixelRepresentation": 0,
      "PixelSpacing": [2.6829268932343, 2.6829268932343],
      "ProtocolName": "func_run-01_task-narratives_acq-ap-mb8",
      "RepetitionTime": 460.0,
      "Rows": 656,
      "SAR": 0.10291234574017,
      "SamplesPerPixel": 1,
      "ScanOptions": "FS",
      "ScanningSequence": "EP",
      "SequenceName": "epfid2d1_82",
      "SequenceVariant": [
        "SK",
        "SS"
],
      "SeriesDescription": "func_run-01_task-narratives_acq-ap-mb8",
      "SeriesNumber": 8,
      "SeriesTime": "210233.744000",
      "SliceLocation": -46.946463291771,
      "SliceThickness": 2.7000000476837,
      "SmallestImagePixelValue": 0,
      "SoftwareVersions": "syngo MR E11",
      "SpacingBetweenSlices": 2.7000000073457,
      "SpecificCharacterSet": "ISO_IR 100",
      "StudyID": "1",
      "StudyTime": "205448.021000",
      "TransmitCoilName": "Body",
      "VariableFlipAngleFlag": "N",
      "WindowCenterWidthExplanation": "Algo1"
    },
    "slices": {}
  },
  "time": {
    "samples": {
      "AcquisitionNumber": [1, 2, 3, 4, 5, 6, 7, 8, 9, 10, 11, 12, 13, 14, 15, 16, 17, 18, 19, 20, 21, 22, 23, 24, 25, 26, 27, 28, 29, 30, 31, 32, 33, 34, 35, 36, 37, 38, 39, 40, 41, 42, 43, 44, 45, 46, 47, 48, 49, 50, 51, 52, 53, 54, 55, 56, 57, 58, 59, 60, 61, 62, 63, 64, 65, 66, 67, 68, 69, 70, 71, 72, 73, 74, 75, 76, 77, 78, 79, 80, 81, 82, 83, 84, 85, 86, 87, 88, 89, 90, 91, 92, 93, 94, 95, 96, 97, 98, 99, 100, 101, 102, 103, 104, 105, 106, 107, 108, 109, 110, 111, 112, 113, 114, 115, 116, 117, 118, 119, 120, 121, 122, 123, 124, 125, 126, 127, 128, 129, 130, 131, 132, 133, 134, 135, 136, 137, 138, 139, 140, 141, 142, 143, 144, 145, 146, 147, 148, 149, 150, 151, 152, 153, 154, 155, 156, 157, 158, 159, 160, 161, 162, 163, 164, 165, 166, 167, 168, 169, 170, 171, 172, 173, 174, 175, 176, 177, 178, 179, 180, 181, 182, 183, 184, 185, 186, 187, 188, 189, 190, 191, 192, 193, 194, 195, 196, 197, 198, 199, 200, 201, 202, 203, 204, 205, 206, 207, 208, 209, 210, 211, 212, 213, 214, 215, 216, 217, 218, 219, 220, 221, 222, 223, 224, 225, 226, 227, 228, 229, 230, 231, 232, 233, 234, 235, 236, 237, 238, 239, 240, 241, 242, 243, 244, 245, 246, 247, 248, 249, 250, 251, 252, 253, 254, 255, 256, 257, 258, 259, 260, 261, 262, 263, 264, 265, 266, 267, 268, 269, 270, 271, 272, 273, 274, 275, 276, 277, 278, 279, 280, 281, 282, 283, 284, 285, 286, 287, 288, 289, 290, 291, 292, 293, 294, 295, 296, 297, 298, 299, 300, 301, 302, 303, 304, 305, 306, 307, 308, 309, 310, 311, 312, 313, 314, 315, 316, 317, 318, 319, 320, 321, 322, 323, 324, 325, 326, 327, 328, 329, 330, 331, 332, 333, 334, 335, 336, 337, 338, 339, 340, 341, 342, 343, 344, 345, 346, 347, 348, 349, 350, 351, 352, 353, 354, 355, 356, 357, 358, 359, 360, 361, 362, 363, 364, 365, 366, 367, 368, 369, 370, 371, 372, 373, 374, 375, 376, 377, 378, 379, 380, 381, 382, 383, 384, 385, 386, 387, 388, 389, 390, 391, 392, 393, 394, 395, 396, 397, 398, 399, 400, 401, 402, 403, 404, 405, 406, 407, 408, 409, 410, 411, 412, 413, 414, 415, 416, 417, 418, 419, 420, 421, 422, 423, 424, 425, 426, 427, 428, 429, 430, 431, 432, 433, 434, 435, 436, 437, 438, 439, 440, 441, 442, 443, 444, 445, 446, 447, 448, 449, 450, 451, 452, 453, 454, 455, 456, 457, 458, 459, 460, 461, 462, 463, 464, 465, 466, 467, 468, 469, 470, 471, 472, 473, 474, 475, 476, 477, 478, 479, 480, 481, 482, 483, 484, 485, 486, 487, 488, 489, 490, 491, 492, 493, 494, 495, 496, 497, 498, 499, 500, 501, 502, 503, 504, 505, 506, 507, 508, 509, 510, 511, 512, 513, 514, 515, 516, 517, 518, 519, 520, 521, 522, 523, 524, 525, 526, 527, 528, 529, 530, 531, 532, 533, 534, 535, 536, 537, 538, 539, 540, 541, 542, 543, 544, 545, 546, 547, 548, 549, 550, 551, 552, 553, 554, 555, 556, 557, 558, 559, 560, 561, 562, 563, 564, 565, 566, 567, 568, 569, 570, 571, 572, 573, 574, 575, 576, 577, 578, 579, 580, 581, 582, 583, 584, 585, 586, 587, 588, 589, 590, 591, 592, 593, 594, 595, 596, 597, 598, 599, 600, 601, 602, 603, 604, 605, 606, 607, 608, 609, 610, 611, 612, 613, 614, 615, 616, 617, 618, 619, 620, 621, 622, 623, 624, 625, 626, 627, 628, 629, 630, 631, 632, 633, 634, 635, 636, 637, 638, 639, 640, 641, 642, 643, 644, 645, 646, 647, 648, 649, 650, 651, 652, 653, 654, 655, 656, 657, 658, 659, 660, 661, 662, 663, 664, 665, 666, 667, 668, 669, 670, 671, 672, 673, 674, 675, 676, 677, 678, 679, 680, 681, 682, 683, 684, 685, 686, 687, 688, 689, 690, 691, 692, 693, 694, 695, 696, 697, 698, 699, 700, 701, 702, 703, 704, 705, 706, 707, 708, 709, 710, 711, 712, 713, 714, 715, 716, 717, 718, 719, 720, 721, 722, 723, 724, 725, 726, 727, 728, 729, 730, 731, 732, 733, 734, 735, 736, 737, 738, 739, 740, 741, 742, 743, 744, 745, 746, 747, 748, 749, 750, 751, 752, 753, 754, 755, 756, 757, 758, 759, 760, 761, 762, 763, 764, 765, 766, 767, 768, 769, 770, 771, 772, 773, 774, 775, 776, 777, 778, 779, 780, 781, 782, 783, 784, 785, 786, 787, 788, 789, 790, 791, 792, 793, 794, 795, 796, 797, 798, 799, 800, 801, 802, 803, 804, 805, 806, 807, 808, 809, 810, 811, 812, 813, 814, 815, 816, 817, 818, 819, 820, 821, 822, 823, 824, 825, 826, 827, 828, 829, 830, 831, 832, 833, 834, 835, 836, 837, 838, 839, 840, 841, 842, 843, 844, 845, 846, 847, 848, 849, 850, 851, 852, 853, 854, 855, 856, 857, 858, 859, 860, 861, 862, 863, 864, 865, 866, 867, 868, 869, 870, 871, 872, 873, 874, 875, 876, 877, 878, 879, 880, 881, 882, 883, 884, 885, 886, 887, 888, 889, 890, 891, 892, 893, 894, 895, 896, 897, 898, 899, 900, 901, 902, 903, 904, 905, 906, 907, 908, 909, 910, 911, 912, 913, 914, 915, 916, 917, 918, 919, 920, 921, 922, 923, 924, 925, 926, 927, 928, 929, 930, 931, 932, 933, 934, 935, 936, 937, 938, 939, 940, 941, 942, 943, 944, 945, 946, 947, 948, 949, 950, 951, 952, 953, 954, 955, 956, 957, 958, 959, 960, 961, 962, 963, 964, 965, 966, 967],
      "AcquisitionTime": ["210208.022500", "210208.482500", "210208.942500", "210209.402500", "210209.862500", "210210.322500", "210210.782500", "210211.242500", "210211.702500", "210212.162500", "210212.622500", "210213.082500", "210213.542500", "210214.002500", "210214.462500", "210214.922500", "210215.382500", "210215.842500", "210216.302500", "210216.762500", "210217.222500", "210217.682500", "210218.142500", "210218.602500", "210219.062500", "210219.522500", "210219.982500", "210220.442500", "210220.902500", "210221.362500", "210221.822500", "210222.282500", "210222.742500", "210223.202500", "210223.662500", "210224.122500", "210224.582500", "210225.042500", "210225.502500", "210225.962500", "210226.422500", "210226.882500", "210227.342500", "210227.802500", "210228.262500", "210228.722500", "210229.182500", "210229.642500", "210230.102500", "210230.562500", "210231.022500", "210231.482500", "210231.942500", "210232.402500", "210232.862500", "210233.322500", "210233.782500", "210234.242500", "210234.702500", "210235.162500", "210235.622500", "210236.082500", "210236.542500", "210237.002500", "210237.462500", "210237.922500", "210238.382500", "210238.842500", "210239.302500", "210239.762500", "210240.222500", "210240.682500", "210241.142500", "210241.602500", "210242.062500", "210242.522500", "210242.982500", "210243.442500", "210243.902500", "210244.362500", "210244.822500", "210245.282500", "210245.742500", "210246.202500", "210246.662500", "210247.122500", "210247.582500", "210248.042500", "210248.502500", "210248.962500", "210249.422500", "210249.882500", "210250.342500", "210250.802500", "210251.262500", "210251.722500", "210252.182500", "210252.642500", "210253.102500", "210253.562500", "210254.022500", "210254.482500", "210254.942500", "210255.402500", "210255.862500", "210256.322500", "210256.782500", "210257.242500", "210257.702500", "210258.162500", "210258.622500", "210259.082500", "210259.542500", "210300.002500", "210300.462500", "210300.922500", "210301.382500", "210301.842500", "210302.302500", "210302.762500", "210303.222500", "210303.682500", "210304.142500", "210304.602500", "210305.062500", "210305.522500", "210305.982500", "210306.442500", "210306.902500", "210307.362500", "210307.822500", "210308.282500", "210308.742500", "210309.202500", "210309.662500", "210310.122500", "210310.582500", "210311.042500", "210311.502500", "210311.962500", "210312.422500", "210312.882500", "210313.342500", "210313.802500", "210314.262500", "210314.722500", "210315.182500", "210315.642500", "210316.102500", "210316.562500", "210317.022500", "210317.482500", "210317.942500", "210318.402500", "210318.862500", "210319.322500", "210319.782500", "210320.242500", "210320.702500", "210321.162500", "210321.622500", "210322.082500", "210322.542500", "210323.002500", "210323.462500", "210323.922500", "210324.382500", "210324.842500", "210325.302500", "210325.762500", "210326.222500", "210326.682500", "210327.142500", "210327.602500", "210328.062500", "210328.522500", "210328.982500", "210329.442500", "210329.902500", "210330.362500", "210330.822500", "210331.282500", "210331.742500", "210332.202500", "210332.662500", "210333.122500", "210333.582500", "210334.042500", "210334.502500", "210334.962500", "210335.422500", "210335.882500", "210336.342500", "210336.802500", "210337.262500", "210337.722500", "210338.182500", "210338.642500", "210339.102500", "210339.562500", "210340.022500", "210340.482500", "210340.942500", "210341.402500", "210341.862500", "210342.322500", "210342.782500", "210343.242500", "210343.702500", "210344.162500", "210344.622500", "210345.082500", "210345.542500", "210346.002500", "210346.462500", "210346.922500", "210347.382500", "210347.842500", "210348.302500", "210348.762500", "210349.222500", "210349.682500", "210350.142500", "210350.602500", "210351.062500", "210351.522500", "210351.982500", "210352.442500", "210352.902500", "210353.362500", "210353.822500", "210354.282500", "210354.742500", "210355.202500", "210355.662500", "210356.122500", "210356.582500", "210357.042500", "210357.502500", "210357.962500", "210358.422500", "210358.882500", "210359.342500", "210359.802500", "210400.262500", "210400.722500", "210401.182500", "210401.642500", "210402.102500", "210402.562500", "210403.022500", "210403.482500", "210403.942500", "210404.402500", "210404.862500", "210405.322500", "210405.782500", "210406.242500", "210406.702500", "210407.162500", "210407.622500", "210408.082500", "210408.542500", "210409.002500", "210409.462500", "210409.922500", "210410.382500", "210410.842500", "210411.302500", "210411.762500", "210412.222500", "210412.682500", "210413.142500", "210413.602500", "210414.062500", "210414.522500", "210414.982500", "210415.442500", "210415.902500", "210416.362500", "210416.822500", "210417.282500", "210417.742500", "210418.202500", "210418.662500", "210419.122500", "210419.582500", "210420.042500", "210420.502500", "210420.962500", "210421.422500", "210421.882500", "210422.342500", "210422.802500", "210423.262500", "210423.722500", "210424.182500", "210424.642500", "210425.102500", "210425.562500", "210426.022500", "210426.482500", "210426.942500", "210427.402500", "210427.862500", "210428.322500", "210428.782500", "210429.242500", "210429.702500", "210430.162500", "210430.622500", "210431.082500", "210431.542500", "210432.002500", "210432.462500", "210432.922500", "210433.382500", "210433.842500", "210434.302500", "210434.762500", "210435.222500", "210435.682500", "210436.142500", "210436.602500", "210437.062500", "210437.522500", "210437.982500", "210438.442500", "210438.902500", "210439.362500", "210439.822500", "210440.282500", "210440.742500", "210441.202500", "210441.662500", "210442.122500", "210442.582500", "210443.042500", "210443.502500", "210443.962500", "210444.422500", "210444.882500", "210445.342500", "210445.802500", "210446.262500", "210446.722500", "210447.182500", "210447.642500", "210448.102500", "210448.562500", "210449.022500", "210449.482500", "210449.942500", "210450.402500", "210450.862500", "210451.322500", "210451.782500", "210452.242500", "210452.702500", "210453.162500", "210453.622500", "210454.082500", "210454.542500", "210455.002500", "210455.462500", "210455.922500", "210456.382500", "210456.842500", "210457.302500", "210457.762500", "210458.222500", "210458.682500", "210459.142500", "210459.602500", "210500.062500", "210500.522500", "210500.982500", "210501.442500", "210501.902500", "210502.362500", "210502.822500", "210503.282500", "210503.742500", "210504.202500", "210504.662500", "210505.122500", "210505.582500", "210506.042500", "210506.502500", "210506.962500", "210507.422500", "210507.882500", "210508.342500", "210508.802500", "210509.262500", "210509.722500", "210510.182500", "210510.642500", "210511.102500", "210511.562500", "210512.022500", "210512.482500", "210512.942500", "210513.402500", "210513.862500", "210514.322500", "210514.782500", "210515.242500", "210515.702500", "210516.162500", "210516.622500", "210517.082500", "210517.542500", "210518.002500", "210518.462500", "210518.922500", "210519.382500", "210519.842500", "210520.302500", "210520.762500", "210521.222500", "210521.682500", "210522.142500", "210522.602500", "210523.062500", "210523.522500", "210523.982500", "210524.442500", "210524.902500", "210525.362500", "210525.822500", "210526.282500", "210526.742500", "210527.202500", "210527.662500", "210528.122500", "210528.582500", "210529.042500", "210529.502500", "210529.962500", "210530.422500", "210530.882500", "210531.342500", "210531.802500", "210532.262500", "210532.722500", "210533.182500", "210533.642500", "210534.102500", "210534.562500", "210535.022500", "210535.482500", "210535.942500", "210536.402500", "210536.862500", "210537.322500", "210537.782500", "210538.242500", "210538.702500", "210539.162500", "210539.622500", "210540.082500", "210540.542500", "210541.002500", "210541.462500", "210541.922500", "210542.382500", "210542.842500", "210543.302500", "210543.762500", "210544.222500", "210544.682500", "210545.142500", "210545.602500", "210546.062500", "210546.522500", "210546.982500", "210547.442500", "210547.902500", "210548.362500", "210548.822500", "210549.282500", "210549.742500", "210550.202500", "210550.662500", "210551.122500", "210551.582500", "210552.042500", "210552.502500", "210552.962500", "210553.422500", "210553.882500", "210554.342500", "210554.802500", "210555.262500", "210555.722500", "210556.182500", "210556.642500", "210557.102500", "210557.562500", "210558.022500", "210558.482500", "210558.942500", "210559.402500", "210559.862500", "210600.322500", "210600.782500", "210601.242500", "210601.702500", "210602.162500", "210602.622500", "210603.082500", "210603.542500", "210604.002500", "210604.462500", "210604.922500", "210605.382500", "210605.842500", "210606.302500", "210606.762500", "210607.222500", "210607.682500", "210608.142500", "210608.602500", "210609.062500", "210609.522500", "210609.982500", "210610.442500", "210610.902500", "210611.362500", "210611.822500", "210612.282500", "210612.742500", "210613.202500", "210613.662500", "210614.122500", "210614.582500", "210615.042500", "210615.502500", "210615.962500", "210616.422500", "210616.882500", "210617.342500", "210617.802500", "210618.262500", "210618.722500", "210619.182500", "210619.642500", "210620.102500", "210620.562500", "210621.022500", "210621.482500", "210621.942500", "210622.402500", "210622.862500", "210623.322500", "210623.782500", "210624.242500", "210624.702500", "210625.162500", "210625.622500", "210626.082500", "210626.542500", "210627.002500", "210627.462500", "210627.922500", "210628.382500", "210628.842500", "210629.302500", "210629.762500", "210630.222500", "210630.682500", "210631.142500", "210631.602500", "210632.062500", "210632.522500", "210632.982500", "210633.442500", "210633.902500", "210634.362500", "210634.822500", "210635.282500", "210635.742500", "210636.202500", "210636.662500", "210637.122500", "210637.582500", "210638.042500", "210638.502500", "210638.962500", "210639.422500", "210639.882500", "210640.342500", "210640.802500", "210641.262500", "210641.722500", "210642.182500", "210642.642500", "210643.102500", "210643.562500", "210644.022500", "210644.482500", "210644.942500", "210645.402500", "210645.862500", "210646.322500", "210646.782500", "210647.242500", "210647.702500", "210648.162500", "210648.622500", "210649.082500", "210649.542500", "210650.002500", "210650.462500", "210650.922500", "210651.382500", "210651.842500", "210652.302500", "210652.762500", "210653.222500", "210653.682500", "210654.142500", "210654.602500", "210655.062500", "210655.522500", "210655.982500", "210656.442500", "210656.902500", "210657.362500", "210657.822500", "210658.282500", "210658.742500", "210659.202500", "210659.662500", "210700.122500", "210700.582500", "210701.042500", "210701.502500", "210701.962500", "210702.422500", "210702.882500", "210703.342500", "210703.802500", "210704.262500", "210704.722500", "210705.182500", "210705.642500", "210706.102500", "210706.562500", "210707.022500", "210707.482500", "210707.942500", "210708.402500", "210708.862500", "210709.322500", "210709.782500", "210710.242500", "210710.702500", "210711.162500", "210711.622500", "210712.082500", "210712.542500", "210713.002500", "210713.462500", "210713.922500", "210714.382500", "210714.842500", "210715.302500", "210715.762500", "210716.222500", "210716.682500", "210717.142500", "210717.602500", "210718.062500", "210718.522500", "210718.982500", "210719.442500", "210719.902500", "210720.362500", "210720.822500", "210721.282500", "210721.742500", "210722.202500", "210722.662500", "210723.122500", "210723.582500", "210724.042500", "210724.502500", "210724.962500", "210725.422500", "210725.882500", "210726.342500", "210726.802500", "210727.262500", "210727.722500", "210728.182500", "210728.642500", "210729.102500", "210729.562500", "210730.022500", "210730.482500", "210730.942500", "210731.402500", "210731.862500", "210732.322500", "210732.782500", "210733.242500", "210733.702500", "210734.162500", "210734.622500", "210735.082500", "210735.542500", "210736.002500", "210736.462500", "210736.922500", "210737.382500", "210737.842500", "210738.302500", "210738.762500", "210739.222500", "210739.682500", "210740.142500", "210740.602500", "210741.062500", "210741.522500", "210741.982500", "210742.442500", "210742.902500", "210743.362500", "210743.822500", "210744.282500", "210744.742500", "210745.202500", "210745.662500", "210746.122500", "210746.582500", "210747.042500", "210747.502500", "210747.962500", "210748.422500", "210748.882500", "210749.342500", "210749.802500", "210750.262500", "210750.722500", "210751.182500", "210751.642500", "210752.102500", "210752.562500", "210753.022500", "210753.482500", "210753.942500", "210754.402500", "210754.862500", "210755.322500", "210755.782500", "210756.242500", "210756.702500", "210757.162500", "210757.622500", "210758.082500", "210758.542500", "210759.002500", "210759.462500", "210759.922500", "210800.382500", "210800.842500", "210801.302500", "210801.762500", "210802.222500", "210802.682500", "210803.142500", "210803.602500", "210804.062500", "210804.522500", "210804.982500", "210805.442500", "210805.902500", "210806.362500", "210806.822500", "210807.282500", "210807.742500", "210808.202500", "210808.662500", "210809.122500", "210809.582500", "210810.042500", "210810.502500", "210810.962500", "210811.422500", "210811.882500", "210812.342500", "210812.802500", "210813.262500", "210813.722500", "210814.182500", "210814.642500", "210815.102500", "210815.562500", "210816.022500", "210816.482500", "210816.942500", "210817.402500", "210817.862500", "210818.322500", "210818.782500", "210819.242500", "210819.702500", "210820.162500", "210820.622500", "210821.082500", "210821.542500", "210822.002500", "210822.462500", "210822.922500", "210823.382500", "210823.842500", "210824.302500", "210824.762500", "210825.222500", "210825.682500", "210826.142500", "210826.602500", "210827.062500", "210827.522500", "210827.982500", "210828.442500", "210828.902500", "210829.362500", "210829.822500", "210830.282500", "210830.742500", "210831.202500", "210831.662500", "210832.122500", "210832.582500", "210833.042500", "210833.502500", "210833.962500", "210834.422500", "210834.882500", "210835.342500", "210835.802500", "210836.262500", "210836.722500", "210837.182500", "210837.642500", "210838.102500", "210838.562500", "210839.022500", "210839.482500", "210839.942500", "210840.402500", "210840.862500", "210841.322500", "210841.782500", "210842.242500", "210842.702500", "210843.162500", "210843.622500", "210844.082500", "210844.542500", "210845.002500", "210845.462500", "210845.922500", "210846.382500", "210846.842500", "210847.302500", "210847.762500", "210848.222500", "210848.682500", "210849.142500", "210849.602500", "210850.062500", "210850.522500", "210850.982500", "210851.442500", "210851.902500", "210852.362500", "210852.822500", "210853.282500", "210853.742500", "210854.202500", "210854.662500", "210855.122500", "210855.582500", "210856.042500", "210856.502500", "210856.962500", "210857.422500", "210857.882500", "210858.342500", "210858.802500", "210859.262500", "210859.722500", "210900.182500", "210900.642500", "210901.102500", "210901.562500", "210902.022500", "210902.482500", "210902.942500", "210903.402500", "210903.862500", "210904.322500", "210904.782500", "210905.242500", "210905.702500", "210906.162500", "210906.622500", "210907.082500", "210907.542500", "210908.002500", "210908.462500", "210908.922500", "210909.382500", "210909.842500", "210910.302500", "210910.762500", "210911.222500", "210911.682500", "210912.142500", "210912.602500", "210913.062500", "210913.522500", "210913.982500", "210914.442500", "210914.902500", "210915.362500", "210915.822500", "210916.282500", "210916.742500", "210917.202500", "210917.662500", "210918.122500", "210918.582500", "210919.042500", "210919.502500", "210919.962500", "210920.422500", "210920.882500", "210921.342500", "210921.802500", "210922.262500", "210922.722500", "210923.182500", "210923.642500", "210924.102500", "210924.562500", "210925.022500", "210925.482500", "210925.942500", "210926.402500", "210926.862500", "210927.322500", "210927.782500", "210928.242500", "210928.702500", "210929.162500", "210929.622500", "210930.082500", "210930.542500", "210931.002500", "210931.462500", "210931.922500", "210932.382500"],
