{
  "AcquisitionMatrixPE": 82,
  "AcquisitionNumber": 1,
  "AcquisitionTime": "22:05:1.995000",
  "BandwidthPerPixelPhaseEncode": 24.888,
  "BaseResolution": 82,
  "BodyPartExamined": "BRAIN",
  "ConsistencyInfo": "N4_VE11E_LATEST_20181129",
  "ConversionSoftware": "dcm2niix",
  "ConversionSoftwareVersion": "v1.0.20201102",
  "DerivedVendorReportedEchoSpacing": 0.00049,
  "DeviceSerialNumber": "66112",
  "DwellTime": 2e-06,
  "EchoTime": 0.0272,
  "EchoTrainLength": 82,
  "EffectiveEchoSpacing": 0.00049,
  "FlipAngle": 44,
  "ImageComments": "Unaliased MB8/PE3",
  "ImageOrientationPatientDICOM": [0.995658, 0.0787379, 0.0496476, -0.085358, 0.985059, 0.149572],
  "ImageType": [
    "ORIGINAL",
    "PRIMARY",
    "M",
    "MB",
    "ND",
    "NORM",
    "MOSAIC"
],
  "ImagingFrequency": 123.259,
  "InPlanePhaseEncodingDirectionDICOM": "COL",
  "InstitutionAddress": "Maynard 3,Hanover,NH,US,03755",
  "InstitutionName": "Dartmouth College - PBS",
  "InstitutionalDepartmentName": "Department",
  "MRAcquisitionType": "2D",
  "MagneticFieldStrength": 3,
  "Manufacturer": "Siemens",
  "ManufacturersModelName": "Prisma",
  "Modality": "MR",
  "MultibandAccelerationFactor": 8,
  "PartialFourier": 1,
  "PatientPosition": "HFS",
  "PercentPhaseFOV": 100,
  "PercentSampling": 100,
  "PhaseEncodingDirection": "j-",
  "PhaseEncodingSteps": 82,
  "PhaseResolution": 1,
  "PixelBandwidth": 3050,
  "ProcedureStepDescription": "Wager_Wager^1076_spacetop",
  "ProtocolName": "func_run-01_task-alignvideo_acq-ap-mb8",
  "PulseSequenceDetails": "%CustomerSeq%\\cmrr_mbep2d_bold",
  "ReceiveCoilActiveElements": "HEA;HEP",
  "ReceiveCoilName": "Head_32",
  "ReconMatrixPE": 82,
  "RepetitionTime": 0.46,
  "SAR": 0.102824,
  "ScanOptions": "FS",
  "ScanningSequence": "EP",
  "SequenceName": "epfid2d1_82",
  "SequenceVariant": "SK\\SS",
  "SeriesDescription": "func_run-01_task-alignvideo_acq-ap-mb8",
  "SeriesNumber": 28,
  "ShimSetting": [4241, -7792, -7202, 325, -87, 35, -57, 54],
  "SliceThickness": 2.7,
  "SliceTiming": [0, 0.2525, 0.0625, 0.315, 0.1275, 0.3775, 0.19, 0, 0.2525, 0.0625, 0.315, 0.1275, 0.3775, 0.19, 0, 0.2525, 0.0625, 0.315, 0.1275, 0.3775, 0.19, 0, 0.2525, 0.0625, 0.315, 0.1275, 0.3775, 0.19, 0, 0.2525, 0.0625, 0.315, 0.1275, 0.3775, 0.19, 0, 0.2525, 0.0625, 0.315, 0.1275, 0.3775, 0.19, 0, 0.2525, 0.0625, 0.315, 0.1275, 0.3775, 0.19, 0, 0.2525, 0.0625, 0.315, 0.1275, 0.3775, 0.19],
  "SoftwareVersions": "syngo MR E11",
  "SpacingBetweenSlices": 2.7,
  "StationName": "AWP66112",
  "TaskName": "alignvideo",
  "TotalReadoutTime": 0.03969,
  "TxRefAmp": 242.033,
  "WipMemBlock": "62fc3bfd-2684-467e-a3fe-ae2f61c10d2f||Sequence: R016 ve11e/master r/434b28f1; Aug  7 2019 18:53:46 by eja",
  "dcmmeta_affine": [
    [-2.671278476715088, -0.22900934517383575, 0.10024775564670563, 119.79945373535156],
    [-0.21124808490276337, 2.6428425312042236, 0.41353335976600647, -86.91341400146484],
    [0.1332007497549057, -0.40129098296165466, 2.666259527206421, -36.018310546875],
    [0.0, 0.0, 0.0, 1.0]
],
  "dcmmeta_reorient_transform": [
    [0.0, -1.0, 0.0, 81.0],
    [1.0, 0.0, 0.0, 0.0],
    [0.0, 0.0, 1.0, 0.0],
    [0.0, 0.0, 0.0, 1.0]
],
  "dcmmeta_shape": [82, 82, 56, 839],
  "dcmmeta_slice_dim": 2,
  "dcmmeta_version": 0.6,
  "global": {
    "const": {
      "AccessionNumber": "A004442",
      "AcquisitionMatrix": [82, 0, 0, 82],
      "AngioFlag": "N",
      "BitsAllocated": 16,
      "BitsStored": 16,
      "BodyPartExamined": "BRAIN",
      "Columns": 656,
      "EchoNumbers": 1,
      "EchoTime": 27.2,
      "EchoTrainLength": 82,
      "FlipAngle": 44.0,
      "HighBit": 15,
      "ImageOrientationPatient": [0.99565830489603, 0.07873792191118, 0.0496475532597, -0.0853580239455, 0.9850594895017, 0.14957208927729],
      "ImagePositionPatient": [-802.180930745, -946.28086637197, -221.92200848442],
      "ImageType": [
        "ORIGINAL",
        "PRIMARY",
        "M",
        "MB",
        "ND",
        "NORM",
        "MOSAIC"
],
      "ImagedNucleus": "1H",
      "ImagingFrequency": 123.259089,
      "InPlanePhaseEncodingDirection": "COL",
      "MRAcquisitionType": "2D",
      "MagneticFieldStrength": 3.0,
      "Manufacturer": "SIEMENS",
      "ManufacturerModelName": "Prisma",
      "Modality": "MR",
      "NumberOfAverages": 1.0,
      "NumberOfPhaseEncodingSteps": 82,
      "PercentPhaseFieldOfView": 100.0,
      "PercentSampling": 100.0,
      "PerformedProcedureStepStartTime": "205448.078000",
      "PhotometricInterpretation": "MONOCHROME2",
      "PixelBandwidth": 3050.0,
      "PixelRepresentation": 0,
      "PixelSpacing": [2.6829268932343, 2.6829268932343],
      "ProtocolName": "func_run-01_task-alignvideo_acq-ap-mb8",
      "RepetitionTime": 460.0,
      "Rows": 656,
      "SAR": 0.10282444793988,
      "SamplesPerPixel": 1,
      "ScanOptions": "FS",
      "ScanningSequence": "EP",
      "SequenceName": "epfid2d1_82",
      "SequenceVariant": [
        "SK",
        "SS"
],
      "SeriesDescription": "func_run-01_task-alignvideo_acq-ap-mb8",
      "SeriesNumber": 28,
      "SeriesTime": "220513.821000",
      "SliceLocation": -44.431903006354,
      "SliceThickness": 2.7000000476837,
      "SmallestImagePixelValue": 0,
      "SoftwareVersions": "syngo MR E11",
      "SpacingBetweenSlices": 2.6999999733547,
      "SpecificCharacterSet": "ISO_IR 100",
      "StudyID": "1",
      "StudyTime": "205448.021000",
      "TransmitCoilName": "Body",
      "VariableFlipAngleFlag": "N",
      "WindowCenterWidthExplanation": "Algo1"
    },
    "slices": {}
  },
  "time": {
    "samples": {
      "AcquisitionNumber": [1, 2, 3, 4, 5, 6, 7, 8, 9, 10, 11, 12, 13, 14, 15, 16, 17, 18, 19, 20, 21, 22, 23, 24, 25, 26, 27, 28, 29, 30, 31, 32, 33, 34, 35, 36, 37, 38, 39, 40, 41, 42, 43, 44, 45, 46, 47, 48, 49, 50, 51, 52, 53, 54, 55, 56, 57, 58, 59, 60, 61, 62, 63, 64, 65, 66, 67, 68, 69, 70, 71, 72, 73, 74, 75, 76, 77, 78, 79, 80, 81, 82, 83, 84, 85, 86, 87, 88, 89, 90, 91, 92, 93, 94, 95, 96, 97, 98, 99, 100, 101, 102, 103, 104, 105, 106, 107, 108, 109, 110, 111, 112, 113, 114, 115, 116, 117, 118, 119, 120, 121, 122, 123, 124, 125, 126, 127, 128, 129, 130, 131, 132, 133, 134, 135, 136, 137, 138, 139, 140, 141, 142, 143, 144, 145, 146, 147, 148, 149, 150, 151, 152, 153, 154, 155, 156, 157, 158, 159, 160, 161, 162, 163, 164, 165, 166, 167, 168, 169, 170, 171, 172, 173, 174, 175, 176, 177, 178, 179, 180, 181, 182, 183, 184, 185, 186, 187, 188, 189, 190, 191, 192, 193, 194, 195, 196, 197, 198, 199, 200, 201, 202, 203, 204, 205, 206, 207, 208, 209, 210, 211, 212, 213, 214, 215, 216, 217, 218, 219, 220, 221, 222, 223, 224, 225, 226, 227, 228, 229, 230, 231, 232, 233, 234, 235, 236, 237, 238, 239, 240, 241, 242, 243, 244, 245, 246, 247, 248, 249, 250, 251, 252, 253, 254, 255, 256, 257, 258, 259, 260, 261, 262, 263, 264, 265, 266, 267, 268, 269, 270, 271, 272, 273, 274, 275, 276, 277, 278, 279, 280, 281, 282, 283, 284, 285, 286, 287, 288, 289, 290, 291, 292, 293, 294, 295, 296, 297, 298, 299, 300, 301, 302, 303, 304, 305, 306, 307, 308, 309, 310, 311, 312, 313, 314, 315, 316, 317, 318, 319, 320, 321, 322, 323, 324, 325, 326, 327, 328, 329, 330, 331, 332, 333, 334, 335, 336, 337, 338, 339, 340, 341, 342, 343, 344, 345, 346, 347, 348, 349, 350, 351, 352, 353, 354, 355, 356, 357, 358, 359, 360, 361, 362, 363, 364, 365, 366, 367, 368, 369, 370, 371, 372, 373, 374, 375, 376, 377, 378, 379, 380, 381, 382, 383, 384, 385, 386, 387, 388, 389, 390, 391, 392, 393, 394, 395, 396, 397, 398, 399, 400, 401, 402, 403, 404, 405, 406, 407, 408, 409, 410, 411, 412, 413, 414, 415, 416, 417, 418, 419, 420, 421, 422, 423, 424, 425, 426, 427, 428, 429, 430, 431, 432, 433, 434, 435, 436, 437, 438, 439, 440, 441, 442, 443, 444, 445, 446, 447, 448, 449, 450, 451, 452, 453, 454, 455, 456, 457, 458, 459, 460, 461, 462, 463, 464, 465, 466, 467, 468, 469, 470, 471, 472, 473, 474, 475, 476, 477, 478, 479, 480, 481, 482, 483, 484, 485, 486, 487, 488, 489, 490, 491, 492, 493, 494, 495, 496, 497, 498, 499, 500, 501, 502, 503, 504, 505, 506, 507, 508, 509, 510, 511, 512, 513, 514, 515, 516, 517, 518, 519, 520, 521, 522, 523, 524, 525, 526, 527, 528, 529, 530, 531, 532, 533, 534, 535, 536, 537, 538, 539, 540, 541, 542, 543, 544, 545, 546, 547, 548, 549, 550, 551, 552, 553, 554, 555, 556, 557, 558, 559, 560, 561, 562, 563, 564, 565, 566, 567, 568, 569, 570, 571, 572, 573, 574, 575, 576, 577, 578, 579, 580, 581, 582, 583, 584, 585, 586, 587, 588, 589, 590, 591, 592, 593, 594, 595, 596, 597, 598, 599, 600, 601, 602, 603, 604, 605, 606, 607, 608, 609, 610, 611, 612, 613, 614, 615, 616, 617, 618, 619, 620, 621, 622, 623, 624, 625, 626, 627, 628, 629, 630, 631, 632, 633, 634, 635, 636, 637, 638, 639, 640, 641, 642, 643, 644, 645, 646, 647, 648, 649, 650, 651, 652, 653, 654, 655, 656, 657, 658, 659, 660, 661, 662, 663, 664, 665, 666, 667, 668, 669, 670, 671, 672, 673, 674, 675, 676, 677, 678, 679, 680, 681, 682, 683, 684, 685, 686, 687, 688, 689, 690, 691, 692, 693, 694, 695, 696, 697, 698, 699, 700, 701, 702, 703, 704, 705, 706, 707, 708, 709, 710, 711, 712, 713, 714, 715, 716, 717, 718, 719, 720, 721, 722, 723, 724, 725, 726, 727, 728, 729, 730, 731, 732, 733, 734, 735, 736, 737, 738, 739, 740, 741, 742, 743, 744, 745, 746, 747, 748, 749, 750, 751, 752, 753, 754, 755, 756, 757, 758, 759, 760, 761, 762, 763, 764, 765, 766, 767, 768, 769, 770, 771, 772, 773, 774, 775, 776, 777, 778, 779, 780, 781, 782, 783, 784, 785, 786, 787, 788, 789, 790, 791, 792, 793, 794, 795, 796, 797, 798, 799, 800, 801, 802, 803, 804, 805, 806, 807, 808, 809, 810, 811, 812, 813, 814, 815, 816, 817, 818, 819, 820, 821, 822, 823, 824, 825, 826, 827, 828, 829, 830, 831, 832, 833, 834, 835, 836, 837, 838, 839],
      "AcquisitionTime": ["220501.995000", "220502.455000", "220502.915000", "220503.375000", "220503.835000", "220504.295000", "220504.755000", "220505.215000", "220505.675000", "220506.135000", "220506.595000", "220507.055000", "220507.515000", "220507.975000", "220508.435000", "220508.895000", "220509.355000", "220509.815000", "220510.275000", "220510.735000", "220511.195000", "220511.655000", "220512.115000", "220512.575000", "220513.035000", "220513.495000", "220513.955000", "220514.415000", "220514.875000", "220515.335000", "220515.795000", "220516.255000", "220516.715000", "220517.175000", "220517.635000", "220518.095000", "220518.555000", "220519.015000", "220519.475000", "220519.935000", "220520.395000", "220520.855000", "220521.315000", "220521.775000", "220522.235000", "220522.695000", "220523.155000", "220523.615000", "220524.075000", "220524.535000", "220524.995000", "220525.455000", "220525.915000", "220526.375000", "220526.835000", "220527.295000", "220527.755000", "220528.215000", "220528.675000", "220529.135000", "220529.595000", "220530.055000", "220530.515000", "220530.975000", "220531.435000", "220531.895000", "220532.355000", "220532.815000", "220533.275000", "220533.735000", "220534.195000", "220534.655000", "220535.115000", "220535.575000", "220536.035000", "220536.495000", "220536.955000", "220537.415000", "220537.875000", "220538.335000", "220538.795000", "220539.255000", "220539.715000", "220540.175000", "220540.635000", "220541.095000", "220541.555000", "220542.015000", "220542.475000", "220542.935000", "220543.395000", "220543.855000", "220544.315000", "220544.775000", "220545.235000", "220545.695000", "220546.155000", "220546.615000", "220547.075000", "220547.535000", "220547.995000", "220548.455000", "220548.915000", "220549.375000", "220549.835000", "220550.295000", "220550.755000", "220551.215000", "220551.675000", "220552.135000", "220552.595000", "220553.055000", "220553.515000", "220553.975000", "220554.435000", "220554.895000", "220555.355000", "220555.815000", "220556.275000", "220556.735000", "220557.195000", "220557.655000", "220558.115000", "220558.575000", "220559.035000", "220559.495000", "220559.955000", "220600.415000", "220600.875000", "220601.335000", "220601.795000", "220602.255000", "220602.715000", "220603.175000", "220603.635000", "220604.095000", "220604.555000", "220605.015000", "220605.475000", "220605.935000", "220606.395000", "220606.855000", "220607.315000", "220607.775000", "220608.235000", "220608.695000", "220609.155000", "220609.615000", "220610.075000", "220610.535000", "220610.995000", "220611.455000", "220611.915000", "220612.375000", "220612.835000", "220613.295000", "220613.755000", "220614.215000", "220614.675000", "220615.135000", "220615.595000", "220616.055000", "220616.515000", "220616.975000", "220617.435000", "220617.895000", "220618.355000", "220618.815000", "220619.275000", "220619.735000", "220620.195000", "220620.655000", "220621.115000", "220621.575000", "220622.035000", "220622.495000", "220622.955000", "220623.415000", "220623.875000", "220624.335000", "220624.795000", "220625.255000", "220625.715000", "220626.175000", "220626.635000", "220627.095000", "220627.555000", "220628.015000", "220628.475000", "220628.935000", "220629.395000", "220629.855000", "220630.315000", "220630.775000", "220631.235000", "220631.695000", "220632.155000", "220632.615000", "220633.075000", "220633.535000", "220633.995000", "220634.455000", "220634.915000", "220635.375000", "220635.835000", "220636.295000", "220636.755000", "220637.215000", "220637.675000", "220638.135000", "220638.595000", "220639.055000", "220639.515000", "220639.975000", "220640.435000", "220640.895000", "220641.355000", "220641.815000", "220642.275000", "220642.735000", "220643.195000", "220643.655000", "220644.115000", "220644.575000", "220645.035000", "220645.495000", "220645.955000", "220646.415000", "220646.875000", "220647.335000", "220647.795000", "220648.255000", "220648.715000", "220649.175000", "220649.635000", "220650.095000", "220650.555000", "220651.015000", "220651.475000", "220651.935000", "220652.395000", "220652.855000", "220653.315000", "220653.775000", "220654.235000", "220654.695000", "220655.155000", "220655.615000", "220656.075000", "220656.535000", "220656.995000", "220657.455000", "220657.915000", "220658.375000", "220658.835000", "220659.295000", "220659.755000", "220700.215000", "220700.675000", "220701.135000", "220701.595000", "220702.055000", "220702.515000", "220702.975000", "220703.435000", "220703.895000", "220704.355000", "220704.815000", "220705.275000", "220705.735000", "220706.195000", "220706.655000", "220707.115000", "220707.575000", "220708.035000", "220708.495000", "220708.955000", "220709.415000", "220709.875000", "220710.335000", "220710.795000", "220711.255000", "220711.715000", "220712.175000", "220712.635000", "220713.095000", "220713.555000", "220714.015000", "220714.475000", "220714.935000", "220715.395000", "220715.855000", "220716.315000", "220716.775000", "220717.235000", "220717.695000", "220718.155000", "220718.615000", "220719.075000", "220719.535000", "220719.995000", "220720.455000", "220720.915000", "220721.375000", "220721.835000", "220722.295000", "220722.755000", "220723.215000", "220723.675000", "220724.135000", "220724.595000", "220725.055000", "220725.515000", "220725.975000", "220726.435000", "220726.895000", "220727.355000", "220727.815000", "220728.275000", "220728.735000", "220729.195000", "220729.655000", "220730.115000", "220730.575000", "220731.035000", "220731.495000", "220731.955000", "220732.415000", "220732.875000", "220733.335000", "220733.795000", "220734.255000", "220734.715000", "220735.175000", "220735.635000", "220736.095000", "220736.555000", "220737.015000", "220737.475000", "220737.935000", "220738.395000", "220738.855000", "220739.315000", "220739.775000", "220740.235000", "220740.695000", "220741.155000", "220741.615000", "220742.075000", "220742.535000", "220742.995000", "220743.455000", "220743.915000", "220744.375000", "220744.835000", "220745.295000", "220745.755000", "220746.215000", "220746.675000", "220747.135000", "220747.595000", "220748.055000", "220748.515000", "220748.975000", "220749.435000", "220749.895000", "220750.355000", "220750.815000", "220751.275000", "220751.735000", "220752.195000", "220752.655000", "220753.115000", "220753.575000", "220754.035000", "220754.495000", "220754.955000", "220755.415000", "220755.875000", "220756.335000", "220756.795000", "220757.255000", "220757.715000", "220758.175000", "220758.635000", "220759.095000", "220759.555000", "220800.015000", "220800.475000", "220800.935000", "220801.395000", "220801.855000", "220802.315000", "220802.775000", "220803.235000", "220803.695000", "220804.155000", "220804.615000", "220805.075000", "220805.535000", "220805.995000", "220806.455000", "220806.915000", "220807.375000", "220807.835000", "220808.295000", "220808.755000", "220809.215000", "220809.675000", "220810.135000", "220810.595000", "220811.055000", "220811.515000", "220811.975000", "220812.435000", "220812.895000", "220813.355000", "220813.815000", "220814.275000", "220814.735000", "220815.195000", "220815.655000", "220816.115000", "220816.575000", "220817.035000", "220817.495000", "220817.955000", "220818.415000", "220818.875000", "220819.335000", "220819.795000", "220820.255000", "220820.715000", "220821.175000", "220821.635000", "220822.095000", "220822.555000", "220823.015000", "220823.475000", "220823.935000", "220824.395000", "220824.855000", "220825.315000", "220825.775000", "220826.235000", "220826.695000", "220827.155000", "220827.615000", "220828.075000", "220828.535000", "220828.995000", "220829.455000", "220829.915000", "220830.375000", "220830.835000", "220831.295000", "220831.755000", "220832.215000", "220832.675000", "220833.135000", "220833.595000", "220834.055000", "220834.515000", "220834.975000", "220835.435000", "220835.895000", "220836.355000", "220836.815000", "220837.275000", "220837.735000", "220838.195000", "220838.655000", "220839.115000", "220839.575000", "220840.035000", "220840.495000", "220840.955000", "220841.415000", "220841.875000", "220842.335000", "220842.795000", "220843.255000", "220843.715000", "220844.175000", "220844.635000", "220845.095000", "220845.555000", "220846.015000", "220846.475000", "220846.935000", "220847.395000", "220847.855000", "220848.315000", "220848.775000", "220849.235000", "220849.695000", "220850.155000", "220850.615000", "220851.075000", "220851.535000", "220851.995000", "220852.455000", "220852.915000", "220853.375000", "220853.835000", "220854.295000", "220854.755000", "220855.215000", "220855.675000", "220856.135000", "220856.595000", "220857.055000", "220857.515000", "220857.975000", "220858.435000", "220858.895000", "220859.355000", "220859.815000", "220900.275000", "220900.735000", "220901.195000", "220901.655000", "220902.115000", "220902.575000", "220903.035000", "220903.495000", "220903.955000", "220904.415000", "220904.875000", "220905.335000", "220905.795000", "220906.255000", "220906.715000", "220907.175000", "220907.635000", "220908.095000", "220908.555000", "220909.015000", "220909.475000", "220909.935000", "220910.395000", "220910.855000", "220911.315000", "220911.775000", "220912.235000", "220912.695000", "220913.155000", "220913.615000", "220914.075000", "220914.535000", "220914.995000", "220915.455000", "220915.915000", "220916.375000", "220916.835000", "220917.295000", "220917.755000", "220918.215000", "220918.675000", "220919.135000", "220919.595000", "220920.055000", "220920.515000", "220920.975000", "220921.435000", "220921.895000", "220922.355000", "220922.815000", "220923.275000", "220923.735000", "220924.195000", "220924.655000", "220925.115000", "220925.575000", "220926.035000", "220926.495000", "220926.955000", "220927.415000", "220927.875000", "220928.335000", "220928.795000", "220929.255000", "220929.715000", "220930.175000", "220930.635000", "220931.095000", "220931.555000", "220932.015000", "220932.475000", "220932.935000", "220933.395000", "220933.855000", "220934.315000", "220934.775000", "220935.235000", "220935.695000", "220936.155000", "220936.615000", "220937.075000", "220937.535000", "220937.995000", "220938.455000", "220938.915000", "220939.375000", "220939.835000", "220940.295000", "220940.755000", "220941.215000", "220941.675000", "220942.135000", "220942.595000", "220943.055000", "220943.515000", "220943.975000", "220944.435000", "220944.895000", "220945.355000", "220945.815000", "220946.275000", "220946.735000", "220947.195000", "220947.655000", "220948.115000", "220948.575000", "220949.035000", "220949.495000", "220949.955000", "220950.415000", "220950.875000", "220951.335000", "220951.795000", "220952.255000", "220952.715000", "220953.175000", "220953.635000", "220954.095000", "220954.555000", "220955.015000", "220955.475000", "220955.935000", "220956.395000", "220956.855000", "220957.315000", "220957.775000", "220958.235000", "220958.695000", "220959.155000", "220959.615000", "221000.075000", "221000.535000", "221000.995000", "221001.455000", "221001.915000", "221002.375000", "221002.835000", "221003.295000", "221003.755000", "221004.215000", "221004.675000", "221005.135000", "221005.595000", "221006.055000", "221006.515000", "221006.975000", "221007.435000", "221007.895000", "221008.355000", "221008.815000", "221009.275000", "221009.735000", "221010.195000", "221010.655000", "221011.115000", "221011.575000", "221012.035000", "221012.495000", "221012.955000", "221013.415000", "221013.875000", "221014.335000", "221014.795000", "221015.255000", "221015.715000", "221016.175000", "221016.635000", "221017.095000", "221017.555000", "221018.015000", "221018.475000", "221018.935000", "221019.395000", "221019.855000", "221020.315000", "221020.775000", "221021.235000", "221021.695000", "221022.155000", "221022.615000", "221023.075000", "221023.535000", "221023.995000", "221024.455000", "221024.915000", "221025.375000", "221025.835000", "221026.295000", "221026.755000", "221027.215000", "221027.675000", "221028.135000", "221028.595000", "221029.055000", "221029.515000", "221029.975000", "221030.435000", "221030.895000", "221031.355000", "221031.815000", "221032.275000", "221032.735000", "221033.195000", "221033.655000", "221034.115000", "221034.575000", "221035.035000", "221035.495000", "221035.955000", "221036.415000", "221036.875000", "221037.335000", "221037.795000", "221038.255000", "221038.715000", "221039.175000", "221039.635000", "221040.095000", "221040.555000", "221041.015000", "221041.475000", "221041.935000", "221042.395000", "221042.855000", "221043.315000", "221043.775000", "221044.235000", "221044.695000", "221045.155000", "221045.615000", "221046.075000", "221046.535000", "221046.995000", "221047.455000", "221047.915000", "221048.375000", "221048.835000", "221049.295000", "221049.755000", "221050.215000", "221050.675000", "221051.135000", "221051.595000", "221052.055000", "221052.515000", "221052.975000", "221053.435000", "221053.895000", "221054.355000", "221054.815000", "221055.275000", "221055.735000", "221056.195000", "221056.655000", "221057.115000", "221057.575000", "221058.035000", "221058.495000", "221058.955000", "221059.415000", "221059.875000", "221100.335000", "221100.795000", "221101.255000", "221101.715000", "221102.175000", "221102.635000", "221103.095000", "221103.555000", "221104.015000", "221104.475000", "221104.935000", "221105.395000", "221105.855000", "221106.315000", "221106.775000", "221107.235000", "221107.695000", "221108.155000", "221108.615000", "221109.075000", "221109.535000", "221109.995000", "221110.455000", "221110.915000", "221111.375000", "221111.835000", "221112.295000", "221112.755000", "221113.215000", "221113.675000", "221114.135000", "221114.595000", "221115.055000", "221115.515000", "221115.975000", "221116.435000", "221116.895000", "221117.355000", "221117.815000", "221118.275000", "221118.735000", "221119.195000", "221119.655000", "221120.115000", "221120.575000", "221121.035000", "221121.495000", "221121.955000", "221122.415000", "221122.875000", "221123.335000", "221123.795000", "221124.255000", "221124.715000", "221125.175000", "221125.635000", "221126.095000", "221126.555000", "221127.015000", "221127.475000"],
