{
  "AcquisitionMatrixPE": 82,
  "AcquisitionNumber": 1,
  "AcquisitionTime": "19:07:8.567500",
  "BandwidthPerPixelPhaseEncode": 24.888,
  "BaseResolution": 82,
  "BodyPartExamined": "BRAIN",
  "ConsistencyInfo": "N4_VE11E_LATEST_20181129",
  "ConversionSoftware": "dcm2niix",
  "ConversionSoftwareVersion": "v1.0.20201102",
  "DerivedVendorReportedEchoSpacing": 0.00049,
  "DeviceSerialNumber": "66112",
  "DwellTime": 2e-06,
  "EchoTime": 0.0272,
  "EchoTrainLength": 82,
  "EffectiveEchoSpacing": 0.00049,
  "FlipAngle": 44,
  "ImageComments": "Unaliased MB8/PE3",
  "ImageOrientationPatientDICOM": [0.999933, -0.00669565, 0.00948847, 0.00663189, 0.999955, 0.00673531],
  "ImageType": [
    "ORIGINAL",
    "PRIMARY",
    "M",
    "MB",
    "ND",
    "NORM",
    "MOSAIC"
],
  "ImagingFrequency": 123.252,
  "InPlanePhaseEncodingDirectionDICOM": "COL",
  "InstitutionAddress": "Maynard 3,Hanover,NH,US,03755",
  "InstitutionName": "Dartmouth College - PBS",
  "InstitutionalDepartmentName": "Department",
  "MRAcquisitionType": "2D",
  "MagneticFieldStrength": 3,
  "Manufacturer": "Siemens",
  "ManufacturersModelName": "Prisma",
  "Modality": "MR",
  "MultibandAccelerationFactor": 8,
  "PartialFourier": 1,
  "PatientPosition": "HFS",
  "PercentPhaseFOV": 100,
  "PercentSampling": 100,
  "PhaseEncodingDirection": "j-",
  "PhaseEncodingSteps": 82,
  "PhaseResolution": 1,
  "PixelBandwidth": 3050,
  "ProcedureStepDescription": "Wager_Wager^1076_spacetop",
  "ProtocolName": "func_run-04_task-social_acq-ap-mb8",
  "PulseSequenceDetails": "%CustomerSeq%\\cmrr_mbep2d_bold",
  "ReceiveCoilActiveElements": "HEA;HEP",
  "ReceiveCoilName": "Head_32",
  "ReconMatrixPE": 82,
  "RepetitionTime": 0.46,
  "SAR": 0.0732536,
  "ScanOptions": "FS",
  "ScanningSequence": "EP",
  "SequenceName": "epfid2d1_82",
  "SequenceVariant": "SK\\SS",
  "SeriesDescription": "func_run-04_task-social_acq-ap-mb8",
  "SeriesNumber": 12,
  "ShimSetting": [4143, -7737, -7289, 602, -72, -130, 42, 71],
  "SliceThickness": 2.7,
  "SliceTiming": [0, 0.25, 0.0625, 0.315, 0.125, 0.3775, 0.1875, 0, 0.25, 0.0625, 0.315, 0.125, 0.3775, 0.1875, 0, 0.25, 0.0625, 0.315, 0.125, 0.3775, 0.1875, 0, 0.25, 0.0625, 0.315, 0.125, 0.3775, 0.1875, 0, 0.25, 0.0625, 0.315, 0.125, 0.3775, 0.1875, 0, 0.25, 0.0625, 0.315, 0.125, 0.3775, 0.1875, 0, 0.25, 0.0625, 0.315, 0.125, 0.3775, 0.1875, 0, 0.25, 0.0625, 0.315, 0.125, 0.3775, 0.1875],
  "SoftwareVersions": "syngo MR E11",
  "SpacingBetweenSlices": 2.7,
  "StationName": "AWP66112",
  "TaskName": "social",
  "TotalReadoutTime": 0.03969,
  "TxRefAmp": 229.838,
  "WipMemBlock": "0acf1879-c52a-4c4d-9c47-65483f72bdd9||Sequence: R016 ve11e/master r/434b28f1; Aug  7 2019 18:53:46 by eja",
  "dcmmeta_affine": [
    [-2.682745933532715, 0.01779288239777088, 0.025739498436450958, 111.46240234375],
    [0.017963945865631104, 2.682806968688965, 0.01801420748233795, -90.53257751464844],
    [0.025456883013248444, -0.018070342019200325, 2.699817419052124, -72.25346374511719],
    [0.0, 0.0, 0.0, 1.0]
],
  "dcmmeta_reorient_transform": [
    [0.0, -1.0, 0.0, 81.0],
    [1.0, 0.0, 0.0, 0.0],
    [0.0, 0.0, 1.0, 0.0],
    [0.0, 0.0, 0.0, 1.0]
],
  "dcmmeta_shape": [82, 82, 56, 872],
  "dcmmeta_slice_dim": 2,
  "dcmmeta_version": 0.6,
  "global": {
    "const": {
      "AccessionNumber": "A004012",
      "AcquisitionMatrix": [82, 0, 0, 82],
      "AngioFlag": "N",
      "BitsAllocated": 16,
      "BitsStored": 16,
      "BodyPartExamined": "BRAIN",
      "Columns": 656,
      "EchoNumbers": 1,
      "EchoTime": 27.2,
      "EchoTrainLength": 82,
      "FlipAngle": 44.0,
      "HighBit": 15,
      "ImageOrientationPatient": [0.99993256627566, -0.0066956523441, 0.00948847411657, 0.00663189262619, 0.99995532580633, 0.00673530932801],
      "ImagePositionPatient": [-887.95827900408, -891.58475930103, -86.209478294569],
      "ImageType": [
        "ORIGINAL",
        "PRIMARY",
        "M",
        "MB",
        "ND",
        "NORM",
        "MOSAIC"
],
      "ImagedNucleus": "1H",
      "ImagingFrequency": 123.252205,
      "InPlanePhaseEncodingDirection": "COL",
      "MRAcquisitionType": "2D",
      "MagneticFieldStrength": 3.0,
      "Manufacturer": "SIEMENS",
      "ManufacturerModelName": "Prisma",
      "Modality": "MR",
      "NumberOfAverages": 1.0,
      "NumberOfPhaseEncodingSteps": 82,
      "PercentPhaseFieldOfView": 100.0,
      "PercentSampling": 100.0,
      "PerformedProcedureStepStartTime": "181501.135000",
      "PhotometricInterpretation": "MONOCHROME2",
      "PixelBandwidth": 3050.0,
      "PixelRepresentation": 0,
      "PixelSpacing": [2.6829268932343, 2.6829268932343],
      "ProtocolName": "func_run-04_task-social_acq-ap-mb8",
      "RepetitionTime": 460.0,
      "Rows": 656,
      "SAR": 0.07325364947189,
      "SamplesPerPixel": 1,
      "ScanOptions": "FS",
      "ScanningSequence": "EP",
      "SequenceName": "epfid2d1_82",
      "SequenceVariant": [
        "SK",
        "SS"
],
      "SeriesDescription": "func_run-04_task-social_acq-ap-mb8",
      "SeriesNumber": 12,
      "SeriesTime": "190732.533000",
      "SliceLocation": -71.790014791341,
      "SliceThickness": 2.7000000476837,
      "SmallestImagePixelValue": 0,
      "SoftwareVersions": "syngo MR E11",
      "SpacingBetweenSlices": 2.7000001009002,
      "SpecificCharacterSet": "ISO_IR 100",
      "StudyID": "3",
      "StudyTime": "181501.087000",
      "TransmitCoilName": "Body",
      "VariableFlipAngleFlag": "N",
      "WindowCenterWidthExplanation": "Algo1"
    },
    "slices": {}
  },
  "time": {
    "samples": {
      "AcquisitionNumber": [1, 2, 3, 4, 5, 6, 7, 8, 9, 10, 11, 12, 13, 14, 15, 16, 17, 18, 19, 20, 21, 22, 23, 24, 25, 26, 27, 28, 29, 30, 31, 32, 33, 34, 35, 36, 37, 38, 39, 40, 41, 42, 43, 44, 45, 46, 47, 48, 49, 50, 51, 52, 53, 54, 55, 56, 57, 58, 59, 60, 61, 62, 63, 64, 65, 66, 67, 68, 69, 70, 71, 72, 73, 74, 75, 76, 77, 78, 79, 80, 81, 82, 83, 84, 85, 86, 87, 88, 89, 90, 91, 92, 93, 94, 95, 96, 97, 98, 99, 100, 101, 102, 103, 104, 105, 106, 107, 108, 109, 110, 111, 112, 113, 114, 115, 116, 117, 118, 119, 120, 121, 122, 123, 124, 125, 126, 127, 128, 129, 130, 131, 132, 133, 134, 135, 136, 137, 138, 139, 140, 141, 142, 143, 144, 145, 146, 147, 148, 149, 150, 151, 152, 153, 154, 155, 156, 157, 158, 159, 160, 161, 162, 163, 164, 165, 166, 167, 168, 169, 170, 171, 172, 173, 174, 175, 176, 177, 178, 179, 180, 181, 182, 183, 184, 185, 186, 187, 188, 189, 190, 191, 192, 193, 194, 195, 196, 197, 198, 199, 200, 201, 202, 203, 204, 205, 206, 207, 208, 209, 210, 211, 212, 213, 214, 215, 216, 217, 218, 219, 220, 221, 222, 223, 224, 225, 226, 227, 228, 229, 230, 231, 232, 233, 234, 235, 236, 237, 238, 239, 240, 241, 242, 243, 244, 245, 246, 247, 248, 249, 250, 251, 252, 253, 254, 255, 256, 257, 258, 259, 260, 261, 262, 263, 264, 265, 266, 267, 268, 269, 270, 271, 272, 273, 274, 275, 276, 277, 278, 279, 280, 281, 282, 283, 284, 285, 286, 287, 288, 289, 290, 291, 292, 293, 294, 295, 296, 297, 298, 299, 300, 301, 302, 303, 304, 305, 306, 307, 308, 309, 310, 311, 312, 313, 314, 315, 316, 317, 318, 319, 320, 321, 322, 323, 324, 325, 326, 327, 328, 329, 330, 331, 332, 333, 334, 335, 336, 337, 338, 339, 340, 341, 342, 343, 344, 345, 346, 347, 348, 349, 350, 351, 352, 353, 354, 355, 356, 357, 358, 359, 360, 361, 362, 363, 364, 365, 366, 367, 368, 369, 370, 371, 372, 373, 374, 375, 376, 377, 378, 379, 380, 381, 382, 383, 384, 385, 386, 387, 388, 389, 390, 391, 392, 393, 394, 395, 396, 397, 398, 399, 400, 401, 402, 403, 404, 405, 406, 407, 408, 409, 410, 411, 412, 413, 414, 415, 416, 417, 418, 419, 420, 421, 422, 423, 424, 425, 426, 427, 428, 429, 430, 431, 432, 433, 434, 435, 436, 437, 438, 439, 440, 441, 442, 443, 444, 445, 446, 447, 448, 449, 450, 451, 452, 453, 454, 455, 456, 457, 458, 459, 460, 461, 462, 463, 464, 465, 466, 467, 468, 469, 470, 471, 472, 473, 474, 475, 476, 477, 478, 479, 480, 481, 482, 483, 484, 485, 486, 487, 488, 489, 490, 491, 492, 493, 494, 495, 496, 497, 498, 499, 500, 501, 502, 503, 504, 505, 506, 507, 508, 509, 510, 511, 512, 513, 514, 515, 516, 517, 518, 519, 520, 521, 522, 523, 524, 525, 526, 527, 528, 529, 530, 531, 532, 533, 534, 535, 536, 537, 538, 539, 540, 541, 542, 543, 544, 545, 546, 547, 548, 549, 550, 551, 552, 553, 554, 555, 556, 557, 558, 559, 560, 561, 562, 563, 564, 565, 566, 567, 568, 569, 570, 571, 572, 573, 574, 575, 576, 577, 578, 579, 580, 581, 582, 583, 584, 585, 586, 587, 588, 589, 590, 591, 592, 593, 594, 595, 596, 597, 598, 599, 600, 601, 602, 603, 604, 605, 606, 607, 608, 609, 610, 611, 612, 613, 614, 615, 616, 617, 618, 619, 620, 621, 622, 623, 624, 625, 626, 627, 628, 629, 630, 631, 632, 633, 634, 635, 636, 637, 638, 639, 640, 641, 642, 643, 644, 645, 646, 647, 648, 649, 650, 651, 652, 653, 654, 655, 656, 657, 658, 659, 660, 661, 662, 663, 664, 665, 666, 667, 668, 669, 670, 671, 672, 673, 674, 675, 676, 677, 678, 679, 680, 681, 682, 683, 684, 685, 686, 687, 688, 689, 690, 691, 692, 693, 694, 695, 696, 697, 698, 699, 700, 701, 702, 703, 704, 705, 706, 707, 708, 709, 710, 711, 712, 713, 714, 715, 716, 717, 718, 719, 720, 721, 722, 723, 724, 725, 726, 727, 728, 729, 730, 731, 732, 733, 734, 735, 736, 737, 738, 739, 740, 741, 742, 743, 744, 745, 746, 747, 748, 749, 750, 751, 752, 753, 754, 755, 756, 757, 758, 759, 760, 761, 762, 763, 764, 765, 766, 767, 768, 769, 770, 771, 772, 773, 774, 775, 776, 777, 778, 779, 780, 781, 782, 783, 784, 785, 786, 787, 788, 789, 790, 791, 792, 793, 794, 795, 796, 797, 798, 799, 800, 801, 802, 803, 804, 805, 806, 807, 808, 809, 810, 811, 812, 813, 814, 815, 816, 817, 818, 819, 820, 821, 822, 823, 824, 825, 826, 827, 828, 829, 830, 831, 832, 833, 834, 835, 836, 837, 838, 839, 840, 841, 842, 843, 844, 845, 846, 847, 848, 849, 850, 851, 852, 853, 854, 855, 856, 857, 858, 859, 860, 861, 862, 863, 864, 865, 866, 867, 868, 869, 870, 871, 872],
      "AcquisitionTime": ["190708.567500", "190709.027500", "190709.487500", "190709.947500", "190710.407500", "190710.867500", "190711.327500", "190711.787500", "190712.247500", "190712.707500", "190713.167500", "190713.627500", "190714.087500", "190714.547500", "190715.007500", "190715.467500", "190715.927500", "190716.387500", "190716.847500", "190717.307500", "190717.767500", "190718.227500", "190718.687500", "190719.147500", "190719.607500", "190720.067500", "190720.527500", "190720.987500", "190721.447500", "190721.907500", "190722.367500", "190722.827500", "190723.287500", "190723.747500", "190724.207500", "190724.667500", "190725.127500", "190725.587500", "190726.047500", "190726.507500", "190726.967500", "190727.427500", "190727.887500", "190728.347500", "190728.807500", "190729.267500", "190729.727500", "190730.187500", "190730.647500", "190731.107500", "190731.567500", "190732.027500", "190732.487500", "190732.947500", "190733.407500", "190733.867500", "190734.327500", "190734.787500", "190735.247500", "190735.707500", "190736.167500", "190736.627500", "190737.087500", "190737.547500", "190738.007500", "190738.467500", "190738.927500", "190739.387500", "190739.847500", "190740.307500", "190740.767500", "190741.227500", "190741.687500", "190742.147500", "190742.607500", "190743.067500", "190743.527500", "190743.987500", "190744.447500", "190744.907500", "190745.367500", "190745.827500", "190746.287500", "190746.747500", "190747.207500", "190747.667500", "190748.127500", "190748.587500", "190749.047500", "190749.507500", "190749.967500", "190750.427500", "190750.887500", "190751.347500", "190751.807500", "190752.267500", "190752.727500", "190753.187500", "190753.647500", "190754.107500", "190754.567500", "190755.027500", "190755.487500", "190755.947500", "190756.407500", "190756.867500", "190757.327500", "190757.787500", "190758.247500", "190758.707500", "190759.167500", "190759.627500", "190800.087500", "190800.547500", "190801.007500", "190801.467500", "190801.927500", "190802.387500", "190802.847500", "190803.307500", "190803.767500", "190804.227500", "190804.687500", "190805.147500", "190805.607500", "190806.067500", "190806.527500", "190806.987500", "190807.447500", "190807.907500", "190808.367500", "190808.827500", "190809.287500", "190809.747500", "190810.207500", "190810.667500", "190811.127500", "190811.587500", "190812.047500", "190812.507500", "190812.967500", "190813.427500", "190813.887500", "190814.347500", "190814.807500", "190815.267500", "190815.727500", "190816.187500", "190816.647500", "190817.107500", "190817.567500", "190818.027500", "190818.487500", "190818.947500", "190819.407500", "190819.867500", "190820.327500", "190820.787500", "190821.247500", "190821.707500", "190822.167500", "190822.627500", "190823.087500", "190823.547500", "190824.007500", "190824.467500", "190824.927500", "190825.387500", "190825.847500", "190826.307500", "190826.767500", "190827.227500", "190827.687500", "190828.147500", "190828.607500", "190829.067500", "190829.527500", "190829.987500", "190830.447500", "190830.907500", "190831.367500", "190831.827500", "190832.287500", "190832.747500", "190833.207500", "190833.667500", "190834.127500", "190834.587500", "190835.047500", "190835.507500", "190835.967500", "190836.427500", "190836.887500", "190837.347500", "190837.807500", "190838.267500", "190838.727500", "190839.187500", "190839.647500", "190840.107500", "190840.567500", "190841.027500", "190841.487500", "190841.947500", "190842.407500", "190842.867500", "190843.327500", "190843.787500", "190844.247500", "190844.707500", "190845.167500", "190845.627500", "190846.087500", "190846.547500", "190847.007500", "190847.467500", "190847.927500", "190848.387500", "190848.847500", "190849.307500", "190849.767500", "190850.227500", "190850.687500", "190851.147500", "190851.607500", "190852.067500", "190852.527500", "190852.987500", "190853.447500", "190853.907500", "190854.367500", "190854.827500", "190855.287500", "190855.747500", "190856.207500", "190856.667500", "190857.127500", "190857.587500", "190858.047500", "190858.507500", "190858.967500", "190859.427500", "190859.887500", "190900.347500", "190900.807500", "190901.267500", "190901.727500", "190902.187500", "190902.647500", "190903.107500", "190903.567500", "190904.027500", "190904.487500", "190904.947500", "190905.407500", "190905.867500", "190906.327500", "190906.787500", "190907.247500", "190907.707500", "190908.167500", "190908.627500", "190909.087500", "190909.547500", "190910.007500", "190910.467500", "190910.927500", "190911.387500", "190911.847500", "190912.307500", "190912.767500", "190913.227500", "190913.687500", "190914.147500", "190914.607500", "190915.067500", "190915.527500", "190915.987500", "190916.447500", "190916.907500", "190917.367500", "190917.827500", "190918.287500", "190918.747500", "190919.207500", "190919.667500", "190920.127500", "190920.587500", "190921.047500", "190921.507500", "190921.967500", "190922.427500", "190922.887500", "190923.347500", "190923.807500", "190924.267500", "190924.727500", "190925.187500", "190925.647500", "190926.107500", "190926.567500", "190927.027500", "190927.487500", "190927.947500", "190928.407500", "190928.867500", "190929.327500", "190929.787500", "190930.247500", "190930.707500", "190931.167500", "190931.627500", "190932.087500", "190932.547500", "190933.007500", "190933.467500", "190933.927500", "190934.387500", "190934.847500", "190935.307500", "190935.767500", "190936.227500", "190936.687500", "190937.147500", "190937.607500", "190938.067500", "190938.527500", "190938.987500", "190939.447500", "190939.907500", "190940.367500", "190940.827500", "190941.287500", "190941.747500", "190942.207500", "190942.667500", "190943.127500", "190943.587500", "190944.047500", "190944.507500", "190944.967500", "190945.427500", "190945.887500", "190946.347500", "190946.807500", "190947.267500", "190947.727500", "190948.187500", "190948.647500", "190949.107500", "190949.567500", "190950.027500", "190950.487500", "190950.947500", "190951.407500", "190951.867500", "190952.327500", "190952.787500", "190953.247500", "190953.707500", "190954.167500", "190954.627500", "190955.087500", "190955.547500", "190956.007500", "190956.467500", "190956.927500", "190957.387500", "190957.847500", "190958.307500", "190958.767500", "190959.227500", "190959.687500", "191000.147500", "191000.607500", "191001.067500", "191001.527500", "191001.987500", "191002.447500", "191002.907500", "191003.367500", "191003.827500", "191004.287500", "191004.747500", "191005.207500", "191005.667500", "191006.127500", "191006.587500", "191007.047500", "191007.507500", "191007.967500", "191008.427500", "191008.887500", "191009.347500", "191009.807500", "191010.267500", "191010.727500", "191011.187500", "191011.647500", "191012.107500", "191012.567500", "191013.027500", "191013.487500", "191013.947500", "191014.407500", "191014.867500", "191015.327500", "191015.787500", "191016.247500", "191016.707500", "191017.167500", "191017.627500", "191018.087500", "191018.547500", "191019.007500", "191019.467500", "191019.927500", "191020.387500", "191020.847500", "191021.307500", "191021.767500", "191022.227500", "191022.687500", "191023.147500", "191023.607500", "191024.067500", "191024.527500", "191024.987500", "191025.447500", "191025.907500", "191026.367500", "191026.827500", "191027.287500", "191027.747500", "191028.207500", "191028.667500", "191029.127500", "191029.587500", "191030.047500", "191030.507500", "191030.967500", "191031.427500", "191031.887500", "191032.347500", "191032.807500", "191033.267500", "191033.727500", "191034.187500", "191034.647500", "191035.107500", "191035.567500", "191036.027500", "191036.487500", "191036.947500", "191037.407500", "191037.867500", "191038.327500", "191038.787500", "191039.247500", "191039.707500", "191040.167500", "191040.627500", "191041.087500", "191041.547500", "191042.007500", "191042.467500", "191042.927500", "191043.387500", "191043.847500", "191044.307500", "191044.767500", "191045.227500", "191045.687500", "191046.147500", "191046.607500", "191047.067500", "191047.527500", "191047.987500", "191048.447500", "191048.907500", "191049.367500", "191049.827500", "191050.287500", "191050.747500", "191051.207500", "191051.667500", "191052.127500", "191052.587500", "191053.047500", "191053.507500", "191053.967500", "191054.427500", "191054.887500", "191055.347500", "191055.807500", "191056.267500", "191056.727500", "191057.187500", "191057.647500", "191058.107500", "191058.567500", "191059.027500", "191059.487500", "191059.947500", "191100.407500", "191100.867500", "191101.327500", "191101.787500", "191102.247500", "191102.707500", "191103.167500", "191103.627500", "191104.087500", "191104.547500", "191105.007500", "191105.467500", "191105.927500", "191106.387500", "191106.847500", "191107.307500", "191107.767500", "191108.227500", "191108.687500", "191109.147500", "191109.607500", "191110.067500", "191110.527500", "191110.987500", "191111.447500", "191111.907500", "191112.367500", "191112.827500", "191113.287500", "191113.747500", "191114.207500", "191114.667500", "191115.127500", "191115.587500", "191116.047500", "191116.507500", "191116.967500", "191117.427500", "191117.887500", "191118.347500", "191118.807500", "191119.267500", "191119.727500", "191120.187500", "191120.647500", "191121.107500", "191121.567500", "191122.027500", "191122.487500", "191122.947500", "191123.407500", "191123.867500", "191124.327500", "191124.787500", "191125.247500", "191125.707500", "191126.167500", "191126.627500", "191127.087500", "191127.547500", "191128.007500", "191128.467500", "191128.927500", "191129.387500", "191129.847500", "191130.307500", "191130.767500", "191131.227500", "191131.687500", "191132.147500", "191132.607500", "191133.067500", "191133.527500", "191133.987500", "191134.447500", "191134.907500", "191135.367500", "191135.827500", "191136.287500", "191136.747500", "191137.207500", "191137.667500", "191138.127500", "191138.587500", "191139.047500", "191139.507500", "191139.967500", "191140.427500", "191140.887500", "191141.347500", "191141.807500", "191142.267500", "191142.727500", "191143.187500", "191143.647500", "191144.107500", "191144.567500", "191145.027500", "191145.487500", "191145.947500", "191146.407500", "191146.867500", "191147.327500", "191147.787500", "191148.247500", "191148.707500", "191149.167500", "191149.627500", "191150.087500", "191150.547500", "191151.007500", "191151.467500", "191151.927500", "191152.387500", "191152.847500", "191153.307500", "191153.767500", "191154.227500", "191154.687500", "191155.147500", "191155.607500", "191156.067500", "191156.527500", "191156.987500", "191157.447500", "191157.907500", "191158.367500", "191158.827500", "191159.287500", "191159.747500", "191200.207500", "191200.667500", "191201.127500", "191201.587500", "191202.047500", "191202.507500", "191202.967500", "191203.427500", "191203.887500", "191204.347500", "191204.807500", "191205.267500", "191205.727500", "191206.187500", "191206.647500", "191207.107500", "191207.567500", "191208.027500", "191208.487500", "191208.947500", "191209.407500", "191209.867500", "191210.327500", "191210.787500", "191211.247500", "191211.707500", "191212.167500", "191212.627500", "191213.087500", "191213.547500", "191214.007500", "191214.467500", "191214.927500", "191215.387500", "191215.847500", "191216.307500", "191216.767500", "191217.227500", "191217.687500", "191218.147500", "191218.607500", "191219.067500", "191219.527500", "191219.987500", "191220.447500", "191220.907500", "191221.367500", "191221.827500", "191222.287500", "191222.747500", "191223.207500", "191223.667500", "191224.127500", "191224.587500", "191225.047500", "191225.507500", "191225.967500", "191226.427500", "191226.887500", "191227.347500", "191227.807500", "191228.267500", "191228.727500", "191229.187500", "191229.647500", "191230.107500", "191230.567500", "191231.027500", "191231.487500", "191231.947500", "191232.407500", "191232.867500", "191233.327500", "191233.787500", "191234.247500", "191234.707500", "191235.167500", "191235.627500", "191236.087500", "191236.547500", "191237.007500", "191237.467500", "191237.927500", "191238.387500", "191238.847500", "191239.307500", "191239.767500", "191240.227500", "191240.687500", "191241.147500", "191241.607500", "191242.067500", "191242.527500", "191242.987500", "191243.447500", "191243.907500", "191244.367500", "191244.827500", "191245.287500", "191245.747500", "191246.207500", "191246.667500", "191247.127500", "191247.587500", "191248.047500", "191248.507500", "191248.967500", "191249.427500", "191249.887500", "191250.347500", "191250.807500", "191251.267500", "191251.727500", "191252.187500", "191252.647500", "191253.107500", "191253.567500", "191254.027500", "191254.487500", "191254.947500", "191255.407500", "191255.867500", "191256.327500", "191256.787500", "191257.247500", "191257.707500", "191258.167500", "191258.627500", "191259.087500", "191259.547500", "191300.007500", "191300.467500", "191300.927500", "191301.387500", "191301.847500", "191302.307500", "191302.767500", "191303.227500", "191303.687500", "191304.147500", "191304.607500", "191305.067500", "191305.527500", "191305.987500", "191306.447500", "191306.907500", "191307.367500", "191307.827500", "191308.287500", "191308.747500", "191309.207500", "191309.667500", "191310.127500", "191310.587500", "191311.047500", "191311.507500", "191311.967500", "191312.427500", "191312.887500", "191313.347500", "191313.807500", "191314.267500", "191314.727500", "191315.187500", "191315.647500", "191316.107500", "191316.567500", "191317.027500", "191317.487500", "191317.947500", "191318.407500", "191318.867500", "191319.327500", "191319.787500", "191320.247500", "191320.707500", "191321.167500", "191321.627500", "191322.087500", "191322.547500", "191323.007500", "191323.467500", "191323.927500", "191324.387500", "191324.847500", "191325.307500", "191325.767500", "191326.227500", "191326.687500", "191327.147500", "191327.607500", "191328.067500", "191328.527500", "191328.987500", "191329.447500", "191329.907500", "191330.367500", "191330.827500", "191331.287500", "191331.747500", "191332.207500", "191332.667500", "191333.127500", "191333.587500", "191334.047500", "191334.507500", "191334.967500", "191335.427500", "191335.887500", "191336.347500", "191336.807500", "191337.267500", "191337.727500", "191338.187500", "191338.647500", "191339.107500", "191339.567500", "191340.027500", "191340.487500", "191340.947500", "191341.407500", "191341.867500", "191342.327500", "191342.787500", "191343.247500", "191343.707500", "191344.167500", "191344.627500", "191345.087500", "191345.547500", "191346.007500", "191346.467500", "191346.927500", "191347.387500", "191347.847500", "191348.307500", "191348.767500", "191349.227500"],
