{
  "AcquisitionMatrixPE": 140,
  "AcquisitionNumber": 1,
  "AcquisitionTime": "12:24:22.067500",
  "BandwidthPerPixelPhaseEncode": 10.352,
  "BaseResolution": 140,
  "BodyPartExamined": "BRAIN",
  "ConsistencyInfo": "N4_VE11E_LATEST_20181129",
  "ConversionSoftware": "dcm2niix",
  "ConversionSoftwareVersion": "v1.0.20201102",
  "DerivedVendorReportedEchoSpacing": 0.000689998,
  "DeviceSerialNumber": "66112",
  "DiffusionScheme": "Monopolar",
  "DwellTime": 2.1e-06,
  "EchoTime": 0.0884,
  "EchoTrainLength": 105,
  "EffectiveEchoSpacing": 0.000689998,
  "FlipAngle": 90,
  "ImageComments": "Unaliased MB3/PE3 SENSE1",
  "ImageOrientationPatientDICOM": [0.998129, 0.0505824, 0.0343477, -0.0526591, 0.996653, 0.0625204],
  "ImageType": [
    "ORIGINAL",
    "PRIMARY",
    "DIFFUSION",
    "NONE",
    "MB",
    "ND",
    "MOSAIC"
],
  "ImagingFrequency": 123.259,
  "InPlanePhaseEncodingDirectionDICOM": "COL",
  "InstitutionAddress": "Maynard 3,Hanover,NH,US,03755",
  "InstitutionName": "Dartmouth College - PBS",
  "InstitutionalDepartmentName": "Department",
  "MRAcquisitionType": "2D",
  "MagneticFieldStrength": 3,
  "Manufacturer": "Siemens",
  "ManufacturersModelName": "Prisma",
  "Modality": "MR",
  "MultibandAccelerationFactor": 3,
  "PartialFourier": 0.75,
  "PatientPosition": "HFS",
  "PercentPhaseFOV": 100,
  "PercentSampling": 100,
  "PhaseEncodingDirection": "j-",
  "PhaseEncodingSteps": 105,
  "PhaseResolution": 1,
  "PixelBandwidth": 1700,
  "ProcedureStepDescription": "Wager_Wager^1076_spacetop",
  "ProtocolName": "dwi_acq-96dir-6b0-mb",
  "PulseSequenceDetails": "%CustomerSeq%\\cmrr_mbep2d_diff",
  "ReceiveCoilActiveElements": "HEA;HEP",
  "ReceiveCoilName": "Head_32",
  "ReconMatrixPE": 140,
  "RepetitionTime": 4.11,
  "SAR": 0.340158,
  "ScanOptions": "PFP\\FS",
  "ScanningSequence": "EP",
  "SequenceName": "ep_b5#1",
  "SequenceVariant": "SK\\SS",
  "SeriesDescription": "dwi_acq-96dir-6b0-mb",
  "SeriesNumber": 8,
  "ShimSetting": [4245, -7754, -7250, 41, -204, -103, -78, 58],
  "SliceThickness": 1.7,
  "SliceTiming": [0, 2.12, 0.1525, 2.2725, 0.3025, 2.4225, 0.455, 2.575, 0.605, 2.7275, 0.7575, 2.8775, 0.91, 3.03, 1.06, 3.18, 1.2125, 3.3325, 1.3625, 3.485, 1.515, 3.635, 1.6675, 3.7875, 1.8175, 3.9375, 1.97, 0, 2.12, 0.1525, 2.2725, 0.3025, 2.4225, 0.455, 2.575, 0.605, 2.7275, 0.7575, 2.8775, 0.91, 3.03, 1.06, 3.18, 1.2125, 3.3325, 1.3625, 3.485, 1.515, 3.635, 1.6675, 3.7875, 1.8175, 3.9375, 1.97, 0, 2.12, 0.1525, 2.2725, 0.3025, 2.4225, 0.455, 2.575, 0.605, 2.7275, 0.7575, 2.8775, 0.91, 3.03, 1.06, 3.18, 1.2125, 3.3325, 1.3625, 3.485, 1.515, 3.635, 1.6675, 3.7875, 1.8175, 3.9375, 1.97],
  "SoftwareVersions": "syngo MR E11",
  "SpacingBetweenSlices": 1.7,
  "StationName": "AWP66112",
  "TotalReadoutTime": 0.0959097,
  "TxRefAmp": 318.564,
  "WipMemBlock": "a60297d6-a310-4dd9-9189-f6e1b6d6fcc9||Sequence: R016 ve11e/master r/434b28f1; Aug  7 2019 19:06:17 by eja",
  "dcmmeta_affine": [
    [-1.711078405380249, -0.09027275443077087, 0.05281955376267433, 128.70858764648438],
    [-0.08671273291110992, 1.708548903465271, 0.10916058719158173, -86.59535217285156],
    [0.05888177454471588, -0.10717776417732239, 1.695669174194336, -70.017333984375],
    [0.0, 0.0, 0.0, 1.0]
],
  "dcmmeta_reorient_transform": [
    [0.0, -1.0, 0.0, 139.0],
    [1.0, 0.0, 0.0, 0.0],
    [0.0, 0.0, 1.0, 0.0],
    [0.0, 0.0, 0.0, 1.0]
],
  "dcmmeta_shape": [140, 140, 81, 103],
  "dcmmeta_slice_dim": 2,
  "dcmmeta_version": 0.6,
  "global": {
    "const": {
      "AccessionNumber": "A004332",
      "AcquisitionMatrix": [140, 0, 0, 140],
      "AngioFlag": "N",
      "BitsAllocated": 16,
      "BitsStored": 16,
      "BodyPartExamined": "BRAIN",
      "Columns": 1260,
      "EchoNumbers": 1,
      "EchoTime": 88.4,
      "EchoTrainLength": 105,
      "FlipAngle": 90.0,
      "HighBit": 15,
      "ImageOrientationPatient": [0.99812907664181, 0.05058242596922, 0.03434770072697, -0.0526591043471, 0.99665351199005, 0.06252036282104],
      "ImagePositionPatient": [-1023.8118605986, -1156.2394526801, -177.90838796703],
      "ImageType": [
        "ORIGINAL",
        "PRIMARY",
        "DIFFUSION",
        "NONE",
        "MB",
        "ND",
        "MOSAIC"
],
      "ImagedNucleus": "1H",
      "ImagingFrequency": 123.259084,
      "InPlanePhaseEncodingDirection": "COL",
      "MRAcquisitionType": "2D",
      "MagneticFieldStrength": 3.0,
      "Manufacturer": "SIEMENS",
      "ManufacturerModelName": "Prisma",
      "Modality": "MR",
      "NumberOfAverages": 1.0,
      "NumberOfPhaseEncodingSteps": 105,
      "PercentPhaseFieldOfView": 100.0,
      "PercentSampling": 100.0,
      "PerformedProcedureStepStartTime": "121439.055000",
      "PhotometricInterpretation": "MONOCHROME2",
      "PixelBandwidth": 1700.0,
      "PixelRepresentation": 0,
      "PixelSpacing": [1.7142857313156, 1.7142857313156],
      "ProtocolName": "dwi_acq-96dir-6b0-mb",
      "RepetitionTime": 4110.0,
      "Rows": 1260,
      "SAR": 0.34015793933377,
      "SamplesPerPixel": 1,
      "ScanOptions": [
        "PFP",
        "FS"
],
      "ScanningSequence": "EP",
      "SequenceVariant": [
        "SK",
        "SS"
],
      "SeriesDescription": "dwi_acq-96dir-6b0-mb",
      "SeriesNumber": 8,
      "SeriesTime": "122557.484000",
      "SliceLocation": -71.400418427783,
      "SliceThickness": 1.7000000476837,
      "SmallestImagePixelValue": 0,
      "SoftwareVersions": "syngo MR E11",
      "SpacingBetweenSlices": 1.70000001298,
      "SpecificCharacterSet": "ISO_IR 100",
      "StudyID": "1",
      "StudyTime": "121438.987000",
      "TransmitCoilName": "Body",
      "VariableFlipAngleFlag": "N",
      "WindowCenterWidthExplanation": "Algo1"
    },
    "slices": {}
  },
  "time": {
    "samples": {
      "AcquisitionNumber": [1, 2, 3, 4, 5, 6, 7, 8, 9, 10, 11, 12, 13, 14, 15, 16, 17, 18, 19, 20, 21, 22, 23, 24, 25, 26, 27, 28, 29, 30, 31, 32, 33, 34, 35, 36, 37, 38, 39, 40, 41, 42, 43, 44, 45, 46, 47, 48, 49, 50, 51, 52, 53, 54, 55, 56, 57, 58, 59, 60, 61, 62, 63, 64, 65, 66, 67, 68, 69, 70, 71, 72, 73, 74, 75, 76, 77, 78, 79, 80, 81, 82, 83, 84, 85, 86, 87, 88, 89, 90, 91, 92, 93, 94, 95, 96, 97, 98, 99, 100, 101, 102, 103],
      "AcquisitionTime": ["122422.067500", "122426.177500", "122430.287500", "122434.397500", "122438.507500", "122442.617500", "122446.727500", "122450.837500", "122454.947500", "122459.057500", "122503.167500", "122507.277500", "122511.387500", "122515.497500", "122519.607500", "122523.717500", "122527.827500", "122531.937500", "122536.047500", "122540.157500", "122544.267500", "122548.377500", "122552.487500", "122556.597500", "122600.707500", "122604.817500", "122608.927500", "122613.037500", "122617.147500", "122621.257500", "122625.367500", "122629.477500", "122633.587500", "122637.697500", "122641.807500", "122645.917500", "122650.027500", "122654.137500", "122658.247500", "122702.357500", "122706.467500", "122710.577500", "122714.687500", "122718.797500", "122722.907500", "122727.017500", "122731.127500", "122735.237500", "122739.347500", "122743.457500", "122747.567500", "122751.677500", "122755.787500", "122759.897500", "122804.007500", "122808.117500", "122812.227500", "122816.337500", "122820.447500", "122824.557500", "122828.667500", "122832.777500", "122836.887500", "122840.997500", "122845.107500", "122849.217500", "122853.327500", "122857.437500", "122901.547500", "122905.657500", "122909.767500", "122913.877500", "122917.987500", "122922.097500", "122926.207500", "122930.317500", "122934.427500", "122938.537500", "122942.647500", "122946.757500", "122950.867500", "122954.977500", "122959.087500", "123003.197500", "123007.307500", "123011.417500", "123015.527500", "123019.637500", "123023.747500", "123027.857500", "123031.967500", "123036.077500", "123040.187500", "123044.297500", "123048.407500", "123052.517500", "123056.627500", "123100.737500", "123104.847500", "123108.957500", "123113.067500", "123117.177500", "123121.287500"],
      "ContentTime": ["122557.488000", "122557.492000", "122557.495000", "122557.498000", "122557.501000", "122557.504000", "122557.507000", "122557.510000", "122557.513000", "122557.516000", "122557.519000", "122557.522000", "122557.525000", "122557.553000", "122557.556000", "122557.559000", "122557.562000", "122557.564000", "122557.567000", "122557.570000", "122557.573000", "122557.577000", "122557.580000", "122737.482000", "122737.485000", "122737.488000", "122737.491000", "122737.494000", "122737.497000", "122737.500000", "122737.503000", "122737.506000", "122737.509000", "122737.512000", "122737.515000", "122737.518000", "122737.521000", "122737.524000", "122737.527000", "122737.530000", "122737.533000", "122737.536000", "122737.549000", "122737.552000", "122737.555000", "122737.558000", "122737.561000", "122917.482000", "122917.486000", "122917.489000", "122917.492000", "122917.495000", "122917.498000", "122917.501000", "122917.516000", "122917.519000", "122917.522000", "122917.525000", "122917.527000", "122917.530000", "122917.534000", "122917.537000", "122917.540000", "122917.543000", "122917.546000", "122917.549000", "122917.552000", "122917.555000", "122917.558000", "122917.561000", "122917.564000", "123037.483000", "123037.486000", "123037.489000", "123037.493000", "123037.495000", "123037.498000", "123037.501000", "123037.504000", "123037.507000", "123037.510000", "123037.513000", "123037.516000", "123037.519000", "123037.522000", "123037.525000", "123037.528000", "123037.531000", "123037.534000", "123037.537000", "123037.540000", "123126.098000", "123126.101000", "123126.104000", "123126.108000", "123126.111000", "123126.114000", "123126.117000", "123126.120000", "123126.123000", "123126.126000", "123126.129000", "123126.132000"],
      "InstanceCreationTime": ["122557.488000", "122557.492000", "122557.495000", "122557.498000", "122557.501000", "122557.504000", "122557.507000", "122557.510000", "122557.513000", "122557.516000", "122557.519000", "122557.522000", "122557.525000", "122557.553000", "122557.556000", "122557.559000", "122557.562000", "122557.564000", "122557.567000", "122557.570000", "122557.573000", "122557.577000", "122557.580000", "122737.482000", "122737.485000", "122737.488000", "122737.491000", "122737.494000", "122737.497000", "122737.500000", "122737.503000", "122737.506000", "122737.509000", "122737.512000", "122737.515000", "122737.518000", "122737.521000", "122737.524000", "122737.527000", "122737.530000", "122737.533000", "122737.536000", "122737.549000", "122737.552000", "122737.555000", "122737.558000", "122737.561000", "122917.482000", "122917.486000", "122917.489000", "122917.492000", "122917.495000", "122917.498000", "122917.501000", "122917.516000", "122917.519000", "122917.522000", "122917.525000", "122917.527000", "122917.530000", "122917.534000", "122917.537000", "122917.540000", "122917.543000", "122917.546000", "122917.549000", "122917.552000", "122917.555000", "122917.558000", "122917.561000", "122917.564000", "123037.483000", "123037.486000", "123037.489000", "123037.493000", "123037.495000", "123037.498000", "123037.501000", "123037.504000", "123037.507000", "123037.510000", "123037.513000", "123037.516000", "123037.519000", "123037.522000", "123037.525000", "123037.528000", "123037.531000", "123037.534000", "123037.537000", "123037.540000", "123126.098000", "123126.101000", "123126.104000", "123126.108000", "123126.111000", "123126.114000", "123126.117000", "123126.120000", "123126.123000", "123126.126000", "123126.129000", "123126.132000"],
      "InstanceNumber": [1, 2, 3, 4, 5, 6, 7, 8, 9, 10, 11, 12, 13, 14, 15, 16, 17, 18, 19, 20, 21, 22, 23, 24, 25, 26, 27, 28, 29, 30, 31, 32, 33, 34, 35, 36, 37, 38, 39, 40, 41, 42, 43, 44, 45, 46, 47, 48, 49, 50, 51, 52, 53, 54, 55, 56, 57, 58, 59, 60, 61, 62, 63, 64, 65, 66, 67, 68, 69, 70, 71, 72, 73, 74, 75, 76, 77, 78, 79, 80, 81, 82, 83, 84, 85, 86, 87, 88, 89, 90, 91, 92, 93, 94, 95, 96, 97, 98, 99, 100, 101, 102, 103],
      "LargestImagePixelValue": [65535, 65535, 65535, 59333, 65151, 42933, 55555, 65535, 65535, 47301, 23628, 33985, 26509, 29415, 39800, 24989, 44529, 33333, 39474, 41517, 38647, 44015, 22737, 39915, 65535, 23486, 19130, 13887, 15833, 21992, 24789, 19484, 23634, 19757, 18058, 21221, 14846, 17778, 24404, 17199, 65535, 13581, 19672, 20808, 28512, 16774, 13669, 11180, 15670, 15671, 16450, 15129, 10281, 10816, 21906, 19706, 12123, 12039, 12609, 16303, 10117, 10100, 11622, 9645, 11017, 24699, 19978, 12014, 23340, 20386, 14185, 16794, 17364, 65535, 35494, 25172, 20144, 26742, 12400, 12763, 13756, 32895, 28061, 19886, 23494, 12888, 31098, 26225, 18826, 35705, 19109, 12623, 10854, 12405, 19218, 16766, 11749, 12122, 11420, 12316, 12316, 12859, 65535],
      "SequenceName": [
 "ep_b5#1",
 "ep_b5#1",
 "ep_b500#2",
 "ep_b495#3",
 "ep_b500#4",
 "ep_b505#5",
 "ep_b495#6",
 "ep_b500#7",
 "ep_b5#8",
 "ep_b1000#9",
 "ep_b1005#10",
 "ep_b995#11",
 "ep_b1005#12",
 "ep_b995#13",
 "ep_b995#14",
 "ep_b1005#15",
 "ep_b1000#16",
 "ep_b1005#17",
 "ep_b995#18",
 "ep_b1000#19",
 "ep_b995#20",
 "ep_b1000#21",
 "ep_b1005#22",
 "ep_b1005#23",
 "ep_b5#24",
 "ep_b2000#25",
 "ep_b1995#26",
 "ep_b1990#27",
 "ep_b1995#28",
 "ep_b2005#29",
 "ep_b2010#30",
 "ep_b2000#31",
 "ep_b2010#32",
 "ep_b1995#33",
 "ep_b1995#34",
 "ep_b1995#35",
 "ep_b2005#36",
 "ep_b2000#37",
 "ep_b2005#38",
 "ep_b1995#39",
 "ep_b5#40",
 "ep_b3000#41",
 "ep_b3005#42",
 "ep_b3010#43",
 "ep_b3010#44",
 "ep_b3000#45",
 "ep_b3000#46",
 "ep_b2990#47",
 "ep_b3005#48",
 "ep_b3000#49",
 "ep_b2990#50",
 "ep_b2990#51",
 "ep_b2995#52",
 "ep_b2995#53",
 "ep_b3010#54",
 "ep_b3000#55",
 "ep_b2995#56",
 "ep_b2995#57",
 "ep_b2990#58",
 "ep_b2990#59",
 "ep_b3000#60",
 "ep_b2990#61",
 "ep_b2990#62",
 "ep_b2995#63",
 "ep_b3000#64",
 "ep_b3010#65",
 "ep_b3000#66",
 "ep_b3005#67",
 "ep_b3010#68",
 "ep_b3005#69",
 "ep_b3005#70",
 "ep_b3005#71",
 "ep_b2990#72",
 "ep_b5#73",
 "ep_b3010#74",
 "ep_b3000#75",
 "ep_b3005#76",
 "ep_b3000#77",
 "ep_b2990#78",
 "ep_b3005#79",
 "ep_b2995#80",
 "ep_b3010#81",
 "ep_b3005#82",
 "ep_b3005#83",
 "ep_b3000#84",
 "ep_b3000#85",
 "ep_b3010#86",
 "ep_b3010#87",
 "ep_b2990#88",
 "ep_b3010#89",
 "ep_b2995#90",
 "ep_b2995#91",
 "ep_b2990#92",
 "ep_b2995#93",
 "ep_b3005#94",
 "ep_b3005#95",
 "ep_b2995#96",
 "ep_b3000#97",
 "ep_b2990#98",
 "ep_b3000#99",
 "ep_b2995#100",
 "ep_b2995#101",
 "ep_b5#102"
],
      "WindowCenter": [12537.0, 12540.0, 7782.0, 7471.0, 7537.0, 6323.0, 6817.0, 7826.0, 12264.0, 5401.0, 4180.0, 4507.0, 4362.0, 3918.0, 4693.0, 3605.0, 5374.0, 5053.0, 5191.0, 5162.0, 4913.0, 5155.0, 4096.0, 5279.0, 12449.0, 3355.0, 3225.0, 2291.0, 2822.0, 3079.0, 3869.0, 2910.0, 3427.0, 2796.0, 2845.0, 3011.0, 2414.0, 2963.0, 3208.0, 2581.0, 11710.0, 2343.0, 2670.0, 3228.0, 4615.0, 2097.0, 2377.0, 1952.0, 2071.0, 2513.0, 2436.0, 2509.0, 2025.0, 2196.0, 3063.0, 2578.0, 2267.0, 2199.0, 1914.0, 2108.0, 1870.0, 1820.0, 1878.0, 1992.0, 2100.0, 3646.0, 2315.0, 2211.0, 3386.0, 2763.0, 2533.0, 2643.0, 2356.0, 9836.0, 6318.0, 2723.0, 2872.0, 2568.0, 1891.0, 1901.0, 1972.0, 5652.0, 3335.0, 2956.0, 2384.0, 2277.0, 4921.0, 3824.0, 2376.0, 6193.0, 2235.0, 1960.0, 1905.0, 2087.0, 2463.0, 2716.0, 1946.0, 2217.0, 1985.0, 1994.0, 2300.0, 2287.0, 11317.0],
      "WindowWidth": [29771.0, 29777.0, 16490.0, 15795.0, 15983.0, 13688.0, 14490.0, 16602.0, 29005.0, 11655.0, 9590.0, 9962.0, 9780.0, 8888.0, 10311.0, 8405.0, 11582.0, 11121.0, 11266.0, 11234.0, 10711.0, 11229.0, 9323.0, 11464.0, 29555.0, 7642.0, 7451.0, 5680.0, 6676.0, 7746.0, 9552.0, 6848.0, 8402.0, 6567.0, 6704.0, 7035.0, 5928.0, 6928.0, 7971.0, 6191.0, 27445.0, 5675.0, 6817.0, 8213.0, 10931.0, 5252.0, 5748.0, 5079.0, 5402.0, 6044.0, 6147.0, 6299.0, 5124.0, 5438.0, 7696.0, 6141.0, 5554.0, 5382.0, 4842.0, 5267.0, 4749.0, 4653.0, 4742.0, 5013.0, 5239.0, 9007.0, 5610.0, 5497.0, 8555.0, 6714.0, 6179.0, 6549.0, 5890.0, 22511.0, 13570.0, 6561.0, 7127.0, 5993.0, 4849.0, 4983.0, 4863.0, 12151.0, 8026.0, 7227.0, 5631.0, 5559.0, 11134.0, 9359.0, 5925.0, 13186.0, 5597.0, 4876.0, 4817.0, 5170.0, 6319.0, 6824.0, 4862.0, 5439.0, 5160.0, 4986.0, 5633.0, 5582.0, 26328.0]
    },
    "slices": {}
  }
}