{
  "AcquisitionMatrixPE": 82,
  "AcquisitionNumber": 1,
  "AcquisitionTime": "19:05:47.445000",
  "BandwidthPerPixelPhaseEncode": 24.888,
  "BaseResolution": 82,
  "BodyPartExamined": "BRAIN",
  "ConsistencyInfo": "N4_VE11E_LATEST_20181129",
  "ConversionSoftware": "dcm2niix",
  "ConversionSoftwareVersion": "v1.0.20201102",
  "DerivedVendorReportedEchoSpacing": 0.00049,
  "DeviceSerialNumber": "66112",
  "DwellTime": 2e-06,
  "EchoTime": 0.0272,
  "EchoTrainLength": 82,
  "EffectiveEchoSpacing": 0.00049,
  "FlipAngle": 44,
  "ImageComments": "Unaliased MB8/PE3",
  "ImageOrientationPatientDICOM": [0.998995, 0.00472661, 0.0445807, -0.0137751, 0.978682, 0.204918],
  "ImageType": [
    "ORIGINAL",
    "PRIMARY",
    "M",
    "MB",
    "ND",
    "NORM",
    "MOSAIC"
],
  "ImagingFrequency": 123.252,
  "InPlanePhaseEncodingDirectionDICOM": "COL",
  "InstitutionAddress": "Maynard 3,Hanover,NH,US,03755",
  "InstitutionName": "Dartmouth College - PBS",
  "InstitutionalDepartmentName": "Department",
  "MRAcquisitionType": "2D",
  "MagneticFieldStrength": 3,
  "Manufacturer": "Siemens",
  "ManufacturersModelName": "Prisma",
  "Modality": "MR",
  "MultibandAccelerationFactor": 8,
  "PartialFourier": 1,
  "PatientPosition": "HFS",
  "PercentPhaseFOV": 100,
  "PercentSampling": 100,
  "PhaseEncodingDirection": "j-",
  "PhaseEncodingSteps": 82,
  "PhaseResolution": 1,
  "PixelBandwidth": 3050,
  "ProcedureStepDescription": "Wager_Wager^1076_spacetop",
  "ProtocolName": "func_run-03_task-social_acq-ap-mb8",
  "PulseSequenceDetails": "%CustomerSeq%\\cmrr_mbep2d_bold",
  "ReceiveCoilActiveElements": "HEA;HEP",
  "ReceiveCoilName": "Head_32",
  "ReconMatrixPE": 82,
  "RepetitionTime": 0.46,
  "SAR": 0.0937563,
  "ScanOptions": "FS",
  "ScanningSequence": "EP",
  "SequenceName": "epfid2d1_82",
  "SequenceVariant": "SK\\SS",
  "SeriesDescription": "func_run-03_task-social_acq-ap-mb8",
  "SeriesNumber": 12,
  "ShimSetting": [4160, -7789, -7230, 645, -57, -254, 69, 86],
  "SliceThickness": 2.7,
  "SliceTiming": [0, 0.25, 0.0625, 0.3125, 0.125, 0.3775, 0.1875, 0, 0.25, 0.0625, 0.3125, 0.125, 0.3775, 0.1875, 0, 0.25, 0.0625, 0.3125, 0.125, 0.3775, 0.1875, 0, 0.25, 0.0625, 0.3125, 0.125, 0.3775, 0.1875, 0, 0.25, 0.0625, 0.3125, 0.125, 0.3775, 0.1875, 0, 0.25, 0.0625, 0.3125, 0.125, 0.3775, 0.1875, 0, 0.25, 0.0625, 0.3125, 0.125, 0.3775, 0.1875, 0, 0.25, 0.0625, 0.3125, 0.125, 0.3775, 0.1875],
  "SoftwareVersions": "syngo MR E11",
  "SpacingBetweenSlices": 2.7,
  "StationName": "AWP66112",
  "TaskName": "social",
  "TotalReadoutTime": 0.03969,
  "TxRefAmp": 235.456,
  "WipMemBlock": "62db56b9-f5da-4271-8bbc-fbd6cd12ca12||Sequence: R016 ve11e/master r/434b28f1; Aug  7 2019 18:53:46 by eja",
  "dcmmeta_affine": [
    [-2.680229425430298, -0.03695761039853096, 0.11518687009811401, 112.1882095336914],
    [-0.012681144289672375, 2.625732660293579, 0.5543814301490784, -108.82860565185547],
    [0.1196068674325943, -0.5497810244560242, 2.639960765838623, -32.2681884765625],
    [0.0, 0.0, 0.0, 1.0]
],
  "dcmmeta_reorient_transform": [
    [0.0, -1.0, 0.0, 81.0],
    [1.0, 0.0, 0.0, 0.0],
    [0.0, 0.0, 1.0, 0.0],
    [0.0, 0.0, 0.0, 1.0]
],
  "dcmmeta_shape": [82, 82, 56, 872],
  "dcmmeta_slice_dim": 2,
  "dcmmeta_version": 0.6,
  "global": {
    "const": {
      "AccessionNumber": "A004054",
      "AcquisitionMatrix": [82, 0, 0, 82],
      "AngioFlag": "N",
      "BitsAllocated": 16,
      "BitsStored": 16,
      "BodyPartExamined": "BRAIN",
      "Columns": 656,
      "EchoNumbers": 1,
      "EchoTime": 27.2,
      "EchoTrainLength": 82,
      "FlipAngle": 44.0,
      "HighBit": 15,
      "ImageOrientationPatient": [0.99899460301503, 0.00472660818468, 0.04458073936035, -0.0137751095814, 0.97868212467218, 0.20491838668888],
      "ImagePositionPatient": [-867.81366948448, -861.08047546712, -268.91478501666],
      "ImageType": [
        "ORIGINAL",
        "PRIMARY",
        "M",
        "MB",
        "ND",
        "NORM",
        "MOSAIC"
],
      "ImagedNucleus": "1H",
      "ImagingFrequency": 123.252155,
      "InPlanePhaseEncodingDirection": "COL",
      "MRAcquisitionType": "2D",
      "MagneticFieldStrength": 3.0,
      "Manufacturer": "SIEMENS",
      "ManufacturerModelName": "Prisma",
      "Modality": "MR",
      "NumberOfAverages": 1.0,
      "NumberOfPhaseEncodingSteps": 82,
      "PercentPhaseFieldOfView": 100.0,
      "PercentSampling": 100.0,
      "PerformedProcedureStepStartTime": "182105.699000",
      "PhotometricInterpretation": "MONOCHROME2",
      "PixelBandwidth": 3050.0,
      "PixelRepresentation": 0,
      "PixelSpacing": [2.6829268932343, 2.6829268932343],
      "ProtocolName": "func_run-03_task-social_acq-ap-mb8",
      "RepetitionTime": 460.0,
      "Rows": 656,
      "SAR": 0.09375626448961,
      "SamplesPerPixel": 1,
      "ScanOptions": "FS",
      "ScanningSequence": "EP",
      "SequenceName": "epfid2d1_82",
      "SequenceVariant": [
        "SK",
        "SS"
],
      "SeriesDescription": "func_run-03_task-social_acq-ap-mb8",
      "SeriesNumber": 12,
      "SeriesTime": "190557.702000",
      "SliceLocation": -49.109891325402,
      "SliceThickness": 2.7000000476837,
      "SmallestImagePixelValue": 0,
      "SoftwareVersions": "syngo MR E11",
      "SpacingBetweenSlices": 2.699999932369,
      "SpecificCharacterSet": "ISO_IR 100",
      "StudyID": "3",
      "StudyTime": "182105.624000",
      "TransmitCoilName": "Body",
      "VariableFlipAngleFlag": "N",
      "WindowCenterWidthExplanation": "Algo1"
    },
    "slices": {}
  },
  "time": {
    "samples": {
      "AcquisitionNumber": [1, 2, 3, 4, 5, 6, 7, 8, 9, 10, 11, 12, 13, 14, 15, 16, 17, 18, 19, 20, 21, 22, 23, 24, 25, 26, 27, 28, 29, 30, 31, 32, 33, 34, 35, 36, 37, 38, 39, 40, 41, 42, 43, 44, 45, 46, 47, 48, 49, 50, 51, 52, 53, 54, 55, 56, 57, 58, 59, 60, 61, 62, 63, 64, 65, 66, 67, 68, 69, 70, 71, 72, 73, 74, 75, 76, 77, 78, 79, 80, 81, 82, 83, 84, 85, 86, 87, 88, 89, 90, 91, 92, 93, 94, 95, 96, 97, 98, 99, 100, 101, 102, 103, 104, 105, 106, 107, 108, 109, 110, 111, 112, 113, 114, 115, 116, 117, 118, 119, 120, 121, 122, 123, 124, 125, 126, 127, 128, 129, 130, 131, 132, 133, 134, 135, 136, 137, 138, 139, 140, 141, 142, 143, 144, 145, 146, 147, 148, 149, 150, 151, 152, 153, 154, 155, 156, 157, 158, 159, 160, 161, 162, 163, 164, 165, 166, 167, 168, 169, 170, 171, 172, 173, 174, 175, 176, 177, 178, 179, 180, 181, 182, 183, 184, 185, 186, 187, 188, 189, 190, 191, 192, 193, 194, 195, 196, 197, 198, 199, 200, 201, 202, 203, 204, 205, 206, 207, 208, 209, 210, 211, 212, 213, 214, 215, 216, 217, 218, 219, 220, 221, 222, 223, 224, 225, 226, 227, 228, 229, 230, 231, 232, 233, 234, 235, 236, 237, 238, 239, 240, 241, 242, 243, 244, 245, 246, 247, 248, 249, 250, 251, 252, 253, 254, 255, 256, 257, 258, 259, 260, 261, 262, 263, 264, 265, 266, 267, 268, 269, 270, 271, 272, 273, 274, 275, 276, 277, 278, 279, 280, 281, 282, 283, 284, 285, 286, 287, 288, 289, 290, 291, 292, 293, 294, 295, 296, 297, 298, 299, 300, 301, 302, 303, 304, 305, 306, 307, 308, 309, 310, 311, 312, 313, 314, 315, 316, 317, 318, 319, 320, 321, 322, 323, 324, 325, 326, 327, 328, 329, 330, 331, 332, 333, 334, 335, 336, 337, 338, 339, 340, 341, 342, 343, 344, 345, 346, 347, 348, 349, 350, 351, 352, 353, 354, 355, 356, 357, 358, 359, 360, 361, 362, 363, 364, 365, 366, 367, 368, 369, 370, 371, 372, 373, 374, 375, 376, 377, 378, 379, 380, 381, 382, 383, 384, 385, 386, 387, 388, 389, 390, 391, 392, 393, 394, 395, 396, 397, 398, 399, 400, 401, 402, 403, 404, 405, 406, 407, 408, 409, 410, 411, 412, 413, 414, 415, 416, 417, 418, 419, 420, 421, 422, 423, 424, 425, 426, 427, 428, 429, 430, 431, 432, 433, 434, 435, 436, 437, 438, 439, 440, 441, 442, 443, 444, 445, 446, 447, 448, 449, 450, 451, 452, 453, 454, 455, 456, 457, 458, 459, 460, 461, 462, 463, 464, 465, 466, 467, 468, 469, 470, 471, 472, 473, 474, 475, 476, 477, 478, 479, 480, 481, 482, 483, 484, 485, 486, 487, 488, 489, 490, 491, 492, 493, 494, 495, 496, 497, 498, 499, 500, 501, 502, 503, 504, 505, 506, 507, 508, 509, 510, 511, 512, 513, 514, 515, 516, 517, 518, 519, 520, 521, 522, 523, 524, 525, 526, 527, 528, 529, 530, 531, 532, 533, 534, 535, 536, 537, 538, 539, 540, 541, 542, 543, 544, 545, 546, 547, 548, 549, 550, 551, 552, 553, 554, 555, 556, 557, 558, 559, 560, 561, 562, 563, 564, 565, 566, 567, 568, 569, 570, 571, 572, 573, 574, 575, 576, 577, 578, 579, 580, 581, 582, 583, 584, 585, 586, 587, 588, 589, 590, 591, 592, 593, 594, 595, 596, 597, 598, 599, 600, 601, 602, 603, 604, 605, 606, 607, 608, 609, 610, 611, 612, 613, 614, 615, 616, 617, 618, 619, 620, 621, 622, 623, 624, 625, 626, 627, 628, 629, 630, 631, 632, 633, 634, 635, 636, 637, 638, 639, 640, 641, 642, 643, 644, 645, 646, 647, 648, 649, 650, 651, 652, 653, 654, 655, 656, 657, 658, 659, 660, 661, 662, 663, 664, 665, 666, 667, 668, 669, 670, 671, 672, 673, 674, 675, 676, 677, 678, 679, 680, 681, 682, 683, 684, 685, 686, 687, 688, 689, 690, 691, 692, 693, 694, 695, 696, 697, 698, 699, 700, 701, 702, 703, 704, 705, 706, 707, 708, 709, 710, 711, 712, 713, 714, 715, 716, 717, 718, 719, 720, 721, 722, 723, 724, 725, 726, 727, 728, 729, 730, 731, 732, 733, 734, 735, 736, 737, 738, 739, 740, 741, 742, 743, 744, 745, 746, 747, 748, 749, 750, 751, 752, 753, 754, 755, 756, 757, 758, 759, 760, 761, 762, 763, 764, 765, 766, 767, 768, 769, 770, 771, 772, 773, 774, 775, 776, 777, 778, 779, 780, 781, 782, 783, 784, 785, 786, 787, 788, 789, 790, 791, 792, 793, 794, 795, 796, 797, 798, 799, 800, 801, 802, 803, 804, 805, 806, 807, 808, 809, 810, 811, 812, 813, 814, 815, 816, 817, 818, 819, 820, 821, 822, 823, 824, 825, 826, 827, 828, 829, 830, 831, 832, 833, 834, 835, 836, 837, 838, 839, 840, 841, 842, 843, 844, 845, 846, 847, 848, 849, 850, 851, 852, 853, 854, 855, 856, 857, 858, 859, 860, 861, 862, 863, 864, 865, 866, 867, 868, 869, 870, 871, 872],
      "AcquisitionTime": ["190547.445000", "190547.905000", "190548.365000", "190548.825000", "190549.285000", "190549.745000", "190550.205000", "190550.665000", "190551.125000", "190551.585000", "190552.045000", "190552.505000", "190552.965000", "190553.425000", "190553.885000", "190554.345000", "190554.805000", "190555.265000", "190555.725000", "190556.185000", "190556.645000", "190557.105000", "190557.565000", "190558.025000", "190558.485000", "190558.945000", "190559.405000", "190559.865000", "190600.325000", "190600.785000", "190601.245000", "190601.705000", "190602.165000", "190602.625000", "190603.085000", "190603.545000", "190604.005000", "190604.465000", "190604.925000", "190605.385000", "190605.845000", "190606.305000", "190606.765000", "190607.225000", "190607.685000", "190608.145000", "190608.605000", "190609.065000", "190609.525000", "190609.985000", "190610.445000", "190610.905000", "190611.365000", "190611.825000", "190612.285000", "190612.745000", "190613.205000", "190613.665000", "190614.125000", "190614.585000", "190615.045000", "190615.505000", "190615.965000", "190616.425000", "190616.885000", "190617.345000", "190617.805000", "190618.265000", "190618.725000", "190619.185000", "190619.645000", "190620.105000", "190620.565000", "190621.025000", "190621.485000", "190621.945000", "190622.405000", "190622.865000", "190623.325000", "190623.785000", "190624.245000", "190624.705000", "190625.165000", "190625.625000", "190626.085000", "190626.545000", "190627.005000", "190627.465000", "190627.925000", "190628.385000", "190628.845000", "190629.305000", "190629.765000", "190630.225000", "190630.685000", "190631.145000", "190631.605000", "190632.065000", "190632.525000", "190632.985000", "190633.445000", "190633.905000", "190634.365000", "190634.825000", "190635.285000", "190635.745000", "190636.205000", "190636.665000", "190637.125000", "190637.585000", "190638.045000", "190638.505000", "190638.965000", "190639.425000", "190639.885000", "190640.345000", "190640.805000", "190641.265000", "190641.725000", "190642.185000", "190642.645000", "190643.105000", "190643.565000", "190644.025000", "190644.485000", "190644.945000", "190645.405000", "190645.865000", "190646.325000", "190646.785000", "190647.245000", "190647.705000", "190648.165000", "190648.625000", "190649.085000", "190649.545000", "190650.005000", "190650.465000", "190650.925000", "190651.385000", "190651.845000", "190652.305000", "190652.765000", "190653.225000", "190653.685000", "190654.145000", "190654.605000", "190655.065000", "190655.525000", "190655.985000", "190656.445000", "190656.905000", "190657.365000", "190657.825000", "190658.285000", "190658.745000", "190659.205000", "190659.665000", "190700.125000", "190700.585000", "190701.045000", "190701.505000", "190701.965000", "190702.425000", "190702.885000", "190703.345000", "190703.805000", "190704.265000", "190704.725000", "190705.185000", "190705.645000", "190706.105000", "190706.565000", "190707.025000", "190707.485000", "190707.945000", "190708.405000", "190708.865000", "190709.325000", "190709.785000", "190710.245000", "190710.705000", "190711.165000", "190711.625000", "190712.085000", "190712.545000", "190713.005000", "190713.465000", "190713.925000", "190714.385000", "190714.845000", "190715.305000", "190715.765000", "190716.225000", "190716.685000", "190717.145000", "190717.605000", "190718.065000", "190718.525000", "190718.985000", "190719.445000", "190719.905000", "190720.365000", "190720.825000", "190721.285000", "190721.745000", "190722.205000", "190722.665000", "190723.125000", "190723.585000", "190724.045000", "190724.505000", "190724.965000", "190725.425000", "190725.885000", "190726.345000", "190726.805000", "190727.265000", "190727.725000", "190728.185000", "190728.645000", "190729.105000", "190729.565000", "190730.025000", "190730.485000", "190730.945000", "190731.405000", "190731.865000", "190732.325000", "190732.785000", "190733.245000", "190733.705000", "190734.165000", "190734.625000", "190735.085000", "190735.545000", "190736.005000", "190736.465000", "190736.925000", "190737.385000", "190737.845000", "190738.305000", "190738.765000", "190739.225000", "190739.685000", "190740.145000", "190740.605000", "190741.065000", "190741.525000", "190741.985000", "190742.445000", "190742.905000", "190743.365000", "190743.825000", "190744.285000", "190744.745000", "190745.205000", "190745.665000", "190746.125000", "190746.585000", "190747.045000", "190747.505000", "190747.965000", "190748.425000", "190748.885000", "190749.345000", "190749.805000", "190750.265000", "190750.725000", "190751.185000", "190751.645000", "190752.105000", "190752.565000", "190753.025000", "190753.485000", "190753.945000", "190754.405000", "190754.865000", "190755.325000", "190755.785000", "190756.245000", "190756.705000", "190757.165000", "190757.625000", "190758.085000", "190758.545000", "190759.005000", "190759.465000", "190759.925000", "190800.385000", "190800.845000", "190801.305000", "190801.765000", "190802.225000", "190802.685000", "190803.145000", "190803.605000", "190804.065000", "190804.525000", "190804.985000", "190805.445000", "190805.905000", "190806.365000", "190806.825000", "190807.285000", "190807.745000", "190808.205000", "190808.665000", "190809.125000", "190809.585000", "190810.045000", "190810.505000", "190810.965000", "190811.425000", "190811.885000", "190812.345000", "190812.805000", "190813.265000", "190813.725000", "190814.185000", "190814.645000", "190815.105000", "190815.565000", "190816.025000", "190816.485000", "190816.945000", "190817.405000", "190817.865000", "190818.325000", "190818.785000", "190819.245000", "190819.705000", "190820.165000", "190820.625000", "190821.085000", "190821.545000", "190822.005000", "190822.465000", "190822.925000", "190823.385000", "190823.845000", "190824.305000", "190824.765000", "190825.225000", "190825.685000", "190826.145000", "190826.605000", "190827.065000", "190827.525000", "190827.985000", "190828.445000", "190828.905000", "190829.365000", "190829.825000", "190830.285000", "190830.745000", "190831.205000", "190831.665000", "190832.125000", "190832.585000", "190833.045000", "190833.505000", "190833.965000", "190834.425000", "190834.885000", "190835.345000", "190835.805000", "190836.265000", "190836.725000", "190837.185000", "190837.645000", "190838.105000", "190838.565000", "190839.025000", "190839.485000", "190839.945000", "190840.405000", "190840.865000", "190841.325000", "190841.785000", "190842.245000", "190842.705000", "190843.165000", "190843.625000", "190844.085000", "190844.545000", "190845.005000", "190845.465000", "190845.925000", "190846.385000", "190846.845000", "190847.305000", "190847.765000", "190848.225000", "190848.685000", "190849.145000", "190849.605000", "190850.065000", "190850.525000", "190850.985000", "190851.445000", "190851.905000", "190852.365000", "190852.825000", "190853.285000", "190853.745000", "190854.205000", "190854.665000", "190855.125000", "190855.585000", "190856.045000", "190856.505000", "190856.965000", "190857.425000", "190857.885000", "190858.345000", "190858.805000", "190859.265000", "190859.725000", "190900.185000", "190900.645000", "190901.105000", "190901.565000", "190902.025000", "190902.485000", "190902.945000", "190903.405000", "190903.865000", "190904.325000", "190904.785000", "190905.245000", "190905.705000", "190906.165000", "190906.625000", "190907.085000", "190907.545000", "190908.005000", "190908.465000", "190908.925000", "190909.385000", "190909.845000", "190910.305000", "190910.765000", "190911.225000", "190911.685000", "190912.145000", "190912.605000", "190913.065000", "190913.525000", "190913.985000", "190914.445000", "190914.905000", "190915.365000", "190915.825000", "190916.285000", "190916.745000", "190917.205000", "190917.665000", "190918.125000", "190918.585000", "190919.045000", "190919.505000", "190919.965000", "190920.425000", "190920.885000", "190921.345000", "190921.805000", "190922.265000", "190922.725000", "190923.185000", "190923.645000", "190924.105000", "190924.565000", "190925.025000", "190925.485000", "190925.945000", "190926.405000", "190926.865000", "190927.325000", "190927.785000", "190928.245000", "190928.705000", "190929.165000", "190929.625000", "190930.085000", "190930.545000", "190931.005000", "190931.465000", "190931.925000", "190932.385000", "190932.845000", "190933.305000", "190933.765000", "190934.225000", "190934.685000", "190935.145000", "190935.605000", "190936.065000", "190936.525000", "190936.985000", "190937.445000", "190937.905000", "190938.365000", "190938.825000", "190939.285000", "190939.745000", "190940.205000", "190940.665000", "190941.125000", "190941.585000", "190942.045000", "190942.505000", "190942.965000", "190943.425000", "190943.885000", "190944.345000", "190944.805000", "190945.265000", "190945.725000", "190946.185000", "190946.645000", "190947.105000", "190947.565000", "190948.025000", "190948.485000", "190948.945000", "190949.405000", "190949.865000", "190950.325000", "190950.785000", "190951.245000", "190951.705000", "190952.165000", "190952.625000", "190953.085000", "190953.545000", "190954.005000", "190954.465000", "190954.925000", "190955.385000", "190955.845000", "190956.305000", "190956.765000", "190957.225000", "190957.685000", "190958.145000", "190958.605000", "190959.065000", "190959.525000", "190959.985000", "191000.445000", "191000.905000", "191001.365000", "191001.825000", "191002.285000", "191002.745000", "191003.205000", "191003.665000", "191004.125000", "191004.585000", "191005.045000", "191005.505000", "191005.965000", "191006.425000", "191006.885000", "191007.345000", "191007.805000", "191008.265000", "191008.725000", "191009.185000", "191009.645000", "191010.105000", "191010.565000", "191011.025000", "191011.485000", "191011.945000", "191012.405000", "191012.865000", "191013.325000", "191013.785000", "191014.245000", "191014.705000", "191015.165000", "191015.625000", "191016.085000", "191016.545000", "191017.005000", "191017.465000", "191017.925000", "191018.385000", "191018.845000", "191019.305000", "191019.765000", "191020.225000", "191020.685000", "191021.145000", "191021.605000", "191022.065000", "191022.525000", "191022.985000", "191023.445000", "191023.905000", "191024.365000", "191024.825000", "191025.285000", "191025.745000", "191026.205000", "191026.665000", "191027.125000", "191027.585000", "191028.045000", "191028.505000", "191028.965000", "191029.425000", "191029.885000", "191030.345000", "191030.805000", "191031.265000", "191031.725000", "191032.185000", "191032.645000", "191033.105000", "191033.565000", "191034.025000", "191034.485000", "191034.945000", "191035.405000", "191035.865000", "191036.325000", "191036.785000", "191037.245000", "191037.705000", "191038.165000", "191038.625000", "191039.085000", "191039.545000", "191040.005000", "191040.465000", "191040.925000", "191041.385000", "191041.845000", "191042.305000", "191042.765000", "191043.225000", "191043.685000", "191044.145000", "191044.605000", "191045.065000", "191045.525000", "191045.985000", "191046.445000", "191046.905000", "191047.365000", "191047.825000", "191048.285000", "191048.745000", "191049.205000", "191049.665000", "191050.125000", "191050.585000", "191051.045000", "191051.505000", "191051.965000", "191052.425000", "191052.885000", "191053.345000", "191053.805000", "191054.265000", "191054.725000", "191055.185000", "191055.645000", "191056.105000", "191056.565000", "191057.025000", "191057.485000", "191057.945000", "191058.405000", "191058.865000", "191059.325000", "191059.785000", "191100.245000", "191100.705000", "191101.165000", "191101.625000", "191102.085000", "191102.545000", "191103.005000", "191103.465000", "191103.925000", "191104.385000", "191104.845000", "191105.305000", "191105.765000", "191106.225000", "191106.685000", "191107.145000", "191107.605000", "191108.065000", "191108.525000", "191108.985000", "191109.445000", "191109.905000", "191110.365000", "191110.825000", "191111.285000", "191111.745000", "191112.205000", "191112.665000", "191113.125000", "191113.585000", "191114.045000", "191114.505000", "191114.965000", "191115.425000", "191115.885000", "191116.345000", "191116.805000", "191117.265000", "191117.725000", "191118.185000", "191118.645000", "191119.105000", "191119.565000", "191120.025000", "191120.485000", "191120.945000", "191121.405000", "191121.865000", "191122.325000", "191122.785000", "191123.245000", "191123.705000", "191124.165000", "191124.625000", "191125.085000", "191125.545000", "191126.005000", "191126.465000", "191126.925000", "191127.385000", "191127.845000", "191128.305000", "191128.765000", "191129.225000", "191129.685000", "191130.145000", "191130.605000", "191131.065000", "191131.525000", "191131.985000", "191132.445000", "191132.905000", "191133.365000", "191133.825000", "191134.285000", "191134.745000", "191135.205000", "191135.665000", "191136.125000", "191136.585000", "191137.045000", "191137.505000", "191137.965000", "191138.425000", "191138.885000", "191139.345000", "191139.805000", "191140.265000", "191140.725000", "191141.185000", "191141.645000", "191142.105000", "191142.565000", "191143.025000", "191143.485000", "191143.945000", "191144.405000", "191144.865000", "191145.325000", "191145.785000", "191146.245000", "191146.705000", "191147.165000", "191147.625000", "191148.085000", "191148.545000", "191149.005000", "191149.465000", "191149.925000", "191150.385000", "191150.845000", "191151.305000", "191151.765000", "191152.225000", "191152.685000", "191153.145000", "191153.605000", "191154.065000", "191154.525000", "191154.985000", "191155.445000", "191155.905000", "191156.365000", "191156.825000", "191157.285000", "191157.745000", "191158.205000", "191158.665000", "191159.125000", "191159.585000", "191200.045000", "191200.505000", "191200.965000", "191201.425000", "191201.885000", "191202.345000", "191202.805000", "191203.265000", "191203.725000", "191204.185000", "191204.645000", "191205.105000", "191205.565000", "191206.025000", "191206.485000", "191206.945000", "191207.405000", "191207.865000", "191208.325000", "191208.785000", "191209.245000", "191209.705000", "191210.165000", "191210.625000", "191211.085000", "191211.545000", "191212.005000", "191212.465000", "191212.925000", "191213.385000", "191213.845000", "191214.305000", "191214.765000", "191215.225000", "191215.685000", "191216.145000", "191216.605000", "191217.065000", "191217.525000", "191217.985000", "191218.445000", "191218.905000", "191219.365000", "191219.825000", "191220.285000", "191220.745000", "191221.205000", "191221.665000", "191222.125000", "191222.585000", "191223.045000", "191223.505000", "191223.965000", "191224.425000", "191224.885000", "191225.345000", "191225.805000", "191226.265000", "191226.725000", "191227.185000", "191227.645000", "191228.105000"],
