{
  "AcquisitionMatrixPE": 82,
  "AcquisitionNumber": 1,
  "AcquisitionTime": "18:51:39.987500",
  "BandwidthPerPixelPhaseEncode": 24.888,
  "BaseResolution": 82,
  "BodyPartExamined": "BRAIN",
  "ConsistencyInfo": "N4_VE11E_LATEST_20181129",
  "ConversionSoftware": "dcm2niix",
  "ConversionSoftwareVersion": "v1.0.20201102",
  "DerivedVendorReportedEchoSpacing": 0.00049,
  "DeviceSerialNumber": "66112",
  "DwellTime": 2e-06,
  "EchoTime": 0.0272,
  "EchoTrainLength": 82,
  "EffectiveEchoSpacing": 0.00049,
  "FlipAngle": 44,
  "ImageComments": "Unaliased MB8/PE3",
  "ImageOrientationPatientDICOM": [0.998995, 0.00472661, 0.0445807, -0.0137751, 0.978682, 0.204918],
  "ImageType": [
    "ORIGINAL",
    "PRIMARY",
    "M",
    "MB",
    "ND",
    "NORM",
    "MOSAIC"
],
  "ImagingFrequency": 123.252,
  "InPlanePhaseEncodingDirectionDICOM": "COL",
  "InstitutionAddress": "Maynard 3,Hanover,NH,US,03755",
  "InstitutionName": "Dartmouth College - PBS",
  "InstitutionalDepartmentName": "Department",
  "MRAcquisitionType": "2D",
  "MagneticFieldStrength": 3,
  "Manufacturer": "Siemens",
  "ManufacturersModelName": "Prisma",
  "Modality": "MR",
  "MultibandAccelerationFactor": 8,
  "PartialFourier": 1,
  "PatientPosition": "HFS",
  "PercentPhaseFOV": 100,
  "PercentSampling": 100,
  "PhaseEncodingDirection": "j-",
  "PhaseEncodingSteps": 82,
  "PhaseResolution": 1,
  "PixelBandwidth": 3050,
  "ProcedureStepDescription": "Wager_Wager^1076_spacetop",
  "ProtocolName": "func_run-01_task-social_acq-ap-mb8",
  "PulseSequenceDetails": "%CustomerSeq%\\cmrr_mbep2d_bold",
  "ReceiveCoilActiveElements": "HEA;HEP",
  "ReceiveCoilName": "Head_32",
  "ReconMatrixPE": 82,
  "RepetitionTime": 0.46,
  "SAR": 0.0937563,
  "ScanOptions": "FS",
  "ScanningSequence": "EP",
  "SequenceName": "epfid2d1_82",
  "SequenceVariant": "SK\\SS",
  "SeriesDescription": "func_run-01_task-social_acq-ap-mb8",
  "SeriesNumber": 8,
  "ShimSetting": [4160, -7789, -7230, 645, -57, -254, 69, 86],
  "SliceThickness": 2.7,
  "SliceTiming": [0, 0.2525, 0.065, 0.315, 0.1275, 0.3775, 0.19, 0, 0.2525, 0.065, 0.315, 0.1275, 0.3775, 0.19, 0, 0.2525, 0.065, 0.315, 0.1275, 0.3775, 0.19, 0, 0.2525, 0.065, 0.315, 0.1275, 0.3775, 0.19, 0, 0.2525, 0.065, 0.315, 0.1275, 0.3775, 0.19, 0, 0.2525, 0.065, 0.315, 0.1275, 0.3775, 0.19, 0, 0.2525, 0.065, 0.315, 0.1275, 0.3775, 0.19, 0, 0.2525, 0.065, 0.315, 0.1275, 0.3775, 0.19],
  "SoftwareVersions": "syngo MR E11",
  "SpacingBetweenSlices": 2.7,
  "StationName": "AWP66112",
  "TaskName": "social",
  "TotalReadoutTime": 0.03969,
  "TxRefAmp": 235.456,
  "WipMemBlock": "c01209d7-bde0-430e-852e-b0b7d03f3910||Sequence: R016 ve11e/master r/434b28f1; Aug  7 2019 18:53:46 by eja",
  "dcmmeta_affine": [
    [-2.680229425430298, -0.03695761039853096, 0.11518687009811401, 112.1882095336914],
    [-0.012681144289672375, 2.625732660293579, 0.5543814301490784, -108.82860565185547],
    [0.1196068674325943, -0.5497810244560242, 2.639960765838623, -32.2681884765625],
    [0.0, 0.0, 0.0, 1.0]
],
  "dcmmeta_reorient_transform": [
    [0.0, -1.0, 0.0, 81.0],
    [1.0, 0.0, 0.0, 0.0],
    [0.0, 0.0, 1.0, 0.0],
    [0.0, 0.0, 0.0, 1.0]
],
  "dcmmeta_shape": [82, 82, 56, 872],
  "dcmmeta_slice_dim": 2,
  "dcmmeta_version": 0.6,
  "global": {
    "const": {
      "AccessionNumber": "A004054",
      "AcquisitionMatrix": [82, 0, 0, 82],
      "AngioFlag": "N",
      "BitsAllocated": 16,
      "BitsStored": 16,
      "BodyPartExamined": "BRAIN",
      "Columns": 656,
      "EchoNumbers": 1,
      "EchoTime": 27.2,
      "EchoTrainLength": 82,
      "FlipAngle": 44.0,
      "HighBit": 15,
      "ImageOrientationPatient": [0.99899460301503, 0.00472660818468, 0.04458073936035, -0.0137751095814, 0.97868212467218, 0.20491838668888],
      "ImagePositionPatient": [-867.81366948448, -861.08047546712, -268.91478501666],
      "ImageType": [
        "ORIGINAL",
        "PRIMARY",
        "M",
        "MB",
        "ND",
        "NORM",
        "MOSAIC"
],
      "ImagedNucleus": "1H",
      "ImagingFrequency": 123.252139,
      "InPlanePhaseEncodingDirection": "COL",
      "MRAcquisitionType": "2D",
      "MagneticFieldStrength": 3.0,
      "Manufacturer": "SIEMENS",
      "ManufacturerModelName": "Prisma",
      "Modality": "MR",
      "NumberOfAverages": 1.0,
      "NumberOfPhaseEncodingSteps": 82,
      "PercentPhaseFieldOfView": 100.0,
      "PercentSampling": 100.0,
      "PerformedProcedureStepStartTime": "182105.699000",
      "PhotometricInterpretation": "MONOCHROME2",
      "PixelBandwidth": 3050.0,
      "PixelRepresentation": 0,
      "PixelSpacing": [2.6829268932343, 2.6829268932343],
      "ProtocolName": "func_run-01_task-social_acq-ap-mb8",
      "RepetitionTime": 460.0,
      "Rows": 656,
      "SAR": 0.09375626448961,
      "SamplesPerPixel": 1,
      "ScanOptions": "FS",
      "ScanningSequence": "EP",
      "SequenceName": "epfid2d1_82",
      "SequenceVariant": [
        "SK",
        "SS"
],
      "SeriesDescription": "func_run-01_task-social_acq-ap-mb8",
      "SeriesNumber": 8,
      "SeriesTime": "185157.772000",
      "SliceLocation": -49.109891325402,
      "SliceThickness": 2.7000000476837,
      "SmallestImagePixelValue": 0,
      "SoftwareVersions": "syngo MR E11",
      "SpacingBetweenSlices": 2.699999932369,
      "SpecificCharacterSet": "ISO_IR 100",
      "StudyID": "3",
      "StudyTime": "182105.624000",
      "TransmitCoilName": "Body",
      "VariableFlipAngleFlag": "N",
      "WindowCenterWidthExplanation": "Algo1"
    },
    "slices": {}
  },
  "time": {
    "samples": {
      "AcquisitionNumber": [1, 2, 3, 4, 5, 6, 7, 8, 9, 10, 11, 12, 13, 14, 15, 16, 17, 18, 19, 20, 21, 22, 23, 24, 25, 26, 27, 28, 29, 30, 31, 32, 33, 34, 35, 36, 37, 38, 39, 40, 41, 42, 43, 44, 45, 46, 47, 48, 49, 50, 51, 52, 53, 54, 55, 56, 57, 58, 59, 60, 61, 62, 63, 64, 65, 66, 67, 68, 69, 70, 71, 72, 73, 74, 75, 76, 77, 78, 79, 80, 81, 82, 83, 84, 85, 86, 87, 88, 89, 90, 91, 92, 93, 94, 95, 96, 97, 98, 99, 100, 101, 102, 103, 104, 105, 106, 107, 108, 109, 110, 111, 112, 113, 114, 115, 116, 117, 118, 119, 120, 121, 122, 123, 124, 125, 126, 127, 128, 129, 130, 131, 132, 133, 134, 135, 136, 137, 138, 139, 140, 141, 142, 143, 144, 145, 146, 147, 148, 149, 150, 151, 152, 153, 154, 155, 156, 157, 158, 159, 160, 161, 162, 163, 164, 165, 166, 167, 168, 169, 170, 171, 172, 173, 174, 175, 176, 177, 178, 179, 180, 181, 182, 183, 184, 185, 186, 187, 188, 189, 190, 191, 192, 193, 194, 195, 196, 197, 198, 199, 200, 201, 202, 203, 204, 205, 206, 207, 208, 209, 210, 211, 212, 213, 214, 215, 216, 217, 218, 219, 220, 221, 222, 223, 224, 225, 226, 227, 228, 229, 230, 231, 232, 233, 234, 235, 236, 237, 238, 239, 240, 241, 242, 243, 244, 245, 246, 247, 248, 249, 250, 251, 252, 253, 254, 255, 256, 257, 258, 259, 260, 261, 262, 263, 264, 265, 266, 267, 268, 269, 270, 271, 272, 273, 274, 275, 276, 277, 278, 279, 280, 281, 282, 283, 284, 285, 286, 287, 288, 289, 290, 291, 292, 293, 294, 295, 296, 297, 298, 299, 300, 301, 302, 303, 304, 305, 306, 307, 308, 309, 310, 311, 312, 313, 314, 315, 316, 317, 318, 319, 320, 321, 322, 323, 324, 325, 326, 327, 328, 329, 330, 331, 332, 333, 334, 335, 336, 337, 338, 339, 340, 341, 342, 343, 344, 345, 346, 347, 348, 349, 350, 351, 352, 353, 354, 355, 356, 357, 358, 359, 360, 361, 362, 363, 364, 365, 366, 367, 368, 369, 370, 371, 372, 373, 374, 375, 376, 377, 378, 379, 380, 381, 382, 383, 384, 385, 386, 387, 388, 389, 390, 391, 392, 393, 394, 395, 396, 397, 398, 399, 400, 401, 402, 403, 404, 405, 406, 407, 408, 409, 410, 411, 412, 413, 414, 415, 416, 417, 418, 419, 420, 421, 422, 423, 424, 425, 426, 427, 428, 429, 430, 431, 432, 433, 434, 435, 436, 437, 438, 439, 440, 441, 442, 443, 444, 445, 446, 447, 448, 449, 450, 451, 452, 453, 454, 455, 456, 457, 458, 459, 460, 461, 462, 463, 464, 465, 466, 467, 468, 469, 470, 471, 472, 473, 474, 475, 476, 477, 478, 479, 480, 481, 482, 483, 484, 485, 486, 487, 488, 489, 490, 491, 492, 493, 494, 495, 496, 497, 498, 499, 500, 501, 502, 503, 504, 505, 506, 507, 508, 509, 510, 511, 512, 513, 514, 515, 516, 517, 518, 519, 520, 521, 522, 523, 524, 525, 526, 527, 528, 529, 530, 531, 532, 533, 534, 535, 536, 537, 538, 539, 540, 541, 542, 543, 544, 545, 546, 547, 548, 549, 550, 551, 552, 553, 554, 555, 556, 557, 558, 559, 560, 561, 562, 563, 564, 565, 566, 567, 568, 569, 570, 571, 572, 573, 574, 575, 576, 577, 578, 579, 580, 581, 582, 583, 584, 585, 586, 587, 588, 589, 590, 591, 592, 593, 594, 595, 596, 597, 598, 599, 600, 601, 602, 603, 604, 605, 606, 607, 608, 609, 610, 611, 612, 613, 614, 615, 616, 617, 618, 619, 620, 621, 622, 623, 624, 625, 626, 627, 628, 629, 630, 631, 632, 633, 634, 635, 636, 637, 638, 639, 640, 641, 642, 643, 644, 645, 646, 647, 648, 649, 650, 651, 652, 653, 654, 655, 656, 657, 658, 659, 660, 661, 662, 663, 664, 665, 666, 667, 668, 669, 670, 671, 672, 673, 674, 675, 676, 677, 678, 679, 680, 681, 682, 683, 684, 685, 686, 687, 688, 689, 690, 691, 692, 693, 694, 695, 696, 697, 698, 699, 700, 701, 702, 703, 704, 705, 706, 707, 708, 709, 710, 711, 712, 713, 714, 715, 716, 717, 718, 719, 720, 721, 722, 723, 724, 725, 726, 727, 728, 729, 730, 731, 732, 733, 734, 735, 736, 737, 738, 739, 740, 741, 742, 743, 744, 745, 746, 747, 748, 749, 750, 751, 752, 753, 754, 755, 756, 757, 758, 759, 760, 761, 762, 763, 764, 765, 766, 767, 768, 769, 770, 771, 772, 773, 774, 775, 776, 777, 778, 779, 780, 781, 782, 783, 784, 785, 786, 787, 788, 789, 790, 791, 792, 793, 794, 795, 796, 797, 798, 799, 800, 801, 802, 803, 804, 805, 806, 807, 808, 809, 810, 811, 812, 813, 814, 815, 816, 817, 818, 819, 820, 821, 822, 823, 824, 825, 826, 827, 828, 829, 830, 831, 832, 833, 834, 835, 836, 837, 838, 839, 840, 841, 842, 843, 844, 845, 846, 847, 848, 849, 850, 851, 852, 853, 854, 855, 856, 857, 858, 859, 860, 861, 862, 863, 864, 865, 866, 867, 868, 869, 870, 871, 872],
      "AcquisitionTime": ["185139.987500", "185140.447500", "185140.907500", "185141.367500", "185141.827500", "185142.287500", "185142.747500", "185143.207500", "185143.667500", "185144.127500", "185144.587500", "185145.047500", "185145.507500", "185145.967500", "185146.427500", "185146.887500", "185147.347500", "185147.807500", "185148.267500", "185148.727500", "185149.187500", "185149.647500", "185150.107500", "185150.567500", "185151.027500", "185151.487500", "185151.947500", "185152.407500", "185152.867500", "185153.327500", "185153.787500", "185154.247500", "185154.707500", "185155.167500", "185155.627500", "185156.087500", "185156.547500", "185157.007500", "185157.467500", "185157.927500", "185158.387500", "185158.847500", "185159.307500", "185159.767500", "185200.227500", "185200.687500", "185201.147500", "185201.607500", "185202.067500", "185202.527500", "185202.987500", "185203.447500", "185203.907500", "185204.367500", "185204.827500", "185205.287500", "185205.747500", "185206.207500", "185206.667500", "185207.127500", "185207.587500", "185208.047500", "185208.507500", "185208.967500", "185209.427500", "185209.887500", "185210.347500", "185210.807500", "185211.267500", "185211.727500", "185212.187500", "185212.647500", "185213.107500", "185213.567500", "185214.027500", "185214.487500", "185214.947500", "185215.407500", "185215.867500", "185216.327500", "185216.787500", "185217.247500", "185217.707500", "185218.167500", "185218.627500", "185219.087500", "185219.547500", "185220.007500", "185220.467500", "185220.927500", "185221.387500", "185221.847500", "185222.307500", "185222.767500", "185223.227500", "185223.687500", "185224.147500", "185224.607500", "185225.067500", "185225.527500", "185225.987500", "185226.447500", "185226.907500", "185227.367500", "185227.827500", "185228.287500", "185228.747500", "185229.207500", "185229.667500", "185230.127500", "185230.587500", "185231.047500", "185231.507500", "185231.967500", "185232.427500", "185232.887500", "185233.347500", "185233.807500", "185234.267500", "185234.727500", "185235.187500", "185235.647500", "185236.107500", "185236.567500", "185237.027500", "185237.487500", "185237.947500", "185238.407500", "185238.867500", "185239.327500", "185239.787500", "185240.247500", "185240.707500", "185241.167500", "185241.627500", "185242.087500", "185242.547500", "185243.007500", "185243.467500", "185243.927500", "185244.387500", "185244.847500", "185245.307500", "185245.767500", "185246.227500", "185246.687500", "185247.147500", "185247.607500", "185248.067500", "185248.527500", "185248.987500", "185249.447500", "185249.907500", "185250.367500", "185250.827500", "185251.287500", "185251.747500", "185252.207500", "185252.667500", "185253.127500", "185253.587500", "185254.047500", "185254.507500", "185254.967500", "185255.427500", "185255.887500", "185256.347500", "185256.807500", "185257.267500", "185257.727500", "185258.187500", "185258.647500", "185259.107500", "185259.567500", "185300.027500", "185300.487500", "185300.947500", "185301.407500", "185301.867500", "185302.327500", "185302.787500", "185303.247500", "185303.707500", "185304.167500", "185304.627500", "185305.087500", "185305.547500", "185306.007500", "185306.467500", "185306.927500", "185307.387500", "185307.847500", "185308.307500", "185308.767500", "185309.227500", "185309.687500", "185310.147500", "185310.607500", "185311.067500", "185311.527500", "185311.987500", "185312.447500", "185312.907500", "185313.367500", "185313.827500", "185314.287500", "185314.747500", "185315.207500", "185315.667500", "185316.127500", "185316.587500", "185317.047500", "185317.507500", "185317.967500", "185318.427500", "185318.887500", "185319.347500", "185319.807500", "185320.267500", "185320.727500", "185321.187500", "185321.647500", "185322.107500", "185322.567500", "185323.027500", "185323.487500", "185323.947500", "185324.407500", "185324.867500", "185325.327500", "185325.787500", "185326.247500", "185326.707500", "185327.167500", "185327.627500", "185328.087500", "185328.547500", "185329.007500", "185329.467500", "185329.927500", "185330.387500", "185330.847500", "185331.307500", "185331.767500", "185332.227500", "185332.687500", "185333.147500", "185333.607500", "185334.067500", "185334.527500", "185334.987500", "185335.447500", "185335.907500", "185336.367500", "185336.827500", "185337.287500", "185337.747500", "185338.207500", "185338.667500", "185339.127500", "185339.587500", "185340.047500", "185340.507500", "185340.967500", "185341.427500", "185341.887500", "185342.347500", "185342.807500", "185343.267500", "185343.727500", "185344.187500", "185344.647500", "185345.107500", "185345.567500", "185346.027500", "185346.487500", "185346.947500", "185347.407500", "185347.867500", "185348.327500", "185348.787500", "185349.247500", "185349.707500", "185350.167500", "185350.627500", "185351.087500", "185351.547500", "185352.007500", "185352.467500", "185352.927500", "185353.387500", "185353.847500", "185354.307500", "185354.767500", "185355.227500", "185355.687500", "185356.147500", "185356.607500", "185357.067500", "185357.527500", "185357.987500", "185358.447500", "185358.907500", "185359.367500", "185359.827500", "185400.287500", "185400.747500", "185401.207500", "185401.667500", "185402.127500", "185402.587500", "185403.047500", "185403.507500", "185403.967500", "185404.427500", "185404.887500", "185405.347500", "185405.807500", "185406.267500", "185406.727500", "185407.187500", "185407.647500", "185408.107500", "185408.567500", "185409.027500", "185409.487500", "185409.947500", "185410.407500", "185410.867500", "185411.327500", "185411.787500", "185412.247500", "185412.707500", "185413.167500", "185413.627500", "185414.087500", "185414.547500", "185415.007500", "185415.467500", "185415.927500", "185416.387500", "185416.847500", "185417.307500", "185417.767500", "185418.227500", "185418.687500", "185419.147500", "185419.607500", "185420.067500", "185420.527500", "185420.987500", "185421.447500", "185421.907500", "185422.367500", "185422.827500", "185423.287500", "185423.747500", "185424.207500", "185424.667500", "185425.127500", "185425.587500", "185426.047500", "185426.507500", "185426.967500", "185427.427500", "185427.887500", "185428.347500", "185428.807500", "185429.267500", "185429.727500", "185430.187500", "185430.647500", "185431.107500", "185431.567500", "185432.027500", "185432.487500", "185432.947500", "185433.407500", "185433.867500", "185434.327500", "185434.787500", "185435.247500", "185435.707500", "185436.167500", "185436.627500", "185437.087500", "185437.547500", "185438.007500", "185438.467500", "185438.927500", "185439.387500", "185439.847500", "185440.307500", "185440.767500", "185441.227500", "185441.687500", "185442.147500", "185442.607500", "185443.067500", "185443.527500", "185443.987500", "185444.447500", "185444.907500", "185445.367500", "185445.827500", "185446.287500", "185446.747500", "185447.207500", "185447.667500", "185448.127500", "185448.587500", "185449.047500", "185449.507500", "185449.967500", "185450.427500", "185450.887500", "185451.347500", "185451.807500", "185452.267500", "185452.727500", "185453.187500", "185453.647500", "185454.107500", "185454.567500", "185455.027500", "185455.487500", "185455.947500", "185456.407500", "185456.867500", "185457.327500", "185457.787500", "185458.247500", "185458.707500", "185459.167500", "185459.627500", "185500.087500", "185500.547500", "185501.007500", "185501.467500", "185501.927500", "185502.387500", "185502.847500", "185503.307500", "185503.767500", "185504.227500", "185504.687500", "185505.147500", "185505.607500", "185506.067500", "185506.527500", "185506.987500", "185507.447500", "185507.907500", "185508.367500", "185508.827500", "185509.287500", "185509.747500", "185510.207500", "185510.667500", "185511.127500", "185511.587500", "185512.047500", "185512.507500", "185512.967500", "185513.427500", "185513.887500", "185514.347500", "185514.807500", "185515.267500", "185515.727500", "185516.187500", "185516.647500", "185517.107500", "185517.567500", "185518.027500", "185518.487500", "185518.947500", "185519.407500", "185519.867500", "185520.327500", "185520.787500", "185521.247500", "185521.707500", "185522.167500", "185522.627500", "185523.087500", "185523.547500", "185524.007500", "185524.467500", "185524.927500", "185525.387500", "185525.847500", "185526.307500", "185526.767500", "185527.227500", "185527.687500", "185528.147500", "185528.607500", "185529.067500", "185529.527500", "185529.987500", "185530.447500", "185530.907500", "185531.367500", "185531.827500", "185532.287500", "185532.747500", "185533.207500", "185533.667500", "185534.127500", "185534.587500", "185535.047500", "185535.507500", "185535.967500", "185536.427500", "185536.887500", "185537.347500", "185537.807500", "185538.267500", "185538.727500", "185539.187500", "185539.647500", "185540.107500", "185540.567500", "185541.027500", "185541.487500", "185541.947500", "185542.407500", "185542.867500", "185543.327500", "185543.787500", "185544.247500", "185544.707500", "185545.167500", "185545.627500", "185546.087500", "185546.547500", "185547.007500", "185547.467500", "185547.927500", "185548.387500", "185548.847500", "185549.307500", "185549.767500", "185550.227500", "185550.687500", "185551.147500", "185551.607500", "185552.067500", "185552.527500", "185552.987500", "185553.447500", "185553.907500", "185554.367500", "185554.827500", "185555.287500", "185555.747500", "185556.207500", "185556.667500", "185557.127500", "185557.587500", "185558.047500", "185558.507500", "185558.967500", "185559.427500", "185559.887500", "185600.347500", "185600.807500", "185601.267500", "185601.727500", "185602.187500", "185602.647500", "185603.107500", "185603.567500", "185604.027500", "185604.487500", "185604.947500", "185605.407500", "185605.867500", "185606.327500", "185606.787500", "185607.247500", "185607.707500", "185608.167500", "185608.627500", "185609.087500", "185609.547500", "185610.007500", "185610.467500", "185610.927500", "185611.387500", "185611.847500", "185612.307500", "185612.767500", "185613.227500", "185613.687500", "185614.147500", "185614.607500", "185615.067500", "185615.527500", "185615.987500", "185616.447500", "185616.907500", "185617.367500", "185617.827500", "185618.287500", "185618.747500", "185619.207500", "185619.667500", "185620.127500", "185620.587500", "185621.047500", "185621.507500", "185621.967500", "185622.427500", "185622.887500", "185623.347500", "185623.807500", "185624.267500", "185624.727500", "185625.187500", "185625.647500", "185626.107500", "185626.567500", "185627.027500", "185627.487500", "185627.947500", "185628.407500", "185628.867500", "185629.327500", "185629.787500", "185630.247500", "185630.707500", "185631.167500", "185631.627500", "185632.087500", "185632.547500", "185633.007500", "185633.467500", "185633.927500", "185634.387500", "185634.847500", "185635.307500", "185635.767500", "185636.227500", "185636.687500", "185637.147500", "185637.607500", "185638.067500", "185638.527500", "185638.987500", "185639.447500", "185639.907500", "185640.367500", "185640.827500", "185641.287500", "185641.747500", "185642.207500", "185642.667500", "185643.127500", "185643.587500", "185644.047500", "185644.507500", "185644.967500", "185645.427500", "185645.887500", "185646.347500", "185646.807500", "185647.267500", "185647.727500", "185648.187500", "185648.647500", "185649.107500", "185649.567500", "185650.027500", "185650.487500", "185650.947500", "185651.407500", "185651.867500", "185652.327500", "185652.787500", "185653.247500", "185653.707500", "185654.167500", "185654.627500", "185655.087500", "185655.547500", "185656.007500", "185656.467500", "185656.927500", "185657.387500", "185657.847500", "185658.307500", "185658.767500", "185659.227500", "185659.687500", "185700.147500", "185700.607500", "185701.067500", "185701.527500", "185701.987500", "185702.447500", "185702.907500", "185703.367500", "185703.827500", "185704.287500", "185704.747500", "185705.207500", "185705.667500", "185706.127500", "185706.587500", "185707.047500", "185707.507500", "185707.967500", "185708.427500", "185708.887500", "185709.347500", "185709.807500", "185710.267500", "185710.727500", "185711.187500", "185711.647500", "185712.107500", "185712.567500", "185713.027500", "185713.487500", "185713.947500", "185714.407500", "185714.867500", "185715.327500", "185715.787500", "185716.247500", "185716.707500", "185717.167500", "185717.627500", "185718.087500", "185718.547500", "185719.007500", "185719.467500", "185719.927500", "185720.387500", "185720.847500", "185721.307500", "185721.767500", "185722.227500", "185722.687500", "185723.147500", "185723.607500", "185724.067500", "185724.527500", "185724.987500", "185725.447500", "185725.907500", "185726.367500", "185726.827500", "185727.287500", "185727.747500", "185728.207500", "185728.667500", "185729.127500", "185729.587500", "185730.047500", "185730.507500", "185730.967500", "185731.427500", "185731.887500", "185732.347500", "185732.807500", "185733.267500", "185733.727500", "185734.187500", "185734.647500", "185735.107500", "185735.567500", "185736.027500", "185736.487500", "185736.947500", "185737.407500", "185737.867500", "185738.327500", "185738.787500", "185739.247500", "185739.707500", "185740.167500", "185740.627500", "185741.087500", "185741.547500", "185742.007500", "185742.467500", "185742.927500", "185743.387500", "185743.847500", "185744.307500", "185744.767500", "185745.227500", "185745.687500", "185746.147500", "185746.607500", "185747.067500", "185747.527500", "185747.987500", "185748.447500", "185748.907500", "185749.367500", "185749.827500", "185750.287500", "185750.747500", "185751.207500", "185751.667500", "185752.127500", "185752.587500", "185753.047500", "185753.507500", "185753.967500", "185754.427500", "185754.887500", "185755.347500", "185755.807500", "185756.267500", "185756.727500", "185757.187500", "185757.647500", "185758.107500", "185758.567500", "185759.027500", "185759.487500", "185759.947500", "185800.407500", "185800.867500", "185801.327500", "185801.787500", "185802.247500", "185802.707500", "185803.167500", "185803.627500", "185804.087500", "185804.547500", "185805.007500", "185805.467500", "185805.927500", "185806.387500", "185806.847500", "185807.307500", "185807.767500", "185808.227500", "185808.687500", "185809.147500", "185809.607500", "185810.067500", "185810.527500", "185810.987500", "185811.447500", "185811.907500", "185812.367500", "185812.827500", "185813.287500", "185813.747500", "185814.207500", "185814.667500", "185815.127500", "185815.587500", "185816.047500", "185816.507500", "185816.967500", "185817.427500", "185817.887500", "185818.347500", "185818.807500", "185819.267500", "185819.727500", "185820.187500", "185820.647500"],
