{
  "AcquisitionMatrixPE": 82,
  "AcquisitionNumber": 1,
  "AcquisitionTime": "19:20:0.535000",
  "BandwidthPerPixelPhaseEncode": 24.888,
  "BaseResolution": 82,
  "BodyPartExamined": "BRAIN",
  "ConsistencyInfo": "N4_VE11E_LATEST_20181129",
  "ConversionSoftware": "dcm2niix",
  "ConversionSoftwareVersion": "v1.0.20201102",
  "DerivedVendorReportedEchoSpacing": 0.00049,
  "DeviceSerialNumber": "66112",
  "DwellTime": 2e-06,
  "EchoTime": 0.0272,
  "EchoTrainLength": 82,
  "EffectiveEchoSpacing": 0.00049,
  "FlipAngle": 44,
  "ImageComments": "Unaliased MB8/PE3",
  "ImageOrientationPatientDICOM": [0.998995, 0.00472661, 0.0445807, -0.0137751, 0.978682, 0.204918],
  "ImageType": [
    "ORIGINAL",
    "PRIMARY",
    "M",
    "MB",
    "ND",
    "NORM",
    "MOSAIC"
],
  "ImagingFrequency": 123.252,
  "InPlanePhaseEncodingDirectionDICOM": "COL",
  "InstitutionAddress": "Maynard 3,Hanover,NH,US,03755",
  "InstitutionName": "Dartmouth College - PBS",
  "InstitutionalDepartmentName": "Department",
  "MRAcquisitionType": "2D",
  "MagneticFieldStrength": 3,
  "Manufacturer": "Siemens",
  "ManufacturersModelName": "Prisma",
  "Modality": "MR",
  "MultibandAccelerationFactor": 8,
  "PartialFourier": 1,
  "PatientPosition": "HFS",
  "PercentPhaseFOV": 100,
  "PercentSampling": 100,
  "PhaseEncodingDirection": "j-",
  "PhaseEncodingSteps": 82,
  "PhaseResolution": 1,
  "PixelBandwidth": 3050,
  "ProcedureStepDescription": "Wager_Wager^1076_spacetop",
  "ProtocolName": "func_run-05_task-social_acq-ap-mb8",
  "PulseSequenceDetails": "%CustomerSeq%\\cmrr_mbep2d_bold",
  "ReceiveCoilActiveElements": "HEA;HEP",
  "ReceiveCoilName": "Head_32",
  "ReconMatrixPE": 82,
  "RepetitionTime": 0.46,
  "SAR": 0.0937563,
  "ScanOptions": "FS",
  "ScanningSequence": "EP",
  "SequenceName": "epfid2d1_82",
  "SequenceVariant": "SK\\SS",
  "SeriesDescription": "func_run-05_task-social_acq-ap-mb8",
  "SeriesNumber": 16,
  "ShimSetting": [4160, -7789, -7230, 645, -57, -254, 69, 86],
  "SliceThickness": 2.7,
  "SliceTiming": [0, 0.2525, 0.0625, 0.315, 0.1275, 0.3775, 0.19, 0, 0.2525, 0.0625, 0.315, 0.1275, 0.3775, 0.19, 0, 0.2525, 0.0625, 0.315, 0.1275, 0.3775, 0.19, 0, 0.2525, 0.0625, 0.315, 0.1275, 0.3775, 0.19, 0, 0.2525, 0.0625, 0.315, 0.1275, 0.3775, 0.19, 0, 0.2525, 0.0625, 0.315, 0.1275, 0.3775, 0.19, 0, 0.2525, 0.0625, 0.315, 0.1275, 0.3775, 0.19, 0, 0.2525, 0.0625, 0.315, 0.1275, 0.3775, 0.19],
  "SoftwareVersions": "syngo MR E11",
  "SpacingBetweenSlices": 2.7,
  "StationName": "AWP66112",
  "TaskName": "social",
  "TotalReadoutTime": 0.03969,
  "TxRefAmp": 235.456,
  "WipMemBlock": "a2bac100-2f9b-4184-ada1-238f3f46b416||Sequence: R016 ve11e/master r/434b28f1; Aug  7 2019 18:53:46 by eja",
  "dcmmeta_affine": [
    [-2.680229425430298, -0.03695761039853096, 0.11518687009811401, 112.1882095336914],
    [-0.012681144289672375, 2.625732660293579, 0.5543814301490784, -108.82860565185547],
    [0.1196068674325943, -0.5497810244560242, 2.639960765838623, -32.2681884765625],
    [0.0, 0.0, 0.0, 1.0]
],
  "dcmmeta_reorient_transform": [
    [0.0, -1.0, 0.0, 81.0],
    [1.0, 0.0, 0.0, 0.0],
    [0.0, 0.0, 1.0, 0.0],
    [0.0, 0.0, 0.0, 1.0]
],
  "dcmmeta_shape": [82, 82, 56, 872],
  "dcmmeta_slice_dim": 2,
  "dcmmeta_version": 0.6,
  "global": {
    "const": {
      "AccessionNumber": "A004054",
      "AcquisitionMatrix": [82, 0, 0, 82],
      "AngioFlag": "N",
      "BitsAllocated": 16,
      "BitsStored": 16,
      "BodyPartExamined": "BRAIN",
      "Columns": 656,
      "EchoNumbers": 1,
      "EchoTime": 27.2,
      "EchoTrainLength": 82,
      "FlipAngle": 44.0,
      "HighBit": 15,
      "ImageOrientationPatient": [0.99899460301503, 0.00472660818468, 0.04458073936035, -0.0137751095814, 0.97868212467218, 0.20491838668888],
      "ImagePositionPatient": [-867.81366948448, -861.08047546712, -268.91478501666],
      "ImageType": [
        "ORIGINAL",
        "PRIMARY",
        "M",
        "MB",
        "ND",
        "NORM",
        "MOSAIC"
],
      "ImagedNucleus": "1H",
      "ImagingFrequency": 123.252166,
      "InPlanePhaseEncodingDirection": "COL",
      "MRAcquisitionType": "2D",
      "MagneticFieldStrength": 3.0,
      "Manufacturer": "SIEMENS",
      "ManufacturerModelName": "Prisma",
      "Modality": "MR",
      "NumberOfAverages": 1.0,
      "NumberOfPhaseEncodingSteps": 82,
      "PercentPhaseFieldOfView": 100.0,
      "PercentSampling": 100.0,
      "PerformedProcedureStepStartTime": "182105.699000",
      "PhotometricInterpretation": "MONOCHROME2",
      "PixelBandwidth": 3050.0,
      "PixelRepresentation": 0,
      "PixelSpacing": [2.6829268932343, 2.6829268932343],
      "ProtocolName": "func_run-05_task-social_acq-ap-mb8",
      "RepetitionTime": 460.0,
      "Rows": 656,
      "SAR": 0.09375626448961,
      "SamplesPerPixel": 1,
      "ScanOptions": "FS",
      "ScanningSequence": "EP",
      "SequenceName": "epfid2d1_82",
      "SequenceVariant": [
        "SK",
        "SS"
],
      "SeriesDescription": "func_run-05_task-social_acq-ap-mb8",
      "SeriesNumber": 16,
      "SeriesTime": "192017.589000",
      "SliceLocation": -49.109891325402,
      "SliceThickness": 2.7000000476837,
      "SmallestImagePixelValue": 0,
      "SoftwareVersions": "syngo MR E11",
      "SpacingBetweenSlices": 2.699999932369,
      "SpecificCharacterSet": "ISO_IR 100",
      "StudyID": "3",
      "StudyTime": "182105.624000",
      "TransmitCoilName": "Body",
      "VariableFlipAngleFlag": "N",
      "WindowCenterWidthExplanation": "Algo1"
    },
    "slices": {}
  },
  "time": {
    "samples": {
      "AcquisitionNumber": [1, 2, 3, 4, 5, 6, 7, 8, 9, 10, 11, 12, 13, 14, 15, 16, 17, 18, 19, 20, 21, 22, 23, 24, 25, 26, 27, 28, 29, 30, 31, 32, 33, 34, 35, 36, 37, 38, 39, 40, 41, 42, 43, 44, 45, 46, 47, 48, 49, 50, 51, 52, 53, 54, 55, 56, 57, 58, 59, 60, 61, 62, 63, 64, 65, 66, 67, 68, 69, 70, 71, 72, 73, 74, 75, 76, 77, 78, 79, 80, 81, 82, 83, 84, 85, 86, 87, 88, 89, 90, 91, 92, 93, 94, 95, 96, 97, 98, 99, 100, 101, 102, 103, 104, 105, 106, 107, 108, 109, 110, 111, 112, 113, 114, 115, 116, 117, 118, 119, 120, 121, 122, 123, 124, 125, 126, 127, 128, 129, 130, 131, 132, 133, 134, 135, 136, 137, 138, 139, 140, 141, 142, 143, 144, 145, 146, 147, 148, 149, 150, 151, 152, 153, 154, 155, 156, 157, 158, 159, 160, 161, 162, 163, 164, 165, 166, 167, 168, 169, 170, 171, 172, 173, 174, 175, 176, 177, 178, 179, 180, 181, 182, 183, 184, 185, 186, 187, 188, 189, 190, 191, 192, 193, 194, 195, 196, 197, 198, 199, 200, 201, 202, 203, 204, 205, 206, 207, 208, 209, 210, 211, 212, 213, 214, 215, 216, 217, 218, 219, 220, 221, 222, 223, 224, 225, 226, 227, 228, 229, 230, 231, 232, 233, 234, 235, 236, 237, 238, 239, 240, 241, 242, 243, 244, 245, 246, 247, 248, 249, 250, 251, 252, 253, 254, 255, 256, 257, 258, 259, 260, 261, 262, 263, 264, 265, 266, 267, 268, 269, 270, 271, 272, 273, 274, 275, 276, 277, 278, 279, 280, 281, 282, 283, 284, 285, 286, 287, 288, 289, 290, 291, 292, 293, 294, 295, 296, 297, 298, 299, 300, 301, 302, 303, 304, 305, 306, 307, 308, 309, 310, 311, 312, 313, 314, 315, 316, 317, 318, 319, 320, 321, 322, 323, 324, 325, 326, 327, 328, 329, 330, 331, 332, 333, 334, 335, 336, 337, 338, 339, 340, 341, 342, 343, 344, 345, 346, 347, 348, 349, 350, 351, 352, 353, 354, 355, 356, 357, 358, 359, 360, 361, 362, 363, 364, 365, 366, 367, 368, 369, 370, 371, 372, 373, 374, 375, 376, 377, 378, 379, 380, 381, 382, 383, 384, 385, 386, 387, 388, 389, 390, 391, 392, 393, 394, 395, 396, 397, 398, 399, 400, 401, 402, 403, 404, 405, 406, 407, 408, 409, 410, 411, 412, 413, 414, 415, 416, 417, 418, 419, 420, 421, 422, 423, 424, 425, 426, 427, 428, 429, 430, 431, 432, 433, 434, 435, 436, 437, 438, 439, 440, 441, 442, 443, 444, 445, 446, 447, 448, 449, 450, 451, 452, 453, 454, 455, 456, 457, 458, 459, 460, 461, 462, 463, 464, 465, 466, 467, 468, 469, 470, 471, 472, 473, 474, 475, 476, 477, 478, 479, 480, 481, 482, 483, 484, 485, 486, 487, 488, 489, 490, 491, 492, 493, 494, 495, 496, 497, 498, 499, 500, 501, 502, 503, 504, 505, 506, 507, 508, 509, 510, 511, 512, 513, 514, 515, 516, 517, 518, 519, 520, 521, 522, 523, 524, 525, 526, 527, 528, 529, 530, 531, 532, 533, 534, 535, 536, 537, 538, 539, 540, 541, 542, 543, 544, 545, 546, 547, 548, 549, 550, 551, 552, 553, 554, 555, 556, 557, 558, 559, 560, 561, 562, 563, 564, 565, 566, 567, 568, 569, 570, 571, 572, 573, 574, 575, 576, 577, 578, 579, 580, 581, 582, 583, 584, 585, 586, 587, 588, 589, 590, 591, 592, 593, 594, 595, 596, 597, 598, 599, 600, 601, 602, 603, 604, 605, 606, 607, 608, 609, 610, 611, 612, 613, 614, 615, 616, 617, 618, 619, 620, 621, 622, 623, 624, 625, 626, 627, 628, 629, 630, 631, 632, 633, 634, 635, 636, 637, 638, 639, 640, 641, 642, 643, 644, 645, 646, 647, 648, 649, 650, 651, 652, 653, 654, 655, 656, 657, 658, 659, 660, 661, 662, 663, 664, 665, 666, 667, 668, 669, 670, 671, 672, 673, 674, 675, 676, 677, 678, 679, 680, 681, 682, 683, 684, 685, 686, 687, 688, 689, 690, 691, 692, 693, 694, 695, 696, 697, 698, 699, 700, 701, 702, 703, 704, 705, 706, 707, 708, 709, 710, 711, 712, 713, 714, 715, 716, 717, 718, 719, 720, 721, 722, 723, 724, 725, 726, 727, 728, 729, 730, 731, 732, 733, 734, 735, 736, 737, 738, 739, 740, 741, 742, 743, 744, 745, 746, 747, 748, 749, 750, 751, 752, 753, 754, 755, 756, 757, 758, 759, 760, 761, 762, 763, 764, 765, 766, 767, 768, 769, 770, 771, 772, 773, 774, 775, 776, 777, 778, 779, 780, 781, 782, 783, 784, 785, 786, 787, 788, 789, 790, 791, 792, 793, 794, 795, 796, 797, 798, 799, 800, 801, 802, 803, 804, 805, 806, 807, 808, 809, 810, 811, 812, 813, 814, 815, 816, 817, 818, 819, 820, 821, 822, 823, 824, 825, 826, 827, 828, 829, 830, 831, 832, 833, 834, 835, 836, 837, 838, 839, 840, 841, 842, 843, 844, 845, 846, 847, 848, 849, 850, 851, 852, 853, 854, 855, 856, 857, 858, 859, 860, 861, 862, 863, 864, 865, 866, 867, 868, 869, 870, 871, 872],
      "AcquisitionTime": ["192000.535000", "192000.995000", "192001.455000", "192001.915000", "192002.375000", "192002.835000", "192003.295000", "192003.755000", "192004.215000", "192004.675000", "192005.135000", "192005.595000", "192006.055000", "192006.515000", "192006.975000", "192007.435000", "192007.895000", "192008.355000", "192008.815000", "192009.275000", "192009.735000", "192010.195000", "192010.655000", "192011.115000", "192011.575000", "192012.035000", "192012.495000", "192012.955000", "192013.415000", "192013.875000", "192014.335000", "192014.795000", "192015.255000", "192015.715000", "192016.175000", "192016.635000", "192017.095000", "192017.555000", "192018.015000", "192018.475000", "192018.935000", "192019.395000", "192019.855000", "192020.315000", "192020.775000", "192021.235000", "192021.695000", "192022.155000", "192022.615000", "192023.075000", "192023.535000", "192023.995000", "192024.455000", "192024.915000", "192025.375000", "192025.835000", "192026.295000", "192026.755000", "192027.215000", "192027.675000", "192028.135000", "192028.595000", "192029.055000", "192029.515000", "192029.975000", "192030.435000", "192030.895000", "192031.355000", "192031.815000", "192032.275000", "192032.735000", "192033.195000", "192033.655000", "192034.115000", "192034.575000", "192035.035000", "192035.495000", "192035.955000", "192036.415000", "192036.875000", "192037.335000", "192037.795000", "192038.255000", "192038.715000", "192039.175000", "192039.635000", "192040.095000", "192040.555000", "192041.015000", "192041.475000", "192041.935000", "192042.395000", "192042.855000", "192043.315000", "192043.775000", "192044.235000", "192044.695000", "192045.155000", "192045.615000", "192046.075000", "192046.535000", "192046.995000", "192047.455000", "192047.915000", "192048.375000", "192048.835000", "192049.295000", "192049.755000", "192050.215000", "192050.675000", "192051.135000", "192051.595000", "192052.055000", "192052.515000", "192052.975000", "192053.435000", "192053.895000", "192054.355000", "192054.815000", "192055.275000", "192055.735000", "192056.195000", "192056.655000", "192057.115000", "192057.575000", "192058.035000", "192058.495000", "192058.955000", "192059.415000", "192059.875000", "192100.335000", "192100.795000", "192101.255000", "192101.715000", "192102.175000", "192102.635000", "192103.095000", "192103.555000", "192104.015000", "192104.475000", "192104.935000", "192105.395000", "192105.855000", "192106.315000", "192106.775000", "192107.235000", "192107.695000", "192108.155000", "192108.615000", "192109.075000", "192109.535000", "192109.995000", "192110.455000", "192110.915000", "192111.375000", "192111.835000", "192112.295000", "192112.755000", "192113.215000", "192113.675000", "192114.135000", "192114.595000", "192115.055000", "192115.515000", "192115.975000", "192116.435000", "192116.895000", "192117.355000", "192117.815000", "192118.275000", "192118.735000", "192119.195000", "192119.655000", "192120.115000", "192120.575000", "192121.035000", "192121.495000", "192121.955000", "192122.415000", "192122.875000", "192123.335000", "192123.795000", "192124.255000", "192124.715000", "192125.175000", "192125.635000", "192126.095000", "192126.555000", "192127.015000", "192127.475000", "192127.935000", "192128.395000", "192128.855000", "192129.315000", "192129.775000", "192130.235000", "192130.695000", "192131.155000", "192131.615000", "192132.075000", "192132.535000", "192132.995000", "192133.455000", "192133.915000", "192134.375000", "192134.835000", "192135.295000", "192135.755000", "192136.215000", "192136.675000", "192137.135000", "192137.595000", "192138.055000", "192138.515000", "192138.975000", "192139.435000", "192139.895000", "192140.355000", "192140.815000", "192141.275000", "192141.735000", "192142.195000", "192142.655000", "192143.115000", "192143.575000", "192144.035000", "192144.495000", "192144.955000", "192145.415000", "192145.875000", "192146.335000", "192146.795000", "192147.255000", "192147.715000", "192148.175000", "192148.635000", "192149.095000", "192149.555000", "192150.015000", "192150.475000", "192150.935000", "192151.395000", "192151.855000", "192152.315000", "192152.775000", "192153.235000", "192153.695000", "192154.155000", "192154.615000", "192155.075000", "192155.535000", "192155.995000", "192156.455000", "192156.915000", "192157.375000", "192157.835000", "192158.295000", "192158.755000", "192159.215000", "192159.675000", "192200.135000", "192200.595000", "192201.055000", "192201.515000", "192201.975000", "192202.435000", "192202.895000", "192203.355000", "192203.815000", "192204.275000", "192204.735000", "192205.195000", "192205.655000", "192206.115000", "192206.575000", "192207.035000", "192207.495000", "192207.955000", "192208.415000", "192208.875000", "192209.335000", "192209.795000", "192210.255000", "192210.715000", "192211.175000", "192211.635000", "192212.095000", "192212.555000", "192213.015000", "192213.475000", "192213.935000", "192214.395000", "192214.855000", "192215.315000", "192215.775000", "192216.235000", "192216.695000", "192217.155000", "192217.615000", "192218.075000", "192218.535000", "192218.995000", "192219.455000", "192219.915000", "192220.375000", "192220.835000", "192221.295000", "192221.755000", "192222.215000", "192222.675000", "192223.135000", "192223.595000", "192224.055000", "192224.515000", "192224.975000", "192225.435000", "192225.895000", "192226.355000", "192226.815000", "192227.275000", "192227.735000", "192228.195000", "192228.655000", "192229.115000", "192229.575000", "192230.035000", "192230.495000", "192230.955000", "192231.415000", "192231.875000", "192232.335000", "192232.795000", "192233.255000", "192233.715000", "192234.175000", "192234.635000", "192235.095000", "192235.555000", "192236.015000", "192236.475000", "192236.935000", "192237.395000", "192237.855000", "192238.315000", "192238.775000", "192239.235000", "192239.695000", "192240.155000", "192240.615000", "192241.075000", "192241.535000", "192241.995000", "192242.455000", "192242.915000", "192243.375000", "192243.835000", "192244.295000", "192244.755000", "192245.215000", "192245.675000", "192246.135000", "192246.595000", "192247.055000", "192247.515000", "192247.975000", "192248.435000", "192248.895000", "192249.355000", "192249.815000", "192250.275000", "192250.735000", "192251.195000", "192251.655000", "192252.115000", "192252.575000", "192253.035000", "192253.495000", "192253.955000", "192254.415000", "192254.875000", "192255.335000", "192255.795000", "192256.255000", "192256.715000", "192257.175000", "192257.635000", "192258.095000", "192258.555000", "192259.015000", "192259.475000", "192259.935000", "192300.395000", "192300.855000", "192301.315000", "192301.775000", "192302.235000", "192302.695000", "192303.155000", "192303.615000", "192304.075000", "192304.535000", "192304.995000", "192305.455000", "192305.915000", "192306.375000", "192306.835000", "192307.295000", "192307.755000", "192308.215000", "192308.675000", "192309.135000", "192309.595000", "192310.055000", "192310.515000", "192310.975000", "192311.435000", "192311.895000", "192312.355000", "192312.815000", "192313.275000", "192313.735000", "192314.195000", "192314.655000", "192315.115000", "192315.575000", "192316.035000", "192316.495000", "192316.955000", "192317.415000", "192317.875000", "192318.335000", "192318.795000", "192319.255000", "192319.715000", "192320.175000", "192320.635000", "192321.095000", "192321.555000", "192322.015000", "192322.475000", "192322.935000", "192323.395000", "192323.855000", "192324.315000", "192324.775000", "192325.235000", "192325.695000", "192326.155000", "192326.615000", "192327.075000", "192327.535000", "192327.995000", "192328.455000", "192328.915000", "192329.375000", "192329.835000", "192330.295000", "192330.755000", "192331.215000", "192331.675000", "192332.135000", "192332.595000", "192333.055000", "192333.515000", "192333.975000", "192334.435000", "192334.895000", "192335.355000", "192335.815000", "192336.275000", "192336.735000", "192337.195000", "192337.655000", "192338.115000", "192338.575000", "192339.035000", "192339.495000", "192339.955000", "192340.415000", "192340.875000", "192341.335000", "192341.795000", "192342.255000", "192342.715000", "192343.175000", "192343.635000", "192344.095000", "192344.555000", "192345.015000", "192345.475000", "192345.935000", "192346.395000", "192346.855000", "192347.315000", "192347.775000", "192348.235000", "192348.695000", "192349.155000", "192349.615000", "192350.075000", "192350.535000", "192350.995000", "192351.455000", "192351.915000", "192352.375000", "192352.835000", "192353.295000", "192353.755000", "192354.215000", "192354.675000", "192355.135000", "192355.595000", "192356.055000", "192356.515000", "192356.975000", "192357.435000", "192357.895000", "192358.355000", "192358.815000", "192359.275000", "192359.735000", "192400.195000", "192400.655000", "192401.115000", "192401.575000", "192402.035000", "192402.495000", "192402.955000", "192403.415000", "192403.875000", "192404.335000", "192404.795000", "192405.255000", "192405.715000", "192406.175000", "192406.635000", "192407.095000", "192407.555000", "192408.015000", "192408.475000", "192408.935000", "192409.395000", "192409.855000", "192410.315000", "192410.775000", "192411.235000", "192411.695000", "192412.155000", "192412.615000", "192413.075000", "192413.535000", "192413.995000", "192414.455000", "192414.915000", "192415.375000", "192415.835000", "192416.295000", "192416.755000", "192417.215000", "192417.675000", "192418.135000", "192418.595000", "192419.055000", "192419.515000", "192419.975000", "192420.435000", "192420.895000", "192421.355000", "192421.815000", "192422.275000", "192422.735000", "192423.195000", "192423.655000", "192424.115000", "192424.575000", "192425.035000", "192425.495000", "192425.955000", "192426.415000", "192426.875000", "192427.335000", "192427.795000", "192428.255000", "192428.715000", "192429.175000", "192429.635000", "192430.095000", "192430.555000", "192431.015000", "192431.475000", "192431.935000", "192432.395000", "192432.855000", "192433.315000", "192433.775000", "192434.235000", "192434.695000", "192435.155000", "192435.615000", "192436.075000", "192436.535000", "192436.995000", "192437.455000", "192437.915000", "192438.375000", "192438.835000", "192439.295000", "192439.755000", "192440.215000", "192440.675000", "192441.135000", "192441.595000", "192442.055000", "192442.515000", "192442.975000", "192443.435000", "192443.895000", "192444.355000", "192444.815000", "192445.275000", "192445.735000", "192446.195000", "192446.655000", "192447.115000", "192447.575000", "192448.035000", "192448.495000", "192448.955000", "192449.415000", "192449.875000", "192450.335000", "192450.795000", "192451.255000", "192451.715000", "192452.175000", "192452.635000", "192453.095000", "192453.555000", "192454.015000", "192454.475000", "192454.935000", "192455.395000", "192455.855000", "192456.315000", "192456.775000", "192457.235000", "192457.695000", "192458.155000", "192458.615000", "192459.075000", "192459.535000", "192459.995000", "192500.455000", "192500.915000", "192501.375000", "192501.835000", "192502.295000", "192502.755000", "192503.215000", "192503.675000", "192504.135000", "192504.595000", "192505.055000", "192505.515000", "192505.975000", "192506.435000", "192506.895000", "192507.355000", "192507.815000", "192508.275000", "192508.735000", "192509.195000", "192509.655000", "192510.115000", "192510.575000", "192511.035000", "192511.495000", "192511.955000", "192512.415000", "192512.875000", "192513.335000", "192513.795000", "192514.255000", "192514.715000", "192515.175000", "192515.635000", "192516.095000", "192516.555000", "192517.015000", "192517.475000", "192517.935000", "192518.395000", "192518.855000", "192519.315000", "192519.775000", "192520.235000", "192520.695000", "192521.155000", "192521.615000", "192522.075000", "192522.535000", "192522.995000", "192523.455000", "192523.915000", "192524.375000", "192524.835000", "192525.295000", "192525.755000", "192526.215000", "192526.675000", "192527.135000", "192527.595000", "192528.055000", "192528.515000", "192528.975000", "192529.435000", "192529.895000", "192530.355000", "192530.815000", "192531.275000", "192531.735000", "192532.195000", "192532.655000", "192533.115000", "192533.575000", "192534.035000", "192534.495000", "192534.955000", "192535.415000", "192535.875000", "192536.335000", "192536.795000", "192537.255000", "192537.715000", "192538.175000", "192538.635000", "192539.095000", "192539.555000", "192540.015000", "192540.475000", "192540.935000", "192541.395000", "192541.855000", "192542.315000", "192542.775000", "192543.235000", "192543.695000", "192544.155000", "192544.615000", "192545.075000", "192545.535000", "192545.995000", "192546.455000", "192546.915000", "192547.375000", "192547.835000", "192548.295000", "192548.755000", "192549.215000", "192549.675000", "192550.135000", "192550.595000", "192551.055000", "192551.515000", "192551.975000", "192552.435000", "192552.895000", "192553.355000", "192553.815000", "192554.275000", "192554.735000", "192555.195000", "192555.655000", "192556.115000", "192556.575000", "192557.035000", "192557.495000", "192557.955000", "192558.415000", "192558.875000", "192559.335000", "192559.795000", "192600.255000", "192600.715000", "192601.175000", "192601.635000", "192602.095000", "192602.555000", "192603.015000", "192603.475000", "192603.935000", "192604.395000", "192604.855000", "192605.315000", "192605.775000", "192606.235000", "192606.695000", "192607.155000", "192607.615000", "192608.075000", "192608.535000", "192608.995000", "192609.455000", "192609.915000", "192610.375000", "192610.835000", "192611.295000", "192611.755000", "192612.215000", "192612.675000", "192613.135000", "192613.595000", "192614.055000", "192614.515000", "192614.975000", "192615.435000", "192615.895000", "192616.355000", "192616.815000", "192617.275000", "192617.735000", "192618.195000", "192618.655000", "192619.115000", "192619.575000", "192620.035000", "192620.495000", "192620.955000", "192621.415000", "192621.875000", "192622.335000", "192622.795000", "192623.255000", "192623.715000", "192624.175000", "192624.635000", "192625.095000", "192625.555000", "192626.015000", "192626.475000", "192626.935000", "192627.395000", "192627.855000", "192628.315000", "192628.775000", "192629.235000", "192629.695000", "192630.155000", "192630.615000", "192631.075000", "192631.535000", "192631.995000", "192632.455000", "192632.915000", "192633.375000", "192633.835000", "192634.295000", "192634.755000", "192635.215000", "192635.675000", "192636.135000", "192636.595000", "192637.055000", "192637.515000", "192637.975000", "192638.435000", "192638.895000", "192639.355000", "192639.815000", "192640.275000", "192640.735000", "192641.195000"],
