{
  "AcquisitionMatrixPE": 82,
  "AcquisitionNumber": 1,
  "AcquisitionTime": "18:47:30.500000",
  "BandwidthPerPixelPhaseEncode": 24.888,
  "BaseResolution": 82,
  "BodyPartExamined": "BRAIN",
  "ConsistencyInfo": "N4_VE11E_LATEST_20181129",
  "ConversionSoftware": "dcm2niix",
  "ConversionSoftwareVersion": "v1.0.20201102",
  "DerivedVendorReportedEchoSpacing": 0.00049,
  "DeviceSerialNumber": "66112",
  "DwellTime": 2e-06,
  "EchoTime": 0.0272,
  "EchoTrainLength": 82,
  "EffectiveEchoSpacing": 0.00049,
  "FlipAngle": 44,
  "ImageComments": "Unaliased MB8/PE3",
  "ImageOrientationPatientDICOM": [0.998752, -0.0281777, 0.0412456, 0.0228393, 0.991942, 0.124615],
  "ImageType": [
    "ORIGINAL",
    "PRIMARY",
    "M",
    "MB",
    "ND",
    "NORM",
    "MOSAIC"
],
  "ImagingFrequency": 123.252,
  "InPlanePhaseEncodingDirectionDICOM": "COL",
  "InstitutionAddress": "Maynard 3,Hanover,NH,US,03755",
  "InstitutionName": "Dartmouth College - PBS",
  "InstitutionalDepartmentName": "Department",
  "MRAcquisitionType": "2D",
  "MagneticFieldStrength": 3,
  "Manufacturer": "Siemens",
  "ManufacturersModelName": "Prisma",
  "Modality": "MR",
  "MultibandAccelerationFactor": 8,
  "PartialFourier": 1,
  "PatientPosition": "HFS",
  "PercentPhaseFOV": 100,
  "PercentSampling": 100,
  "PhaseEncodingDirection": "j-",
  "PhaseEncodingSteps": 82,
  "PhaseResolution": 1,
  "PixelBandwidth": 3050,
  "ProcedureStepDescription": "Wager_Wager^1076_spacetop",
  "ProtocolName": "func_run-02_task-narratives_acq-ap-mb8",
  "PulseSequenceDetails": "%CustomerSeq%\\cmrr_mbep2d_bold",
  "ReceiveCoilActiveElements": "HEA;HEP",
  "ReceiveCoilName": "Head_32",
  "ReconMatrixPE": 82,
  "RepetitionTime": 0.46,
  "SAR": 0.114772,
  "ScanOptions": "FS",
  "ScanningSequence": "EP",
  "SequenceName": "epfid2d1_82",
  "SequenceVariant": "SK\\SS",
  "SeriesDescription": "func_run-02_task-narratives_acq-ap-mb8",
  "SeriesNumber": 10,
  "ShimSetting": [4165, -7776, -7222, 578, -42, -85, 45, 87],
  "SliceThickness": 2.7,
  "SliceTiming": [0, 0.2525, 0.0625, 0.315, 0.125, 0.3775, 0.1875, 0, 0.2525, 0.0625, 0.315, 0.125, 0.3775, 0.1875, 0, 0.2525, 0.0625, 0.315, 0.125, 0.3775, 0.1875, 0, 0.2525, 0.0625, 0.315, 0.125, 0.3775, 0.1875, 0, 0.2525, 0.0625, 0.315, 0.125, 0.3775, 0.1875, 0, 0.2525, 0.0625, 0.315, 0.125, 0.3775, 0.1875, 0, 0.2525, 0.0625, 0.315, 0.125, 0.3775, 0.1875, 0, 0.2525, 0.0625, 0.315, 0.125, 0.3775, 0.1875],
  "SoftwareVersions": "syngo MR E11",
  "SpacingBetweenSlices": 2.7,
  "StationName": "AWP66112",
  "TaskName": "narratives",
  "TotalReadoutTime": 0.03969,
  "TxRefAmp": 272.305,
  "WipMemBlock": "949fe662-125d-499f-81e8-a5f96b7d19e6||Sequence: R016 ve11e/master r/434b28f1; Aug  7 2019 18:53:46 by eja",
  "dcmmeta_affine": [
    [-2.679577589035034, 0.06127617508172989, 0.11994653195142746, 105.81131744384766],
    [0.07559862732887268, 2.661308526992798, 0.33349767327308655, -107.08131408691406],
    [0.11065898090600967, -0.334333598613739, 2.676638126373291, -57.053367614746094],
    [0.0, 0.0, 0.0, 1.0]
],
  "dcmmeta_reorient_transform": [
    [0.0, -1.0, 0.0, 81.0],
    [1.0, 0.0, 0.0, 0.0],
    [0.0, 0.0, 1.0, 0.0],
    [0.0, 0.0, 0.0, 1.0]
],
  "dcmmeta_shape": [82, 82, 56, 1098],
  "dcmmeta_slice_dim": 2,
  "dcmmeta_version": 0.6,
  "global": {
    "const": {
      "AccessionNumber": "A004156",
      "AcquisitionMatrix": [82, 0, 0, 82],
      "AngioFlag": "N",
      "BitsAllocated": 16,
      "BitsStored": 16,
      "BodyPartExamined": "BRAIN",
      "Columns": 656,
      "EchoNumbers": 1,
      "EchoTime": 27.2,
      "EchoTrainLength": 82,
      "FlipAngle": 44.0,
      "HighBit": 15,
      "ImageOrientationPatient": [0.99875162962102, -0.0281776708279, 0.04124562032587, 0.02283930069892, 0.99194223967153, 0.12461524585306],
      "ImagePositionPatient": [-897.39972347166, -850.583407791, -211.84725993122],
      "ImageType": [
        "ORIGINAL",
        "PRIMARY",
        "M",
        "MB",
        "ND",
        "NORM",
        "MOSAIC"
],
      "ImagedNucleus": "1H",
      "ImagingFrequency": 123.252185,
      "InPlanePhaseEncodingDirection": "COL",
      "MRAcquisitionType": "2D",
      "MagneticFieldStrength": 3.0,
      "Manufacturer": "SIEMENS",
      "ManufacturerModelName": "Prisma",
      "Modality": "MR",
      "NumberOfAverages": 1.0,
      "NumberOfPhaseEncodingSteps": 82,
      "PercentPhaseFieldOfView": 100.0,
      "PercentSampling": 100.0,
      "PerformedProcedureStepStartTime": "182213.717000",
      "PhotometricInterpretation": "MONOCHROME2",
      "PixelBandwidth": 3050.0,
      "PixelRepresentation": 0,
      "PixelSpacing": [2.6829268932343, 2.6829268932343],
      "ProtocolName": "func_run-02_task-narratives_acq-ap-mb8",
      "RepetitionTime": 460.0,
      "Rows": 656,
      "SAR": 0.11477248674764,
      "SamplesPerPixel": 1,
      "ScanOptions": "FS",
      "ScanningSequence": "EP",
      "SequenceName": "epfid2d1_82",
      "SequenceVariant": [
        "SK",
        "SS"
],
      "SeriesDescription": "func_run-02_task-narratives_acq-ap-mb8",
      "SeriesNumber": 10,
      "SeriesTime": "184744.684000",
      "SliceLocation": -65.0855175969,
      "SliceThickness": 2.7000000476837,
      "SmallestImagePixelValue": 0,
      "SoftwareVersions": "syngo MR E11",
      "SpacingBetweenSlices": 2.700000023323,
      "SpecificCharacterSet": "ISO_IR 100",
      "StudyID": "1",
      "StudyTime": "182213.663000",
      "TransmitCoilName": "Body",
      "VariableFlipAngleFlag": "N",
      "WindowCenterWidthExplanation": "Algo1"
    },
    "slices": {}
  },
  "time": {
    "samples": {
      "AcquisitionNumber": [1, 2, 3, 4, 5, 6, 7, 8, 9, 10, 11, 12, 13, 14, 15, 16, 17, 18, 19, 20, 21, 22, 23, 24, 25, 26, 27, 28, 29, 30, 31, 32, 33, 34, 35, 36, 37, 38, 39, 40, 41, 42, 43, 44, 45, 46, 47, 48, 49, 50, 51, 52, 53, 54, 55, 56, 57, 58, 59, 60, 61, 62, 63, 64, 65, 66, 67, 68, 69, 70, 71, 72, 73, 74, 75, 76, 77, 78, 79, 80, 81, 82, 83, 84, 85, 86, 87, 88, 89, 90, 91, 92, 93, 94, 95, 96, 97, 98, 99, 100, 101, 102, 103, 104, 105, 106, 107, 108, 109, 110, 111, 112, 113, 114, 115, 116, 117, 118, 119, 120, 121, 122, 123, 124, 125, 126, 127, 128, 129, 130, 131, 132, 133, 134, 135, 136, 137, 138, 139, 140, 141, 142, 143, 144, 145, 146, 147, 148, 149, 150, 151, 152, 153, 154, 155, 156, 157, 158, 159, 160, 161, 162, 163, 164, 165, 166, 167, 168, 169, 170, 171, 172, 173, 174, 175, 176, 177, 178, 179, 180, 181, 182, 183, 184, 185, 186, 187, 188, 189, 190, 191, 192, 193, 194, 195, 196, 197, 198, 199, 200, 201, 202, 203, 204, 205, 206, 207, 208, 209, 210, 211, 212, 213, 214, 215, 216, 217, 218, 219, 220, 221, 222, 223, 224, 225, 226, 227, 228, 229, 230, 231, 232, 233, 234, 235, 236, 237, 238, 239, 240, 241, 242, 243, 244, 245, 246, 247, 248, 249, 250, 251, 252, 253, 254, 255, 256, 257, 258, 259, 260, 261, 262, 263, 264, 265, 266, 267, 268, 269, 270, 271, 272, 273, 274, 275, 276, 277, 278, 279, 280, 281, 282, 283, 284, 285, 286, 287, 288, 289, 290, 291, 292, 293, 294, 295, 296, 297, 298, 299, 300, 301, 302, 303, 304, 305, 306, 307, 308, 309, 310, 311, 312, 313, 314, 315, 316, 317, 318, 319, 320, 321, 322, 323, 324, 325, 326, 327, 328, 329, 330, 331, 332, 333, 334, 335, 336, 337, 338, 339, 340, 341, 342, 343, 344, 345, 346, 347, 348, 349, 350, 351, 352, 353, 354, 355, 356, 357, 358, 359, 360, 361, 362, 363, 364, 365, 366, 367, 368, 369, 370, 371, 372, 373, 374, 375, 376, 377, 378, 379, 380, 381, 382, 383, 384, 385, 386, 387, 388, 389, 390, 391, 392, 393, 394, 395, 396, 397, 398, 399, 400, 401, 402, 403, 404, 405, 406, 407, 408, 409, 410, 411, 412, 413, 414, 415, 416, 417, 418, 419, 420, 421, 422, 423, 424, 425, 426, 427, 428, 429, 430, 431, 432, 433, 434, 435, 436, 437, 438, 439, 440, 441, 442, 443, 444, 445, 446, 447, 448, 449, 450, 451, 452, 453, 454, 455, 456, 457, 458, 459, 460, 461, 462, 463, 464, 465, 466, 467, 468, 469, 470, 471, 472, 473, 474, 475, 476, 477, 478, 479, 480, 481, 482, 483, 484, 485, 486, 487, 488, 489, 490, 491, 492, 493, 494, 495, 496, 497, 498, 499, 500, 501, 502, 503, 504, 505, 506, 507, 508, 509, 510, 511, 512, 513, 514, 515, 516, 517, 518, 519, 520, 521, 522, 523, 524, 525, 526, 527, 528, 529, 530, 531, 532, 533, 534, 535, 536, 537, 538, 539, 540, 541, 542, 543, 544, 545, 546, 547, 548, 549, 550, 551, 552, 553, 554, 555, 556, 557, 558, 559, 560, 561, 562, 563, 564, 565, 566, 567, 568, 569, 570, 571, 572, 573, 574, 575, 576, 577, 578, 579, 580, 581, 582, 583, 584, 585, 586, 587, 588, 589, 590, 591, 592, 593, 594, 595, 596, 597, 598, 599, 600, 601, 602, 603, 604, 605, 606, 607, 608, 609, 610, 611, 612, 613, 614, 615, 616, 617, 618, 619, 620, 621, 622, 623, 624, 625, 626, 627, 628, 629, 630, 631, 632, 633, 634, 635, 636, 637, 638, 639, 640, 641, 642, 643, 644, 645, 646, 647, 648, 649, 650, 651, 652, 653, 654, 655, 656, 657, 658, 659, 660, 661, 662, 663, 664, 665, 666, 667, 668, 669, 670, 671, 672, 673, 674, 675, 676, 677, 678, 679, 680, 681, 682, 683, 684, 685, 686, 687, 688, 689, 690, 691, 692, 693, 694, 695, 696, 697, 698, 699, 700, 701, 702, 703, 704, 705, 706, 707, 708, 709, 710, 711, 712, 713, 714, 715, 716, 717, 718, 719, 720, 721, 722, 723, 724, 725, 726, 727, 728, 729, 730, 731, 732, 733, 734, 735, 736, 737, 738, 739, 740, 741, 742, 743, 744, 745, 746, 747, 748, 749, 750, 751, 752, 753, 754, 755, 756, 757, 758, 759, 760, 761, 762, 763, 764, 765, 766, 767, 768, 769, 770, 771, 772, 773, 774, 775, 776, 777, 778, 779, 780, 781, 782, 783, 784, 785, 786, 787, 788, 789, 790, 791, 792, 793, 794, 795, 796, 797, 798, 799, 800, 801, 802, 803, 804, 805, 806, 807, 808, 809, 810, 811, 812, 813, 814, 815, 816, 817, 818, 819, 820, 821, 822, 823, 824, 825, 826, 827, 828, 829, 830, 831, 832, 833, 834, 835, 836, 837, 838, 839, 840, 841, 842, 843, 844, 845, 846, 847, 848, 849, 850, 851, 852, 853, 854, 855, 856, 857, 858, 859, 860, 861, 862, 863, 864, 865, 866, 867, 868, 869, 870, 871, 872, 873, 874, 875, 876, 877, 878, 879, 880, 881, 882, 883, 884, 885, 886, 887, 888, 889, 890, 891, 892, 893, 894, 895, 896, 897, 898, 899, 900, 901, 902, 903, 904, 905, 906, 907, 908, 909, 910, 911, 912, 913, 914, 915, 916, 917, 918, 919, 920, 921, 922, 923, 924, 925, 926, 927, 928, 929, 930, 931, 932, 933, 934, 935, 936, 937, 938, 939, 940, 941, 942, 943, 944, 945, 946, 947, 948, 949, 950, 951, 952, 953, 954, 955, 956, 957, 958, 959, 960, 961, 962, 963, 964, 965, 966, 967, 968, 969, 970, 971, 972, 973, 974, 975, 976, 977, 978, 979, 980, 981, 982, 983, 984, 985, 986, 987, 988, 989, 990, 991, 992, 993, 994, 995, 996, 997, 998, 999, 1000, 1001, 1002, 1003, 1004, 1005, 1006, 1007, 1008, 1009, 1010, 1011, 1012, 1013, 1014, 1015, 1016, 1017, 1018, 1019, 1020, 1021, 1022, 1023, 1024, 1025, 1026, 1027, 1028, 1029, 1030, 1031, 1032, 1033, 1034, 1035, 1036, 1037, 1038, 1039, 1040, 1041, 1042, 1043, 1044, 1045, 1046, 1047, 1048, 1049, 1050, 1051, 1052, 1053, 1054, 1055, 1056, 1057, 1058, 1059, 1060, 1061, 1062, 1063, 1064, 1065, 1066, 1067, 1068, 1069, 1070, 1071, 1072, 1073, 1074, 1075, 1076, 1077, 1078, 1079, 1080, 1081, 1082, 1083, 1084, 1085, 1086, 1087, 1088, 1089, 1090, 1091, 1092, 1093, 1094, 1095, 1096, 1097, 1098],
      "AcquisitionTime": ["184730.500000", "184730.960000", "184731.420000", "184731.880000", "184732.340000", "184732.800000", "184733.260000", "184733.720000", "184734.180000", "184734.640000", "184735.100000", "184735.560000", "184736.020000", "184736.480000", "184736.940000", "184737.400000", "184737.860000", "184738.320000", "184738.780000", "184739.240000", "184739.700000", "184740.160000", "184740.620000", "184741.080000", "184741.540000", "184742.000000", "184742.460000", "184742.920000", "184743.380000", "184743.840000", "184744.300000", "184744.760000", "184745.220000", "184745.680000", "184746.140000", "184746.600000", "184747.060000", "184747.520000", "184747.980000", "184748.440000", "184748.900000", "184749.360000", "184749.820000", "184750.280000", "184750.740000", "184751.200000", "184751.660000", "184752.120000", "184752.580000", "184753.040000", "184753.500000", "184753.960000", "184754.420000", "184754.880000", "184755.340000", "184755.800000", "184756.260000", "184756.720000", "184757.180000", "184757.640000", "184758.100000", "184758.560000", "184759.020000", "184759.480000", "184759.940000", "184800.400000", "184800.860000", "184801.320000", "184801.780000", "184802.240000", "184802.700000", "184803.160000", "184803.620000", "184804.080000", "184804.540000", "184805.000000", "184805.460000", "184805.920000", "184806.380000", "184806.840000", "184807.300000", "184807.760000", "184808.220000", "184808.680000", "184809.140000", "184809.600000", "184810.060000", "184810.520000", "184810.980000", "184811.440000", "184811.900000", "184812.360000", "184812.820000", "184813.280000", "184813.740000", "184814.200000", "184814.660000", "184815.120000", "184815.580000", "184816.040000", "184816.500000", "184816.960000", "184817.420000", "184817.880000", "184818.340000", "184818.800000", "184819.260000", "184819.720000", "184820.180000", "184820.640000", "184821.100000", "184821.560000", "184822.020000", "184822.480000", "184822.940000", "184823.400000", "184823.860000", "184824.320000", "184824.780000", "184825.240000", "184825.700000", "184826.160000", "184826.620000", "184827.080000", "184827.540000", "184828.000000", "184828.460000", "184828.920000", "184829.380000", "184829.840000", "184830.300000", "184830.760000", "184831.220000", "184831.680000", "184832.140000", "184832.600000", "184833.060000", "184833.520000", "184833.980000", "184834.440000", "184834.900000", "184835.360000", "184835.820000", "184836.280000", "184836.740000", "184837.200000", "184837.660000", "184838.120000", "184838.580000", "184839.040000", "184839.500000", "184839.960000", "184840.420000", "184840.880000", "184841.340000", "184841.800000", "184842.260000", "184842.720000", "184843.180000", "184843.640000", "184844.100000", "184844.560000", "184845.020000", "184845.480000", "184845.940000", "184846.400000", "184846.860000", "184847.320000", "184847.780000", "184848.240000", "184848.700000", "184849.160000", "184849.620000", "184850.080000", "184850.540000", "184851.000000", "184851.460000", "184851.920000", "184852.380000", "184852.840000", "184853.300000", "184853.760000", "184854.220000", "184854.680000", "184855.140000", "184855.600000", "184856.060000", "184856.520000", "184856.980000", "184857.440000", "184857.900000", "184858.360000", "184858.820000", "184859.280000", "184859.740000", "184900.200000", "184900.660000", "184901.120000", "184901.580000", "184902.040000", "184902.500000", "184902.960000", "184903.420000", "184903.880000", "184904.340000", "184904.800000", "184905.260000", "184905.720000", "184906.180000", "184906.640000", "184907.100000", "184907.560000", "184908.020000", "184908.480000", "184908.940000", "184909.400000", "184909.860000", "184910.320000", "184910.780000", "184911.240000", "184911.700000", "184912.160000", "184912.620000", "184913.080000", "184913.540000", "184914.000000", "184914.460000", "184914.920000", "184915.380000", "184915.840000", "184916.300000", "184916.760000", "184917.220000", "184917.680000", "184918.140000", "184918.600000", "184919.060000", "184919.520000", "184919.980000", "184920.440000", "184920.900000", "184921.360000", "184921.820000", "184922.280000", "184922.740000", "184923.200000", "184923.660000", "184924.120000", "184924.580000", "184925.040000", "184925.500000", "184925.960000", "184926.420000", "184926.880000", "184927.340000", "184927.800000", "184928.260000", "184928.720000", "184929.180000", "184929.640000", "184930.100000", "184930.560000", "184931.020000", "184931.480000", "184931.940000", "184932.400000", "184932.860000", "184933.320000", "184933.780000", "184934.240000", "184934.700000", "184935.160000", "184935.620000", "184936.080000", "184936.540000", "184937.000000", "184937.460000", "184937.920000", "184938.380000", "184938.840000", "184939.300000", "184939.760000", "184940.220000", "184940.680000", "184941.140000", "184941.600000", "184942.060000", "184942.520000", "184942.980000", "184943.440000", "184943.900000", "184944.360000", "184944.820000", "184945.280000", "184945.740000", "184946.200000", "184946.660000", "184947.120000", "184947.580000", "184948.040000", "184948.500000", "184948.960000", "184949.420000", "184949.880000", "184950.340000", "184950.800000", "184951.260000", "184951.720000", "184952.180000", "184952.640000", "184953.100000", "184953.560000", "184954.020000", "184954.480000", "184954.940000", "184955.400000", "184955.860000", "184956.320000", "184956.780000", "184957.240000", "184957.700000", "184958.160000", "184958.620000", "184959.080000", "184959.540000", "185000.000000", "185000.460000", "185000.920000", "185001.380000", "185001.840000", "185002.300000", "185002.760000", "185003.220000", "185003.680000", "185004.140000", "185004.600000", "185005.060000", "185005.520000", "185005.980000", "185006.440000", "185006.900000", "185007.360000", "185007.820000", "185008.280000", "185008.740000", "185009.200000", "185009.660000", "185010.120000", "185010.580000", "185011.040000", "185011.500000", "185011.960000", "185012.420000", "185012.880000", "185013.340000", "185013.800000", "185014.260000", "185014.720000", "185015.180000", "185015.640000", "185016.100000", "185016.560000", "185017.020000", "185017.480000", "185017.940000", "185018.400000", "185018.860000", "185019.320000", "185019.780000", "185020.240000", "185020.700000", "185021.160000", "185021.620000", "185022.080000", "185022.540000", "185023.000000", "185023.460000", "185023.920000", "185024.380000", "185024.840000", "185025.300000", "185025.760000", "185026.220000", "185026.680000", "185027.140000", "185027.600000", "185028.060000", "185028.520000", "185028.980000", "185029.440000", "185029.900000", "185030.360000", "185030.820000", "185031.280000", "185031.740000", "185032.200000", "185032.660000", "185033.120000", "185033.580000", "185034.040000", "185034.500000", "185034.960000", "185035.420000", "185035.880000", "185036.340000", "185036.800000", "185037.260000", "185037.720000", "185038.180000", "185038.640000", "185039.100000", "185039.560000", "185040.020000", "185040.480000", "185040.940000", "185041.400000", "185041.860000", "185042.320000", "185042.780000", "185043.240000", "185043.700000", "185044.160000", "185044.620000", "185045.080000", "185045.540000", "185046.000000", "185046.460000", "185046.920000", "185047.380000", "185047.840000", "185048.300000", "185048.760000", "185049.220000", "185049.680000", "185050.140000", "185050.600000", "185051.060000", "185051.520000", "185051.980000", "185052.440000", "185052.900000", "185053.360000", "185053.820000", "185054.280000", "185054.740000", "185055.200000", "185055.660000", "185056.120000", "185056.580000", "185057.040000", "185057.500000", "185057.960000", "185058.420000", "185058.880000", "185059.340000", "185059.800000", "185100.260000", "185100.720000", "185101.180000", "185101.640000", "185102.100000", "185102.560000", "185103.020000", "185103.480000", "185103.940000", "185104.400000", "185104.860000", "185105.320000", "185105.780000", "185106.240000", "185106.700000", "185107.160000", "185107.620000", "185108.080000", "185108.540000", "185109.000000", "185109.460000", "185109.920000", "185110.380000", "185110.840000", "185111.300000", "185111.760000", "185112.220000", "185112.680000", "185113.140000", "185113.600000", "185114.060000", "185114.520000", "185114.980000", "185115.440000", "185115.900000", "185116.360000", "185116.820000", "185117.280000", "185117.740000", "185118.200000", "185118.660000", "185119.120000", "185119.580000", "185120.040000", "185120.500000", "185120.960000", "185121.420000", "185121.880000", "185122.340000", "185122.800000", "185123.260000", "185123.720000", "185124.180000", "185124.640000", "185125.100000", "185125.560000", "185126.020000", "185126.480000", "185126.940000", "185127.400000", "185127.860000", "185128.320000", "185128.780000", "185129.240000", "185129.700000", "185130.160000", "185130.620000", "185131.080000", "185131.540000", "185132.000000", "185132.460000", "185132.920000", "185133.380000", "185133.840000", "185134.300000", "185134.760000", "185135.220000", "185135.680000", "185136.140000", "185136.600000", "185137.060000", "185137.520000", "185137.980000", "185138.440000", "185138.900000", "185139.360000", "185139.820000", "185140.280000", "185140.740000", "185141.200000", "185141.660000", "185142.120000", "185142.580000", "185143.040000", "185143.500000", "185143.960000", "185144.420000", "185144.880000", "185145.340000", "185145.800000", "185146.260000", "185146.720000", "185147.180000", "185147.640000", "185148.100000", "185148.560000", "185149.020000", "185149.480000", "185149.940000", "185150.400000", "185150.860000", "185151.320000", "185151.780000", "185152.240000", "185152.700000", "185153.160000", "185153.620000", "185154.080000", "185154.540000", "185155.000000", "185155.460000", "185155.920000", "185156.380000", "185156.840000", "185157.300000", "185157.760000", "185158.220000", "185158.680000", "185159.140000", "185159.600000", "185200.060000", "185200.520000", "185200.980000", "185201.440000", "185201.900000", "185202.360000", "185202.820000", "185203.280000", "185203.740000", "185204.200000", "185204.660000", "185205.120000", "185205.580000", "185206.040000", "185206.500000", "185206.960000", "185207.420000", "185207.880000", "185208.340000", "185208.800000", "185209.260000", "185209.720000", "185210.180000", "185210.640000", "185211.100000", "185211.560000", "185212.020000", "185212.480000", "185212.940000", "185213.400000", "185213.860000", "185214.320000", "185214.780000", "185215.240000", "185215.700000", "185216.160000", "185216.620000", "185217.080000", "185217.540000", "185218.000000", "185218.460000", "185218.920000", "185219.380000", "185219.840000", "185220.300000", "185220.760000", "185221.220000", "185221.680000", "185222.140000", "185222.600000", "185223.060000", "185223.520000", "185223.980000", "185224.440000", "185224.900000", "185225.360000", "185225.820000", "185226.280000", "185226.740000", "185227.200000", "185227.660000", "185228.120000", "185228.580000", "185229.040000", "185229.500000", "185229.960000", "185230.420000", "185230.880000", "185231.340000", "185231.800000", "185232.260000", "185232.720000", "185233.180000", "185233.640000", "185234.100000", "185234.560000", "185235.020000", "185235.480000", "185235.940000", "185236.400000", "185236.860000", "185237.320000", "185237.780000", "185238.240000", "185238.700000", "185239.160000", "185239.620000", "185240.080000", "185240.540000", "185241.000000", "185241.460000", "185241.920000", "185242.380000", "185242.840000", "185243.300000", "185243.760000", "185244.220000", "185244.680000", "185245.140000", "185245.600000", "185246.060000", "185246.520000", "185246.980000", "185247.440000", "185247.900000", "185248.360000", "185248.820000", "185249.280000", "185249.740000", "185250.200000", "185250.660000", "185251.120000", "185251.580000", "185252.040000", "185252.500000", "185252.960000", "185253.420000", "185253.880000", "185254.340000", "185254.800000", "185255.260000", "185255.720000", "185256.180000", "185256.640000", "185257.100000", "185257.560000", "185258.020000", "185258.480000", "185258.940000", "185259.400000", "185259.860000", "185300.320000", "185300.780000", "185301.240000", "185301.700000", "185302.160000", "185302.620000", "185303.080000", "185303.540000", "185304.000000", "185304.460000", "185304.920000", "185305.380000", "185305.840000", "185306.300000", "185306.760000", "185307.220000", "185307.680000", "185308.140000", "185308.600000", "185309.060000", "185309.520000", "185309.980000", "185310.440000", "185310.900000", "185311.360000", "185311.820000", "185312.280000", "185312.740000", "185313.200000", "185313.660000", "185314.120000", "185314.580000", "185315.040000", "185315.500000", "185315.960000", "185316.420000", "185316.880000", "185317.340000", "185317.800000", "185318.260000", "185318.720000", "185319.180000", "185319.640000", "185320.100000", "185320.560000", "185321.020000", "185321.480000", "185321.940000", "185322.400000", "185322.860000", "185323.320000", "185323.780000", "185324.240000", "185324.700000", "185325.160000", "185325.620000", "185326.080000", "185326.540000", "185327.000000", "185327.460000", "185327.920000", "185328.380000", "185328.840000", "185329.300000", "185329.760000", "185330.220000", "185330.680000", "185331.140000", "185331.600000", "185332.060000", "185332.520000", "185332.980000", "185333.440000", "185333.900000", "185334.360000", "185334.820000", "185335.280000", "185335.740000", "185336.200000", "185336.660000", "185337.120000", "185337.580000", "185338.040000", "185338.500000", "185338.960000", "185339.420000", "185339.880000", "185340.340000", "185340.800000", "185341.260000", "185341.720000", "185342.180000", "185342.640000", "185343.100000", "185343.560000", "185344.020000", "185344.480000", "185344.940000", "185345.400000", "185345.860000", "185346.320000", "185346.780000", "185347.240000", "185347.700000", "185348.160000", "185348.620000", "185349.080000", "185349.540000", "185350.000000", "185350.460000", "185350.920000", "185351.380000", "185351.840000", "185352.300000", "185352.760000", "185353.220000", "185353.680000", "185354.140000", "185354.600000", "185355.060000", "185355.520000", "185355.980000", "185356.440000", "185356.900000", "185357.360000", "185357.820000", "185358.280000", "185358.740000", "185359.200000", "185359.660000", "185400.120000", "185400.580000", "185401.040000", "185401.500000", "185401.960000", "185402.420000", "185402.880000", "185403.340000", "185403.800000", "185404.260000", "185404.720000", "185405.180000", "185405.640000", "185406.100000", "185406.560000", "185407.020000", "185407.480000", "185407.940000", "185408.400000", "185408.860000", "185409.320000", "185409.780000", "185410.240000", "185410.700000", "185411.160000", "185411.620000", "185412.080000", "185412.540000", "185413.000000", "185413.460000", "185413.920000", "185414.380000", "185414.840000", "185415.300000", "185415.760000", "185416.220000", "185416.680000", "185417.140000", "185417.600000", "185418.060000", "185418.520000", "185418.980000", "185419.440000", "185419.900000", "185420.360000", "185420.820000", "185421.280000", "185421.740000", "185422.200000", "185422.660000", "185423.120000", "185423.580000", "185424.040000", "185424.500000", "185424.960000", "185425.420000", "185425.880000", "185426.340000", "185426.800000", "185427.260000", "185427.720000", "185428.180000", "185428.640000", "185429.100000", "185429.560000", "185430.020000", "185430.480000", "185430.940000", "185431.400000", "185431.860000", "185432.320000", "185432.780000", "185433.240000", "185433.700000", "185434.160000", "185434.620000", "185435.080000", "185435.540000", "185436.000000", "185436.460000", "185436.920000", "185437.380000", "185437.840000", "185438.300000", "185438.760000", "185439.220000", "185439.680000", "185440.140000", "185440.600000", "185441.060000", "185441.520000", "185441.980000", "185442.440000", "185442.900000", "185443.360000", "185443.820000", "185444.280000", "185444.740000", "185445.200000", "185445.660000", "185446.120000", "185446.580000", "185447.040000", "185447.500000", "185447.960000", "185448.420000", "185448.880000", "185449.340000", "185449.800000", "185450.260000", "185450.720000", "185451.180000", "185451.640000", "185452.100000", "185452.560000", "185453.020000", "185453.480000", "185453.940000", "185454.400000", "185454.860000", "185455.320000", "185455.780000", "185456.240000", "185456.700000", "185457.160000", "185457.620000", "185458.080000", "185458.540000", "185459.000000", "185459.460000", "185459.920000", "185500.380000", "185500.840000", "185501.300000", "185501.760000", "185502.220000", "185502.680000", "185503.140000", "185503.600000", "185504.060000", "185504.520000", "185504.980000", "185505.440000", "185505.900000", "185506.360000", "185506.820000", "185507.280000", "185507.740000", "185508.200000", "185508.660000", "185509.120000", "185509.580000", "185510.040000", "185510.500000", "185510.960000", "185511.420000", "185511.880000", "185512.340000", "185512.800000", "185513.260000", "185513.720000", "185514.180000", "185514.640000", "185515.100000", "185515.560000", "185516.020000", "185516.480000", "185516.940000", "185517.400000", "185517.860000", "185518.320000", "185518.780000", "185519.240000", "185519.700000", "185520.160000", "185520.620000", "185521.080000", "185521.540000", "185522.000000", "185522.460000", "185522.920000", "185523.380000", "185523.840000", "185524.300000", "185524.760000", "185525.220000", "185525.680000", "185526.140000", "185526.600000", "185527.060000", "185527.520000", "185527.980000", "185528.440000", "185528.900000", "185529.360000", "185529.820000", "185530.280000", "185530.740000", "185531.200000", "185531.660000", "185532.120000", "185532.580000", "185533.040000", "185533.500000", "185533.960000", "185534.420000", "185534.880000", "185535.340000", "185535.800000", "185536.260000", "185536.720000", "185537.180000", "185537.640000", "185538.100000", "185538.560000", "185539.020000", "185539.480000", "185539.940000", "185540.400000", "185540.860000", "185541.320000", "185541.780000", "185542.240000", "185542.700000", "185543.160000", "185543.620000", "185544.080000", "185544.540000", "185545.000000", "185545.460000", "185545.920000", "185546.380000", "185546.840000", "185547.300000", "185547.760000", "185548.220000", "185548.680000", "185549.140000", "185549.600000", "185550.060000", "185550.520000", "185550.980000", "185551.440000", "185551.900000", "185552.360000", "185552.820000", "185553.280000", "185553.740000", "185554.200000", "185554.660000", "185555.120000"],
