{
  "AcquisitionMatrixPE": 82,
  "AcquisitionNumber": 1,
  "AcquisitionTime": "19:32:39.290000",
  "BandwidthPerPixelPhaseEncode": 24.888,
  "BaseResolution": 82,
  "BodyPartExamined": "BRAIN",
  "ConsistencyInfo": "N4_VE11E_LATEST_20181129",
  "ConversionSoftware": "dcm2niix",
  "ConversionSoftwareVersion": "v1.0.20201102",
  "DerivedVendorReportedEchoSpacing": 0.00049,
  "DeviceSerialNumber": "66112",
  "DwellTime": 2e-06,
  "EchoTime": 0.0272,
  "EchoTrainLength": 82,
  "EffectiveEchoSpacing": 0.00049,
  "FlipAngle": 44,
  "ImageComments": "Unaliased MB8/PE3",
  "ImageOrientationPatientDICOM": [0.998752, -0.0281777, 0.0412456, 0.0228393, 0.991942, 0.124615],
  "ImageType": [
    "ORIGINAL",
    "PRIMARY",
    "M",
    "MB",
    "ND",
    "NORM",
    "MOSAIC"
],
  "ImagingFrequency": 123.252,
  "InPlanePhaseEncodingDirectionDICOM": "COL",
  "InstitutionAddress": "Maynard 3,Hanover,NH,US,03755",
  "InstitutionName": "Dartmouth College - PBS",
  "InstitutionalDepartmentName": "Department",
  "MRAcquisitionType": "2D",
  "MagneticFieldStrength": 3,
  "Manufacturer": "Siemens",
  "ManufacturersModelName": "Prisma",
  "Modality": "MR",
  "MultibandAccelerationFactor": 8,
  "PartialFourier": 1,
  "PatientPosition": "HFS",
  "PercentPhaseFOV": 100,
  "PercentSampling": 100,
  "PhaseEncodingDirection": "j-",
  "PhaseEncodingSteps": 82,
  "PhaseResolution": 1,
  "PixelBandwidth": 3050,
  "ProcedureStepDescription": "Wager_Wager^1076_spacetop",
  "ProtocolName": "func_run-03_task-faces_acq-ap-mb8",
  "PulseSequenceDetails": "%CustomerSeq%\\cmrr_mbep2d_bold",
  "ReceiveCoilActiveElements": "HEA;HEP",
  "ReceiveCoilName": "Head_32",
  "ReconMatrixPE": 82,
  "RepetitionTime": 0.46,
  "SAR": 0.114658,
  "ScanOptions": "FS",
  "ScanningSequence": "EP",
  "SequenceName": "epfid2d1_82",
  "SequenceVariant": "SK\\SS",
  "SeriesDescription": "func_run-03_task-faces_acq-ap-mb8",
  "SeriesNumber": 20,
  "ShimSetting": [4165, -7776, -7222, 578, -42, -85, 45, 87],
  "SliceThickness": 2.7,
  "SliceTiming": [0, 0.25, 0.0625, 0.3125, 0.125, 0.375, 0.1875, 0, 0.25, 0.0625, 0.3125, 0.125, 0.375, 0.1875, 0, 0.25, 0.0625, 0.3125, 0.125, 0.375, 0.1875, 0, 0.25, 0.0625, 0.3125, 0.125, 0.375, 0.1875, 0, 0.25, 0.0625, 0.3125, 0.125, 0.375, 0.1875, 0, 0.25, 0.0625, 0.3125, 0.125, 0.375, 0.1875, 0, 0.25, 0.0625, 0.3125, 0.125, 0.375, 0.1875, 0, 0.25, 0.0625, 0.3125, 0.125, 0.375, 0.1875],
  "SoftwareVersions": "syngo MR E11",
  "SpacingBetweenSlices": 2.7,
  "StationName": "AWP66112",
  "TaskName": "faces",
  "TotalReadoutTime": 0.03969,
  "TxRefAmp": 272.305,
  "WipMemBlock": "a7f25ed8-d81d-4aa1-b121-bb6ee74cf7c7||Sequence: R016 ve11e/master r/434b28f1; Aug  7 2019 18:53:46 by eja",
  "dcmmeta_affine": [
    [-2.679577589035034, 0.06127617508172989, 0.11994653195142746, 105.81131744384766],
    [0.07559862732887268, 2.661308526992798, 0.33349767327308655, -107.08131408691406],
    [0.11065898090600967, -0.334333598613739, 2.676638126373291, -57.053367614746094],
    [0.0, 0.0, 0.0, 1.0]
],
  "dcmmeta_reorient_transform": [
    [0.0, -1.0, 0.0, 81.0],
    [1.0, 0.0, 0.0, 0.0],
    [0.0, 0.0, 1.0, 0.0],
    [0.0, 0.0, 0.0, 1.0]
],
  "dcmmeta_shape": [82, 82, 56, 914],
  "dcmmeta_slice_dim": 2,
  "dcmmeta_version": 0.6,
  "global": {
    "const": {
      "AccessionNumber": "A004156",
      "AcquisitionMatrix": [82, 0, 0, 82],
      "AngioFlag": "N",
      "BitsAllocated": 16,
      "BitsStored": 16,
      "BodyPartExamined": "BRAIN",
      "Columns": 656,
      "EchoNumbers": 1,
      "EchoTime": 27.2,
      "EchoTrainLength": 82,
      "FlipAngle": 44.0,
      "HighBit": 15,
      "ImageOrientationPatient": [0.99875162962102, -0.0281776708279, 0.04124562032587, 0.02283930069892, 0.99194223967153, 0.12461524585306],
      "ImagePositionPatient": [-897.39972347166, -850.583407791, -211.84725993122],
      "ImageType": [
        "ORIGINAL",
        "PRIMARY",
        "M",
        "MB",
        "ND",
        "NORM",
        "MOSAIC"
],
      "ImagedNucleus": "1H",
      "ImagingFrequency": 123.252188,
      "InPlanePhaseEncodingDirection": "COL",
      "MRAcquisitionType": "2D",
      "MagneticFieldStrength": 3.0,
      "Manufacturer": "SIEMENS",
      "ManufacturerModelName": "Prisma",
      "Modality": "MR",
      "NumberOfAverages": 1.0,
      "NumberOfPhaseEncodingSteps": 82,
      "PercentPhaseFieldOfView": 100.0,
      "PercentSampling": 100.0,
      "PerformedProcedureStepStartTime": "182213.717000",
      "PhotometricInterpretation": "MONOCHROME2",
      "PixelBandwidth": 3050.0,
      "PixelRepresentation": 0,
      "PixelSpacing": [2.6829268932343, 2.6829268932343],
      "ProtocolName": "func_run-03_task-faces_acq-ap-mb8",
      "RepetitionTime": 460.0,
      "Rows": 656,
      "SAR": 0.11465827663085,
      "SamplesPerPixel": 1,
      "ScanOptions": "FS",
      "ScanningSequence": "EP",
      "SequenceName": "epfid2d1_82",
      "SequenceVariant": [
        "SK",
        "SS"
],
      "SeriesDescription": "func_run-03_task-faces_acq-ap-mb8",
      "SeriesNumber": 20,
      "SeriesTime": "193304.606000",
      "SliceLocation": -65.0855175969,
      "SliceThickness": 2.7000000476837,
      "SmallestImagePixelValue": 0,
      "SoftwareVersions": "syngo MR E11",
      "SpacingBetweenSlices": 2.700000023323,
      "SpecificCharacterSet": "ISO_IR 100",
      "StudyID": "1",
      "StudyTime": "182213.663000",
      "TransmitCoilName": "Body",
      "VariableFlipAngleFlag": "N",
      "WindowCenterWidthExplanation": "Algo1"
    },
    "slices": {}
  },
  "time": {
    "samples": {
      "AcquisitionNumber": [1, 2, 3, 4, 5, 6, 7, 8, 9, 10, 11, 12, 13, 14, 15, 16, 17, 18, 19, 20, 21, 22, 23, 24, 25, 26, 27, 28, 29, 30, 31, 32, 33, 34, 35, 36, 37, 38, 39, 40, 41, 42, 43, 44, 45, 46, 47, 48, 49, 50, 51, 52, 53, 54, 55, 56, 57, 58, 59, 60, 61, 62, 63, 64, 65, 66, 67, 68, 69, 70, 71, 72, 73, 74, 75, 76, 77, 78, 79, 80, 81, 82, 83, 84, 85, 86, 87, 88, 89, 90, 91, 92, 93, 94, 95, 96, 97, 98, 99, 100, 101, 102, 103, 104, 105, 106, 107, 108, 109, 110, 111, 112, 113, 114, 115, 116, 117, 118, 119, 120, 121, 122, 123, 124, 125, 126, 127, 128, 129, 130, 131, 132, 133, 134, 135, 136, 137, 138, 139, 140, 141, 142, 143, 144, 145, 146, 147, 148, 149, 150, 151, 152, 153, 154, 155, 156, 157, 158, 159, 160, 161, 162, 163, 164, 165, 166, 167, 168, 169, 170, 171, 172, 173, 174, 175, 176, 177, 178, 179, 180, 181, 182, 183, 184, 185, 186, 187, 188, 189, 190, 191, 192, 193, 194, 195, 196, 197, 198, 199, 200, 201, 202, 203, 204, 205, 206, 207, 208, 209, 210, 211, 212, 213, 214, 215, 216, 217, 218, 219, 220, 221, 222, 223, 224, 225, 226, 227, 228, 229, 230, 231, 232, 233, 234, 235, 236, 237, 238, 239, 240, 241, 242, 243, 244, 245, 246, 247, 248, 249, 250, 251, 252, 253, 254, 255, 256, 257, 258, 259, 260, 261, 262, 263, 264, 265, 266, 267, 268, 269, 270, 271, 272, 273, 274, 275, 276, 277, 278, 279, 280, 281, 282, 283, 284, 285, 286, 287, 288, 289, 290, 291, 292, 293, 294, 295, 296, 297, 298, 299, 300, 301, 302, 303, 304, 305, 306, 307, 308, 309, 310, 311, 312, 313, 314, 315, 316, 317, 318, 319, 320, 321, 322, 323, 324, 325, 326, 327, 328, 329, 330, 331, 332, 333, 334, 335, 336, 337, 338, 339, 340, 341, 342, 343, 344, 345, 346, 347, 348, 349, 350, 351, 352, 353, 354, 355, 356, 357, 358, 359, 360, 361, 362, 363, 364, 365, 366, 367, 368, 369, 370, 371, 372, 373, 374, 375, 376, 377, 378, 379, 380, 381, 382, 383, 384, 385, 386, 387, 388, 389, 390, 391, 392, 393, 394, 395, 396, 397, 398, 399, 400, 401, 402, 403, 404, 405, 406, 407, 408, 409, 410, 411, 412, 413, 414, 415, 416, 417, 418, 419, 420, 421, 422, 423, 424, 425, 426, 427, 428, 429, 430, 431, 432, 433, 434, 435, 436, 437, 438, 439, 440, 441, 442, 443, 444, 445, 446, 447, 448, 449, 450, 451, 452, 453, 454, 455, 456, 457, 458, 459, 460, 461, 462, 463, 464, 465, 466, 467, 468, 469, 470, 471, 472, 473, 474, 475, 476, 477, 478, 479, 480, 481, 482, 483, 484, 485, 486, 487, 488, 489, 490, 491, 492, 493, 494, 495, 496, 497, 498, 499, 500, 501, 502, 503, 504, 505, 506, 507, 508, 509, 510, 511, 512, 513, 514, 515, 516, 517, 518, 519, 520, 521, 522, 523, 524, 525, 526, 527, 528, 529, 530, 531, 532, 533, 534, 535, 536, 537, 538, 539, 540, 541, 542, 543, 544, 545, 546, 547, 548, 549, 550, 551, 552, 553, 554, 555, 556, 557, 558, 559, 560, 561, 562, 563, 564, 565, 566, 567, 568, 569, 570, 571, 572, 573, 574, 575, 576, 577, 578, 579, 580, 581, 582, 583, 584, 585, 586, 587, 588, 589, 590, 591, 592, 593, 594, 595, 596, 597, 598, 599, 600, 601, 602, 603, 604, 605, 606, 607, 608, 609, 610, 611, 612, 613, 614, 615, 616, 617, 618, 619, 620, 621, 622, 623, 624, 625, 626, 627, 628, 629, 630, 631, 632, 633, 634, 635, 636, 637, 638, 639, 640, 641, 642, 643, 644, 645, 646, 647, 648, 649, 650, 651, 652, 653, 654, 655, 656, 657, 658, 659, 660, 661, 662, 663, 664, 665, 666, 667, 668, 669, 670, 671, 672, 673, 674, 675, 676, 677, 678, 679, 680, 681, 682, 683, 684, 685, 686, 687, 688, 689, 690, 691, 692, 693, 694, 695, 696, 697, 698, 699, 700, 701, 702, 703, 704, 705, 706, 707, 708, 709, 710, 711, 712, 713, 714, 715, 716, 717, 718, 719, 720, 721, 722, 723, 724, 725, 726, 727, 728, 729, 730, 731, 732, 733, 734, 735, 736, 737, 738, 739, 740, 741, 742, 743, 744, 745, 746, 747, 748, 749, 750, 751, 752, 753, 754, 755, 756, 757, 758, 759, 760, 761, 762, 763, 764, 765, 766, 767, 768, 769, 770, 771, 772, 773, 774, 775, 776, 777, 778, 779, 780, 781, 782, 783, 784, 785, 786, 787, 788, 789, 790, 791, 792, 793, 794, 795, 796, 797, 798, 799, 800, 801, 802, 803, 804, 805, 806, 807, 808, 809, 810, 811, 812, 813, 814, 815, 816, 817, 818, 819, 820, 821, 822, 823, 824, 825, 826, 827, 828, 829, 830, 831, 832, 833, 834, 835, 836, 837, 838, 839, 840, 841, 842, 843, 844, 845, 846, 847, 848, 849, 850, 851, 852, 853, 854, 855, 856, 857, 858, 859, 860, 861, 862, 863, 864, 865, 866, 867, 868, 869, 870, 871, 872, 873, 874, 875, 876, 877, 878, 879, 880, 881, 882, 883, 884, 885, 886, 887, 888, 889, 890, 891, 892, 893, 894, 895, 896, 897, 898, 899, 900, 901, 902, 903, 904, 905, 906, 907, 908, 909, 910, 911, 912, 913, 914],
      "AcquisitionTime": ["193239.290000", "193239.750000", "193240.210000", "193240.670000", "193241.130000", "193241.590000", "193242.050000", "193242.510000", "193242.970000", "193243.430000", "193243.890000", "193244.350000", "193244.810000", "193245.270000", "193245.730000", "193246.190000", "193246.650000", "193247.110000", "193247.570000", "193248.030000", "193248.490000", "193248.950000", "193249.410000", "193249.870000", "193250.330000", "193250.790000", "193251.250000", "193251.710000", "193252.170000", "193252.630000", "193253.090000", "193253.550000", "193254.010000", "193254.470000", "193254.930000", "193255.390000", "193255.850000", "193256.310000", "193256.770000", "193257.230000", "193257.690000", "193258.150000", "193258.610000", "193259.070000", "193259.530000", "193259.990000", "193300.450000", "193300.910000", "193301.370000", "193301.830000", "193302.290000", "193302.750000", "193303.210000", "193303.670000", "193304.130000", "193304.590000", "193305.050000", "193305.510000", "193305.970000", "193306.430000", "193306.890000", "193307.350000", "193307.810000", "193308.270000", "193308.730000", "193309.190000", "193309.650000", "193310.110000", "193310.570000", "193311.030000", "193311.490000", "193311.950000", "193312.410000", "193312.870000", "193313.330000", "193313.790000", "193314.250000", "193314.710000", "193315.170000", "193315.630000", "193316.090000", "193316.550000", "193317.010000", "193317.470000", "193317.930000", "193318.390000", "193318.850000", "193319.310000", "193319.770000", "193320.230000", "193320.690000", "193321.150000", "193321.610000", "193322.070000", "193322.530000", "193322.990000", "193323.450000", "193323.910000", "193324.370000", "193324.830000", "193325.290000", "193325.750000", "193326.210000", "193326.670000", "193327.130000", "193327.590000", "193328.050000", "193328.510000", "193328.970000", "193329.430000", "193329.890000", "193330.350000", "193330.810000", "193331.270000", "193331.730000", "193332.190000", "193332.650000", "193333.110000", "193333.570000", "193334.030000", "193334.490000", "193334.950000", "193335.410000", "193335.870000", "193336.330000", "193336.790000", "193337.250000", "193337.710000", "193338.170000", "193338.630000", "193339.090000", "193339.550000", "193340.010000", "193340.470000", "193340.930000", "193341.390000", "193341.850000", "193342.310000", "193342.770000", "193343.230000", "193343.690000", "193344.150000", "193344.610000", "193345.070000", "193345.530000", "193345.990000", "193346.450000", "193346.910000", "193347.370000", "193347.830000", "193348.290000", "193348.750000", "193349.210000", "193349.670000", "193350.130000", "193350.590000", "193351.050000", "193351.510000", "193351.970000", "193352.430000", "193352.890000", "193353.350000", "193353.810000", "193354.270000", "193354.730000", "193355.190000", "193355.650000", "193356.110000", "193356.570000", "193357.030000", "193357.490000", "193357.950000", "193358.410000", "193358.870000", "193359.330000", "193359.790000", "193400.250000", "193400.710000", "193401.170000", "193401.630000", "193402.090000", "193402.550000", "193403.010000", "193403.470000", "193403.930000", "193404.390000", "193404.850000", "193405.310000", "193405.770000", "193406.230000", "193406.690000", "193407.150000", "193407.610000", "193408.070000", "193408.530000", "193408.990000", "193409.450000", "193409.910000", "193410.370000", "193410.830000", "193411.290000", "193411.750000", "193412.210000", "193412.670000", "193413.130000", "193413.590000", "193414.050000", "193414.510000", "193414.970000", "193415.430000", "193415.890000", "193416.350000", "193416.810000", "193417.270000", "193417.730000", "193418.190000", "193418.650000", "193419.110000", "193419.570000", "193420.030000", "193420.490000", "193420.950000", "193421.410000", "193421.870000", "193422.330000", "193422.790000", "193423.250000", "193423.710000", "193424.170000", "193424.630000", "193425.090000", "193425.550000", "193426.010000", "193426.470000", "193426.930000", "193427.390000", "193427.850000", "193428.310000", "193428.770000", "193429.230000", "193429.690000", "193430.150000", "193430.610000", "193431.070000", "193431.530000", "193431.990000", "193432.450000", "193432.910000", "193433.370000", "193433.830000", "193434.290000", "193434.750000", "193435.210000", "193435.670000", "193436.130000", "193436.590000", "193437.050000", "193437.510000", "193437.970000", "193438.430000", "193438.890000", "193439.350000", "193439.810000", "193440.270000", "193440.730000", "193441.190000", "193441.650000", "193442.110000", "193442.570000", "193443.030000", "193443.490000", "193443.950000", "193444.410000", "193444.870000", "193445.330000", "193445.790000", "193446.250000", "193446.710000", "193447.170000", "193447.630000", "193448.090000", "193448.550000", "193449.010000", "193449.470000", "193449.930000", "193450.390000", "193450.850000", "193451.310000", "193451.770000", "193452.230000", "193452.690000", "193453.150000", "193453.610000", "193454.070000", "193454.530000", "193454.990000", "193455.450000", "193455.910000", "193456.370000", "193456.830000", "193457.290000", "193457.750000", "193458.210000", "193458.670000", "193459.130000", "193459.590000", "193500.050000", "193500.510000", "193500.970000", "193501.430000", "193501.890000", "193502.350000", "193502.810000", "193503.270000", "193503.730000", "193504.190000", "193504.650000", "193505.110000", "193505.570000", "193506.030000", "193506.490000", "193506.950000", "193507.410000", "193507.870000", "193508.330000", "193508.790000", "193509.250000", "193509.710000", "193510.170000", "193510.630000", "193511.090000", "193511.550000", "193512.010000", "193512.470000", "193512.930000", "193513.390000", "193513.850000", "193514.310000", "193514.770000", "193515.230000", "193515.690000", "193516.150000", "193516.610000", "193517.070000", "193517.530000", "193517.990000", "193518.450000", "193518.910000", "193519.370000", "193519.830000", "193520.290000", "193520.750000", "193521.210000", "193521.670000", "193522.130000", "193522.590000", "193523.050000", "193523.510000", "193523.970000", "193524.430000", "193524.890000", "193525.350000", "193525.810000", "193526.270000", "193526.730000", "193527.190000", "193527.650000", "193528.110000", "193528.570000", "193529.030000", "193529.490000", "193529.950000", "193530.410000", "193530.870000", "193531.330000", "193531.790000", "193532.250000", "193532.710000", "193533.170000", "193533.630000", "193534.090000", "193534.550000", "193535.010000", "193535.470000", "193535.930000", "193536.390000", "193536.850000", "193537.310000", "193537.770000", "193538.230000", "193538.690000", "193539.150000", "193539.610000", "193540.070000", "193540.530000", "193540.990000", "193541.450000", "193541.910000", "193542.370000", "193542.830000", "193543.290000", "193543.750000", "193544.210000", "193544.670000", "193545.130000", "193545.590000", "193546.050000", "193546.510000", "193546.970000", "193547.430000", "193547.890000", "193548.350000", "193548.810000", "193549.270000", "193549.730000", "193550.190000", "193550.650000", "193551.110000", "193551.570000", "193552.030000", "193552.490000", "193552.950000", "193553.410000", "193553.870000", "193554.330000", "193554.790000", "193555.250000", "193555.710000", "193556.170000", "193556.630000", "193557.090000", "193557.550000", "193558.010000", "193558.470000", "193558.930000", "193559.390000", "193559.850000", "193600.310000", "193600.770000", "193601.230000", "193601.690000", "193602.150000", "193602.610000", "193603.070000", "193603.530000", "193603.990000", "193604.450000", "193604.910000", "193605.370000", "193605.830000", "193606.290000", "193606.750000", "193607.210000", "193607.670000", "193608.130000", "193608.590000", "193609.050000", "193609.510000", "193609.970000", "193610.430000", "193610.890000", "193611.350000", "193611.810000", "193612.270000", "193612.730000", "193613.190000", "193613.650000", "193614.110000", "193614.570000", "193615.030000", "193615.490000", "193615.950000", "193616.410000", "193616.870000", "193617.330000", "193617.790000", "193618.250000", "193618.710000", "193619.170000", "193619.630000", "193620.090000", "193620.550000", "193621.010000", "193621.470000", "193621.930000", "193622.390000", "193622.850000", "193623.310000", "193623.770000", "193624.230000", "193624.690000", "193625.150000", "193625.610000", "193626.070000", "193626.530000", "193626.990000", "193627.450000", "193627.910000", "193628.370000", "193628.830000", "193629.290000", "193629.750000", "193630.210000", "193630.670000", "193631.130000", "193631.590000", "193632.050000", "193632.510000", "193632.970000", "193633.430000", "193633.890000", "193634.350000", "193634.810000", "193635.270000", "193635.730000", "193636.190000", "193636.650000", "193637.110000", "193637.570000", "193638.030000", "193638.490000", "193638.950000", "193639.410000", "193639.870000", "193640.330000", "193640.790000", "193641.250000", "193641.710000", "193642.170000", "193642.630000", "193643.090000", "193643.550000", "193644.010000", "193644.470000", "193644.930000", "193645.390000", "193645.850000", "193646.310000", "193646.770000", "193647.230000", "193647.690000", "193648.150000", "193648.610000", "193649.070000", "193649.530000", "193649.990000", "193650.450000", "193650.910000", "193651.370000", "193651.830000", "193652.290000", "193652.750000", "193653.210000", "193653.670000", "193654.130000", "193654.590000", "193655.050000", "193655.510000", "193655.970000", "193656.430000", "193656.890000", "193657.350000", "193657.810000", "193658.270000", "193658.730000", "193659.190000", "193659.650000", "193700.110000", "193700.570000", "193701.030000", "193701.490000", "193701.950000", "193702.410000", "193702.870000", "193703.330000", "193703.790000", "193704.250000", "193704.710000", "193705.170000", "193705.630000", "193706.090000", "193706.550000", "193707.010000", "193707.470000", "193707.930000", "193708.390000", "193708.850000", "193709.310000", "193709.770000", "193710.230000", "193710.690000", "193711.150000", "193711.610000", "193712.070000", "193712.530000", "193712.990000", "193713.450000", "193713.910000", "193714.370000", "193714.830000", "193715.290000", "193715.750000", "193716.210000", "193716.670000", "193717.130000", "193717.590000", "193718.050000", "193718.510000", "193718.970000", "193719.430000", "193719.890000", "193720.350000", "193720.810000", "193721.270000", "193721.730000", "193722.190000", "193722.650000", "193723.110000", "193723.570000", "193724.030000", "193724.490000", "193724.950000", "193725.410000", "193725.870000", "193726.330000", "193726.790000", "193727.250000", "193727.710000", "193728.170000", "193728.630000", "193729.090000", "193729.550000", "193730.010000", "193730.470000", "193730.930000", "193731.390000", "193731.850000", "193732.310000", "193732.770000", "193733.230000", "193733.690000", "193734.150000", "193734.610000", "193735.070000", "193735.530000", "193735.990000", "193736.450000", "193736.910000", "193737.370000", "193737.830000", "193738.290000", "193738.750000", "193739.210000", "193739.670000", "193740.130000", "193740.590000", "193741.050000", "193741.510000", "193741.970000", "193742.430000", "193742.890000", "193743.350000", "193743.810000", "193744.270000", "193744.730000", "193745.190000", "193745.650000", "193746.110000", "193746.570000", "193747.030000", "193747.490000", "193747.950000", "193748.410000", "193748.870000", "193749.330000", "193749.790000", "193750.250000", "193750.710000", "193751.170000", "193751.630000", "193752.090000", "193752.550000", "193753.010000", "193753.470000", "193753.930000", "193754.390000", "193754.850000", "193755.310000", "193755.770000", "193756.230000", "193756.690000", "193757.150000", "193757.610000", "193758.070000", "193758.530000", "193758.990000", "193759.450000", "193759.910000", "193800.370000", "193800.830000", "193801.290000", "193801.750000", "193802.210000", "193802.670000", "193803.130000", "193803.590000", "193804.050000", "193804.510000", "193804.970000", "193805.430000", "193805.890000", "193806.350000", "193806.810000", "193807.270000", "193807.730000", "193808.190000", "193808.650000", "193809.110000", "193809.570000", "193810.030000", "193810.490000", "193810.950000", "193811.410000", "193811.870000", "193812.330000", "193812.790000", "193813.250000", "193813.710000", "193814.170000", "193814.630000", "193815.090000", "193815.550000", "193816.010000", "193816.470000", "193816.930000", "193817.390000", "193817.850000", "193818.310000", "193818.770000", "193819.230000", "193819.690000", "193820.150000", "193820.610000", "193821.070000", "193821.530000", "193821.990000", "193822.450000", "193822.910000", "193823.370000", "193823.830000", "193824.290000", "193824.750000", "193825.210000", "193825.670000", "193826.130000", "193826.590000", "193827.050000", "193827.510000", "193827.970000", "193828.430000", "193828.890000", "193829.350000", "193829.810000", "193830.270000", "193830.730000", "193831.190000", "193831.650000", "193832.110000", "193832.570000", "193833.030000", "193833.490000", "193833.950000", "193834.410000", "193834.870000", "193835.330000", "193835.790000", "193836.250000", "193836.710000", "193837.170000", "193837.630000", "193838.090000", "193838.550000", "193839.010000", "193839.470000", "193839.930000", "193840.390000", "193840.850000", "193841.310000", "193841.770000", "193842.230000", "193842.690000", "193843.150000", "193843.610000", "193844.070000", "193844.530000", "193844.990000", "193845.450000", "193845.910000", "193846.370000", "193846.830000", "193847.290000", "193847.750000", "193848.210000", "193848.670000", "193849.130000", "193849.590000", "193850.050000", "193850.510000", "193850.970000", "193851.430000", "193851.890000", "193852.350000", "193852.810000", "193853.270000", "193853.730000", "193854.190000", "193854.650000", "193855.110000", "193855.570000", "193856.030000", "193856.490000", "193856.950000", "193857.410000", "193857.870000", "193858.330000", "193858.790000", "193859.250000", "193859.710000", "193900.170000", "193900.630000", "193901.090000", "193901.550000", "193902.010000", "193902.470000", "193902.930000", "193903.390000", "193903.850000", "193904.310000", "193904.770000", "193905.230000", "193905.690000", "193906.150000", "193906.610000", "193907.070000", "193907.530000", "193907.990000", "193908.450000", "193908.910000", "193909.370000", "193909.830000", "193910.290000", "193910.750000", "193911.210000", "193911.670000", "193912.130000", "193912.590000", "193913.050000", "193913.510000", "193913.970000", "193914.430000", "193914.890000", "193915.350000", "193915.810000", "193916.270000", "193916.730000", "193917.190000", "193917.650000", "193918.110000", "193918.570000", "193919.030000", "193919.490000", "193919.950000", "193920.410000", "193920.870000", "193921.330000", "193921.790000", "193922.250000", "193922.710000", "193923.170000", "193923.630000", "193924.090000", "193924.550000", "193925.010000", "193925.470000", "193925.930000", "193926.390000", "193926.850000", "193927.310000", "193927.770000", "193928.230000", "193928.690000", "193929.150000", "193929.610000", "193930.070000", "193930.530000", "193930.990000", "193931.450000", "193931.910000", "193932.370000", "193932.830000", "193933.290000", "193933.750000", "193934.210000", "193934.670000", "193935.130000", "193935.590000", "193936.050000", "193936.510000", "193936.970000", "193937.430000", "193937.890000", "193938.350000", "193938.810000", "193939.270000"],
