{
  "AcquisitionMatrixPE": 82,
  "AcquisitionNumber": 1,
  "AcquisitionTime": "18:39:46.930000",
  "BandwidthPerPixelPhaseEncode": 24.888,
  "BaseResolution": 82,
  "BodyPartExamined": "BRAIN",
  "ConsistencyInfo": "N4_VE11E_LATEST_20181129",
  "ConversionSoftware": "dcm2niix",
  "ConversionSoftwareVersion": "v1.0.20201102",
  "DerivedVendorReportedEchoSpacing": 0.00049,
  "DeviceSerialNumber": "66112",
  "DwellTime": 2e-06,
  "EchoTime": 0.0272,
  "EchoTrainLength": 82,
  "EffectiveEchoSpacing": 0.00049,
  "FlipAngle": 44,
  "ImageComments": "Unaliased MB8/PE3",
  "ImageOrientationPatientDICOM": [0.998752, -0.0281777, 0.0412456, 0.0228393, 0.991942, 0.124615],
  "ImageType": [
    "ORIGINAL",
    "PRIMARY",
    "M",
    "MB",
    "ND",
    "NORM",
    "MOSAIC"
],
  "ImagingFrequency": 123.252,
  "InPlanePhaseEncodingDirectionDICOM": "COL",
  "InstitutionAddress": "Maynard 3,Hanover,NH,US,03755",
  "InstitutionName": "Dartmouth College - PBS",
  "InstitutionalDepartmentName": "Department",
  "MRAcquisitionType": "2D",
  "MagneticFieldStrength": 3,
  "Manufacturer": "Siemens",
  "ManufacturersModelName": "Prisma",
  "Modality": "MR",
  "MultibandAccelerationFactor": 8,
  "PartialFourier": 1,
  "PatientPosition": "HFS",
  "PercentPhaseFOV": 100,
  "PercentSampling": 100,
  "PhaseEncodingDirection": "j-",
  "PhaseEncodingSteps": 82,
  "PhaseResolution": 1,
  "PixelBandwidth": 3050,
  "ProcedureStepDescription": "Wager_Wager^1076_spacetop",
  "ProtocolName": "func_run-01_task-narratives_acq-ap-mb8",
  "PulseSequenceDetails": "%CustomerSeq%\\cmrr_mbep2d_bold",
  "ReceiveCoilActiveElements": "HEA;HEP",
  "ReceiveCoilName": "Head_32",
  "ReconMatrixPE": 82,
  "RepetitionTime": 0.46,
  "SAR": 0.114696,
  "ScanOptions": "FS",
  "ScanningSequence": "EP",
  "SequenceName": "epfid2d1_82",
  "SequenceVariant": "SK\\SS",
  "SeriesDescription": "func_run-01_task-narratives_acq-ap-mb8",
  "SeriesNumber": 8,
  "ShimSetting": [4165, -7776, -7222, 578, -42, -85, 45, 87],
  "SliceThickness": 2.7,
  "SliceTiming": [0, 0.2525, 0.0625, 0.315, 0.1275, 0.3775, 0.19, 0, 0.2525, 0.0625, 0.315, 0.1275, 0.3775, 0.19, 0, 0.2525, 0.0625, 0.315, 0.1275, 0.3775, 0.19, 0, 0.2525, 0.0625, 0.315, 0.1275, 0.3775, 0.19, 0, 0.2525, 0.0625, 0.315, 0.1275, 0.3775, 0.19, 0, 0.2525, 0.0625, 0.315, 0.1275, 0.3775, 0.19, 0, 0.2525, 0.0625, 0.315, 0.1275, 0.3775, 0.19, 0, 0.2525, 0.0625, 0.315, 0.1275, 0.3775, 0.19],
  "SoftwareVersions": "syngo MR E11",
  "SpacingBetweenSlices": 2.7,
  "StationName": "AWP66112",
  "TaskName": "narratives",
  "TotalReadoutTime": 0.03969,
  "TxRefAmp": 272.305,
  "WipMemBlock": "362052ab-4583-4acf-a120-866f7845d263||Sequence: R016 ve11e/master r/434b28f1; Aug  7 2019 18:53:46 by eja",
  "dcmmeta_affine": [
    [-2.679577589035034, 0.06127617508172989, 0.11994653195142746, 105.81131744384766],
    [0.07559862732887268, 2.661308526992798, 0.33349767327308655, -107.08131408691406],
    [0.11065898090600967, -0.334333598613739, 2.676638126373291, -57.053367614746094],
    [0.0, 0.0, 0.0, 1.0]
],
  "dcmmeta_reorient_transform": [
    [0.0, -1.0, 0.0, 81.0],
    [1.0, 0.0, 0.0, 0.0],
    [0.0, 0.0, 1.0, 0.0],
    [0.0, 0.0, 0.0, 1.0]
],
  "dcmmeta_shape": [82, 82, 56, 967],
  "dcmmeta_slice_dim": 2,
  "dcmmeta_version": 0.6,
  "global": {
    "const": {
      "AccessionNumber": "A004156",
      "AcquisitionMatrix": [82, 0, 0, 82],
      "AngioFlag": "N",
      "BitsAllocated": 16,
      "BitsStored": 16,
      "BodyPartExamined": "BRAIN",
      "Columns": 656,
      "EchoNumbers": 1,
      "EchoTime": 27.2,
      "EchoTrainLength": 82,
      "FlipAngle": 44.0,
      "HighBit": 15,
      "ImageOrientationPatient": [0.99875162962102, -0.0281776708279, 0.04124562032587, 0.02283930069892, 0.99194223967153, 0.12461524585306],
      "ImagePositionPatient": [-897.39972347166, -850.583407791, -211.84725993122],
      "ImageType": [
        "ORIGINAL",
        "PRIMARY",
        "M",
        "MB",
        "ND",
        "NORM",
        "MOSAIC"
],
      "ImagedNucleus": "1H",
      "ImagingFrequency": 123.25218,
      "InPlanePhaseEncodingDirection": "COL",
      "MRAcquisitionType": "2D",
      "MagneticFieldStrength": 3.0,
      "Manufacturer": "SIEMENS",
      "ManufacturerModelName": "Prisma",
      "Modality": "MR",
      "NumberOfAverages": 1.0,
      "NumberOfPhaseEncodingSteps": 82,
      "PercentPhaseFieldOfView": 100.0,
      "PercentSampling": 100.0,
      "PerformedProcedureStepStartTime": "182213.717000",
      "PhotometricInterpretation": "MONOCHROME2",
      "PixelBandwidth": 3050.0,
      "PixelRepresentation": 0,
      "PixelSpacing": [2.6829268932343, 2.6829268932343],
      "ProtocolName": "func_run-01_task-narratives_acq-ap-mb8",
      "RepetitionTime": 460.0,
      "Rows": 656,
      "SAR": 0.11469555952512,
      "SamplesPerPixel": 1,
      "ScanOptions": "FS",
      "ScanningSequence": "EP",
      "SequenceName": "epfid2d1_82",
      "SequenceVariant": [
        "SK",
        "SS"
],
      "SeriesDescription": "func_run-01_task-narratives_acq-ap-mb8",
      "SeriesNumber": 8,
      "SeriesTime": "184004.623000",
      "SliceLocation": -65.0855175969,
      "SliceThickness": 2.7000000476837,
      "SmallestImagePixelValue": 0,
      "SoftwareVersions": "syngo MR E11",
      "SpacingBetweenSlices": 2.700000023323,
      "SpecificCharacterSet": "ISO_IR 100",
      "StudyID": "1",
      "StudyTime": "182213.663000",
      "TransmitCoilName": "Body",
      "VariableFlipAngleFlag": "N",
      "WindowCenterWidthExplanation": "Algo1"
    },
    "slices": {}
  },
  "time": {
    "samples": {
      "AcquisitionNumber": [1, 2, 3, 4, 5, 6, 7, 8, 9, 10, 11, 12, 13, 14, 15, 16, 17, 18, 19, 20, 21, 22, 23, 24, 25, 26, 27, 28, 29, 30, 31, 32, 33, 34, 35, 36, 37, 38, 39, 40, 41, 42, 43, 44, 45, 46, 47, 48, 49, 50, 51, 52, 53, 54, 55, 56, 57, 58, 59, 60, 61, 62, 63, 64, 65, 66, 67, 68, 69, 70, 71, 72, 73, 74, 75, 76, 77, 78, 79, 80, 81, 82, 83, 84, 85, 86, 87, 88, 89, 90, 91, 92, 93, 94, 95, 96, 97, 98, 99, 100, 101, 102, 103, 104, 105, 106, 107, 108, 109, 110, 111, 112, 113, 114, 115, 116, 117, 118, 119, 120, 121, 122, 123, 124, 125, 126, 127, 128, 129, 130, 131, 132, 133, 134, 135, 136, 137, 138, 139, 140, 141, 142, 143, 144, 145, 146, 147, 148, 149, 150, 151, 152, 153, 154, 155, 156, 157, 158, 159, 160, 161, 162, 163, 164, 165, 166, 167, 168, 169, 170, 171, 172, 173, 174, 175, 176, 177, 178, 179, 180, 181, 182, 183, 184, 185, 186, 187, 188, 189, 190, 191, 192, 193, 194, 195, 196, 197, 198, 199, 200, 201, 202, 203, 204, 205, 206, 207, 208, 209, 210, 211, 212, 213, 214, 215, 216, 217, 218, 219, 220, 221, 222, 223, 224, 225, 226, 227, 228, 229, 230, 231, 232, 233, 234, 235, 236, 237, 238, 239, 240, 241, 242, 243, 244, 245, 246, 247, 248, 249, 250, 251, 252, 253, 254, 255, 256, 257, 258, 259, 260, 261, 262, 263, 264, 265, 266, 267, 268, 269, 270, 271, 272, 273, 274, 275, 276, 277, 278, 279, 280, 281, 282, 283, 284, 285, 286, 287, 288, 289, 290, 291, 292, 293, 294, 295, 296, 297, 298, 299, 300, 301, 302, 303, 304, 305, 306, 307, 308, 309, 310, 311, 312, 313, 314, 315, 316, 317, 318, 319, 320, 321, 322, 323, 324, 325, 326, 327, 328, 329, 330, 331, 332, 333, 334, 335, 336, 337, 338, 339, 340, 341, 342, 343, 344, 345, 346, 347, 348, 349, 350, 351, 352, 353, 354, 355, 356, 357, 358, 359, 360, 361, 362, 363, 364, 365, 366, 367, 368, 369, 370, 371, 372, 373, 374, 375, 376, 377, 378, 379, 380, 381, 382, 383, 384, 385, 386, 387, 388, 389, 390, 391, 392, 393, 394, 395, 396, 397, 398, 399, 400, 401, 402, 403, 404, 405, 406, 407, 408, 409, 410, 411, 412, 413, 414, 415, 416, 417, 418, 419, 420, 421, 422, 423, 424, 425, 426, 427, 428, 429, 430, 431, 432, 433, 434, 435, 436, 437, 438, 439, 440, 441, 442, 443, 444, 445, 446, 447, 448, 449, 450, 451, 452, 453, 454, 455, 456, 457, 458, 459, 460, 461, 462, 463, 464, 465, 466, 467, 468, 469, 470, 471, 472, 473, 474, 475, 476, 477, 478, 479, 480, 481, 482, 483, 484, 485, 486, 487, 488, 489, 490, 491, 492, 493, 494, 495, 496, 497, 498, 499, 500, 501, 502, 503, 504, 505, 506, 507, 508, 509, 510, 511, 512, 513, 514, 515, 516, 517, 518, 519, 520, 521, 522, 523, 524, 525, 526, 527, 528, 529, 530, 531, 532, 533, 534, 535, 536, 537, 538, 539, 540, 541, 542, 543, 544, 545, 546, 547, 548, 549, 550, 551, 552, 553, 554, 555, 556, 557, 558, 559, 560, 561, 562, 563, 564, 565, 566, 567, 568, 569, 570, 571, 572, 573, 574, 575, 576, 577, 578, 579, 580, 581, 582, 583, 584, 585, 586, 587, 588, 589, 590, 591, 592, 593, 594, 595, 596, 597, 598, 599, 600, 601, 602, 603, 604, 605, 606, 607, 608, 609, 610, 611, 612, 613, 614, 615, 616, 617, 618, 619, 620, 621, 622, 623, 624, 625, 626, 627, 628, 629, 630, 631, 632, 633, 634, 635, 636, 637, 638, 639, 640, 641, 642, 643, 644, 645, 646, 647, 648, 649, 650, 651, 652, 653, 654, 655, 656, 657, 658, 659, 660, 661, 662, 663, 664, 665, 666, 667, 668, 669, 670, 671, 672, 673, 674, 675, 676, 677, 678, 679, 680, 681, 682, 683, 684, 685, 686, 687, 688, 689, 690, 691, 692, 693, 694, 695, 696, 697, 698, 699, 700, 701, 702, 703, 704, 705, 706, 707, 708, 709, 710, 711, 712, 713, 714, 715, 716, 717, 718, 719, 720, 721, 722, 723, 724, 725, 726, 727, 728, 729, 730, 731, 732, 733, 734, 735, 736, 737, 738, 739, 740, 741, 742, 743, 744, 745, 746, 747, 748, 749, 750, 751, 752, 753, 754, 755, 756, 757, 758, 759, 760, 761, 762, 763, 764, 765, 766, 767, 768, 769, 770, 771, 772, 773, 774, 775, 776, 777, 778, 779, 780, 781, 782, 783, 784, 785, 786, 787, 788, 789, 790, 791, 792, 793, 794, 795, 796, 797, 798, 799, 800, 801, 802, 803, 804, 805, 806, 807, 808, 809, 810, 811, 812, 813, 814, 815, 816, 817, 818, 819, 820, 821, 822, 823, 824, 825, 826, 827, 828, 829, 830, 831, 832, 833, 834, 835, 836, 837, 838, 839, 840, 841, 842, 843, 844, 845, 846, 847, 848, 849, 850, 851, 852, 853, 854, 855, 856, 857, 858, 859, 860, 861, 862, 863, 864, 865, 866, 867, 868, 869, 870, 871, 872, 873, 874, 875, 876, 877, 878, 879, 880, 881, 882, 883, 884, 885, 886, 887, 888, 889, 890, 891, 892, 893, 894, 895, 896, 897, 898, 899, 900, 901, 902, 903, 904, 905, 906, 907, 908, 909, 910, 911, 912, 913, 914, 915, 916, 917, 918, 919, 920, 921, 922, 923, 924, 925, 926, 927, 928, 929, 930, 931, 932, 933, 934, 935, 936, 937, 938, 939, 940, 941, 942, 943, 944, 945, 946, 947, 948, 949, 950, 951, 952, 953, 954, 955, 956, 957, 958, 959, 960, 961, 962, 963, 964, 965, 966, 967],
      "AcquisitionTime": ["183946.930000", "183947.390000", "183947.850000", "183948.310000", "183948.770000", "183949.230000", "183949.690000", "183950.150000", "183950.610000", "183951.070000", "183951.530000", "183951.990000", "183952.450000", "183952.910000", "183953.370000", "183953.830000", "183954.290000", "183954.750000", "183955.210000", "183955.670000", "183956.130000", "183956.590000", "183957.050000", "183957.510000", "183957.970000", "183958.430000", "183958.890000", "183959.350000", "183959.810000", "184000.270000", "184000.730000", "184001.190000", "184001.650000", "184002.110000", "184002.570000", "184003.030000", "184003.490000", "184003.950000", "184004.410000", "184004.870000", "184005.330000", "184005.790000", "184006.250000", "184006.710000", "184007.170000", "184007.630000", "184008.090000", "184008.550000", "184009.010000", "184009.470000", "184009.930000", "184010.390000", "184010.850000", "184011.310000", "184011.770000", "184012.230000", "184012.690000", "184013.150000", "184013.610000", "184014.070000", "184014.530000", "184014.990000", "184015.450000", "184015.910000", "184016.370000", "184016.830000", "184017.290000", "184017.750000", "184018.210000", "184018.670000", "184019.130000", "184019.590000", "184020.050000", "184020.510000", "184020.970000", "184021.430000", "184021.890000", "184022.350000", "184022.810000", "184023.270000", "184023.730000", "184024.190000", "184024.650000", "184025.110000", "184025.570000", "184026.030000", "184026.490000", "184026.950000", "184027.410000", "184027.870000", "184028.330000", "184028.790000", "184029.250000", "184029.710000", "184030.170000", "184030.630000", "184031.090000", "184031.550000", "184032.010000", "184032.470000", "184032.930000", "184033.390000", "184033.850000", "184034.310000", "184034.770000", "184035.230000", "184035.690000", "184036.150000", "184036.610000", "184037.070000", "184037.530000", "184037.990000", "184038.450000", "184038.910000", "184039.370000", "184039.830000", "184040.290000", "184040.750000", "184041.210000", "184041.670000", "184042.130000", "184042.590000", "184043.050000", "184043.510000", "184043.970000", "184044.430000", "184044.890000", "184045.350000", "184045.810000", "184046.270000", "184046.730000", "184047.190000", "184047.650000", "184048.110000", "184048.570000", "184049.030000", "184049.490000", "184049.950000", "184050.410000", "184050.870000", "184051.330000", "184051.790000", "184052.250000", "184052.710000", "184053.170000", "184053.630000", "184054.090000", "184054.550000", "184055.010000", "184055.470000", "184055.930000", "184056.390000", "184056.850000", "184057.310000", "184057.770000", "184058.230000", "184058.690000", "184059.150000", "184059.610000", "184100.070000", "184100.530000", "184100.990000", "184101.450000", "184101.910000", "184102.370000", "184102.830000", "184103.290000", "184103.750000", "184104.210000", "184104.670000", "184105.130000", "184105.590000", "184106.050000", "184106.510000", "184106.970000", "184107.430000", "184107.890000", "184108.350000", "184108.810000", "184109.270000", "184109.730000", "184110.190000", "184110.650000", "184111.110000", "184111.570000", "184112.030000", "184112.490000", "184112.950000", "184113.410000", "184113.870000", "184114.330000", "184114.790000", "184115.250000", "184115.710000", "184116.170000", "184116.630000", "184117.090000", "184117.550000", "184118.010000", "184118.470000", "184118.930000", "184119.390000", "184119.850000", "184120.310000", "184120.770000", "184121.230000", "184121.690000", "184122.150000", "184122.610000", "184123.070000", "184123.530000", "184123.990000", "184124.450000", "184124.910000", "184125.370000", "184125.830000", "184126.290000", "184126.750000", "184127.210000", "184127.670000", "184128.130000", "184128.590000", "184129.050000", "184129.510000", "184129.970000", "184130.430000", "184130.890000", "184131.350000", "184131.810000", "184132.270000", "184132.730000", "184133.190000", "184133.650000", "184134.110000", "184134.570000", "184135.030000", "184135.490000", "184135.950000", "184136.410000", "184136.870000", "184137.330000", "184137.790000", "184138.250000", "184138.710000", "184139.170000", "184139.630000", "184140.090000", "184140.550000", "184141.010000", "184141.470000", "184141.930000", "184142.390000", "184142.850000", "184143.310000", "184143.770000", "184144.230000", "184144.690000", "184145.150000", "184145.610000", "184146.070000", "184146.530000", "184146.990000", "184147.450000", "184147.910000", "184148.370000", "184148.830000", "184149.290000", "184149.750000", "184150.210000", "184150.670000", "184151.130000", "184151.590000", "184152.050000", "184152.510000", "184152.970000", "184153.430000", "184153.890000", "184154.350000", "184154.810000", "184155.270000", "184155.730000", "184156.190000", "184156.650000", "184157.110000", "184157.570000", "184158.030000", "184158.490000", "184158.950000", "184159.410000", "184159.870000", "184200.330000", "184200.790000", "184201.250000", "184201.710000", "184202.170000", "184202.630000", "184203.090000", "184203.550000", "184204.010000", "184204.470000", "184204.930000", "184205.390000", "184205.850000", "184206.310000", "184206.770000", "184207.230000", "184207.690000", "184208.150000", "184208.610000", "184209.070000", "184209.530000", "184209.990000", "184210.450000", "184210.910000", "184211.370000", "184211.830000", "184212.290000", "184212.750000", "184213.210000", "184213.670000", "184214.130000", "184214.590000", "184215.050000", "184215.510000", "184215.970000", "184216.430000", "184216.890000", "184217.350000", "184217.810000", "184218.270000", "184218.730000", "184219.190000", "184219.650000", "184220.110000", "184220.570000", "184221.030000", "184221.490000", "184221.950000", "184222.410000", "184222.870000", "184223.330000", "184223.790000", "184224.250000", "184224.710000", "184225.170000", "184225.630000", "184226.090000", "184226.550000", "184227.010000", "184227.470000", "184227.930000", "184228.390000", "184228.850000", "184229.310000", "184229.770000", "184230.230000", "184230.690000", "184231.150000", "184231.610000", "184232.070000", "184232.530000", "184232.990000", "184233.450000", "184233.910000", "184234.370000", "184234.830000", "184235.290000", "184235.750000", "184236.210000", "184236.670000", "184237.130000", "184237.590000", "184238.050000", "184238.510000", "184238.970000", "184239.430000", "184239.890000", "184240.350000", "184240.810000", "184241.270000", "184241.730000", "184242.190000", "184242.650000", "184243.110000", "184243.570000", "184244.030000", "184244.490000", "184244.950000", "184245.410000", "184245.870000", "184246.330000", "184246.790000", "184247.250000", "184247.710000", "184248.170000", "184248.630000", "184249.090000", "184249.550000", "184250.010000", "184250.470000", "184250.930000", "184251.390000", "184251.850000", "184252.310000", "184252.770000", "184253.230000", "184253.690000", "184254.150000", "184254.610000", "184255.070000", "184255.530000", "184255.990000", "184256.450000", "184256.910000", "184257.370000", "184257.830000", "184258.290000", "184258.750000", "184259.210000", "184259.670000", "184300.130000", "184300.590000", "184301.050000", "184301.510000", "184301.970000", "184302.430000", "184302.890000", "184303.350000", "184303.810000", "184304.270000", "184304.730000", "184305.190000", "184305.650000", "184306.110000", "184306.570000", "184307.030000", "184307.490000", "184307.950000", "184308.410000", "184308.870000", "184309.330000", "184309.790000", "184310.250000", "184310.710000", "184311.170000", "184311.630000", "184312.090000", "184312.550000", "184313.010000", "184313.470000", "184313.930000", "184314.390000", "184314.850000", "184315.310000", "184315.770000", "184316.230000", "184316.690000", "184317.150000", "184317.610000", "184318.070000", "184318.530000", "184318.990000", "184319.450000", "184319.910000", "184320.370000", "184320.830000", "184321.290000", "184321.750000", "184322.210000", "184322.670000", "184323.130000", "184323.590000", "184324.050000", "184324.510000", "184324.970000", "184325.430000", "184325.890000", "184326.350000", "184326.810000", "184327.270000", "184327.730000", "184328.190000", "184328.650000", "184329.110000", "184329.570000", "184330.030000", "184330.490000", "184330.950000", "184331.410000", "184331.870000", "184332.330000", "184332.790000", "184333.250000", "184333.710000", "184334.170000", "184334.630000", "184335.090000", "184335.550000", "184336.010000", "184336.470000", "184336.930000", "184337.390000", "184337.850000", "184338.310000", "184338.770000", "184339.230000", "184339.690000", "184340.150000", "184340.610000", "184341.070000", "184341.530000", "184341.990000", "184342.450000", "184342.910000", "184343.370000", "184343.830000", "184344.290000", "184344.750000", "184345.210000", "184345.670000", "184346.130000", "184346.590000", "184347.050000", "184347.510000", "184347.970000", "184348.430000", "184348.890000", "184349.350000", "184349.810000", "184350.270000", "184350.730000", "184351.190000", "184351.650000", "184352.110000", "184352.570000", "184353.030000", "184353.490000", "184353.950000", "184354.410000", "184354.870000", "184355.330000", "184355.790000", "184356.250000", "184356.710000", "184357.170000", "184357.630000", "184358.090000", "184358.550000", "184359.010000", "184359.470000", "184359.930000", "184400.390000", "184400.850000", "184401.310000", "184401.770000", "184402.230000", "184402.690000", "184403.150000", "184403.610000", "184404.070000", "184404.530000", "184404.990000", "184405.450000", "184405.910000", "184406.370000", "184406.830000", "184407.290000", "184407.750000", "184408.210000", "184408.670000", "184409.130000", "184409.590000", "184410.050000", "184410.510000", "184410.970000", "184411.430000", "184411.890000", "184412.350000", "184412.810000", "184413.270000", "184413.730000", "184414.190000", "184414.650000", "184415.110000", "184415.570000", "184416.030000", "184416.490000", "184416.950000", "184417.410000", "184417.870000", "184418.330000", "184418.790000", "184419.250000", "184419.710000", "184420.170000", "184420.630000", "184421.090000", "184421.550000", "184422.010000", "184422.470000", "184422.930000", "184423.390000", "184423.850000", "184424.310000", "184424.770000", "184425.230000", "184425.690000", "184426.150000", "184426.610000", "184427.070000", "184427.530000", "184427.990000", "184428.450000", "184428.910000", "184429.370000", "184429.830000", "184430.290000", "184430.750000", "184431.210000", "184431.670000", "184432.130000", "184432.590000", "184433.050000", "184433.510000", "184433.970000", "184434.430000", "184434.890000", "184435.350000", "184435.810000", "184436.270000", "184436.730000", "184437.190000", "184437.650000", "184438.110000", "184438.570000", "184439.030000", "184439.490000", "184439.950000", "184440.410000", "184440.870000", "184441.330000", "184441.790000", "184442.250000", "184442.710000", "184443.170000", "184443.630000", "184444.090000", "184444.550000", "184445.010000", "184445.470000", "184445.930000", "184446.390000", "184446.850000", "184447.310000", "184447.770000", "184448.230000", "184448.690000", "184449.150000", "184449.610000", "184450.070000", "184450.530000", "184450.990000", "184451.450000", "184451.910000", "184452.370000", "184452.830000", "184453.290000", "184453.750000", "184454.210000", "184454.670000", "184455.130000", "184455.590000", "184456.050000", "184456.510000", "184456.970000", "184457.430000", "184457.890000", "184458.350000", "184458.810000", "184459.270000", "184459.730000", "184500.190000", "184500.650000", "184501.110000", "184501.570000", "184502.030000", "184502.490000", "184502.950000", "184503.410000", "184503.870000", "184504.330000", "184504.790000", "184505.250000", "184505.710000", "184506.170000", "184506.630000", "184507.090000", "184507.550000", "184508.010000", "184508.470000", "184508.930000", "184509.390000", "184509.850000", "184510.310000", "184510.770000", "184511.230000", "184511.690000", "184512.150000", "184512.610000", "184513.070000", "184513.530000", "184513.990000", "184514.450000", "184514.910000", "184515.370000", "184515.830000", "184516.290000", "184516.750000", "184517.210000", "184517.670000", "184518.130000", "184518.590000", "184519.050000", "184519.510000", "184519.970000", "184520.430000", "184520.890000", "184521.350000", "184521.810000", "184522.270000", "184522.730000", "184523.190000", "184523.650000", "184524.110000", "184524.570000", "184525.030000", "184525.490000", "184525.950000", "184526.410000", "184526.870000", "184527.330000", "184527.790000", "184528.250000", "184528.710000", "184529.170000", "184529.630000", "184530.090000", "184530.550000", "184531.010000", "184531.470000", "184531.930000", "184532.390000", "184532.850000", "184533.310000", "184533.770000", "184534.230000", "184534.690000", "184535.150000", "184535.610000", "184536.070000", "184536.530000", "184536.990000", "184537.450000", "184537.910000", "184538.370000", "184538.830000", "184539.290000", "184539.750000", "184540.210000", "184540.670000", "184541.130000", "184541.590000", "184542.050000", "184542.510000", "184542.970000", "184543.430000", "184543.890000", "184544.350000", "184544.810000", "184545.270000", "184545.730000", "184546.190000", "184546.650000", "184547.110000", "184547.570000", "184548.030000", "184548.490000", "184548.950000", "184549.410000", "184549.870000", "184550.330000", "184550.790000", "184551.250000", "184551.710000", "184552.170000", "184552.630000", "184553.090000", "184553.550000", "184554.010000", "184554.470000", "184554.930000", "184555.390000", "184555.850000", "184556.310000", "184556.770000", "184557.230000", "184557.690000", "184558.150000", "184558.610000", "184559.070000", "184559.530000", "184559.990000", "184600.450000", "184600.910000", "184601.370000", "184601.830000", "184602.290000", "184602.750000", "184603.210000", "184603.670000", "184604.130000", "184604.590000", "184605.050000", "184605.510000", "184605.970000", "184606.430000", "184606.890000", "184607.350000", "184607.810000", "184608.270000", "184608.730000", "184609.190000", "184609.650000", "184610.110000", "184610.570000", "184611.030000", "184611.490000", "184611.950000", "184612.410000", "184612.870000", "184613.330000", "184613.790000", "184614.250000", "184614.710000", "184615.170000", "184615.630000", "184616.090000", "184616.550000", "184617.010000", "184617.470000", "184617.930000", "184618.390000", "184618.850000", "184619.310000", "184619.770000", "184620.230000", "184620.690000", "184621.150000", "184621.610000", "184622.070000", "184622.530000", "184622.990000", "184623.450000", "184623.910000", "184624.370000", "184624.830000", "184625.290000", "184625.750000", "184626.210000", "184626.670000", "184627.130000", "184627.590000", "184628.050000", "184628.510000", "184628.970000", "184629.430000", "184629.890000", "184630.350000", "184630.810000", "184631.270000", "184631.730000", "184632.190000", "184632.650000", "184633.110000", "184633.570000", "184634.030000", "184634.490000", "184634.950000", "184635.410000", "184635.870000", "184636.330000", "184636.790000", "184637.250000", "184637.710000", "184638.170000", "184638.630000", "184639.090000", "184639.550000", "184640.010000", "184640.470000", "184640.930000", "184641.390000", "184641.850000", "184642.310000", "184642.770000", "184643.230000", "184643.690000", "184644.150000", "184644.610000", "184645.070000", "184645.530000", "184645.990000", "184646.450000", "184646.910000", "184647.370000", "184647.830000", "184648.290000", "184648.750000", "184649.210000", "184649.670000", "184650.130000", "184650.590000", "184651.050000", "184651.510000", "184651.970000", "184652.430000", "184652.890000", "184653.350000", "184653.810000", "184654.270000", "184654.730000", "184655.190000", "184655.650000", "184656.110000", "184656.570000", "184657.030000", "184657.490000", "184657.950000", "184658.410000", "184658.870000", "184659.330000", "184659.790000", "184700.250000", "184700.710000", "184701.170000", "184701.630000", "184702.090000", "184702.550000", "184703.010000", "184703.470000", "184703.930000", "184704.390000", "184704.850000", "184705.310000", "184705.770000", "184706.230000", "184706.690000", "184707.150000", "184707.610000", "184708.070000", "184708.530000", "184708.990000", "184709.450000", "184709.910000", "184710.370000", "184710.830000", "184711.290000"],
