{
  "AcquisitionMatrixPE": 82,
  "AcquisitionNumber": 1,
  "AcquisitionTime": "19:17:52.857500",
  "BandwidthPerPixelPhaseEncode": 24.888,
  "BaseResolution": 82,
  "BodyPartExamined": "BRAIN",
  "ConsistencyInfo": "N4_VE11E_LATEST_20181129",
  "ConversionSoftware": "dcm2niix",
  "ConversionSoftwareVersion": "v1.0.20201102",
  "DerivedVendorReportedEchoSpacing": 0.00049,
  "DeviceSerialNumber": "66112",
  "DwellTime": 2e-06,
  "EchoTime": 0.0272,
  "EchoTrainLength": 82,
  "EffectiveEchoSpacing": 0.00049,
  "FlipAngle": 44,
  "ImageComments": "Unaliased MB8/PE3",
  "ImageOrientationPatientDICOM": [0.998752, -0.0281777, 0.0412456, 0.0228393, 0.991942, 0.124615],
  "ImageType": [
    "ORIGINAL",
    "PRIMARY",
    "M",
    "MB",
    "ND",
    "NORM",
    "MOSAIC"
],
  "ImagingFrequency": 123.252,
  "InPlanePhaseEncodingDirectionDICOM": "COL",
  "InstitutionAddress": "Maynard 3,Hanover,NH,US,03755",
  "InstitutionName": "Dartmouth College - PBS",
  "InstitutionalDepartmentName": "Department",
  "MRAcquisitionType": "2D",
  "MagneticFieldStrength": 3,
  "Manufacturer": "Siemens",
  "ManufacturersModelName": "Prisma",
  "Modality": "MR",
  "MultibandAccelerationFactor": 8,
  "PartialFourier": 1,
  "PatientPosition": "HFS",
  "PercentPhaseFOV": 100,
  "PercentSampling": 100,
  "PhaseEncodingDirection": "j-",
  "PhaseEncodingSteps": 82,
  "PhaseResolution": 1,
  "PixelBandwidth": 3050,
  "ProcedureStepDescription": "Wager_Wager^1076_spacetop",
  "ProtocolName": "func_run-01_task-faces_acq-ap-mb8",
  "PulseSequenceDetails": "%CustomerSeq%\\cmrr_mbep2d_bold",
  "ReceiveCoilActiveElements": "HEA;HEP",
  "ReceiveCoilName": "Head_32",
  "ReconMatrixPE": 82,
  "RepetitionTime": 0.46,
  "SAR": 0.114658,
  "ScanOptions": "FS",
  "ScanningSequence": "EP",
  "SequenceName": "epfid2d1_82",
  "SequenceVariant": "SK\\SS",
  "SeriesDescription": "func_run-01_task-faces_acq-ap-mb8",
  "SeriesNumber": 16,
  "ShimSetting": [4165, -7776, -7222, 578, -42, -85, 45, 87],
  "SliceThickness": 2.7,
  "SliceTiming": [0, 0.25, 0.0625, 0.315, 0.125, 0.3775, 0.1875, 0, 0.25, 0.0625, 0.315, 0.125, 0.3775, 0.1875, 0, 0.25, 0.0625, 0.315, 0.125, 0.3775, 0.1875, 0, 0.25, 0.0625, 0.315, 0.125, 0.3775, 0.1875, 0, 0.25, 0.0625, 0.315, 0.125, 0.3775, 0.1875, 0, 0.25, 0.0625, 0.315, 0.125, 0.3775, 0.1875, 0, 0.25, 0.0625, 0.315, 0.125, 0.3775, 0.1875, 0, 0.25, 0.0625, 0.315, 0.125, 0.3775, 0.1875],
  "SoftwareVersions": "syngo MR E11",
  "SpacingBetweenSlices": 2.7,
  "StationName": "AWP66112",
  "TaskName": "faces",
  "TotalReadoutTime": 0.03969,
  "TxRefAmp": 272.305,
  "WipMemBlock": "55e6dae9-b43b-498a-9e31-cbc77a758a3f||Sequence: R016 ve11e/master r/434b28f1; Aug  7 2019 18:53:46 by eja",
  "dcmmeta_affine": [
    [-2.679577589035034, 0.06127617508172989, 0.11994653195142746, 105.81131744384766],
    [0.07559862732887268, 2.661308526992798, 0.33349767327308655, -107.08131408691406],
    [0.11065898090600967, -0.334333598613739, 2.676638126373291, -57.053367614746094],
    [0.0, 0.0, 0.0, 1.0]
],
  "dcmmeta_reorient_transform": [
    [0.0, -1.0, 0.0, 81.0],
    [1.0, 0.0, 0.0, 0.0],
    [0.0, 0.0, 1.0, 0.0],
    [0.0, 0.0, 0.0, 1.0]
],
  "dcmmeta_shape": [82, 82, 56, 914],
  "dcmmeta_slice_dim": 2,
  "dcmmeta_version": 0.6,
  "global": {
    "const": {
      "AccessionNumber": "A004156",
      "AcquisitionMatrix": [82, 0, 0, 82],
      "AngioFlag": "N",
      "BitsAllocated": 16,
      "BitsStored": 16,
      "BodyPartExamined": "BRAIN",
      "Columns": 656,
      "EchoNumbers": 1,
      "EchoTime": 27.2,
      "EchoTrainLength": 82,
      "FlipAngle": 44.0,
      "HighBit": 15,
      "ImageOrientationPatient": [0.99875162962102, -0.0281776708279, 0.04124562032587, 0.02283930069892, 0.99194223967153, 0.12461524585306],
      "ImagePositionPatient": [-897.39972347166, -850.583407791, -211.84725993122],
      "ImageType": [
        "ORIGINAL",
        "PRIMARY",
        "M",
        "MB",
        "ND",
        "NORM",
        "MOSAIC"
],
      "ImagedNucleus": "1H",
      "ImagingFrequency": 123.252185,
      "InPlanePhaseEncodingDirection": "COL",
      "MRAcquisitionType": "2D",
      "MagneticFieldStrength": 3.0,
      "Manufacturer": "SIEMENS",
      "ManufacturerModelName": "Prisma",
      "Modality": "MR",
      "NumberOfAverages": 1.0,
      "NumberOfPhaseEncodingSteps": 82,
      "PercentPhaseFieldOfView": 100.0,
      "PercentSampling": 100.0,
      "PerformedProcedureStepStartTime": "182213.717000",
      "PhotometricInterpretation": "MONOCHROME2",
      "PixelBandwidth": 3050.0,
      "PixelRepresentation": 0,
      "PixelSpacing": [2.6829268932343, 2.6829268932343],
      "ProtocolName": "func_run-01_task-faces_acq-ap-mb8",
      "RepetitionTime": 460.0,
      "Rows": 656,
      "SAR": 0.11465827663085,
      "SamplesPerPixel": 1,
      "ScanOptions": "FS",
      "ScanningSequence": "EP",
      "SequenceName": "epfid2d1_82",
      "SequenceVariant": [
        "SK",
        "SS"
],
      "SeriesDescription": "func_run-01_task-faces_acq-ap-mb8",
      "SeriesNumber": 16,
      "SeriesTime": "191804.721000",
      "SliceLocation": -65.0855175969,
      "SliceThickness": 2.7000000476837,
      "SmallestImagePixelValue": 0,
      "SoftwareVersions": "syngo MR E11",
      "SpacingBetweenSlices": 2.700000023323,
      "SpecificCharacterSet": "ISO_IR 100",
      "StudyID": "1",
      "StudyTime": "182213.663000",
      "TransmitCoilName": "Body",
      "VariableFlipAngleFlag": "N",
      "WindowCenterWidthExplanation": "Algo1"
    },
    "slices": {}
  },
  "time": {
    "samples": {
      "AcquisitionNumber": [1, 2, 3, 4, 5, 6, 7, 8, 9, 10, 11, 12, 13, 14, 15, 16, 17, 18, 19, 20, 21, 22, 23, 24, 25, 26, 27, 28, 29, 30, 31, 32, 33, 34, 35, 36, 37, 38, 39, 40, 41, 42, 43, 44, 45, 46, 47, 48, 49, 50, 51, 52, 53, 54, 55, 56, 57, 58, 59, 60, 61, 62, 63, 64, 65, 66, 67, 68, 69, 70, 71, 72, 73, 74, 75, 76, 77, 78, 79, 80, 81, 82, 83, 84, 85, 86, 87, 88, 89, 90, 91, 92, 93, 94, 95, 96, 97, 98, 99, 100, 101, 102, 103, 104, 105, 106, 107, 108, 109, 110, 111, 112, 113, 114, 115, 116, 117, 118, 119, 120, 121, 122, 123, 124, 125, 126, 127, 128, 129, 130, 131, 132, 133, 134, 135, 136, 137, 138, 139, 140, 141, 142, 143, 144, 145, 146, 147, 148, 149, 150, 151, 152, 153, 154, 155, 156, 157, 158, 159, 160, 161, 162, 163, 164, 165, 166, 167, 168, 169, 170, 171, 172, 173, 174, 175, 176, 177, 178, 179, 180, 181, 182, 183, 184, 185, 186, 187, 188, 189, 190, 191, 192, 193, 194, 195, 196, 197, 198, 199, 200, 201, 202, 203, 204, 205, 206, 207, 208, 209, 210, 211, 212, 213, 214, 215, 216, 217, 218, 219, 220, 221, 222, 223, 224, 225, 226, 227, 228, 229, 230, 231, 232, 233, 234, 235, 236, 237, 238, 239, 240, 241, 242, 243, 244, 245, 246, 247, 248, 249, 250, 251, 252, 253, 254, 255, 256, 257, 258, 259, 260, 261, 262, 263, 264, 265, 266, 267, 268, 269, 270, 271, 272, 273, 274, 275, 276, 277, 278, 279, 280, 281, 282, 283, 284, 285, 286, 287, 288, 289, 290, 291, 292, 293, 294, 295, 296, 297, 298, 299, 300, 301, 302, 303, 304, 305, 306, 307, 308, 309, 310, 311, 312, 313, 314, 315, 316, 317, 318, 319, 320, 321, 322, 323, 324, 325, 326, 327, 328, 329, 330, 331, 332, 333, 334, 335, 336, 337, 338, 339, 340, 341, 342, 343, 344, 345, 346, 347, 348, 349, 350, 351, 352, 353, 354, 355, 356, 357, 358, 359, 360, 361, 362, 363, 364, 365, 366, 367, 368, 369, 370, 371, 372, 373, 374, 375, 376, 377, 378, 379, 380, 381, 382, 383, 384, 385, 386, 387, 388, 389, 390, 391, 392, 393, 394, 395, 396, 397, 398, 399, 400, 401, 402, 403, 404, 405, 406, 407, 408, 409, 410, 411, 412, 413, 414, 415, 416, 417, 418, 419, 420, 421, 422, 423, 424, 425, 426, 427, 428, 429, 430, 431, 432, 433, 434, 435, 436, 437, 438, 439, 440, 441, 442, 443, 444, 445, 446, 447, 448, 449, 450, 451, 452, 453, 454, 455, 456, 457, 458, 459, 460, 461, 462, 463, 464, 465, 466, 467, 468, 469, 470, 471, 472, 473, 474, 475, 476, 477, 478, 479, 480, 481, 482, 483, 484, 485, 486, 487, 488, 489, 490, 491, 492, 493, 494, 495, 496, 497, 498, 499, 500, 501, 502, 503, 504, 505, 506, 507, 508, 509, 510, 511, 512, 513, 514, 515, 516, 517, 518, 519, 520, 521, 522, 523, 524, 525, 526, 527, 528, 529, 530, 531, 532, 533, 534, 535, 536, 537, 538, 539, 540, 541, 542, 543, 544, 545, 546, 547, 548, 549, 550, 551, 552, 553, 554, 555, 556, 557, 558, 559, 560, 561, 562, 563, 564, 565, 566, 567, 568, 569, 570, 571, 572, 573, 574, 575, 576, 577, 578, 579, 580, 581, 582, 583, 584, 585, 586, 587, 588, 589, 590, 591, 592, 593, 594, 595, 596, 597, 598, 599, 600, 601, 602, 603, 604, 605, 606, 607, 608, 609, 610, 611, 612, 613, 614, 615, 616, 617, 618, 619, 620, 621, 622, 623, 624, 625, 626, 627, 628, 629, 630, 631, 632, 633, 634, 635, 636, 637, 638, 639, 640, 641, 642, 643, 644, 645, 646, 647, 648, 649, 650, 651, 652, 653, 654, 655, 656, 657, 658, 659, 660, 661, 662, 663, 664, 665, 666, 667, 668, 669, 670, 671, 672, 673, 674, 675, 676, 677, 678, 679, 680, 681, 682, 683, 684, 685, 686, 687, 688, 689, 690, 691, 692, 693, 694, 695, 696, 697, 698, 699, 700, 701, 702, 703, 704, 705, 706, 707, 708, 709, 710, 711, 712, 713, 714, 715, 716, 717, 718, 719, 720, 721, 722, 723, 724, 725, 726, 727, 728, 729, 730, 731, 732, 733, 734, 735, 736, 737, 738, 739, 740, 741, 742, 743, 744, 745, 746, 747, 748, 749, 750, 751, 752, 753, 754, 755, 756, 757, 758, 759, 760, 761, 762, 763, 764, 765, 766, 767, 768, 769, 770, 771, 772, 773, 774, 775, 776, 777, 778, 779, 780, 781, 782, 783, 784, 785, 786, 787, 788, 789, 790, 791, 792, 793, 794, 795, 796, 797, 798, 799, 800, 801, 802, 803, 804, 805, 806, 807, 808, 809, 810, 811, 812, 813, 814, 815, 816, 817, 818, 819, 820, 821, 822, 823, 824, 825, 826, 827, 828, 829, 830, 831, 832, 833, 834, 835, 836, 837, 838, 839, 840, 841, 842, 843, 844, 845, 846, 847, 848, 849, 850, 851, 852, 853, 854, 855, 856, 857, 858, 859, 860, 861, 862, 863, 864, 865, 866, 867, 868, 869, 870, 871, 872, 873, 874, 875, 876, 877, 878, 879, 880, 881, 882, 883, 884, 885, 886, 887, 888, 889, 890, 891, 892, 893, 894, 895, 896, 897, 898, 899, 900, 901, 902, 903, 904, 905, 906, 907, 908, 909, 910, 911, 912, 913, 914],
      "AcquisitionTime": ["191752.857500", "191753.317500", "191753.777500", "191754.237500", "191754.697500", "191755.157500", "191755.617500", "191756.077500", "191756.537500", "191756.997500", "191757.457500", "191757.917500", "191758.377500", "191758.837500", "191759.297500", "191759.757500", "191800.217500", "191800.677500", "191801.137500", "191801.597500", "191802.057500", "191802.517500", "191802.977500", "191803.437500", "191803.897500", "191804.357500", "191804.817500", "191805.277500", "191805.737500", "191806.197500", "191806.657500", "191807.117500", "191807.577500", "191808.037500", "191808.497500", "191808.957500", "191809.417500", "191809.877500", "191810.337500", "191810.797500", "191811.257500", "191811.717500", "191812.177500", "191812.637500", "191813.097500", "191813.557500", "191814.017500", "191814.477500", "191814.937500", "191815.397500", "191815.857500", "191816.317500", "191816.777500", "191817.237500", "191817.697500", "191818.157500", "191818.617500", "191819.077500", "191819.537500", "191819.997500", "191820.457500", "191820.917500", "191821.377500", "191821.837500", "191822.297500", "191822.757500", "191823.217500", "191823.677500", "191824.137500", "191824.597500", "191825.057500", "191825.517500", "191825.977500", "191826.437500", "191826.897500", "191827.357500", "191827.817500", "191828.277500", "191828.737500", "191829.197500", "191829.657500", "191830.117500", "191830.577500", "191831.037500", "191831.497500", "191831.957500", "191832.417500", "191832.877500", "191833.337500", "191833.797500", "191834.257500", "191834.717500", "191835.177500", "191835.637500", "191836.097500", "191836.557500", "191837.017500", "191837.477500", "191837.937500", "191838.397500", "191838.857500", "191839.317500", "191839.777500", "191840.237500", "191840.697500", "191841.157500", "191841.617500", "191842.077500", "191842.537500", "191842.997500", "191843.457500", "191843.917500", "191844.377500", "191844.837500", "191845.297500", "191845.757500", "191846.217500", "191846.677500", "191847.137500", "191847.597500", "191848.057500", "191848.517500", "191848.977500", "191849.437500", "191849.897500", "191850.357500", "191850.817500", "191851.277500", "191851.737500", "191852.197500", "191852.657500", "191853.117500", "191853.577500", "191854.037500", "191854.497500", "191854.957500", "191855.417500", "191855.877500", "191856.337500", "191856.797500", "191857.257500", "191857.717500", "191858.177500", "191858.637500", "191859.097500", "191859.557500", "191900.017500", "191900.477500", "191900.937500", "191901.397500", "191901.857500", "191902.317500", "191902.777500", "191903.237500", "191903.697500", "191904.157500", "191904.617500", "191905.077500", "191905.537500", "191905.997500", "191906.457500", "191906.917500", "191907.377500", "191907.837500", "191908.297500", "191908.757500", "191909.217500", "191909.677500", "191910.137500", "191910.597500", "191911.057500", "191911.517500", "191911.977500", "191912.437500", "191912.897500", "191913.357500", "191913.817500", "191914.277500", "191914.737500", "191915.197500", "191915.657500", "191916.117500", "191916.577500", "191917.037500", "191917.497500", "191917.957500", "191918.417500", "191918.877500", "191919.337500", "191919.797500", "191920.257500", "191920.717500", "191921.177500", "191921.637500", "191922.097500", "191922.557500", "191923.017500", "191923.477500", "191923.937500", "191924.397500", "191924.857500", "191925.317500", "191925.777500", "191926.237500", "191926.697500", "191927.157500", "191927.617500", "191928.077500", "191928.537500", "191928.997500", "191929.457500", "191929.917500", "191930.377500", "191930.837500", "191931.297500", "191931.757500", "191932.217500", "191932.677500", "191933.137500", "191933.597500", "191934.057500", "191934.517500", "191934.977500", "191935.437500", "191935.897500", "191936.357500", "191936.817500", "191937.277500", "191937.737500", "191938.197500", "191938.657500", "191939.117500", "191939.577500", "191940.037500", "191940.497500", "191940.957500", "191941.417500", "191941.877500", "191942.337500", "191942.797500", "191943.257500", "191943.717500", "191944.177500", "191944.637500", "191945.097500", "191945.557500", "191946.017500", "191946.477500", "191946.937500", "191947.397500", "191947.857500", "191948.317500", "191948.777500", "191949.237500", "191949.697500", "191950.157500", "191950.617500", "191951.077500", "191951.537500", "191951.997500", "191952.457500", "191952.917500", "191953.377500", "191953.837500", "191954.297500", "191954.757500", "191955.217500", "191955.677500", "191956.137500", "191956.597500", "191957.057500", "191957.517500", "191957.977500", "191958.437500", "191958.897500", "191959.357500", "191959.817500", "192000.277500", "192000.737500", "192001.197500", "192001.657500", "192002.117500", "192002.577500", "192003.037500", "192003.497500", "192003.957500", "192004.417500", "192004.877500", "192005.337500", "192005.797500", "192006.257500", "192006.717500", "192007.177500", "192007.637500", "192008.097500", "192008.557500", "192009.017500", "192009.477500", "192009.937500", "192010.397500", "192010.857500", "192011.317500", "192011.777500", "192012.237500", "192012.697500", "192013.157500", "192013.617500", "192014.077500", "192014.537500", "192014.997500", "192015.457500", "192015.917500", "192016.377500", "192016.837500", "192017.297500", "192017.757500", "192018.217500", "192018.677500", "192019.137500", "192019.597500", "192020.057500", "192020.517500", "192020.977500", "192021.437500", "192021.897500", "192022.357500", "192022.817500", "192023.277500", "192023.737500", "192024.197500", "192024.657500", "192025.117500", "192025.577500", "192026.037500", "192026.497500", "192026.957500", "192027.417500", "192027.877500", "192028.337500", "192028.797500", "192029.257500", "192029.717500", "192030.177500", "192030.637500", "192031.097500", "192031.557500", "192032.017500", "192032.477500", "192032.937500", "192033.397500", "192033.857500", "192034.317500", "192034.777500", "192035.237500", "192035.697500", "192036.157500", "192036.617500", "192037.077500", "192037.537500", "192037.997500", "192038.457500", "192038.917500", "192039.377500", "192039.837500", "192040.297500", "192040.757500", "192041.217500", "192041.677500", "192042.137500", "192042.597500", "192043.057500", "192043.517500", "192043.977500", "192044.437500", "192044.897500", "192045.357500", "192045.817500", "192046.277500", "192046.737500", "192047.197500", "192047.657500", "192048.117500", "192048.577500", "192049.037500", "192049.497500", "192049.957500", "192050.417500", "192050.877500", "192051.337500", "192051.797500", "192052.257500", "192052.717500", "192053.177500", "192053.637500", "192054.097500", "192054.557500", "192055.017500", "192055.477500", "192055.937500", "192056.397500", "192056.857500", "192057.317500", "192057.777500", "192058.237500", "192058.697500", "192059.157500", "192059.617500", "192100.077500", "192100.537500", "192100.997500", "192101.457500", "192101.917500", "192102.377500", "192102.837500", "192103.297500", "192103.757500", "192104.217500", "192104.677500", "192105.137500", "192105.597500", "192106.057500", "192106.517500", "192106.977500", "192107.437500", "192107.897500", "192108.357500", "192108.817500", "192109.277500", "192109.737500", "192110.197500", "192110.657500", "192111.117500", "192111.577500", "192112.037500", "192112.497500", "192112.957500", "192113.417500", "192113.877500", "192114.337500", "192114.797500", "192115.257500", "192115.717500", "192116.177500", "192116.637500", "192117.097500", "192117.557500", "192118.017500", "192118.477500", "192118.937500", "192119.397500", "192119.857500", "192120.317500", "192120.777500", "192121.237500", "192121.697500", "192122.157500", "192122.617500", "192123.077500", "192123.537500", "192123.997500", "192124.457500", "192124.917500", "192125.377500", "192125.837500", "192126.297500", "192126.757500", "192127.217500", "192127.677500", "192128.137500", "192128.597500", "192129.057500", "192129.517500", "192129.977500", "192130.437500", "192130.897500", "192131.357500", "192131.817500", "192132.277500", "192132.737500", "192133.197500", "192133.657500", "192134.117500", "192134.577500", "192135.037500", "192135.497500", "192135.957500", "192136.417500", "192136.877500", "192137.337500", "192137.797500", "192138.257500", "192138.717500", "192139.177500", "192139.637500", "192140.097500", "192140.557500", "192141.017500", "192141.477500", "192141.937500", "192142.397500", "192142.857500", "192143.317500", "192143.777500", "192144.237500", "192144.697500", "192145.157500", "192145.617500", "192146.077500", "192146.537500", "192146.997500", "192147.457500", "192147.917500", "192148.377500", "192148.837500", "192149.297500", "192149.757500", "192150.217500", "192150.677500", "192151.137500", "192151.597500", "192152.057500", "192152.517500", "192152.977500", "192153.437500", "192153.897500", "192154.357500", "192154.817500", "192155.277500", "192155.737500", "192156.197500", "192156.657500", "192157.117500", "192157.577500", "192158.037500", "192158.497500", "192158.957500", "192159.417500", "192159.877500", "192200.337500", "192200.797500", "192201.257500", "192201.717500", "192202.177500", "192202.637500", "192203.097500", "192203.557500", "192204.017500", "192204.477500", "192204.937500", "192205.397500", "192205.857500", "192206.317500", "192206.777500", "192207.237500", "192207.697500", "192208.157500", "192208.617500", "192209.077500", "192209.537500", "192209.997500", "192210.457500", "192210.917500", "192211.377500", "192211.837500", "192212.297500", "192212.757500", "192213.217500", "192213.677500", "192214.137500", "192214.597500", "192215.057500", "192215.517500", "192215.977500", "192216.437500", "192216.897500", "192217.357500", "192217.817500", "192218.277500", "192218.737500", "192219.197500", "192219.657500", "192220.117500", "192220.577500", "192221.037500", "192221.497500", "192221.957500", "192222.417500", "192222.877500", "192223.337500", "192223.797500", "192224.257500", "192224.717500", "192225.177500", "192225.637500", "192226.097500", "192226.557500", "192227.017500", "192227.477500", "192227.937500", "192228.397500", "192228.857500", "192229.317500", "192229.777500", "192230.237500", "192230.697500", "192231.157500", "192231.617500", "192232.077500", "192232.537500", "192232.997500", "192233.457500", "192233.917500", "192234.377500", "192234.837500", "192235.297500", "192235.757500", "192236.217500", "192236.677500", "192237.137500", "192237.597500", "192238.057500", "192238.517500", "192238.977500", "192239.437500", "192239.897500", "192240.357500", "192240.817500", "192241.277500", "192241.737500", "192242.197500", "192242.657500", "192243.117500", "192243.577500", "192244.037500", "192244.497500", "192244.957500", "192245.417500", "192245.877500", "192246.337500", "192246.797500", "192247.257500", "192247.717500", "192248.177500", "192248.637500", "192249.097500", "192249.557500", "192250.017500", "192250.477500", "192250.937500", "192251.397500", "192251.857500", "192252.317500", "192252.777500", "192253.237500", "192253.697500", "192254.157500", "192254.617500", "192255.077500", "192255.537500", "192255.997500", "192256.457500", "192256.917500", "192257.377500", "192257.837500", "192258.297500", "192258.757500", "192259.217500", "192259.677500", "192300.137500", "192300.597500", "192301.057500", "192301.517500", "192301.977500", "192302.437500", "192302.897500", "192303.357500", "192303.817500", "192304.277500", "192304.737500", "192305.197500", "192305.657500", "192306.117500", "192306.577500", "192307.037500", "192307.497500", "192307.957500", "192308.417500", "192308.877500", "192309.337500", "192309.797500", "192310.257500", "192310.717500", "192311.177500", "192311.637500", "192312.097500", "192312.557500", "192313.017500", "192313.477500", "192313.937500", "192314.397500", "192314.857500", "192315.317500", "192315.777500", "192316.237500", "192316.697500", "192317.157500", "192317.617500", "192318.077500", "192318.537500", "192318.997500", "192319.457500", "192319.917500", "192320.377500", "192320.837500", "192321.297500", "192321.757500", "192322.217500", "192322.677500", "192323.137500", "192323.597500", "192324.057500", "192324.517500", "192324.977500", "192325.437500", "192325.897500", "192326.357500", "192326.817500", "192327.277500", "192327.737500", "192328.197500", "192328.657500", "192329.117500", "192329.577500", "192330.037500", "192330.497500", "192330.957500", "192331.417500", "192331.877500", "192332.337500", "192332.797500", "192333.257500", "192333.717500", "192334.177500", "192334.637500", "192335.097500", "192335.557500", "192336.017500", "192336.477500", "192336.937500", "192337.397500", "192337.857500", "192338.317500", "192338.777500", "192339.237500", "192339.697500", "192340.157500", "192340.617500", "192341.077500", "192341.537500", "192341.997500", "192342.457500", "192342.917500", "192343.377500", "192343.837500", "192344.297500", "192344.757500", "192345.217500", "192345.677500", "192346.137500", "192346.597500", "192347.057500", "192347.517500", "192347.977500", "192348.437500", "192348.897500", "192349.357500", "192349.817500", "192350.277500", "192350.737500", "192351.197500", "192351.657500", "192352.117500", "192352.577500", "192353.037500", "192353.497500", "192353.957500", "192354.417500", "192354.877500", "192355.337500", "192355.797500", "192356.257500", "192356.717500", "192357.177500", "192357.637500", "192358.097500", "192358.557500", "192359.017500", "192359.477500", "192359.937500", "192400.397500", "192400.857500", "192401.317500", "192401.777500", "192402.237500", "192402.697500", "192403.157500", "192403.617500", "192404.077500", "192404.537500", "192404.997500", "192405.457500", "192405.917500", "192406.377500", "192406.837500", "192407.297500", "192407.757500", "192408.217500", "192408.677500", "192409.137500", "192409.597500", "192410.057500", "192410.517500", "192410.977500", "192411.437500", "192411.897500", "192412.357500", "192412.817500", "192413.277500", "192413.737500", "192414.197500", "192414.657500", "192415.117500", "192415.577500", "192416.037500", "192416.497500", "192416.957500", "192417.417500", "192417.877500", "192418.337500", "192418.797500", "192419.257500", "192419.717500", "192420.177500", "192420.637500", "192421.097500", "192421.557500", "192422.017500", "192422.477500", "192422.937500", "192423.397500", "192423.857500", "192424.317500", "192424.777500", "192425.237500", "192425.697500", "192426.157500", "192426.617500", "192427.077500", "192427.537500", "192427.997500", "192428.457500", "192428.917500", "192429.377500", "192429.837500", "192430.297500", "192430.757500", "192431.217500", "192431.677500", "192432.137500", "192432.597500", "192433.057500", "192433.517500", "192433.977500", "192434.437500", "192434.897500", "192435.357500", "192435.817500", "192436.277500", "192436.737500", "192437.197500", "192437.657500", "192438.117500", "192438.577500", "192439.037500", "192439.497500", "192439.957500", "192440.417500", "192440.877500", "192441.337500", "192441.797500", "192442.257500", "192442.717500", "192443.177500", "192443.637500", "192444.097500", "192444.557500", "192445.017500", "192445.477500", "192445.937500", "192446.397500", "192446.857500", "192447.317500", "192447.777500", "192448.237500", "192448.697500", "192449.157500", "192449.617500", "192450.077500", "192450.537500", "192450.997500", "192451.457500", "192451.917500", "192452.377500", "192452.837500"],
