{
  "AcquisitionMatrixPE": 82,
  "AcquisitionNumber": 1,
  "AcquisitionTime": "19:25:13.115000",
  "BandwidthPerPixelPhaseEncode": 24.888,
  "BaseResolution": 82,
  "BodyPartExamined": "BRAIN",
  "ConsistencyInfo": "N4_VE11E_LATEST_20181129",
  "ConversionSoftware": "dcm2niix",
  "ConversionSoftwareVersion": "v1.0.20201102",
  "DerivedVendorReportedEchoSpacing": 0.00049,
  "DeviceSerialNumber": "66112",
  "DwellTime": 2e-06,
  "EchoTime": 0.0272,
  "EchoTrainLength": 82,
  "EffectiveEchoSpacing": 0.00049,
  "FlipAngle": 44,
  "ImageComments": "Unaliased MB8/PE3",
  "ImageOrientationPatientDICOM": [0.998752, -0.0281777, 0.0412456, 0.0228393, 0.991942, 0.124615],
  "ImageType": [
    "ORIGINAL",
    "PRIMARY",
    "M",
    "MB",
    "ND",
    "NORM",
    "MOSAIC"
],
  "ImagingFrequency": 123.252,
  "InPlanePhaseEncodingDirectionDICOM": "COL",
  "InstitutionAddress": "Maynard 3,Hanover,NH,US,03755",
  "InstitutionName": "Dartmouth College - PBS",
  "InstitutionalDepartmentName": "Department",
  "MRAcquisitionType": "2D",
  "MagneticFieldStrength": 3,
  "Manufacturer": "Siemens",
  "ManufacturersModelName": "Prisma",
  "Modality": "MR",
  "MultibandAccelerationFactor": 8,
  "PartialFourier": 1,
  "PatientPosition": "HFS",
  "PercentPhaseFOV": 100,
  "PercentSampling": 100,
  "PhaseEncodingDirection": "j-",
  "PhaseEncodingSteps": 82,
  "PhaseResolution": 1,
  "PixelBandwidth": 3050,
  "ProcedureStepDescription": "Wager_Wager^1076_spacetop",
  "ProtocolName": "func_run-02_task-faces_acq-ap-mb8",
  "PulseSequenceDetails": "%CustomerSeq%\\cmrr_mbep2d_bold",
  "ReceiveCoilActiveElements": "HEA;HEP",
  "ReceiveCoilName": "Head_32",
  "ReconMatrixPE": 82,
  "RepetitionTime": 0.46,
  "SAR": 0.114658,
  "ScanOptions": "FS",
  "ScanningSequence": "EP",
  "SequenceName": "epfid2d1_82",
  "SequenceVariant": "SK\\SS",
  "SeriesDescription": "func_run-02_task-faces_acq-ap-mb8",
  "SeriesNumber": 18,
  "ShimSetting": [4165, -7776, -7222, 578, -42, -85, 45, 87],
  "SliceThickness": 2.7,
  "SliceTiming": [0, 0.25, 0.0625, 0.3125, 0.125, 0.375, 0.1875, 0, 0.25, 0.0625, 0.3125, 0.125, 0.375, 0.1875, 0, 0.25, 0.0625, 0.3125, 0.125, 0.375, 0.1875, 0, 0.25, 0.0625, 0.3125, 0.125, 0.375, 0.1875, 0, 0.25, 0.0625, 0.3125, 0.125, 0.375, 0.1875, 0, 0.25, 0.0625, 0.3125, 0.125, 0.375, 0.1875, 0, 0.25, 0.0625, 0.3125, 0.125, 0.375, 0.1875, 0, 0.25, 0.0625, 0.3125, 0.125, 0.375, 0.1875],
  "SoftwareVersions": "syngo MR E11",
  "SpacingBetweenSlices": 2.7,
  "StationName": "AWP66112",
  "TaskName": "faces",
  "TotalReadoutTime": 0.03969,
  "TxRefAmp": 272.305,
  "WipMemBlock": "5036c640-e200-402a-b09b-11c803a75fd0||Sequence: R016 ve11e/master r/434b28f1; Aug  7 2019 18:53:46 by eja",
  "dcmmeta_affine": [
    [-2.679577589035034, 0.06127617508172989, 0.11994653195142746, 105.81131744384766],
    [0.07559862732887268, 2.661308526992798, 0.33349767327308655, -107.08131408691406],
    [0.11065898090600967, -0.334333598613739, 2.676638126373291, -57.053367614746094],
    [0.0, 0.0, 0.0, 1.0]
],
  "dcmmeta_reorient_transform": [
    [0.0, -1.0, 0.0, 81.0],
    [1.0, 0.0, 0.0, 0.0],
    [0.0, 0.0, 1.0, 0.0],
    [0.0, 0.0, 0.0, 1.0]
],
  "dcmmeta_shape": [82, 82, 56, 914],
  "dcmmeta_slice_dim": 2,
  "dcmmeta_version": 0.6,
  "global": {
    "const": {
      "AccessionNumber": "A004156",
      "AcquisitionMatrix": [82, 0, 0, 82],
      "AngioFlag": "N",
      "BitsAllocated": 16,
      "BitsStored": 16,
      "BodyPartExamined": "BRAIN",
      "Columns": 656,
      "EchoNumbers": 1,
      "EchoTime": 27.2,
      "EchoTrainLength": 82,
      "FlipAngle": 44.0,
      "HighBit": 15,
      "ImageOrientationPatient": [0.99875162962102, -0.0281776708279, 0.04124562032587, 0.02283930069892, 0.99194223967153, 0.12461524585306],
      "ImagePositionPatient": [-897.39972347166, -850.583407791, -211.84725993122],
      "ImageType": [
        "ORIGINAL",
        "PRIMARY",
        "M",
        "MB",
        "ND",
        "NORM",
        "MOSAIC"
],
      "ImagedNucleus": "1H",
      "ImagingFrequency": 123.252188,
      "InPlanePhaseEncodingDirection": "COL",
      "MRAcquisitionType": "2D",
      "MagneticFieldStrength": 3.0,
      "Manufacturer": "SIEMENS",
      "ManufacturerModelName": "Prisma",
      "Modality": "MR",
      "NumberOfAverages": 1.0,
      "NumberOfPhaseEncodingSteps": 82,
      "PercentPhaseFieldOfView": 100.0,
      "PercentSampling": 100.0,
      "PerformedProcedureStepStartTime": "182213.717000",
      "PhotometricInterpretation": "MONOCHROME2",
      "PixelBandwidth": 3050.0,
      "PixelRepresentation": 0,
      "PixelSpacing": [2.6829268932343, 2.6829268932343],
      "ProtocolName": "func_run-02_task-faces_acq-ap-mb8",
      "RepetitionTime": 460.0,
      "Rows": 656,
      "SAR": 0.11465827663085,
      "SamplesPerPixel": 1,
      "ScanOptions": "FS",
      "ScanningSequence": "EP",
      "SequenceName": "epfid2d1_82",
      "SequenceVariant": [
        "SK",
        "SS"
],
      "SeriesDescription": "func_run-02_task-faces_acq-ap-mb8",
      "SeriesNumber": 18,
      "SeriesTime": "192524.773000",
      "SliceLocation": -65.0855175969,
      "SliceThickness": 2.7000000476837,
      "SmallestImagePixelValue": 0,
      "SoftwareVersions": "syngo MR E11",
      "SpacingBetweenSlices": 2.700000023323,
      "SpecificCharacterSet": "ISO_IR 100",
      "StudyID": "1",
      "StudyTime": "182213.663000",
      "TransmitCoilName": "Body",
      "VariableFlipAngleFlag": "N",
      "WindowCenterWidthExplanation": "Algo1"
    },
    "slices": {}
  },
  "time": {
    "samples": {
      "AcquisitionNumber": [1, 2, 3, 4, 5, 6, 7, 8, 9, 10, 11, 12, 13, 14, 15, 16, 17, 18, 19, 20, 21, 22, 23, 24, 25, 26, 27, 28, 29, 30, 31, 32, 33, 34, 35, 36, 37, 38, 39, 40, 41, 42, 43, 44, 45, 46, 47, 48, 49, 50, 51, 52, 53, 54, 55, 56, 57, 58, 59, 60, 61, 62, 63, 64, 65, 66, 67, 68, 69, 70, 71, 72, 73, 74, 75, 76, 77, 78, 79, 80, 81, 82, 83, 84, 85, 86, 87, 88, 89, 90, 91, 92, 93, 94, 95, 96, 97, 98, 99, 100, 101, 102, 103, 104, 105, 106, 107, 108, 109, 110, 111, 112, 113, 114, 115, 116, 117, 118, 119, 120, 121, 122, 123, 124, 125, 126, 127, 128, 129, 130, 131, 132, 133, 134, 135, 136, 137, 138, 139, 140, 141, 142, 143, 144, 145, 146, 147, 148, 149, 150, 151, 152, 153, 154, 155, 156, 157, 158, 159, 160, 161, 162, 163, 164, 165, 166, 167, 168, 169, 170, 171, 172, 173, 174, 175, 176, 177, 178, 179, 180, 181, 182, 183, 184, 185, 186, 187, 188, 189, 190, 191, 192, 193, 194, 195, 196, 197, 198, 199, 200, 201, 202, 203, 204, 205, 206, 207, 208, 209, 210, 211, 212, 213, 214, 215, 216, 217, 218, 219, 220, 221, 222, 223, 224, 225, 226, 227, 228, 229, 230, 231, 232, 233, 234, 235, 236, 237, 238, 239, 240, 241, 242, 243, 244, 245, 246, 247, 248, 249, 250, 251, 252, 253, 254, 255, 256, 257, 258, 259, 260, 261, 262, 263, 264, 265, 266, 267, 268, 269, 270, 271, 272, 273, 274, 275, 276, 277, 278, 279, 280, 281, 282, 283, 284, 285, 286, 287, 288, 289, 290, 291, 292, 293, 294, 295, 296, 297, 298, 299, 300, 301, 302, 303, 304, 305, 306, 307, 308, 309, 310, 311, 312, 313, 314, 315, 316, 317, 318, 319, 320, 321, 322, 323, 324, 325, 326, 327, 328, 329, 330, 331, 332, 333, 334, 335, 336, 337, 338, 339, 340, 341, 342, 343, 344, 345, 346, 347, 348, 349, 350, 351, 352, 353, 354, 355, 356, 357, 358, 359, 360, 361, 362, 363, 364, 365, 366, 367, 368, 369, 370, 371, 372, 373, 374, 375, 376, 377, 378, 379, 380, 381, 382, 383, 384, 385, 386, 387, 388, 389, 390, 391, 392, 393, 394, 395, 396, 397, 398, 399, 400, 401, 402, 403, 404, 405, 406, 407, 408, 409, 410, 411, 412, 413, 414, 415, 416, 417, 418, 419, 420, 421, 422, 423, 424, 425, 426, 427, 428, 429, 430, 431, 432, 433, 434, 435, 436, 437, 438, 439, 440, 441, 442, 443, 444, 445, 446, 447, 448, 449, 450, 451, 452, 453, 454, 455, 456, 457, 458, 459, 460, 461, 462, 463, 464, 465, 466, 467, 468, 469, 470, 471, 472, 473, 474, 475, 476, 477, 478, 479, 480, 481, 482, 483, 484, 485, 486, 487, 488, 489, 490, 491, 492, 493, 494, 495, 496, 497, 498, 499, 500, 501, 502, 503, 504, 505, 506, 507, 508, 509, 510, 511, 512, 513, 514, 515, 516, 517, 518, 519, 520, 521, 522, 523, 524, 525, 526, 527, 528, 529, 530, 531, 532, 533, 534, 535, 536, 537, 538, 539, 540, 541, 542, 543, 544, 545, 546, 547, 548, 549, 550, 551, 552, 553, 554, 555, 556, 557, 558, 559, 560, 561, 562, 563, 564, 565, 566, 567, 568, 569, 570, 571, 572, 573, 574, 575, 576, 577, 578, 579, 580, 581, 582, 583, 584, 585, 586, 587, 588, 589, 590, 591, 592, 593, 594, 595, 596, 597, 598, 599, 600, 601, 602, 603, 604, 605, 606, 607, 608, 609, 610, 611, 612, 613, 614, 615, 616, 617, 618, 619, 620, 621, 622, 623, 624, 625, 626, 627, 628, 629, 630, 631, 632, 633, 634, 635, 636, 637, 638, 639, 640, 641, 642, 643, 644, 645, 646, 647, 648, 649, 650, 651, 652, 653, 654, 655, 656, 657, 658, 659, 660, 661, 662, 663, 664, 665, 666, 667, 668, 669, 670, 671, 672, 673, 674, 675, 676, 677, 678, 679, 680, 681, 682, 683, 684, 685, 686, 687, 688, 689, 690, 691, 692, 693, 694, 695, 696, 697, 698, 699, 700, 701, 702, 703, 704, 705, 706, 707, 708, 709, 710, 711, 712, 713, 714, 715, 716, 717, 718, 719, 720, 721, 722, 723, 724, 725, 726, 727, 728, 729, 730, 731, 732, 733, 734, 735, 736, 737, 738, 739, 740, 741, 742, 743, 744, 745, 746, 747, 748, 749, 750, 751, 752, 753, 754, 755, 756, 757, 758, 759, 760, 761, 762, 763, 764, 765, 766, 767, 768, 769, 770, 771, 772, 773, 774, 775, 776, 777, 778, 779, 780, 781, 782, 783, 784, 785, 786, 787, 788, 789, 790, 791, 792, 793, 794, 795, 796, 797, 798, 799, 800, 801, 802, 803, 804, 805, 806, 807, 808, 809, 810, 811, 812, 813, 814, 815, 816, 817, 818, 819, 820, 821, 822, 823, 824, 825, 826, 827, 828, 829, 830, 831, 832, 833, 834, 835, 836, 837, 838, 839, 840, 841, 842, 843, 844, 845, 846, 847, 848, 849, 850, 851, 852, 853, 854, 855, 856, 857, 858, 859, 860, 861, 862, 863, 864, 865, 866, 867, 868, 869, 870, 871, 872, 873, 874, 875, 876, 877, 878, 879, 880, 881, 882, 883, 884, 885, 886, 887, 888, 889, 890, 891, 892, 893, 894, 895, 896, 897, 898, 899, 900, 901, 902, 903, 904, 905, 906, 907, 908, 909, 910, 911, 912, 913, 914],
      "AcquisitionTime": ["192513.115000", "192513.575000", "192514.035000", "192514.495000", "192514.955000", "192515.415000", "192515.875000", "192516.335000", "192516.795000", "192517.255000", "192517.715000", "192518.175000", "192518.635000", "192519.095000", "192519.555000", "192520.015000", "192520.475000", "192520.935000", "192521.395000", "192521.855000", "192522.315000", "192522.775000", "192523.235000", "192523.695000", "192524.155000", "192524.615000", "192525.075000", "192525.535000", "192525.995000", "192526.455000", "192526.915000", "192527.375000", "192527.835000", "192528.295000", "192528.755000", "192529.215000", "192529.675000", "192530.135000", "192530.595000", "192531.055000", "192531.515000", "192531.975000", "192532.435000", "192532.895000", "192533.355000", "192533.815000", "192534.275000", "192534.735000", "192535.195000", "192535.655000", "192536.115000", "192536.575000", "192537.035000", "192537.495000", "192537.955000", "192538.415000", "192538.875000", "192539.335000", "192539.795000", "192540.255000", "192540.715000", "192541.175000", "192541.635000", "192542.095000", "192542.555000", "192543.015000", "192543.475000", "192543.935000", "192544.395000", "192544.855000", "192545.315000", "192545.775000", "192546.235000", "192546.695000", "192547.155000", "192547.615000", "192548.075000", "192548.535000", "192548.995000", "192549.455000", "192549.915000", "192550.375000", "192550.835000", "192551.295000", "192551.755000", "192552.215000", "192552.675000", "192553.135000", "192553.595000", "192554.055000", "192554.515000", "192554.975000", "192555.435000", "192555.895000", "192556.355000", "192556.815000", "192557.275000", "192557.735000", "192558.195000", "192558.655000", "192559.115000", "192559.575000", "192600.035000", "192600.495000", "192600.955000", "192601.415000", "192601.875000", "192602.335000", "192602.795000", "192603.255000", "192603.715000", "192604.175000", "192604.635000", "192605.095000", "192605.555000", "192606.015000", "192606.475000", "192606.935000", "192607.395000", "192607.855000", "192608.315000", "192608.775000", "192609.235000", "192609.695000", "192610.155000", "192610.615000", "192611.075000", "192611.535000", "192611.995000", "192612.455000", "192612.915000", "192613.375000", "192613.835000", "192614.295000", "192614.755000", "192615.215000", "192615.675000", "192616.135000", "192616.595000", "192617.055000", "192617.515000", "192617.975000", "192618.435000", "192618.895000", "192619.355000", "192619.815000", "192620.275000", "192620.735000", "192621.195000", "192621.655000", "192622.115000", "192622.575000", "192623.035000", "192623.495000", "192623.955000", "192624.415000", "192624.875000", "192625.335000", "192625.795000", "192626.255000", "192626.715000", "192627.175000", "192627.635000", "192628.095000", "192628.555000", "192629.015000", "192629.475000", "192629.935000", "192630.395000", "192630.855000", "192631.315000", "192631.775000", "192632.235000", "192632.695000", "192633.155000", "192633.615000", "192634.075000", "192634.535000", "192634.995000", "192635.455000", "192635.915000", "192636.375000", "192636.835000", "192637.295000", "192637.755000", "192638.215000", "192638.675000", "192639.135000", "192639.595000", "192640.055000", "192640.515000", "192640.975000", "192641.435000", "192641.895000", "192642.355000", "192642.815000", "192643.275000", "192643.735000", "192644.195000", "192644.655000", "192645.115000", "192645.575000", "192646.035000", "192646.495000", "192646.955000", "192647.415000", "192647.875000", "192648.335000", "192648.795000", "192649.255000", "192649.715000", "192650.175000", "192650.635000", "192651.095000", "192651.555000", "192652.015000", "192652.475000", "192652.935000", "192653.395000", "192653.855000", "192654.315000", "192654.775000", "192655.235000", "192655.695000", "192656.155000", "192656.615000", "192657.075000", "192657.535000", "192657.995000", "192658.455000", "192658.915000", "192659.375000", "192659.835000", "192700.295000", "192700.755000", "192701.215000", "192701.675000", "192702.135000", "192702.595000", "192703.055000", "192703.515000", "192703.975000", "192704.435000", "192704.895000", "192705.355000", "192705.815000", "192706.275000", "192706.735000", "192707.195000", "192707.655000", "192708.115000", "192708.575000", "192709.035000", "192709.495000", "192709.955000", "192710.415000", "192710.875000", "192711.335000", "192711.795000", "192712.255000", "192712.715000", "192713.175000", "192713.635000", "192714.095000", "192714.555000", "192715.015000", "192715.475000", "192715.935000", "192716.395000", "192716.855000", "192717.315000", "192717.775000", "192718.235000", "192718.695000", "192719.155000", "192719.615000", "192720.075000", "192720.535000", "192720.995000", "192721.455000", "192721.915000", "192722.375000", "192722.835000", "192723.295000", "192723.755000", "192724.215000", "192724.675000", "192725.135000", "192725.595000", "192726.055000", "192726.515000", "192726.975000", "192727.435000", "192727.895000", "192728.355000", "192728.815000", "192729.275000", "192729.735000", "192730.195000", "192730.655000", "192731.115000", "192731.575000", "192732.035000", "192732.495000", "192732.955000", "192733.415000", "192733.875000", "192734.335000", "192734.795000", "192735.255000", "192735.715000", "192736.175000", "192736.635000", "192737.095000", "192737.555000", "192738.015000", "192738.475000", "192738.935000", "192739.395000", "192739.855000", "192740.315000", "192740.775000", "192741.235000", "192741.695000", "192742.155000", "192742.615000", "192743.075000", "192743.535000", "192743.995000", "192744.455000", "192744.915000", "192745.375000", "192745.835000", "192746.295000", "192746.755000", "192747.215000", "192747.675000", "192748.135000", "192748.595000", "192749.055000", "192749.515000", "192749.975000", "192750.435000", "192750.895000", "192751.355000", "192751.815000", "192752.275000", "192752.735000", "192753.195000", "192753.655000", "192754.115000", "192754.575000", "192755.035000", "192755.495000", "192755.955000", "192756.415000", "192756.875000", "192757.335000", "192757.795000", "192758.255000", "192758.715000", "192759.175000", "192759.635000", "192800.095000", "192800.555000", "192801.015000", "192801.475000", "192801.935000", "192802.395000", "192802.855000", "192803.315000", "192803.775000", "192804.235000", "192804.695000", "192805.155000", "192805.615000", "192806.075000", "192806.535000", "192806.995000", "192807.455000", "192807.915000", "192808.375000", "192808.835000", "192809.295000", "192809.755000", "192810.215000", "192810.675000", "192811.135000", "192811.595000", "192812.055000", "192812.515000", "192812.975000", "192813.435000", "192813.895000", "192814.355000", "192814.815000", "192815.275000", "192815.735000", "192816.195000", "192816.655000", "192817.115000", "192817.575000", "192818.035000", "192818.495000", "192818.955000", "192819.415000", "192819.875000", "192820.335000", "192820.795000", "192821.255000", "192821.715000", "192822.175000", "192822.635000", "192823.095000", "192823.555000", "192824.015000", "192824.475000", "192824.935000", "192825.395000", "192825.855000", "192826.315000", "192826.775000", "192827.235000", "192827.695000", "192828.155000", "192828.615000", "192829.075000", "192829.535000", "192829.995000", "192830.455000", "192830.915000", "192831.375000", "192831.835000", "192832.295000", "192832.755000", "192833.215000", "192833.675000", "192834.135000", "192834.595000", "192835.055000", "192835.515000", "192835.975000", "192836.435000", "192836.895000", "192837.355000", "192837.815000", "192838.275000", "192838.735000", "192839.195000", "192839.655000", "192840.115000", "192840.575000", "192841.035000", "192841.495000", "192841.955000", "192842.415000", "192842.875000", "192843.335000", "192843.795000", "192844.255000", "192844.715000", "192845.175000", "192845.635000", "192846.095000", "192846.555000", "192847.015000", "192847.475000", "192847.935000", "192848.395000", "192848.855000", "192849.315000", "192849.775000", "192850.235000", "192850.695000", "192851.155000", "192851.615000", "192852.075000", "192852.535000", "192852.995000", "192853.455000", "192853.915000", "192854.375000", "192854.835000", "192855.295000", "192855.755000", "192856.215000", "192856.675000", "192857.135000", "192857.595000", "192858.055000", "192858.515000", "192858.975000", "192859.435000", "192859.895000", "192900.355000", "192900.815000", "192901.275000", "192901.735000", "192902.195000", "192902.655000", "192903.115000", "192903.575000", "192904.035000", "192904.495000", "192904.955000", "192905.415000", "192905.875000", "192906.335000", "192906.795000", "192907.255000", "192907.715000", "192908.175000", "192908.635000", "192909.095000", "192909.555000", "192910.015000", "192910.475000", "192910.935000", "192911.395000", "192911.855000", "192912.315000", "192912.775000", "192913.235000", "192913.695000", "192914.155000", "192914.615000", "192915.075000", "192915.535000", "192915.995000", "192916.455000", "192916.915000", "192917.375000", "192917.835000", "192918.295000", "192918.755000", "192919.215000", "192919.675000", "192920.135000", "192920.595000", "192921.055000", "192921.515000", "192921.975000", "192922.435000", "192922.895000", "192923.355000", "192923.815000", "192924.275000", "192924.735000", "192925.195000", "192925.655000", "192926.115000", "192926.575000", "192927.035000", "192927.495000", "192927.955000", "192928.415000", "192928.875000", "192929.335000", "192929.795000", "192930.255000", "192930.715000", "192931.175000", "192931.635000", "192932.095000", "192932.555000", "192933.015000", "192933.475000", "192933.935000", "192934.395000", "192934.855000", "192935.315000", "192935.775000", "192936.235000", "192936.695000", "192937.155000", "192937.615000", "192938.075000", "192938.535000", "192938.995000", "192939.455000", "192939.915000", "192940.375000", "192940.835000", "192941.295000", "192941.755000", "192942.215000", "192942.675000", "192943.135000", "192943.595000", "192944.055000", "192944.515000", "192944.975000", "192945.435000", "192945.895000", "192946.355000", "192946.815000", "192947.275000", "192947.735000", "192948.195000", "192948.655000", "192949.115000", "192949.575000", "192950.035000", "192950.495000", "192950.955000", "192951.415000", "192951.875000", "192952.335000", "192952.795000", "192953.255000", "192953.715000", "192954.175000", "192954.635000", "192955.095000", "192955.555000", "192956.015000", "192956.475000", "192956.935000", "192957.395000", "192957.855000", "192958.315000", "192958.775000", "192959.235000", "192959.695000", "193000.155000", "193000.615000", "193001.075000", "193001.535000", "193001.995000", "193002.455000", "193002.915000", "193003.375000", "193003.835000", "193004.295000", "193004.755000", "193005.215000", "193005.675000", "193006.135000", "193006.595000", "193007.055000", "193007.515000", "193007.975000", "193008.435000", "193008.895000", "193009.355000", "193009.815000", "193010.275000", "193010.735000", "193011.195000", "193011.655000", "193012.115000", "193012.575000", "193013.035000", "193013.495000", "193013.955000", "193014.415000", "193014.875000", "193015.335000", "193015.795000", "193016.255000", "193016.715000", "193017.175000", "193017.635000", "193018.095000", "193018.555000", "193019.015000", "193019.475000", "193019.935000", "193020.395000", "193020.855000", "193021.315000", "193021.775000", "193022.235000", "193022.695000", "193023.155000", "193023.615000", "193024.075000", "193024.535000", "193024.995000", "193025.455000", "193025.915000", "193026.375000", "193026.835000", "193027.295000", "193027.755000", "193028.215000", "193028.675000", "193029.135000", "193029.595000", "193030.055000", "193030.515000", "193030.975000", "193031.435000", "193031.895000", "193032.355000", "193032.815000", "193033.275000", "193033.735000", "193034.195000", "193034.655000", "193035.115000", "193035.575000", "193036.035000", "193036.495000", "193036.955000", "193037.415000", "193037.875000", "193038.335000", "193038.795000", "193039.255000", "193039.715000", "193040.175000", "193040.635000", "193041.095000", "193041.555000", "193042.015000", "193042.475000", "193042.935000", "193043.395000", "193043.855000", "193044.315000", "193044.775000", "193045.235000", "193045.695000", "193046.155000", "193046.615000", "193047.075000", "193047.535000", "193047.995000", "193048.455000", "193048.915000", "193049.375000", "193049.835000", "193050.295000", "193050.755000", "193051.215000", "193051.675000", "193052.135000", "193052.595000", "193053.055000", "193053.515000", "193053.975000", "193054.435000", "193054.895000", "193055.355000", "193055.815000", "193056.275000", "193056.735000", "193057.195000", "193057.655000", "193058.115000", "193058.575000", "193059.035000", "193059.495000", "193059.955000", "193100.415000", "193100.875000", "193101.335000", "193101.795000", "193102.255000", "193102.715000", "193103.175000", "193103.635000", "193104.095000", "193104.555000", "193105.015000", "193105.475000", "193105.935000", "193106.395000", "193106.855000", "193107.315000", "193107.775000", "193108.235000", "193108.695000", "193109.155000", "193109.615000", "193110.075000", "193110.535000", "193110.995000", "193111.455000", "193111.915000", "193112.375000", "193112.835000", "193113.295000", "193113.755000", "193114.215000", "193114.675000", "193115.135000", "193115.595000", "193116.055000", "193116.515000", "193116.975000", "193117.435000", "193117.895000", "193118.355000", "193118.815000", "193119.275000", "193119.735000", "193120.195000", "193120.655000", "193121.115000", "193121.575000", "193122.035000", "193122.495000", "193122.955000", "193123.415000", "193123.875000", "193124.335000", "193124.795000", "193125.255000", "193125.715000", "193126.175000", "193126.635000", "193127.095000", "193127.555000", "193128.015000", "193128.475000", "193128.935000", "193129.395000", "193129.855000", "193130.315000", "193130.775000", "193131.235000", "193131.695000", "193132.155000", "193132.615000", "193133.075000", "193133.535000", "193133.995000", "193134.455000", "193134.915000", "193135.375000", "193135.835000", "193136.295000", "193136.755000", "193137.215000", "193137.675000", "193138.135000", "193138.595000", "193139.055000", "193139.515000", "193139.975000", "193140.435000", "193140.895000", "193141.355000", "193141.815000", "193142.275000", "193142.735000", "193143.195000", "193143.655000", "193144.115000", "193144.575000", "193145.035000", "193145.495000", "193145.955000", "193146.415000", "193146.875000", "193147.335000", "193147.795000", "193148.255000", "193148.715000", "193149.175000", "193149.635000", "193150.095000", "193150.555000", "193151.015000", "193151.475000", "193151.935000", "193152.395000", "193152.855000", "193153.315000", "193153.775000", "193154.235000", "193154.695000", "193155.155000", "193155.615000", "193156.075000", "193156.535000", "193156.995000", "193157.455000", "193157.915000", "193158.375000", "193158.835000", "193159.295000", "193159.755000", "193200.215000", "193200.675000", "193201.135000", "193201.595000", "193202.055000", "193202.515000", "193202.975000", "193203.435000", "193203.895000", "193204.355000", "193204.815000", "193205.275000", "193205.735000", "193206.195000", "193206.655000", "193207.115000", "193207.575000", "193208.035000", "193208.495000", "193208.955000", "193209.415000", "193209.875000", "193210.335000", "193210.795000", "193211.255000", "193211.715000", "193212.175000", "193212.635000", "193213.095000"],
