{
  "AcquisitionMatrixPE": 82,
  "AcquisitionNumber": 1,
  "AcquisitionTime": "19:42:9.887500",
  "BandwidthPerPixelPhaseEncode": 24.888,
  "BaseResolution": 82,
  "BodyPartExamined": "BRAIN",
  "ConsistencyInfo": "N4_VE11E_LATEST_20181129",
  "ConversionSoftware": "dcm2niix",
  "ConversionSoftwareVersion": "v1.0.20201102",
  "DerivedVendorReportedEchoSpacing": 0.00049,
  "DeviceSerialNumber": "66112",
  "DwellTime": 2e-06,
  "EchoTime": 0.0272,
  "EchoTrainLength": 82,
  "EffectiveEchoSpacing": 0.00049,
  "FlipAngle": 44,
  "ImageComments": "Unaliased MB8/PE3",
  "ImageOrientationPatientDICOM": [0.998874, -0.047364, -0.00263934, 0.0472805, 0.989505, 0.136545],
  "ImageType": [
    "ORIGINAL",
    "PRIMARY",
    "M",
    "MB",
    "ND",
    "NORM",
    "MOSAIC"
],
  "ImagingFrequency": 123.252,
  "InPlanePhaseEncodingDirectionDICOM": "COL",
  "InstitutionAddress": "Maynard 3,Hanover,NH,US,03755",
  "InstitutionName": "Dartmouth College - PBS",
  "InstitutionalDepartmentName": "Department",
  "MRAcquisitionType": "2D",
  "MagneticFieldStrength": 3,
  "Manufacturer": "Siemens",
  "ManufacturersModelName": "Prisma",
  "Modality": "MR",
  "MultibandAccelerationFactor": 8,
  "PartialFourier": 1,
  "PatientPosition": "HFS",
  "PercentPhaseFOV": 100,
  "PercentSampling": 100,
  "PhaseEncodingDirection": "j-",
  "PhaseEncodingSteps": 82,
  "PhaseResolution": 1,
  "PixelBandwidth": 3050,
  "ProcedureStepDescription": "Wager_Wager^1076_spacetop",
  "ProtocolName": "func_run-01_task-alignvideo_acq-ap-mb8",
  "PulseSequenceDetails": "%CustomerSeq%\\cmrr_mbep2d_bold",
  "ReceiveCoilActiveElements": "HEA;HEP",
  "ReceiveCoilName": "Head_32",
  "ReconMatrixPE": 82,
  "RepetitionTime": 0.46,
  "SAR": 0.114598,
  "ScanOptions": "FS",
  "ScanningSequence": "EP",
  "SequenceName": "epfid2d1_82",
  "SequenceVariant": "SK\\SS",
  "SeriesDescription": "func_run-01_task-alignvideo_acq-ap-mb8",
  "SeriesNumber": 28,
  "ShimSetting": [4164, -7773, -7219, 550, -53, -58, 55, 86],
  "SliceThickness": 2.7,
  "SliceTiming": [0, 0.2525, 0.065, 0.315, 0.1275, 0.3775, 0.19, 0, 0.2525, 0.065, 0.315, 0.1275, 0.3775, 0.19, 0, 0.2525, 0.065, 0.315, 0.1275, 0.3775, 0.19, 0, 0.2525, 0.065, 0.315, 0.1275, 0.3775, 0.19, 0, 0.2525, 0.065, 0.315, 0.1275, 0.3775, 0.19, 0, 0.2525, 0.065, 0.315, 0.1275, 0.3775, 0.19, 0, 0.2525, 0.065, 0.315, 0.1275, 0.3775, 0.19, 0, 0.2525, 0.065, 0.315, 0.1275, 0.3775, 0.19],
  "SoftwareVersions": "syngo MR E11",
  "SpacingBetweenSlices": 2.7,
  "StationName": "AWP66112",
  "TaskName": "alignvideo",
  "TotalReadoutTime": 0.03969,
  "TxRefAmp": 272.305,
  "WipMemBlock": "35933899-99f9-4d54-ad9f-8d6a5a3ece19||Sequence: R016 ve11e/master r/434b28f1; Aug  7 2019 18:53:46 by eja",
  "dcmmeta_affine": [
    [-2.6799063682556152, 0.12685014307498932, 0.010410365648567677, 106.3362045288086],
    [0.12707409262657166, 2.6547691822052, 0.36859455704689026, -107.94377899169922],
    [-0.007081168238073587, -0.36634141206741333, 2.6747019290924072, -45.79291915893555],
    [0.0, 0.0, 0.0, 1.0]
],
  "dcmmeta_reorient_transform": [
    [0.0, -1.0, 0.0, 81.0],
    [1.0, 0.0, 0.0, 0.0],
    [0.0, 0.0, 1.0, 0.0],
    [0.0, 0.0, 0.0, 1.0]
],
  "dcmmeta_shape": [82, 82, 56, 839],
  "dcmmeta_slice_dim": 2,
  "dcmmeta_version": 0.6,
  "global": {
    "const": {
      "AccessionNumber": "A004156",
      "AcquisitionMatrix": [82, 0, 0, 82],
      "AngioFlag": "N",
      "BitsAllocated": 16,
      "BitsStored": 16,
      "BodyPartExamined": "BRAIN",
      "Columns": 656,
      "EchoNumbers": 1,
      "EchoTime": 27.2,
      "EchoTrainLength": 82,
      "FlipAngle": 44.0,
      "HighBit": 15,
      "ImageOrientationPatient": [0.99887420996535, -0.0473639792145, -0.0026393444379, 0.04728050669035, 0.98950487494305, 0.13654543621464],
      "ImagePositionPatient": [-922.15021663354, -832.54103496646, -178.57426771725],
      "ImageType": [
        "ORIGINAL",
        "PRIMARY",
        "M",
        "MB",
        "ND",
        "NORM",
        "MOSAIC"
],
      "ImagedNucleus": "1H",
      "ImagingFrequency": 123.25219,
      "InPlanePhaseEncodingDirection": "COL",
      "MRAcquisitionType": "2D",
      "MagneticFieldStrength": 3.0,
      "Manufacturer": "SIEMENS",
      "ManufacturerModelName": "Prisma",
      "Modality": "MR",
      "NumberOfAverages": 1.0,
      "NumberOfPhaseEncodingSteps": 82,
      "PercentPhaseFieldOfView": 100.0,
      "PercentSampling": 100.0,
      "PerformedProcedureStepStartTime": "182213.717000",
      "PhotometricInterpretation": "MONOCHROME2",
      "PixelBandwidth": 3050.0,
      "PixelRepresentation": 0,
      "PixelSpacing": [2.6829268932343, 2.6829268932343],
      "ProtocolName": "func_run-01_task-alignvideo_acq-ap-mb8",
      "RepetitionTime": 460.0,
      "Rows": 656,
      "SAR": 0.11459760287816,
      "SamplesPerPixel": 1,
      "ScanOptions": "FS",
      "ScanningSequence": "EP",
      "SequenceName": "epfid2d1_82",
      "SequenceVariant": [
        "SK",
        "SS"
],
      "SeriesDescription": "func_run-01_task-alignvideo_acq-ap-mb8",
      "SeriesNumber": 28,
      "SeriesTime": "194224.684000",
      "SliceLocation": -59.68996112229,
      "SliceThickness": 2.7000000476837,
      "SmallestImagePixelValue": 0,
      "SoftwareVersions": "syngo MR E11",
      "SpacingBetweenSlices": 2.7000000348824,
      "SpecificCharacterSet": "ISO_IR 100",
      "StudyID": "1",
      "StudyTime": "182213.663000",
      "TransmitCoilName": "Body",
      "VariableFlipAngleFlag": "N",
      "WindowCenterWidthExplanation": "Algo1"
    },
    "slices": {}
  },
  "time": {
    "samples": {
      "AcquisitionNumber": [1, 2, 3, 4, 5, 6, 7, 8, 9, 10, 11, 12, 13, 14, 15, 16, 17, 18, 19, 20, 21, 22, 23, 24, 25, 26, 27, 28, 29, 30, 31, 32, 33, 34, 35, 36, 37, 38, 39, 40, 41, 42, 43, 44, 45, 46, 47, 48, 49, 50, 51, 52, 53, 54, 55, 56, 57, 58, 59, 60, 61, 62, 63, 64, 65, 66, 67, 68, 69, 70, 71, 72, 73, 74, 75, 76, 77, 78, 79, 80, 81, 82, 83, 84, 85, 86, 87, 88, 89, 90, 91, 92, 93, 94, 95, 96, 97, 98, 99, 100, 101, 102, 103, 104, 105, 106, 107, 108, 109, 110, 111, 112, 113, 114, 115, 116, 117, 118, 119, 120, 121, 122, 123, 124, 125, 126, 127, 128, 129, 130, 131, 132, 133, 134, 135, 136, 137, 138, 139, 140, 141, 142, 143, 144, 145, 146, 147, 148, 149, 150, 151, 152, 153, 154, 155, 156, 157, 158, 159, 160, 161, 162, 163, 164, 165, 166, 167, 168, 169, 170, 171, 172, 173, 174, 175, 176, 177, 178, 179, 180, 181, 182, 183, 184, 185, 186, 187, 188, 189, 190, 191, 192, 193, 194, 195, 196, 197, 198, 199, 200, 201, 202, 203, 204, 205, 206, 207, 208, 209, 210, 211, 212, 213, 214, 215, 216, 217, 218, 219, 220, 221, 222, 223, 224, 225, 226, 227, 228, 229, 230, 231, 232, 233, 234, 235, 236, 237, 238, 239, 240, 241, 242, 243, 244, 245, 246, 247, 248, 249, 250, 251, 252, 253, 254, 255, 256, 257, 258, 259, 260, 261, 262, 263, 264, 265, 266, 267, 268, 269, 270, 271, 272, 273, 274, 275, 276, 277, 278, 279, 280, 281, 282, 283, 284, 285, 286, 287, 288, 289, 290, 291, 292, 293, 294, 295, 296, 297, 298, 299, 300, 301, 302, 303, 304, 305, 306, 307, 308, 309, 310, 311, 312, 313, 314, 315, 316, 317, 318, 319, 320, 321, 322, 323, 324, 325, 326, 327, 328, 329, 330, 331, 332, 333, 334, 335, 336, 337, 338, 339, 340, 341, 342, 343, 344, 345, 346, 347, 348, 349, 350, 351, 352, 353, 354, 355, 356, 357, 358, 359, 360, 361, 362, 363, 364, 365, 366, 367, 368, 369, 370, 371, 372, 373, 374, 375, 376, 377, 378, 379, 380, 381, 382, 383, 384, 385, 386, 387, 388, 389, 390, 391, 392, 393, 394, 395, 396, 397, 398, 399, 400, 401, 402, 403, 404, 405, 406, 407, 408, 409, 410, 411, 412, 413, 414, 415, 416, 417, 418, 419, 420, 421, 422, 423, 424, 425, 426, 427, 428, 429, 430, 431, 432, 433, 434, 435, 436, 437, 438, 439, 440, 441, 442, 443, 444, 445, 446, 447, 448, 449, 450, 451, 452, 453, 454, 455, 456, 457, 458, 459, 460, 461, 462, 463, 464, 465, 466, 467, 468, 469, 470, 471, 472, 473, 474, 475, 476, 477, 478, 479, 480, 481, 482, 483, 484, 485, 486, 487, 488, 489, 490, 491, 492, 493, 494, 495, 496, 497, 498, 499, 500, 501, 502, 503, 504, 505, 506, 507, 508, 509, 510, 511, 512, 513, 514, 515, 516, 517, 518, 519, 520, 521, 522, 523, 524, 525, 526, 527, 528, 529, 530, 531, 532, 533, 534, 535, 536, 537, 538, 539, 540, 541, 542, 543, 544, 545, 546, 547, 548, 549, 550, 551, 552, 553, 554, 555, 556, 557, 558, 559, 560, 561, 562, 563, 564, 565, 566, 567, 568, 569, 570, 571, 572, 573, 574, 575, 576, 577, 578, 579, 580, 581, 582, 583, 584, 585, 586, 587, 588, 589, 590, 591, 592, 593, 594, 595, 596, 597, 598, 599, 600, 601, 602, 603, 604, 605, 606, 607, 608, 609, 610, 611, 612, 613, 614, 615, 616, 617, 618, 619, 620, 621, 622, 623, 624, 625, 626, 627, 628, 629, 630, 631, 632, 633, 634, 635, 636, 637, 638, 639, 640, 641, 642, 643, 644, 645, 646, 647, 648, 649, 650, 651, 652, 653, 654, 655, 656, 657, 658, 659, 660, 661, 662, 663, 664, 665, 666, 667, 668, 669, 670, 671, 672, 673, 674, 675, 676, 677, 678, 679, 680, 681, 682, 683, 684, 685, 686, 687, 688, 689, 690, 691, 692, 693, 694, 695, 696, 697, 698, 699, 700, 701, 702, 703, 704, 705, 706, 707, 708, 709, 710, 711, 712, 713, 714, 715, 716, 717, 718, 719, 720, 721, 722, 723, 724, 725, 726, 727, 728, 729, 730, 731, 732, 733, 734, 735, 736, 737, 738, 739, 740, 741, 742, 743, 744, 745, 746, 747, 748, 749, 750, 751, 752, 753, 754, 755, 756, 757, 758, 759, 760, 761, 762, 763, 764, 765, 766, 767, 768, 769, 770, 771, 772, 773, 774, 775, 776, 777, 778, 779, 780, 781, 782, 783, 784, 785, 786, 787, 788, 789, 790, 791, 792, 793, 794, 795, 796, 797, 798, 799, 800, 801, 802, 803, 804, 805, 806, 807, 808, 809, 810, 811, 812, 813, 814, 815, 816, 817, 818, 819, 820, 821, 822, 823, 824, 825, 826, 827, 828, 829, 830, 831, 832, 833, 834, 835, 836, 837, 838, 839],
      "AcquisitionTime": ["194209.887500", "194210.347500", "194210.807500", "194211.267500", "194211.727500", "194212.187500", "194212.647500", "194213.107500", "194213.567500", "194214.027500", "194214.487500", "194214.947500", "194215.407500", "194215.867500", "194216.327500", "194216.787500", "194217.247500", "194217.707500", "194218.167500", "194218.627500", "194219.087500", "194219.547500", "194220.007500", "194220.467500", "194220.927500", "194221.387500", "194221.847500", "194222.307500", "194222.767500", "194223.227500", "194223.687500", "194224.147500", "194224.607500", "194225.067500", "194225.527500", "194225.987500", "194226.447500", "194226.907500", "194227.367500", "194227.827500", "194228.287500", "194228.747500", "194229.207500", "194229.667500", "194230.127500", "194230.587500", "194231.047500", "194231.507500", "194231.967500", "194232.427500", "194232.887500", "194233.347500", "194233.807500", "194234.267500", "194234.727500", "194235.187500", "194235.647500", "194236.107500", "194236.567500", "194237.027500", "194237.487500", "194237.947500", "194238.407500", "194238.867500", "194239.327500", "194239.787500", "194240.247500", "194240.707500", "194241.167500", "194241.627500", "194242.087500", "194242.547500", "194243.007500", "194243.467500", "194243.927500", "194244.387500", "194244.847500", "194245.307500", "194245.767500", "194246.227500", "194246.687500", "194247.147500", "194247.607500", "194248.067500", "194248.527500", "194248.987500", "194249.447500", "194249.907500", "194250.367500", "194250.827500", "194251.287500", "194251.747500", "194252.207500", "194252.667500", "194253.127500", "194253.587500", "194254.047500", "194254.507500", "194254.967500", "194255.427500", "194255.887500", "194256.347500", "194256.807500", "194257.267500", "194257.727500", "194258.187500", "194258.647500", "194259.107500", "194259.567500", "194300.027500", "194300.487500", "194300.947500", "194301.407500", "194301.867500", "194302.327500", "194302.787500", "194303.247500", "194303.707500", "194304.167500", "194304.627500", "194305.087500", "194305.547500", "194306.007500", "194306.467500", "194306.927500", "194307.387500", "194307.847500", "194308.307500", "194308.767500", "194309.227500", "194309.687500", "194310.147500", "194310.607500", "194311.067500", "194311.527500", "194311.987500", "194312.447500", "194312.907500", "194313.367500", "194313.827500", "194314.287500", "194314.747500", "194315.207500", "194315.667500", "194316.127500", "194316.587500", "194317.047500", "194317.507500", "194317.967500", "194318.427500", "194318.887500", "194319.347500", "194319.807500", "194320.267500", "194320.727500", "194321.187500", "194321.647500", "194322.107500", "194322.567500", "194323.027500", "194323.487500", "194323.947500", "194324.407500", "194324.867500", "194325.327500", "194325.787500", "194326.247500", "194326.707500", "194327.167500", "194327.627500", "194328.087500", "194328.547500", "194329.007500", "194329.467500", "194329.927500", "194330.387500", "194330.847500", "194331.307500", "194331.767500", "194332.227500", "194332.687500", "194333.147500", "194333.607500", "194334.067500", "194334.527500", "194334.987500", "194335.447500", "194335.907500", "194336.367500", "194336.827500", "194337.287500", "194337.747500", "194338.207500", "194338.667500", "194339.127500", "194339.587500", "194340.047500", "194340.507500", "194340.967500", "194341.427500", "194341.887500", "194342.347500", "194342.807500", "194343.267500", "194343.727500", "194344.187500", "194344.647500", "194345.107500", "194345.567500", "194346.027500", "194346.487500", "194346.947500", "194347.407500", "194347.867500", "194348.327500", "194348.787500", "194349.247500", "194349.707500", "194350.167500", "194350.627500", "194351.087500", "194351.547500", "194352.007500", "194352.467500", "194352.927500", "194353.387500", "194353.847500", "194354.307500", "194354.767500", "194355.227500", "194355.687500", "194356.147500", "194356.607500", "194357.067500", "194357.527500", "194357.987500", "194358.447500", "194358.907500", "194359.367500", "194359.827500", "194400.287500", "194400.747500", "194401.207500", "194401.667500", "194402.127500", "194402.587500", "194403.047500", "194403.507500", "194403.967500", "194404.427500", "194404.887500", "194405.347500", "194405.807500", "194406.267500", "194406.727500", "194407.187500", "194407.647500", "194408.107500", "194408.567500", "194409.027500", "194409.487500", "194409.947500", "194410.407500", "194410.867500", "194411.327500", "194411.787500", "194412.247500", "194412.707500", "194413.167500", "194413.627500", "194414.087500", "194414.547500", "194415.007500", "194415.467500", "194415.927500", "194416.387500", "194416.847500", "194417.307500", "194417.767500", "194418.227500", "194418.687500", "194419.147500", "194419.607500", "194420.067500", "194420.527500", "194420.987500", "194421.447500", "194421.907500", "194422.367500", "194422.827500", "194423.287500", "194423.747500", "194424.207500", "194424.667500", "194425.127500", "194425.587500", "194426.047500", "194426.507500", "194426.967500", "194427.427500", "194427.887500", "194428.347500", "194428.807500", "194429.267500", "194429.727500", "194430.187500", "194430.647500", "194431.107500", "194431.567500", "194432.027500", "194432.487500", "194432.947500", "194433.407500", "194433.867500", "194434.327500", "194434.787500", "194435.247500", "194435.707500", "194436.167500", "194436.627500", "194437.087500", "194437.547500", "194438.007500", "194438.467500", "194438.927500", "194439.387500", "194439.847500", "194440.307500", "194440.767500", "194441.227500", "194441.687500", "194442.147500", "194442.607500", "194443.067500", "194443.527500", "194443.987500", "194444.447500", "194444.907500", "194445.367500", "194445.827500", "194446.287500", "194446.747500", "194447.207500", "194447.667500", "194448.127500", "194448.587500", "194449.047500", "194449.507500", "194449.967500", "194450.427500", "194450.887500", "194451.347500", "194451.807500", "194452.267500", "194452.727500", "194453.187500", "194453.647500", "194454.107500", "194454.567500", "194455.027500", "194455.487500", "194455.947500", "194456.407500", "194456.867500", "194457.327500", "194457.787500", "194458.247500", "194458.707500", "194459.167500", "194459.627500", "194500.087500", "194500.547500", "194501.007500", "194501.467500", "194501.927500", "194502.387500", "194502.847500", "194503.307500", "194503.767500", "194504.227500", "194504.687500", "194505.147500", "194505.607500", "194506.067500", "194506.527500", "194506.987500", "194507.447500", "194507.907500", "194508.367500", "194508.827500", "194509.287500", "194509.747500", "194510.207500", "194510.667500", "194511.127500", "194511.587500", "194512.047500", "194512.507500", "194512.967500", "194513.427500", "194513.887500", "194514.347500", "194514.807500", "194515.267500", "194515.727500", "194516.187500", "194516.647500", "194517.107500", "194517.567500", "194518.027500", "194518.487500", "194518.947500", "194519.407500", "194519.867500", "194520.327500", "194520.787500", "194521.247500", "194521.707500", "194522.167500", "194522.627500", "194523.087500", "194523.547500", "194524.007500", "194524.467500", "194524.927500", "194525.387500", "194525.847500", "194526.307500", "194526.767500", "194527.227500", "194527.687500", "194528.147500", "194528.607500", "194529.067500", "194529.527500", "194529.987500", "194530.447500", "194530.907500", "194531.367500", "194531.827500", "194532.287500", "194532.747500", "194533.207500", "194533.667500", "194534.127500", "194534.587500", "194535.047500", "194535.507500", "194535.967500", "194536.427500", "194536.887500", "194537.347500", "194537.807500", "194538.267500", "194538.727500", "194539.187500", "194539.647500", "194540.107500", "194540.567500", "194541.027500", "194541.487500", "194541.947500", "194542.407500", "194542.867500", "194543.327500", "194543.787500", "194544.247500", "194544.707500", "194545.167500", "194545.627500", "194546.087500", "194546.547500", "194547.007500", "194547.467500", "194547.927500", "194548.387500", "194548.847500", "194549.307500", "194549.767500", "194550.227500", "194550.687500", "194551.147500", "194551.607500", "194552.067500", "194552.527500", "194552.987500", "194553.447500", "194553.907500", "194554.367500", "194554.827500", "194555.287500", "194555.747500", "194556.207500", "194556.667500", "194557.127500", "194557.587500", "194558.047500", "194558.507500", "194558.967500", "194559.427500", "194559.887500", "194600.347500", "194600.807500", "194601.267500", "194601.727500", "194602.187500", "194602.647500", "194603.107500", "194603.567500", "194604.027500", "194604.487500", "194604.947500", "194605.407500", "194605.867500", "194606.327500", "194606.787500", "194607.247500", "194607.707500", "194608.167500", "194608.627500", "194609.087500", "194609.547500", "194610.007500", "194610.467500", "194610.927500", "194611.387500", "194611.847500", "194612.307500", "194612.767500", "194613.227500", "194613.687500", "194614.147500", "194614.607500", "194615.067500", "194615.527500", "194615.987500", "194616.447500", "194616.907500", "194617.367500", "194617.827500", "194618.287500", "194618.747500", "194619.207500", "194619.667500", "194620.127500", "194620.587500", "194621.047500", "194621.507500", "194621.967500", "194622.427500", "194622.887500", "194623.347500", "194623.807500", "194624.267500", "194624.727500", "194625.187500", "194625.647500", "194626.107500", "194626.567500", "194627.027500", "194627.487500", "194627.947500", "194628.407500", "194628.867500", "194629.327500", "194629.787500", "194630.247500", "194630.707500", "194631.167500", "194631.627500", "194632.087500", "194632.547500", "194633.007500", "194633.467500", "194633.927500", "194634.387500", "194634.847500", "194635.307500", "194635.767500", "194636.227500", "194636.687500", "194637.147500", "194637.607500", "194638.067500", "194638.527500", "194638.987500", "194639.447500", "194639.907500", "194640.367500", "194640.827500", "194641.287500", "194641.747500", "194642.207500", "194642.667500", "194643.127500", "194643.587500", "194644.047500", "194644.507500", "194644.967500", "194645.427500", "194645.887500", "194646.347500", "194646.807500", "194647.267500", "194647.727500", "194648.187500", "194648.647500", "194649.107500", "194649.567500", "194650.027500", "194650.487500", "194650.947500", "194651.407500", "194651.867500", "194652.327500", "194652.787500", "194653.247500", "194653.707500", "194654.167500", "194654.627500", "194655.087500", "194655.547500", "194656.007500", "194656.467500", "194656.927500", "194657.387500", "194657.847500", "194658.307500", "194658.767500", "194659.227500", "194659.687500", "194700.147500", "194700.607500", "194701.067500", "194701.527500", "194701.987500", "194702.447500", "194702.907500", "194703.367500", "194703.827500", "194704.287500", "194704.747500", "194705.207500", "194705.667500", "194706.127500", "194706.587500", "194707.047500", "194707.507500", "194707.967500", "194708.427500", "194708.887500", "194709.347500", "194709.807500", "194710.267500", "194710.727500", "194711.187500", "194711.647500", "194712.107500", "194712.567500", "194713.027500", "194713.487500", "194713.947500", "194714.407500", "194714.867500", "194715.327500", "194715.787500", "194716.247500", "194716.707500", "194717.167500", "194717.627500", "194718.087500", "194718.547500", "194719.007500", "194719.467500", "194719.927500", "194720.387500", "194720.847500", "194721.307500", "194721.767500", "194722.227500", "194722.687500", "194723.147500", "194723.607500", "194724.067500", "194724.527500", "194724.987500", "194725.447500", "194725.907500", "194726.367500", "194726.827500", "194727.287500", "194727.747500", "194728.207500", "194728.667500", "194729.127500", "194729.587500", "194730.047500", "194730.507500", "194730.967500", "194731.427500", "194731.887500", "194732.347500", "194732.807500", "194733.267500", "194733.727500", "194734.187500", "194734.647500", "194735.107500", "194735.567500", "194736.027500", "194736.487500", "194736.947500", "194737.407500", "194737.867500", "194738.327500", "194738.787500", "194739.247500", "194739.707500", "194740.167500", "194740.627500", "194741.087500", "194741.547500", "194742.007500", "194742.467500", "194742.927500", "194743.387500", "194743.847500", "194744.307500", "194744.767500", "194745.227500", "194745.687500", "194746.147500", "194746.607500", "194747.067500", "194747.527500", "194747.987500", "194748.447500", "194748.907500", "194749.367500", "194749.827500", "194750.287500", "194750.747500", "194751.207500", "194751.667500", "194752.127500", "194752.587500", "194753.047500", "194753.507500", "194753.967500", "194754.427500", "194754.887500", "194755.347500", "194755.807500", "194756.267500", "194756.727500", "194757.187500", "194757.647500", "194758.107500", "194758.567500", "194759.027500", "194759.487500", "194759.947500", "194800.407500", "194800.867500", "194801.327500", "194801.787500", "194802.247500", "194802.707500", "194803.167500", "194803.627500", "194804.087500", "194804.547500", "194805.007500", "194805.467500", "194805.927500", "194806.387500", "194806.847500", "194807.307500", "194807.767500", "194808.227500", "194808.687500", "194809.147500", "194809.607500", "194810.067500", "194810.527500", "194810.987500", "194811.447500", "194811.907500", "194812.367500", "194812.827500", "194813.287500", "194813.747500", "194814.207500", "194814.667500", "194815.127500", "194815.587500", "194816.047500", "194816.507500", "194816.967500", "194817.427500", "194817.887500", "194818.347500", "194818.807500", "194819.267500", "194819.727500", "194820.187500", "194820.647500", "194821.107500", "194821.567500", "194822.027500", "194822.487500", "194822.947500", "194823.407500", "194823.867500", "194824.327500", "194824.787500", "194825.247500", "194825.707500", "194826.167500", "194826.627500", "194827.087500", "194827.547500", "194828.007500", "194828.467500", "194828.927500", "194829.387500", "194829.847500", "194830.307500", "194830.767500", "194831.227500", "194831.687500", "194832.147500", "194832.607500", "194833.067500", "194833.527500", "194833.987500", "194834.447500", "194834.907500", "194835.367500"],
