{
  "AcquisitionMatrixPE": 140,
  "AcquisitionNumber": 1,
  "AcquisitionTime": "18:19:22.032500",
  "BandwidthPerPixelPhaseEncode": 10.352,
  "BaseResolution": 140,
  "BodyPartExamined": "BRAIN",
  "ConsistencyInfo": "N4_VE11C_LATEST_20160120",
  "ConversionSoftware": "dcm2niix",
  "ConversionSoftwareVersion": "v1.0.20201102",
  "DerivedVendorReportedEchoSpacing": 0.000689998,
  "DeviceSerialNumber": "66112",
  "DiffusionScheme": "Monopolar",
  "DwellTime": 2.1e-06,
  "EchoTime": 0.088,
  "EchoTrainLength": 105,
  "EffectiveEchoSpacing": 0.000689998,
  "FlipAngle": 90,
  "ImageComments": "Unaliased MB3/PE3",
  "ImageOrientationPatientDICOM": [0.998829, 0.0481859, 0.00443981, -0.0450072, 0.958787, -0.28054],
  "ImageType": [
    "ORIGINAL",
    "PRIMARY",
    "DIFFUSION",
    "NONE",
    "MB",
    "ND"
],
  "ImagingFrequency": 123.252,
  "InPlanePhaseEncodingDirectionDICOM": "COL",
  "InstitutionAddress": "Maynard 3,Hanover,NH,US,03755",
  "InstitutionName": "dartmouth_brain_imaging_center",
  "InstitutionalDepartmentName": "Department",
  "IntendedFor": [
    "ses-01/dwi/sub-0025_ses-01_acq-96dirX6b0Xmb_dwi.nii.gz"
],
  "MRAcquisitionType": "2D",
  "MagneticFieldStrength": 3,
  "Manufacturer": "Siemens",
  "ManufacturersModelName": "Prisma",
  "Modality": "MR",
  "MultibandAccelerationFactor": 3,
  "PartialFourier": 0.75,
  "PatientPosition": "HFS",
  "PercentPhaseFOV": 100,
  "PercentSampling": 100,
  "PhaseEncodingDirection": "j-",
  "PhaseEncodingSteps": 105,
  "PhaseResolution": 1,
  "PixelBandwidth": 1700,
  "ProcedureStepDescription": "Wager_Wager^1076_spacetop",
  "ProtocolName": "dwi_acq-discorr-AP",
  "PulseSequenceDetails": "%CustomerSeq%\\cmrr_mbep2d_diff",
  "ReceiveCoilActiveElements": "HEA;HEP",
  "ReceiveCoilName": "Head_32",
  "ReconMatrixPE": 140,
  "RepetitionTime": 4.1,
  "SAR": 0.15815,
  "ScanOptions": "PFP\\FS",
  "ScanningSequence": "EP",
  "SequenceName": "ep_b0",
  "SequenceVariant": "SK\\SS",
  "SeriesDescription": "dwi_acq-discorr-AP",
  "SeriesNumber": 7,
  "ShimSetting": [4143, -7721, -7198, 588, -54, 0, -72, 42],
  "SliceThickness": 1.7,
  "SliceTiming": [0, 2.125, 0.15625, 2.26562, 0.29688, 2.42188, 0.45312, 2.57812, 0.60938, 2.71875, 0.76562, 2.875, 0.90625, 3.03125, 1.0625, 3.17188, 1.21875, 3.32812, 1.35938, 3.48438, 1.51562, 3.625, 1.65625, 3.78125, 1.8125, 3.9375, 1.96875, 0, 2.125, 0.15625, 2.26562, 0.29688, 2.42188, 0.45312, 2.57812, 0.60938, 2.71875, 0.76562, 2.875, 0.90625, 3.03125, 1.0625, 3.17188, 1.21875, 3.32812, 1.35938, 3.48438, 1.51562, 3.625, 1.65625, 3.78125, 1.8125, 3.9375, 1.96875, 0, 2.125, 0.15625, 2.26562, 0.29688, 2.42188, 0.45312, 2.57812, 0.60938, 2.71875, 0.76562, 2.875, 0.90625, 3.03125, 1.0625, 3.17188, 1.21875, 3.32812, 1.35938, 3.48438, 1.51562, 3.625, 1.65625, 3.78125, 1.8125, 3.9375, 1.96875],
  "SoftwareVersions": "syngo MR E11",
  "SpacingBetweenSlices": 1.7,
  "StationName": "AWP66112",
  "TotalReadoutTime": 0.0959097,
  "TxRefAmp": 292.166,
  "WipMemBlock": "9e50ee4a-07e1-4c68-81d7-98810dc01ea6||Sequence: R016 ve11c/master r/e634e98; Dec 19 2017 11:11:25 by eja",
  "dcmmeta_affine": [
    [-1.7122775316238403, -0.07715515792369843, 0.03021717071533203, 127.60139465332031],
    [-0.08260439336299896, 1.64363431930542, -0.47601914405822754, -71.78328704833984],
    [0.0076110996305942535, 0.48092517256736755, 1.6317138671875, -74.26103210449219],
    [0.0, 0.0, 0.0, 1.0]
],
  "dcmmeta_reorient_transform": [
    [0.0, -1.0, 0.0, 139.0],
    [1.0, 0.0, 0.0, 0.0],
    [0.0, 0.0, -1.0, 80.0],
    [0.0, 0.0, 0.0, 1.0]
],
  "dcmmeta_shape": [140, 140, 81],
  "dcmmeta_slice_dim": 2,
  "dcmmeta_version": 0.6,
  "global": {
    "const": {
      "AccessionNumber": "A003619",
      "AcquisitionMatrix": [140, 0, 0, 140],
      "AcquisitionNumber": 1,
      "AngioFlag": "N",
      "BitsAllocated": 16,
      "BitsStored": 16,
      "BodyPartExamined": "BRAIN",
      "Columns": 140,
      "EchoNumbers": 1,
      "EchoTime": 88.0,
      "EchoTrainLength": 105,
      "FlipAngle": 90.0,
      "HighBit": 15,
      "ImageOrientationPatient": [0.99882851767668, 0.04818589400576, 0.00443980795512, -0.0450071747456, 0.9587866510003, -0.2805396800544],
      "ImageType": [
        "ORIGINAL",
        "PRIMARY",
        "DIFFUSION",
        "NONE",
        "MB",
        "ND"
],
      "ImagedNucleus": "1H",
      "ImagingFrequency": 123.252082,
      "InPlanePhaseEncodingDirection": "COL",
      "MRAcquisitionType": "2D",
      "MagneticFieldStrength": 3.0,
      "Manufacturer": "SIEMENS",
      "ManufacturerModelName": "Prisma",
      "Modality": "MR",
      "NumberOfAverages": 1.0,
      "NumberOfPhaseEncodingSteps": 105,
      "PercentPhaseFieldOfView": 100.0,
      "PercentSampling": 100.0,
      "PerformedProcedureStepStartTime": "173223.829000",
      "PhotometricInterpretation": "MONOCHROME2",
      "PixelBandwidth": 1700.0,
      "PixelRepresentation": 0,
      "PixelSpacing": [1.7142857313156, 1.7142857313156],
      "ProtocolName": "dwi_acq-discorr-AP",
      "RepetitionTime": 4100.0,
      "Rows": 140,
      "SAR": 0.15815004022517,
      "SamplesPerPixel": 1,
      "ScanOptions": [
        "PFP",
        "FS"
],
      "ScanningSequence": "EP",
      "SequenceName": "ep_b0",
      "SequenceVariant": [
        "SK",
        "SS"
],
      "SeriesDescription": "dwi_acq-discorr-AP",
      "SeriesNumber": 7,
      "SeriesTime": "181926.900000",
      "SliceThickness": 1.7000000476837,
      "SmallestImagePixelValue": 0,
      "SoftwareVersions": "syngo MR E11",
      "SpacingBetweenSlices": 1.7,
      "SpecificCharacterSet": "ISO_IR 100",
      "StudyID": "1",
      "StudyTime": "173223.756000",
      "TransmitCoilName": "Body",
      "VariableFlipAngleFlag": "N",
      "WindowCenterWidthExplanation": "Algo1",
      "dBdt": 0.0},
    "slices": {
      "AcquisitionTime": ["181922.032500", "181924.150000", "181922.185000", "181924.300000", "181922.335000", "181924.452500", "181922.487500", "181924.602500", "181922.637500", "181924.752500", "181922.790000", "181924.905000", "181922.940000", "181925.055000", "181923.092500", "181925.207500", "181923.242500", "181925.357500", "181923.392500", "181925.510000", "181923.545000", "181925.660000", "181923.695000", "181925.812500", "181923.847500", "181925.962500", "181923.997500", "181922.032500", "181924.150000", "181922.185000", "181924.300000", "181922.335000", "181924.452500", "181922.487500", "181924.602500", "181922.637500", "181924.752500", "181922.790000", "181924.905000", "181922.940000", "181925.055000", "181923.092500", "181925.207500", "181923.242500", "181925.357500", "181923.392500", "181925.510000", "181923.545000", "181925.660000", "181923.695000", "181925.812500", "181923.847500", "181925.962500", "181923.997500", "181922.032500", "181924.150000", "181922.185000", "181924.300000", "181922.335000", "181924.452500", "181922.487500", "181924.602500", "181922.637500", "181924.752500", "181922.790000", "181924.905000", "181922.940000", "181925.055000", "181923.092500", "181925.207500", "181923.242500", "181925.357500", "181923.392500", "181925.510000", "181923.545000", "181925.660000", "181923.695000", "181925.812500", "181923.847500", "181925.962500", "181923.997500"],
      "ContentTime": ["181926.903000", "181927.027000", "181926.941000", "181927.034000", "181926.948000", "181927.040000", "181926.954000", "181927.047000", "181926.961000", "181927.054000", "181926.968000", "181927.060000", "181926.974000", "181927.067000", "181926.981000", "181927.083000", "181926.987000", "181927.089000", "181926.994000", "181927.096000", "181927.001000", "181927.102000", "181927.008000", "181927.109000", "181927.015000", "181927.115000", "181927.021000", "181926.936000", "181927.029000", "181926.943000", "181927.036000", "181926.950000", "181927.042000", "181926.957000", "181927.049000", "181926.964000", "181927.056000", "181926.970000", "181927.062000", "181926.977000", "181927.076000", "181926.983000", "181927.085000", "181926.989000", "181927.091000", "181926.996000", "181927.098000", "181927.004000", "181927.104000", "181927.010000", "181927.111000", "181927.017000", "181927.117000", "181927.023000", "181926.939000", "181927.032000", "181926.945000", "181927.038000", "181926.952000", "181927.044000", "181926.959000", "181927.051000", "181926.966000", "181927.058000", "181926.972000", "181927.064000", "181926.979000", "181927.080000", "181926.985000", "181927.087000", "181926.992000", "181927.094000", "181926.998000", "181927.100000", "181927.006000", "181927.106000", "181927.012000", "181927.113000", "181927.019000", "181927.119000", "181927.025000"],
      "CsaImage.ICE_Dims": [
        "X_1_1_1_1_1_1_1_1_1_1_1_39",
        "X_1_1_1_1_1_1_42_1_1_2_1_39",
        "X_1_1_1_1_1_1_2_1_1_3_1_39",
        "X_1_1_1_1_1_1_43_1_1_4_1_39",
        "X_1_1_1_1_1_1_3_1_1_5_1_39",
        "X_1_1_1_1_1_1_44_1_1_6_1_39",
        "X_1_1_1_1_1_1_4_1_1_7_1_39",
        "X_1_1_1_1_1_1_45_1_1_8_1_39",
        "X_1_1_1_1_1_1_5_1_1_9_1_39",
        "X_1_1_1_1_1_1_46_1_1_10_1_39",
        "X_1_1_1_1_1_1_6_1_1_11_1_39",
        "X_1_1_1_1_1_1_47_1_1_12_1_39",
        "X_1_1_1_1_1_1_7_1_1_13_1_39",
        "X_1_1_1_1_1_1_48_1_1_14_1_39",
        "X_1_1_1_1_1_1_8_1_1_15_1_39",
        "X_1_1_1_1_1_1_49_1_1_16_1_39",
        "X_1_1_1_1_1_1_9_1_1_17_1_39",
        "X_1_1_1_1_1_1_50_1_1_18_1_39",
        "X_1_1_1_1_1_1_10_1_1_19_1_39",
        "X_1_1_1_1_1_1_51_1_1_20_1_39",
        "X_1_1_1_1_1_1_11_1_1_21_1_39",
        "X_1_1_1_1_1_1_52_1_1_22_1_39",
        "X_1_1_1_1_1_1_12_1_1_23_1_39",
        "X_1_1_1_1_1_1_53_1_1_24_1_39",
        "X_1_1_1_1_1_1_13_1_1_25_1_39",
        "X_1_1_1_1_1_1_54_1_1_26_1_39",
        "X_1_1_1_1_1_1_14_1_1_27_1_39",
        "X_1_1_1_1_1_1_55_1_1_28_1_39",
        "X_1_1_1_1_1_1_15_1_1_29_1_39",
        "X_1_1_1_1_1_1_56_1_1_30_1_39",
        "X_1_1_1_1_1_1_16_1_1_31_1_39",
        "X_1_1_1_1_1_1_57_1_1_32_1_39",
        "X_1_1_1_1_1_1_17_1_1_33_1_39",
        "X_1_1_1_1_1_1_58_1_1_34_1_39",
        "X_1_1_1_1_1_1_18_1_1_35_1_39",
        "X_1_1_1_1_1_1_59_1_1_36_1_39",
        "X_1_1_1_1_1_1_19_1_1_37_1_39",
        "X_1_1_1_1_1_1_60_1_1_38_1_39",
        "X_1_1_1_1_1_1_20_1_1_39_1_39",
        "X_1_1_1_1_1_1_61_1_1_40_1_39",
        "X_1_1_1_1_1_1_21_1_1_41_1_39",
        "X_1_1_1_1_1_1_62_1_1_42_1_39",
        "X_1_1_1_1_1_1_22_1_1_43_1_39",
        "X_1_1_1_1_1_1_63_1_1_44_1_39",
        "X_1_1_1_1_1_1_23_1_1_45_1_39",
        "X_1_1_1_1_1_1_64_1_1_46_1_39",
        "X_1_1_1_1_1_1_24_1_1_47_1_39",
        "X_1_1_1_1_1_1_65_1_1_48_1_39",
        "X_1_1_1_1_1_1_25_1_1_49_1_39",
        "X_1_1_1_1_1_1_66_1_1_50_1_39",
        "X_1_1_1_1_1_1_26_1_1_51_1_39",
        "X_1_1_1_1_1_1_67_1_1_52_1_39",
        "X_1_1_1_1_1_1_27_1_1_53_1_39",
        "X_1_1_1_1_1_1_68_1_1_54_1_39",
        "X_1_1_1_1_1_1_28_1_1_55_1_39",
        "X_1_1_1_1_1_1_69_1_1_56_1_39",
        "X_1_1_1_1_1_1_29_1_1_57_1_39",
        "X_1_1_1_1_1_1_70_1_1_58_1_39",
        "X_1_1_1_1_1_1_30_1_1_59_1_39",
        "X_1_1_1_1_1_1_71_1_1_60_1_39",
        "X_1_1_1_1_1_1_31_1_1_61_1_39",
        "X_1_1_1_1_1_1_72_1_1_62_1_39",
        "X_1_1_1_1_1_1_32_1_1_63_1_39",
        "X_1_1_1_1_1_1_73_1_1_64_1_39",
        "X_1_1_1_1_1_1_33_1_1_65_1_39",
        "X_1_1_1_1_1_1_74_1_1_66_1_39",
        "X_1_1_1_1_1_1_34_1_1_67_1_39",
        "X_1_1_1_1_1_1_75_1_1_68_1_39",
        "X_1_1_1_1_1_1_35_1_1_69_1_39",
        "X_1_1_1_1_1_1_76_1_1_70_1_39",
        "X_1_1_1_1_1_1_36_1_1_71_1_39",
        "X_1_1_1_1_1_1_77_1_1_72_1_39",
        "X_1_1_1_1_1_1_37_1_1_73_1_39",
        "X_1_1_1_1_1_1_78_1_1_74_1_39",
        "X_1_1_1_1_1_1_38_1_1_75_1_39",
        "X_1_1_1_1_1_1_79_1_1_76_1_39",
        "X_1_1_1_1_1_1_39_1_1_77_1_39",
        "X_1_1_1_1_1_1_80_1_1_78_1_39",
        "X_1_1_1_1_1_1_40_1_1_79_1_39",
        "X_1_1_1_1_1_1_81_1_1_80_1_39",
        "X_1_1_1_1_1_1_41_1_1_81_1_39"
],
      "CsaImage.ProtocolSliceNumber": [0, 1, 2, 3, 4, 5, 6, 7, 8, 9, 10, 11, 12, 13, 14, 15, 16, 17, 18, 19, 20, 21, 22, 23, 24, 25, 26, 27, 28, 29, 30, 31, 32, 33, 34, 35, 36, 37, 38, 39, 40, 41, 42, 43, 44, 45, 46, 47, 48, 49, 50, 51, 52, 53, 54, 55, 56, 57, 58, 59, 60, 61, 62, 63, 64, 65, 66, 67, 68, 69, 70, 71, 72, 73, 74, 75, 76, 77, 78, 79, 80],
      "CsaImage.RFSWDDataType": [
        "predicted",
        "predicted",
        "predicted",
        "predicted",
        "predicted",
        "predicted",
        "predicted",
        "predicted",
        "predicted",
        "predicted",
        "predicted",
        "predicted",
        "predicted",
        "predicted",
        "predicted",
        "predicted",
        "predicted",
        "predicted",
        "predicted",
        "predicted",
        "predicted",
        "predicted",
        "predicted",
        "predicted",
        "predicted",
        "measured",
        "predicted",
        "predicted",
        "predicted",
        "predicted",
        "predicted",
        "predicted",
        "predicted",
        "predicted",
        "predicted",
        "predicted",
        "predicted",
        "predicted",
        "predicted",
        "predicted",
        "predicted",
        "predicted",
        "predicted",
        "predicted",
        "predicted",
        "predicted",
        "predicted",
        "predicted",
        "predicted",
        "predicted",
        "predicted",
        "predicted",
        "measured",
        "predicted",
        "predicted",
        "predicted",
        "predicted",
        "predicted",
        "predicted",
        "predicted",
        "predicted",
        "predicted",
        "predicted",
        "predicted",
        "predicted",
        "predicted",
        "predicted",
        "predicted",
        "predicted",
        "predicted",
        "predicted",
        "predicted",
        "predicted",
        "predicted",
        "predicted",
        "predicted",
        "predicted",
        "predicted",
        "predicted",
        "measured",
        "predicted"
],
      "CsaImage.SlicePosition_PCS": [
        [-116.87681356, -156.68186804, -7.41249439],
        [-116.90703097, -156.20584723, -5.78078052],
        [-116.93724814, -155.72983023, -4.14906665],
        [-116.96746555, -155.25380941, -2.51734897],
        [-116.99768272, -154.77779242, -0.88563511],
        [-117.02790013, -154.3017716, 0.74607876],
        [-117.05811754, -153.82575079, 2.37779454],
        [-117.08833471, -153.34973379, 4.0095084],
        [-117.11855212, -152.87371298, 5.64122418],
        [-117.14876929, -152.39769598, 7.27293805],
        [-117.1789867, -151.92167708, 8.90465191],
        [-117.20920387, -151.44565626, 10.53636769],
        [-117.23942128, -150.96963736, 12.16808155],
        [-117.26963869, -150.49361845, 13.79979733],
        [-117.29985586, -150.01759955, 15.4315112],
        [-117.33007327, -149.54158064, 17.06322506],
        [-117.36029044, -149.06556173, 18.69494084],
        [-117.39050785, -148.58954283, 20.32665566],
        [-117.42072502, -148.11352392, 21.95836953],
        [-117.45094243, -147.63750502, 23.59008435],
        [-117.48115984, -147.16148611, 25.22179917],
        [-117.51137701, -146.68546721, 26.85351399],
        [-117.54159442, -146.2094483, 28.48522881],
        [-117.57181159, -145.73342939, 30.11694339],
        [-117.602029, -145.25740858, 31.74865797],
        [-117.63224617, -144.78138968, 33.38037265],
        [-117.66246358, -144.30537077, 35.01208738],
        [-117.69268099, -143.82935186, 36.64380196],
        [-117.72289816, -143.35333296, 38.27551678],
        [-117.75311557, -142.87731405, 39.90723112],
        [-117.78333274, -142.40129515, 41.53894642],
        [-117.81355015, -141.92527624, 43.17066029],
        [-117.84376732, -141.44925734, 44.80237511],
        [-117.87398473, -140.97323843, 46.43408993],
        [-117.9042019, -140.49721953, 48.06580475],
        [-117.93441931, -140.02120062, 49.69751957],
        [-117.96463672, -139.54517981, 51.32923344],
        [-117.99485389, -139.0691609, 52.96094921],
        [-118.0250713, -138.593142, 54.59266308],
        [-118.05528847, -138.11712309, 56.22437886],
        [-118.08550588, -137.64110418, 57.85609272],
        [-118.11572305, -137.16508528, 59.48780659],
        [-118.14594046, -136.68906637, 61.11952237],
        [-118.17615787, -136.21304747, 62.75123623],
        [-118.20637504, -135.73702856, 64.38295201],
        [-118.23659245, -135.2610087, 66.01466778],
        [-118.26680962, -134.7849898, 67.64638165],
        [-118.29702703, -134.30897089, 69.27809552],
        [-118.3272442, -133.83295199, 70.90980938],
        [-118.35746161, -133.35693308, 72.54152325],
        [-118.38767901, -132.88091417, 74.17324093],
        [-118.41789619, -132.40489527, 75.8049548],
        [-118.44811359, -131.92887541, 77.43666867],
        [-118.478331, -131.4528565, 79.06838253],
        [-118.50854817, -130.9768376, 80.7000964],
        [-118.53876535, -130.50081869, 82.33181408],
        [-118.56898252, -130.02479979, 83.96352795],
        [-118.59920016, -129.54878088, 85.59524182],
        [-118.62941733, -129.07276102, 87.22695568],
        [-118.6596345, -128.59674212, 88.85867337],
        [-118.68985215, -128.12072321, 90.49038723],
        [-118.72006932, -127.6447043, 92.1221011],
        [-118.75028649, -127.1686854, 93.75381497],
        [-118.78050366, -126.69266602, 95.38552883],
        [-118.81072131, -126.21664711, 97.01724652],
        [-118.84093848, -125.74062821, 98.64896038],
        [-118.87115565, -125.26460882, 100.28067425],
        [-118.9013733, -124.78858992, 101.91238812],
        [-118.93159047, -124.31257077, 103.54410199],
        [-118.96180764, -123.83655187, 105.17581585],
        [-118.99202481, -123.36053272, 106.80752972],
        [-119.02224246, -122.88451358, 108.43925122],
        [-119.05245963, -122.40849455, 110.07096508],
        [-119.0826768, -121.93247553, 111.70267895],
        [-119.11289445, -121.45645645, 113.33439282],
        [-119.14311162, -120.98043741, 114.96610669],
        [-119.17332879, -120.50441834, 116.59782055],
        [-119.20354596, -120.02839931, 118.22953442],
        [-119.23376361, -119.55238017, 119.86124829],
        [-119.26398078, -119.07636114, 121.49296215],
        [-119.29419795, -118.600342, 123.12467602]
],
      "CsaImage.TimeAfterStart": [16.4, 18.515, 16.5525, 18.6675, 16.7025, 18.8175, 16.855, 18.97, 17.005, 19.12, 17.155, 19.2725, 17.3075, 19.4225, 17.4575, 19.575, 17.61, 19.725, 17.76, 19.875, 17.9125, 20.0275, 18.0625, 20.1775, 18.215, 20.33, 18.365, 16.4, 18.515, 16.5525, 18.6675, 16.7025, 18.8175, 16.855, 18.97, 17.005, 19.12, 17.155, 19.2725, 17.3075, 19.4225, 17.4575, 19.575, 17.61, 19.725, 17.76, 19.875, 17.9125, 20.0275, 18.0625, 20.1775, 18.215, 20.33, 18.365, 16.4, 18.515, 16.5525, 18.6675, 16.7025, 18.8175, 16.855, 18.97, 17.005, 19.12, 17.155, 19.2725, 17.3075, 19.4225, 17.4575, 19.575, 17.61, 19.725, 17.76, 19.875, 17.9125, 20.0275, 18.0625, 20.1775, 18.215, 20.33, 18.365],
      "ImagePositionPatient": [
        [-116.87681356478, -156.68186803912, -7.4124943890621],
        [-116.90703097392, -156.20584722613, -5.7807805218746],
        [-116.93724814463, -155.72983022784, -4.1490666546871],
        [-116.96746555377, -155.25380941485, -2.5173489728023],
        [-116.99768272448, -154.77779241656, -0.8856351056148],
        [-117.02790013362, -154.30177160357, 0.74607876157268],
        [-117.05811754275, -153.82575079059, 2.3777945361088],
        [-117.08833471347, -153.34973379229, 4.0095084032963],
        [-117.1185521226, -152.87371297931, 5.6412241778324],
        [-117.14876929332, -152.39769598101, 7.2729380450199],
        [-117.17898670245, -151.92167707538, 8.9046519122074],
        [-117.20920387316, -151.44565626239, 10.536367686744],
        [-117.2394212823, -150.96963735675, 12.168081553931],
        [-117.26963869143, -150.49361845111, 13.799797328467],
        [-117.29985586215, -150.01759954547, 15.431511195655],
        [-117.33007327128, -149.54158063983, 17.063225062842],
        [-117.360290442, -149.06556173419, 18.694940837378],
        [-117.39050785113, -148.58954282855, 20.32665565824],
        [-117.42072502185, -148.11352392291, 21.958369525428],
        [-117.45094243098, -147.63750501727, 23.590084346289],
        [-117.48115984011, -147.16148611163, 25.221799167151],
        [-117.51137701083, -146.68546720599, 26.853513988013],
        [-117.54159441996, -146.20944830035, 28.485228808875],
        [-117.57181159068, -145.73342939471, 30.116943391318],
        [-117.60202899981, -145.25740858172, 31.748657973761],
        [-117.63224617053, -144.78138967608, 33.380372645612],
        [-117.66246357966, -144.30537077044, 35.012087377066],
        [-117.6926809888, -143.8293518648, 36.64380195951],
        [-117.72289815951, -143.35333295916, 38.275516780372],
        [-117.75311556864, -142.87731405352, 39.907231124396],
        [-117.78333273936, -142.40129514789, 41.538946422095],
        [-117.81355014849, -141.92527624225, 43.170660289283],
        [-117.84376731921, -141.44925733661, 44.802375110144],
        [-117.87398472834, -140.97323843097, 46.434089931006],
        [-117.90420189906, -140.49721952533, 48.065804751868],
        [-117.93441930819, -140.02120061969, 49.69751957273],
        [-117.96463671733, -139.5451798067, 51.329233439917],
        [-117.99485388804, -139.06916090106, 52.960949214454],
        [-118.02507129718, -138.59314199542, 54.592663081641],
        [-118.05528846789, -138.11712308978, 56.224378856177],
        [-118.08550587702, -137.64110418414, 57.856092723365],
        [-118.11572304774, -137.1650852785, 59.487806590552],
        [-118.14594045687, -136.68906637286, 61.119522365088],
        [-118.17615786601, -136.21304746722, 62.751236232276],
        [-118.20637503672, -135.73702856158, 64.382952006812],
        [-118.23659244586, -135.26100870227, 66.014667781348],
        [-118.26680961657, -134.78498979663, 67.646381648536],
        [-118.29702702571, -134.30897089099, 69.278095515723],
        [-118.32724419642, -133.83295198535, 70.909809382911],
        [-118.35746160556, -133.35693307971, 72.541523250098],
        [-118.38767901469, -132.88091417407, 74.173240931983],
        [-118.41789618541, -132.40489526843, 75.80495479917],
        [-118.44811359454, -131.92887540912, 77.436668666358],
        [-118.47833100367, -131.45285650348, 79.068382533545],
        [-118.50854817439, -130.97683759784, 80.700096400733],
        [-118.5387653451, -130.5008186922, 82.331814082618],
        [-118.56898251582, -130.02479978656, 83.963527949805],
        [-118.59920016337, -129.54878088092, 85.595241816993],
        [-118.62941733409, -129.0727610216, 87.22695568418],
        [-118.6596345048, -128.59674211596, 88.858673366065],
        [-118.68985215235, -128.12072321032, 90.490387233252],
        [-118.72006932307, -127.64470430468, 92.12210110044],
        [-118.75028649379, -127.16868539904, 93.753814967627],
        [-118.7805036645, -126.69266601657, 95.385528834815],
        [-118.81072131205, -126.21664711093, 97.0172465167],
        [-118.84093848277, -125.74062820529, 98.648960383887],
        [-118.87115565348, -125.26460882281, 100.28067425107],
        [-118.90137330104, -124.78858991717, 101.91238811826],
        [-118.93159047175, -124.31257077311, 103.54410198545],
        [-118.96180764247, -123.83655186747, 105.17581585264],
        [-118.99202481318, -123.36053272342, 106.80752971982],
        [-119.02224246073, -122.88451357936, 108.43925121641],
        [-119.05245963145, -122.40849455451, 110.07096508359],
        [-119.08267680217, -121.93247552966, 111.70267895078],
        [-119.11289444972, -121.45645644521, 113.33439281797],
        [-119.14311162043, -120.98043740546, 114.96610668516],
        [-119.17332879115, -120.5044183359, 116.59782055234],
        [-119.20354596186, -120.02839931105, 118.22953441953],
        [-119.23376360942, -119.552380167, 119.86124828672],
        [-119.26398078013, -119.07636114215, 121.49296215391],
        [-119.29419795085, -118.60034199809, 123.12467602109]
],
      "InstanceCreationTime": ["181926.903000", "181927.027000", "181926.941000", "181927.034000", "181926.948000", "181927.040000", "181926.954000", "181927.047000", "181926.961000", "181927.054000", "181926.968000", "181927.060000", "181926.974000", "181927.067000", "181926.981000", "181927.083000", "181926.987000", "181927.089000", "181926.994000", "181927.096000", "181927.001000", "181927.102000", "181927.008000", "181927.109000", "181927.015000", "181927.115000", "181927.021000", "181926.936000", "181927.029000", "181926.943000", "181927.036000", "181926.950000", "181927.042000", "181926.957000", "181927.049000", "181926.964000", "181927.056000", "181926.970000", "181927.062000", "181926.977000", "181927.076000", "181926.983000", "181927.085000", "181926.989000", "181927.091000", "181926.996000", "181927.098000", "181927.004000", "181927.104000", "181927.010000", "181927.111000", "181927.017000", "181927.117000", "181927.023000", "181926.939000", "181927.032000", "181926.945000", "181927.038000", "181926.952000", "181927.044000", "181926.959000", "181927.051000", "181926.966000", "181927.058000", "181926.972000", "181927.064000", "181926.979000", "181927.080000", "181926.985000", "181927.087000", "181926.992000", "181927.094000", "181926.998000", "181927.100000", "181927.006000", "181927.106000", "181927.012000", "181927.113000", "181927.019000", "181927.119000", "181927.025000"],
      "InstanceNumber": [1, 2, 3, 4, 5, 6, 7, 8, 9, 10, 11, 12, 13, 14, 15, 16, 17, 18, 19, 20, 21, 22, 23, 24, 25, 26, 27, 28, 29, 30, 31, 32, 33, 34, 35, 36, 37, 38, 39, 40, 41, 42, 43, 44, 45, 46, 47, 48, 49, 50, 51, 52, 53, 54, 55, 56, 57, 58, 59, 60, 61, 62, 63, 64, 65, 66, 67, 68, 69, 70, 71, 72, 73, 74, 75, 76, 77, 78, 79, 80, 81],
      "LargestImagePixelValue": [15686, 14093, 10779, 12656, 17695, 22312, 26562, 25226, 30881, 41260, 52028, 60281, 62652, 57659, 31536, 31069, 36753, 36903, 44860, 43790, 38033, 49553, 42492, 44810, 61689, 59101, 65535, 65535, 59671, 65535, 65535, 60462, 65535, 61089, 42265, 46055, 47153, 50942, 60037, 54507, 54051, 54327, 51614, 52394, 46621, 46485, 47422, 55005, 53258, 53900, 46923, 56132, 59601, 60343, 47767, 51740, 52796, 43139, 46380, 41543, 56520, 46690, 59392, 57812, 65535, 53265, 42774, 50181, 51669, 49238, 48406, 51459, 65535, 63464, 62619, 61701, 57808, 20445, 13781, 15457, 21852],
      "SliceLocation": [-48.909958099313, -47.209958378554, -45.50995973019, -43.809956347962, -42.109957699599, -40.40995797884, -38.709956427346, -37.009957778983, -35.309956227489, -33.609957579126, -31.909958392446, -30.20995684519, -28.50995765851, -26.809956641095, -25.109957458653, -23.409958271973, -21.709957258796, -20.009957156748, -18.309957974306, -16.609957872259, -14.909957770211, -13.209957672402, -11.509957570354, -9.8099577013867, -8.1099572941021, -6.4099573393187, -4.709957323087, -3.0099574498814, -1.3099573520719, 0.39004229229189, 2.0900428477851, 3.7900420344652, 5.4900421322748, 7.1900422343222, 8.8900423321317, 10.590042434179, 12.290042154938, 13.990043168115, 15.690042354795, 17.390043367972, 19.090042554652, 20.790041737094, 22.490042754509, 24.190041941189, 25.890042954366, 27.59004423882, 29.290043421263, 30.990042607943, 32.690041790385, 34.390040977065, 36.090043825214, 37.790043007657, 39.490042461376, 41.190041648056, 42.890040830499, 44.59004367441, 46.290042856852, 47.99004204777, 49.690041497252, 51.390044341163, 53.090043532081, 54.790042714524, 56.490041896966, 58.190041212928, 59.890044065315, 61.590043247757, 63.290042563719, 64.990041754637, 66.690041003839, 68.390040186282, 70.090039435484, 71.7900460161, 73.490045231922, 75.190044447744, 76.890043688732, 78.590042908727, 80.290042137067, 81.990041352889, 83.690040610567, 85.390039826389, 87.090039075591],
      "WindowCenter": [3188.0, 2961.0, 2536.0, 3124.0, 4710.0, 5667.0, 6602.0, 7040.0, 7548.0, 7877.0, 7994.0, 7974.0, 7843.0, 7618.0, 6786.0, 6821.0, 7342.0, 7523.0, 7867.0, 7933.0, 8095.0, 8451.0, 8541.0, 8813.0, 9217.0, 9353.0, 9472.0, 9334.0, 9260.0, 9484.0, 9681.0, 9854.0, 9950.0, 9883.0, 9714.0, 9879.0, 10073.0, 10216.0, 10241.0, 10153.0, 10401.0, 10429.0, 10454.0, 10541.0, 10479.0, 10376.0, 10229.0, 10301.0, 10380.0, 10285.0, 10230.0, 10422.0, 10435.0, 10348.0, 9895.0, 9729.0, 9770.0, 9700.0, 9996.0, 9934.0, 10222.0, 9979.0, 10133.0, 10175.0, 10353.0, 9953.0, 9690.0, 9931.0, 10160.0, 10021.0, 10139.0, 10189.0, 10303.0, 10154.0, 10094.0, 9624.0, 6466.0, 4324.0, 3057.0, 3857.0, 4566.0],
      "WindowWidth": [8462.0, 7979.0, 7479.0, 8532.0, 11130.0, 12797.0, 14474.0, 15455.0, 16667.0, 17606.0, 18461.0, 18572.0, 18122.0, 17495.0, 15183.0, 15125.0, 16236.0, 16841.0, 17790.0, 17843.0, 18241.0, 18946.0, 18982.0, 19500.0, 20671.0, 21202.0, 21552.0, 21351.0, 20930.0, 21330.0, 21761.0, 21872.0, 21863.0, 21457.0, 20890.0, 21309.0, 21665.0, 22147.0, 22234.0, 22142.0, 22770.0, 22678.0, 22614.0, 22692.0, 22651.0, 22386.0, 22114.0, 22231.0, 22440.0, 22260.0, 22157.0, 22645.0, 22707.0, 22446.0, 21396.0, 20904.0, 21012.0, 20862.0, 21641.0, 21529.0, 22226.0, 21826.0, 22508.0, 22645.0, 23188.0, 22038.0, 21217.0, 21785.0, 22648.0, 22186.0, 22734.0, 23050.0, 24446.0, 23956.0, 24486.0, 21674.0, 14208.0, 9432.0, 7498.0, 8596.0, 9763.0]
    }
  }
}