{
  "AcquisitionMatrixPE": 140,
  "AcquisitionNumber": 1,
  "AcquisitionTime": "21:11:45.075000",
  "BandwidthPerPixelPhaseEncode": 10.352,
  "BaseResolution": 140,
  "BodyPartExamined": "BRAIN",
  "ConsistencyInfo": "N4_VE11E_LATEST_20181129",
  "ConversionSoftware": "dcm2niix",
  "ConversionSoftwareVersion": "v1.0.20201102",
  "DerivedVendorReportedEchoSpacing": 0.000689998,
  "DeviceSerialNumber": "66112",
  "DiffusionScheme": "Monopolar",
  "DwellTime": 2.1e-06,
  "EchoTime": 0.0884,
  "EchoTrainLength": 105,
  "EffectiveEchoSpacing": 0.000689998,
  "FlipAngle": 90,
  "ImageComments": "Unaliased MB3/PE3 SENSE1",
  "ImageOrientationPatientDICOM": [0.999716, 0.0134654, 0.0196548, -0.0137851, 0.999773, 0.0162196],
  "ImageType": [
    "ORIGINAL",
    "PRIMARY",
    "DIFFUSION",
    "NONE",
    "MB",
    "ND",
    "MOSAIC"
],
  "ImagingFrequency": 123.259,
  "InPlanePhaseEncodingDirectionDICOM": "COL",
  "InstitutionAddress": "Maynard 3,Hanover,NH,US,03755",
  "InstitutionName": "Dartmouth College - PBS",
  "InstitutionalDepartmentName": "Department",
  "MRAcquisitionType": "2D",
  "MagneticFieldStrength": 3,
  "Manufacturer": "Siemens",
  "ManufacturersModelName": "Prisma",
  "Modality": "MR",
  "MultibandAccelerationFactor": 3,
  "PartialFourier": 0.75,
  "PatientPosition": "HFS",
  "PercentPhaseFOV": 100,
  "PercentSampling": 100,
  "PhaseEncodingDirection": "j-",
  "PhaseEncodingSteps": 105,
  "PhaseResolution": 1,
  "PixelBandwidth": 1700,
  "ProcedureStepDescription": "Wager_Wager^1076_spacetop",
  "ProtocolName": "dwi_acq-96dir-6b0-mb",
  "PulseSequenceDetails": "%CustomerSeq%\\cmrr_mbep2d_diff",
  "ReceiveCoilActiveElements": "HEA;HEP",
  "ReceiveCoilName": "Head_32",
  "ReconMatrixPE": 140,
  "RepetitionTime": 4.11,
  "SAR": 0.213649,
  "ScanOptions": "PFP\\FS",
  "ScanningSequence": "EP",
  "SequenceName": "ep_b5#1",
  "SequenceVariant": "SK\\SS",
  "SeriesDescription": "dwi_acq-96dir-6b0-mb",
  "SeriesNumber": 8,
  "ShimSetting": [4221, -7715, -7274, 195, -116, -46, -98, 94],
  "SliceThickness": 1.7,
  "SliceTiming": [0, 2.1225, 0.1525, 2.2725, 0.305, 2.425, 0.455, 2.5775, 0.6075, 2.7275, 0.7575, 2.88, 0.91, 3.03, 1.0625, 3.1825, 1.2125, 3.335, 1.365, 3.485, 1.515, 3.6375, 1.6675, 3.7875, 1.82, 3.94, 1.97, 0, 2.1225, 0.1525, 2.2725, 0.305, 2.425, 0.455, 2.5775, 0.6075, 2.7275, 0.7575, 2.88, 0.91, 3.03, 1.0625, 3.1825, 1.2125, 3.335, 1.365, 3.485, 1.515, 3.6375, 1.6675, 3.7875, 1.82, 3.94, 1.97, 0, 2.1225, 0.1525, 2.2725, 0.305, 2.425, 0.455, 2.5775, 0.6075, 2.7275, 0.7575, 2.88, 0.91, 3.03, 1.0625, 3.1825, 1.2125, 3.335, 1.365, 3.485, 1.515, 3.6375, 1.6675, 3.7875, 1.82, 3.94, 1.97],
  "SoftwareVersions": "syngo MR E11",
  "SpacingBetweenSlices": 1.7,
  "StationName": "AWP66112",
  "TotalReadoutTime": 0.0959097,
  "TxRefAmp": 241.019,
  "WipMemBlock": "035cc2b2-ec10-4f5b-b8f9-8d214ae44a67||Sequence: R016 ve11e/master r/434b28f1; Aug  7 2019 19:06:17 by eja",
  "dcmmeta_affine": [
    [-1.7137991189956665, -0.02363155037164688, 0.0330343097448349, 123.50126647949219],
    [-0.02308357134461403, 1.7138973474502563, 0.02802601084113121, -99.38078308105469],
    [0.03369395434856415, -0.027804948389530182, 1.6994476318359375, -91.7232437133789],
    [0.0, 0.0, 0.0, 1.0]
],
  "dcmmeta_reorient_transform": [
    [0.0, -1.0, 0.0, 139.0],
    [1.0, 0.0, 0.0, 0.0],
    [0.0, 0.0, 1.0, 0.0],
    [0.0, 0.0, 0.0, 1.0]
],
  "dcmmeta_shape": [140, 140, 81, 103],
  "dcmmeta_slice_dim": 2,
  "dcmmeta_version": 0.6,
  "global": {
    "const": {
      "AccessionNumber": "A004922",
      "AcquisitionMatrix": [140, 0, 0, 140],
      "AngioFlag": "N",
      "BitsAllocated": 16,
      "BitsStored": 16,
      "BodyPartExamined": "BRAIN",
      "Columns": 1260,
      "EchoNumbers": 1,
      "EchoTime": 88.4,
      "EchoTrainLength": 105,
      "FlipAngle": 90.0,
      "HighBit": 15,
      "ImageOrientationPatient": [0.99971614528691, 0.01346541660101, 0.01965480624279, -0.013785070776, 0.99977342329707, 0.01621955278535],
      "ImagePositionPatient": [-1066.7103250923, -1111.5602374713, -130.02751888967],
      "ImageType": [
        "ORIGINAL",
        "PRIMARY",
        "DIFFUSION",
        "NONE",
        "MB",
        "ND",
        "MOSAIC"
],
      "ImagedNucleus": "1H",
      "ImagingFrequency": 123.2591,
      "InPlanePhaseEncodingDirection": "COL",
      "MRAcquisitionType": "2D",
      "MagneticFieldStrength": 3.0,
      "Manufacturer": "SIEMENS",
      "ManufacturerModelName": "Prisma",
      "Modality": "MR",
      "NumberOfAverages": 1.0,
      "NumberOfPhaseEncodingSteps": 105,
      "PercentPhaseFieldOfView": 100.0,
      "PercentSampling": 100.0,
      "PerformedProcedureStepStartTime": "210258.080000",
      "PhotometricInterpretation": "MONOCHROME2",
      "PixelBandwidth": 1700.0,
      "PixelRepresentation": 0,
      "PixelSpacing": [1.7142857313156, 1.7142857313156],
      "ProtocolName": "dwi_acq-96dir-6b0-mb",
      "RepetitionTime": 4110.0,
      "Rows": 1260,
      "SAR": 0.21364946620947,
      "SamplesPerPixel": 1,
      "ScanOptions": [
        "PFP",
        "FS"
],
      "ScanningSequence": "EP",
      "SequenceVariant": [
        "SK",
        "SS"
],
      "SeriesDescription": "dwi_acq-96dir-6b0-mb",
      "SeriesNumber": 8,
      "SeriesTime": "211319.595000",
      "SliceLocation": -90.931969798074,
      "SliceThickness": 1.7000000476837,
      "SmallestImagePixelValue": 0,
      "SoftwareVersions": "syngo MR E11",
      "SpacingBetweenSlices": 1.6999997465014,
      "SpecificCharacterSet": "ISO_IR 100",
      "StudyID": "1",
      "StudyTime": "210258.020000",
      "TransmitCoilName": "Body",
      "VariableFlipAngleFlag": "N",
      "WindowCenterWidthExplanation": "Algo1"
    },
    "slices": {}
  },
  "time": {
    "samples": {
      "AcquisitionNumber": [1, 2, 3, 4, 5, 6, 7, 8, 9, 10, 11, 12, 13, 14, 15, 16, 17, 18, 19, 20, 21, 22, 23, 24, 25, 26, 27, 28, 29, 30, 31, 32, 33, 34, 35, 36, 37, 38, 39, 40, 41, 42, 43, 44, 45, 46, 47, 48, 49, 50, 51, 52, 53, 54, 55, 56, 57, 58, 59, 60, 61, 62, 63, 64, 65, 66, 67, 68, 69, 70, 71, 72, 73, 74, 75, 76, 77, 78, 79, 80, 81, 82, 83, 84, 85, 86, 87, 88, 89, 90, 91, 92, 93, 94, 95, 96, 97, 98, 99, 100, 101, 102, 103],
      "AcquisitionTime": ["211145.075000", "211149.185000", "211153.295000", "211157.405000", "211201.515000", "211205.625000", "211209.735000", "211213.845000", "211217.955000", "211222.065000", "211226.175000", "211230.285000", "211234.395000", "211238.505000", "211242.615000", "211246.725000", "211250.835000", "211254.945000", "211259.055000", "211303.165000", "211307.275000", "211311.385000", "211315.495000", "211319.605000", "211323.715000", "211327.825000", "211331.935000", "211336.045000", "211340.155000", "211344.265000", "211348.375000", "211352.485000", "211356.595000", "211400.705000", "211404.815000", "211408.925000", "211413.035000", "211417.145000", "211421.255000", "211425.365000", "211429.475000", "211433.585000", "211437.695000", "211441.805000", "211445.915000", "211450.025000", "211454.135000", "211458.245000", "211502.355000", "211506.465000", "211510.575000", "211514.685000", "211518.795000", "211522.905000", "211527.015000", "211531.125000", "211535.235000", "211539.345000", "211543.455000", "211547.565000", "211551.675000", "211555.785000", "211559.895000", "211604.005000", "211608.115000", "211612.225000", "211616.335000", "211620.445000", "211624.555000", "211628.665000", "211632.775000", "211636.885000", "211640.995000", "211645.105000", "211649.215000", "211653.325000", "211657.435000", "211701.545000", "211705.655000", "211709.765000", "211713.875000", "211717.985000", "211722.095000", "211726.205000", "211730.315000", "211734.425000", "211738.535000", "211742.645000", "211746.755000", "211750.865000", "211754.975000", "211759.085000", "211803.195000", "211807.305000", "211811.415000", "211815.525000", "211819.635000", "211823.745000", "211827.855000", "211831.965000", "211836.075000", "211840.185000", "211844.295000"],
      "ContentTime": ["211319.599000", "211319.604000", "211319.617000", "211319.620000", "211319.623000", "211319.626000", "211319.629000", "211319.632000", "211319.635000", "211319.638000", "211319.641000", "211319.644000", "211319.647000", "211319.650000", "211319.653000", "211319.656000", "211319.658000", "211319.661000", "211319.669000", "211319.672000", "211319.675000", "211319.687000", "211439.595000", "211439.598000", "211439.601000", "211439.604000", "211439.607000", "211439.610000", "211439.613000", "211439.616000", "211439.619000", "211439.622000", "211439.625000", "211439.628000", "211439.631000", "211439.634000", "211439.637000", "211439.640000", "211439.643000", "211439.646000", "211439.648000", "211439.651000", "211559.595000", "211559.599000", "211559.602000", "211559.605000", "211559.608000", "211559.611000", "211559.614000", "211559.617000", "211559.620000", "211559.623000", "211559.639000", "211559.642000", "211559.645000", "211559.648000", "211559.651000", "211559.654000", "211559.657000", "211559.660000", "211559.662000", "211719.594000", "211719.598000", "211719.601000", "211719.604000", "211719.607000", "211719.610000", "211719.613000", "211719.616000", "211719.619000", "211719.622000", "211719.625000", "211719.628000", "211719.631000", "211719.634000", "211719.637000", "211719.640000", "211719.643000", "211719.645000", "211719.648000", "211719.651000", "211849.562000", "211849.565000", "211849.568000", "211849.571000", "211849.574000", "211849.577000", "211849.580000", "211849.583000", "211849.586000", "211849.589000", "211849.592000", "211849.595000", "211849.598000", "211849.601000", "211849.604000", "211849.607000", "211849.610000", "211849.613000", "211849.616000", "211849.627000", "211849.630000", "211849.633000"],
      "InstanceCreationTime": ["211319.599000", "211319.604000", "211319.617000", "211319.620000", "211319.623000", "211319.626000", "211319.629000", "211319.632000", "211319.635000", "211319.638000", "211319.641000", "211319.644000", "211319.647000", "211319.650000", "211319.653000", "211319.656000", "211319.658000", "211319.661000", "211319.669000", "211319.672000", "211319.675000", "211319.687000", "211439.595000", "211439.598000", "211439.601000", "211439.604000", "211439.607000", "211439.610000", "211439.613000", "211439.616000", "211439.619000", "211439.622000", "211439.625000", "211439.628000", "211439.631000", "211439.634000", "211439.637000", "211439.640000", "211439.643000", "211439.646000", "211439.648000", "211439.651000", "211559.595000", "211559.599000", "211559.602000", "211559.605000", "211559.608000", "211559.611000", "211559.614000", "211559.617000", "211559.620000", "211559.623000", "211559.639000", "211559.642000", "211559.645000", "211559.648000", "211559.651000", "211559.654000", "211559.657000", "211559.660000", "211559.662000", "211719.594000", "211719.598000", "211719.601000", "211719.604000", "211719.607000", "211719.610000", "211719.613000", "211719.616000", "211719.619000", "211719.622000", "211719.625000", "211719.628000", "211719.631000", "211719.634000", "211719.637000", "211719.640000", "211719.643000", "211719.645000", "211719.648000", "211719.651000", "211849.562000", "211849.565000", "211849.568000", "211849.571000", "211849.574000", "211849.577000", "211849.580000", "211849.583000", "211849.586000", "211849.589000", "211849.592000", "211849.595000", "211849.598000", "211849.601000", "211849.604000", "211849.607000", "211849.610000", "211849.613000", "211849.616000", "211849.627000", "211849.630000", "211849.633000"],
      "InstanceNumber": [1, 2, 3, 4, 5, 6, 7, 8, 9, 10, 11, 12, 13, 14, 15, 16, 17, 18, 19, 20, 21, 22, 23, 24, 25, 26, 27, 28, 29, 30, 31, 32, 33, 34, 35, 36, 37, 38, 39, 40, 41, 42, 43, 44, 45, 46, 47, 48, 49, 50, 51, 52, 53, 54, 55, 56, 57, 58, 59, 60, 61, 62, 63, 64, 65, 66, 67, 68, 69, 70, 71, 72, 73, 74, 75, 76, 77, 78, 79, 80, 81, 82, 83, 84, 85, 86, 87, 88, 89, 90, 91, 92, 93, 94, 95, 96, 97, 98, 99, 100, 101, 102, 103],
      "LargestImagePixelValue": [65535, 65535, 39252, 39070, 40291, 39790, 41223, 39616, 65535, 26053, 29351, 30282, 28535, 31834, 29377, 27778, 27981, 28424, 25960, 29550, 29115, 27505, 29221, 27869, 65535, 13048, 17389, 17394, 15436, 16959, 16830, 14432, 15698, 13474, 15379, 18026, 15057, 16064, 16482, 14280, 65535, 9723, 9085, 12487, 10526, 8436, 7595, 9264, 8908, 9725, 9450, 10096, 10860, 14035, 10738, 8769, 14646, 8818, 9420, 9755, 8743, 10363, 8824, 8286, 8587, 9641, 10130, 8653, 10734, 10439, 11998, 9289, 8691, 65535, 11769, 7992, 8702, 8347, 8680, 9066, 9523, 9605, 8252, 12763, 7973, 12227, 9568, 9964, 11602, 11070, 13226, 8287, 9043, 8878, 13157, 15118, 8159, 8173, 11498, 8373, 13002, 8428, 65535],
      "SequenceName": [
 "ep_b5#1",
 "ep_b5#1",
 "ep_b500#2",
 "ep_b495#3",
 "ep_b500#4",
 "ep_b505#5",
 "ep_b495#6",
 "ep_b500#7",
 "ep_b5#8",
 "ep_b1000#9",
 "ep_b1005#10",
 "ep_b995#11",
 "ep_b1005#12",
 "ep_b995#13",
 "ep_b995#14",
 "ep_b1005#15",
 "ep_b1000#16",
 "ep_b1005#17",
 "ep_b995#18",
 "ep_b1000#19",
 "ep_b995#20",
 "ep_b1000#21",
 "ep_b1005#22",
 "ep_b1005#23",
 "ep_b5#24",
 "ep_b2000#25",
 "ep_b1995#26",
 "ep_b1990#27",
 "ep_b2000#28",
 "ep_b2005#29",
 "ep_b2010#30",
 "ep_b2000#31",
 "ep_b2010#32",
 "ep_b2000#33",
 "ep_b1995#34",
 "ep_b1995#35",
 "ep_b2005#36",
 "ep_b2000#37",
 "ep_b2005#38",
 "ep_b1995#39",
 "ep_b5#40",
 "ep_b3000#41",
 "ep_b3005#42",
 "ep_b3010#43",
 "ep_b3010#44",
 "ep_b3000#45",
 "ep_b3000#46",
 "ep_b2990#47",
 "ep_b3005#48",
 "ep_b3000#49",
 "ep_b2990#50",
 "ep_b2990#51",
 "ep_b2995#52",
 "ep_b2995#53",
 "ep_b3010#54",
 "ep_b3000#55",
 "ep_b2995#56",
 "ep_b2995#57",
 "ep_b2990#58",
 "ep_b2990#59",
 "ep_b3000#60",
 "ep_b2990#61",
 "ep_b2990#62",
 "ep_b2995#63",
 "ep_b3000#64",
 "ep_b3010#65",
 "ep_b3000#66",
 "ep_b3005#67",
 "ep_b3010#68",
 "ep_b3005#69",
 "ep_b3005#70",
 "ep_b3005#71",
 "ep_b2990#72",
 "ep_b5#73",
 "ep_b3010#74",
 "ep_b3000#75",
 "ep_b3005#76",
 "ep_b3000#77",
 "ep_b2990#78",
 "ep_b3005#79",
 "ep_b2995#80",
 "ep_b3010#81",
 "ep_b3005#82",
 "ep_b3005#83",
 "ep_b3000#84",
 "ep_b3000#85",
 "ep_b3010#86",
 "ep_b3010#87",
 "ep_b2990#88",
 "ep_b3010#89",
 "ep_b2995#90",
 "ep_b2995#91",
 "ep_b2990#92",
 "ep_b2995#93",
 "ep_b3005#94",
 "ep_b3005#95",
 "ep_b2995#96",
 "ep_b3000#97",
 "ep_b2990#98",
 "ep_b2995#99",
 "ep_b2995#100",
 "ep_b2995#101",
 "ep_b5#102"
],
      "WindowCenter": [10107.0, 10102.0, 6561.0, 6581.0, 6544.0, 6543.0, 6644.0, 6574.0, 10114.0, 4879.0, 4927.0, 4917.0, 4883.0, 4974.0, 4953.0, 4886.0, 4898.0, 4866.0, 4899.0, 4877.0, 4948.0, 4893.0, 4928.0, 4890.0, 10138.0, 3117.0, 3179.0, 3223.0, 3164.0, 3183.0, 3212.0, 3135.0, 3172.0, 3123.0, 3200.0, 3224.0, 3121.0, 3124.0, 3194.0, 3132.0, 10129.0, 2250.0, 2174.0, 2333.0, 2296.0, 2171.0, 2127.0, 2254.0, 2159.0, 2213.0, 2262.0, 2313.0, 2269.0, 2358.0, 2283.0, 2185.0, 2357.0, 2171.0, 2267.0, 2284.0, 2171.0, 2301.0, 2251.0, 2182.0, 2191.0, 2261.0, 2243.0, 2178.0, 2285.0, 2260.0, 2297.0, 2233.0, 2245.0, 10094.0, 2319.0, 2136.0, 2181.0, 2171.0, 2210.0, 2175.0, 2223.0, 2259.0, 2190.0, 2320.0, 2167.0, 2294.0, 2229.0, 2245.0, 2338.0, 2307.0, 2360.0, 2164.0, 2237.0, 2227.0, 2313.0, 2368.0, 2190.0, 2152.0, 2341.0, 2169.0, 2332.0, 2205.0, 10127.0],
      "WindowWidth": [22733.0, 22728.0, 13974.0, 14013.0, 13936.0, 13944.0, 14137.0, 14000.0, 22745.0, 10634.0, 10713.0, 10698.0, 10641.0, 10799.0, 10765.0, 10644.0, 10657.0, 10602.0, 10678.0, 10612.0, 10759.0, 10648.0, 10717.0, 10641.0, 22814.0, 7197.0, 7281.0, 7370.0, 7253.0, 7291.0, 7350.0, 7215.0, 7280.0, 7198.0, 7341.0, 7378.0, 7188.0, 7172.0, 7315.0, 7201.0, 22779.0, 5465.0, 5296.0, 5597.0, 5525.0, 5319.0, 5221.0, 5481.0, 5263.0, 5405.0, 5477.0, 5568.0, 5489.0, 5646.0, 5513.0, 5351.0, 5642.0, 5281.0, 5506.0, 5512.0, 5290.0, 5555.0, 5477.0, 5335.0, 5336.0, 5482.0, 5438.0, 5318.0, 5521.0, 5478.0, 5539.0, 5428.0, 5476.0, 22654.0, 5564.0, 5227.0, 5326.0, 5315.0, 5383.0, 5304.0, 5414.0, 5464.0, 5367.0, 5573.0, 5333.0, 5529.0, 5401.0, 5436.0, 5615.0, 5544.0, 5651.0, 5283.0, 5436.0, 5432.0, 5546.0, 5654.0, 5369.0, 5267.0, 5629.0, 5306.0, 5597.0, 5403.0, 22742.0]
    },
    "slices": {}
  }
}