{
  "AcquisitionMatrixPE": 140,
  "AcquisitionNumber": 1,
  "AcquisitionTime": "15:22:37.062500",
  "BandwidthPerPixelPhaseEncode": 10.352,
  "BaseResolution": 140,
  "BodyPartExamined": "BRAIN",
  "ConsistencyInfo": "N4_VE11C_LATEST_20160120",
  "ConversionSoftware": "dcm2niix",
  "ConversionSoftwareVersion": "v1.0.20201102",
  "DerivedVendorReportedEchoSpacing": 0.000689998,
  "DeviceSerialNumber": "66112",
  "DiffusionScheme": "Monopolar",
  "DwellTime": 2.1e-06,
  "EchoTime": 0.088,
  "EchoTrainLength": 105,
  "EffectiveEchoSpacing": 0.000689998,
  "FlipAngle": 90,
  "ImageComments": "Unaliased MB3/PE3",
  "ImageOrientationPatientDICOM": [0.998361, 0.0291332, 0.0492542, -0.0106294, 0.940139, -0.340625],
  "ImageType": [
    "ORIGINAL",
    "PRIMARY",
    "DIFFUSION",
    "NONE",
    "MB",
    "ND"
],
  "ImagingFrequency": 123.252,
  "InPlanePhaseEncodingDirectionDICOM": "COL",
  "InstitutionAddress": "Maynard 3,Hanover,NH,US,03755",
  "InstitutionName": "dartmouth_brain_imaging_center",
  "InstitutionalDepartmentName": "Department",
  "IntendedFor": [
    "ses-01/dwi/sub-0014_ses-01_acq-96dirX6b0Xmb_dwi.nii.gz"
],
  "MRAcquisitionType": "2D",
  "MagneticFieldStrength": 3,
  "Manufacturer": "Siemens",
  "ManufacturersModelName": "Prisma",
  "Modality": "MR",
  "MultibandAccelerationFactor": 3,
  "PartialFourier": 0.75,
  "PatientPosition": "HFS",
  "PercentPhaseFOV": 100,
  "PercentSampling": 100,
  "PhaseEncodingDirection": "j-",
  "PhaseEncodingSteps": 105,
  "PhaseResolution": 1,
  "PixelBandwidth": 1700,
  "ProcedureStepDescription": "Wager_Wager^1076_spacetop",
  "ProtocolName": "dwi_acq-discorr-AP",
  "PulseSequenceDetails": "%CustomerSeq%\\cmrr_mbep2d_diff",
  "ReceiveCoilActiveElements": "HEA;HEP",
  "ReceiveCoilName": "Head_32",
  "ReconMatrixPE": 140,
  "RepetitionTime": 4.1,
  "SAR": 0.174328,
  "ScanOptions": "PFP\\FS",
  "ScanningSequence": "EP",
  "SequenceName": "ep_b0",
  "SequenceVariant": "SK\\SS",
  "SeriesDescription": "dwi_acq-discorr-AP",
  "SeriesNumber": 7,
  "ShimSetting": [4161, -7713, -7237, 404, -60, 36, 23, 69],
  "SliceThickness": 1.7,
  "SliceTiming": [0, 2.10938, 0.15625, 2.26562, 0.29688, 2.42188, 0.45312, 2.5625, 0.60938, 2.71875, 0.75, 2.875, 0.90625, 3.01562, 1.0625, 3.17188, 1.20312, 3.32812, 1.35938, 3.46875, 1.51562, 3.625, 1.65625, 3.78125, 1.8125, 3.92188, 1.96875, 0, 2.10938, 0.15625, 2.26562, 0.29688, 2.42188, 0.45312, 2.5625, 0.60938, 2.71875, 0.75, 2.875, 0.90625, 3.01562, 1.0625, 3.17188, 1.20312, 3.32812, 1.35938, 3.46875, 1.51562, 3.625, 1.65625, 3.78125, 1.8125, 3.92188, 1.96875, 0, 2.10938, 0.15625, 2.26562, 0.29688, 2.42188, 0.45312, 2.5625, 0.60938, 2.71875, 0.75, 2.875, 0.90625, 3.01562, 1.0625, 3.17188, 1.20312, 3.32812, 1.35938, 3.46875, 1.51562, 3.625, 1.65625, 3.78125, 1.8125, 3.92188, 1.96875],
  "SoftwareVersions": "syngo MR E11",
  "SpacingBetweenSlices": 1.7,
  "StationName": "AWP66112",
  "TotalReadoutTime": 0.0959097,
  "TxRefAmp": 262.462,
  "WipMemBlock": "a0fac0f4-8167-459c-9d6d-85beae039737||Sequence: R016 ve11c/master r/e634e98; Dec 19 2017 11:11:25 by eja",
  "dcmmeta_affine": [
    [-1.7114765644073486, -0.01822187379002571, 0.09558963775634766, 123.03227233886719],
    [-0.04994257912039757, 1.6116670370101929, -0.5772240161895752, -59.854312896728516],
    [0.08443577587604523, 0.5839290022850037, 1.5961456298828125, -80.11331176757812],
    [0.0, 0.0, 0.0, 1.0]
],
  "dcmmeta_reorient_transform": [
    [0.0, -1.0, 0.0, 139.0],
    [1.0, 0.0, 0.0, 0.0],
    [0.0, 0.0, -1.0, 80.0],
    [0.0, 0.0, 0.0, 1.0]
],
  "dcmmeta_shape": [140, 140, 81],
  "dcmmeta_slice_dim": 2,
  "dcmmeta_version": 0.6,
  "global": {
    "const": {
      "AccessionNumber": "A003499",
      "AcquisitionMatrix": [140, 0, 0, 140],
      "AcquisitionNumber": 1,
      "AngioFlag": "N",
      "BitsAllocated": 16,
      "BitsStored": 16,
      "BodyPartExamined": "BRAIN",
      "Columns": 140,
      "EchoNumbers": 1,
      "EchoTime": 88.0,
      "EchoTrainLength": 105,
      "FlipAngle": 90.0,
      "HighBit": 15,
      "ImageOrientationPatient": [0.99836129833975, 0.02913317082386, 0.04925420119261, -0.0106294259539, 0.94013906253629, -0.3406252462711],
      "ImageType": [
        "ORIGINAL",
        "PRIMARY",
        "DIFFUSION",
        "NONE",
        "MB",
        "ND"
],
      "ImagedNucleus": "1H",
      "ImagingFrequency": 123.252108,
      "InPlanePhaseEncodingDirection": "COL",
      "MRAcquisitionType": "2D",
      "MagneticFieldStrength": 3.0,
      "Manufacturer": "SIEMENS",
      "ManufacturerModelName": "Prisma",
      "Modality": "MR",
      "NumberOfAverages": 1.0,
      "NumberOfPhaseEncodingSteps": 105,
      "PercentPhaseFieldOfView": 100.0,
      "PercentSampling": 100.0,
      "PerformedProcedureStepStartTime": "145934.524000",
      "PhotometricInterpretation": "MONOCHROME2",
      "PixelBandwidth": 1700.0,
      "PixelRepresentation": 0,
      "PixelSpacing": [1.7142857313156, 1.7142857313156],
      "ProtocolName": "dwi_acq-discorr-AP",
      "RepetitionTime": 4100.0,
      "Rows": 140,
      "SAR": 0.17432808070914,
      "SamplesPerPixel": 1,
      "ScanOptions": [
        "PFP",
        "FS"
],
      "ScanningSequence": "EP",
      "SequenceName": "ep_b0",
      "SequenceVariant": [
        "SK",
        "SS"
],
      "SeriesDescription": "dwi_acq-discorr-AP",
      "SeriesNumber": 7,
      "SeriesTime": "152241.240000",
      "SliceThickness": 1.7000000476837,
      "SmallestImagePixelValue": 0,
      "SoftwareVersions": "syngo MR E11",
      "SpacingBetweenSlices": 1.7,
      "SpecificCharacterSet": "ISO_IR 100",
      "StudyID": "1",
      "StudyTime": "145934.456000",
      "TransmitCoilName": "Body",
      "VariableFlipAngleFlag": "N",
      "WindowCenterWidthExplanation": "Algo1",
      "dBdt": 0.0},
    "slices": {
      "AcquisitionTime": ["152237.062500", "152239.177500", "152237.212500", "152239.330000", "152237.365000", "152239.480000", "152237.515000", "152239.630000", "152237.667500", "152239.782500", "152237.817500", "152239.932500", "152237.970000", "152240.085000", "152238.120000", "152240.235000", "152238.270000", "152240.387500", "152238.422500", "152240.537500", "152238.572500", "152240.690000", "152238.725000", "152240.840000", "152238.875000", "152240.990000", "152239.027500", "152237.062500", "152239.177500", "152237.212500", "152239.330000", "152237.365000", "152239.480000", "152237.515000", "152239.630000", "152237.667500", "152239.782500", "152237.817500", "152239.932500", "152237.970000", "152240.085000", "152238.120000", "152240.235000", "152238.270000", "152240.387500", "152238.422500", "152240.537500", "152238.572500", "152240.690000", "152238.725000", "152240.840000", "152238.875000", "152240.990000", "152239.027500", "152237.062500", "152239.177500", "152237.212500", "152239.330000", "152237.365000", "152239.480000", "152237.515000", "152239.630000", "152237.667500", "152239.782500", "152237.817500", "152239.932500", "152237.970000", "152240.085000", "152238.120000", "152240.235000", "152238.270000", "152240.387500", "152238.422500", "152240.537500", "152238.572500", "152240.690000", "152238.725000", "152240.840000", "152238.875000", "152240.990000", "152239.027500"],
      "ContentTime": ["152241.243000", "152241.354000", "152241.254000", "152241.360000", "152241.265000", "152241.367000", "152241.274000", "152241.383000", "152241.281000", "152241.390000", "152241.293000", "152241.397000", "152241.300000", "152241.404000", "152241.307000", "152241.410000", "152241.314000", "152241.417000", "152241.322000", "152241.423000", "152241.328000", "152241.429000", "152241.335000", "152241.436000", "152241.341000", "152241.442000", "152241.348000", "152241.246000", "152241.356000", "152241.258000", "152241.362000", "152241.268000", "152241.369000", "152241.276000", "152241.385000", "152241.284000", "152241.393000", "152241.295000", "152241.399000", "152241.302000", "152241.406000", "152241.309000", "152241.412000", "152241.317000", "152241.419000", "152241.324000", "152241.425000", "152241.330000", "152241.431000", "152241.337000", "152241.438000", "152241.343000", "152241.444000", "152241.350000", "152241.251000", "152241.358000", "152241.261000", "152241.364000", "152241.271000", "152241.381000", "152241.279000", "152241.387000", "152241.286000", "152241.395000", "152241.298000", "152241.401000", "152241.305000", "152241.408000", "152241.311000", "152241.414000", "152241.319000", "152241.421000", "152241.326000", "152241.427000", "152241.332000", "152241.434000", "152241.339000", "152241.440000", "152241.346000", "152241.446000", "152241.352000"],
      "CsaImage.ICE_Dims": [
        "X_1_1_1_1_1_1_1_1_1_1_1_79",
        "X_1_1_1_1_1_1_42_1_1_2_1_79",
        "X_1_1_1_1_1_1_2_1_1_3_1_79",
        "X_1_1_1_1_1_1_43_1_1_4_1_79",
        "X_1_1_1_1_1_1_3_1_1_5_1_79",
        "X_1_1_1_1_1_1_44_1_1_6_1_79",
        "X_1_1_1_1_1_1_4_1_1_7_1_79",
        "X_1_1_1_1_1_1_45_1_1_8_1_79",
        "X_1_1_1_1_1_1_5_1_1_9_1_79",
        "X_1_1_1_1_1_1_46_1_1_10_1_79",
        "X_1_1_1_1_1_1_6_1_1_11_1_79",
        "X_1_1_1_1_1_1_47_1_1_12_1_79",
        "X_1_1_1_1_1_1_7_1_1_13_1_79",
        "X_1_1_1_1_1_1_48_1_1_14_1_79",
        "X_1_1_1_1_1_1_8_1_1_15_1_79",
        "X_1_1_1_1_1_1_49_1_1_16_1_79",
        "X_1_1_1_1_1_1_9_1_1_17_1_79",
        "X_1_1_1_1_1_1_50_1_1_18_1_79",
        "X_1_1_1_1_1_1_10_1_1_19_1_79",
        "X_1_1_1_1_1_1_51_1_1_20_1_79",
        "X_1_1_1_1_1_1_11_1_1_21_1_79",
        "X_1_1_1_1_1_1_52_1_1_22_1_79",
        "X_1_1_1_1_1_1_12_1_1_23_1_79",
        "X_1_1_1_1_1_1_53_1_1_24_1_79",
        "X_1_1_1_1_1_1_13_1_1_25_1_79",
        "X_1_1_1_1_1_1_54_1_1_26_1_79",
        "X_1_1_1_1_1_1_14_1_1_27_1_79",
        "X_1_1_1_1_1_1_55_1_1_28_1_79",
        "X_1_1_1_1_1_1_15_1_1_29_1_79",
        "X_1_1_1_1_1_1_56_1_1_30_1_79",
        "X_1_1_1_1_1_1_16_1_1_31_1_79",
        "X_1_1_1_1_1_1_57_1_1_32_1_79",
        "X_1_1_1_1_1_1_17_1_1_33_1_79",
        "X_1_1_1_1_1_1_58_1_1_34_1_79",
        "X_1_1_1_1_1_1_18_1_1_35_1_79",
        "X_1_1_1_1_1_1_59_1_1_36_1_79",
        "X_1_1_1_1_1_1_19_1_1_37_1_79",
        "X_1_1_1_1_1_1_60_1_1_38_1_79",
        "X_1_1_1_1_1_1_20_1_1_39_1_79",
        "X_1_1_1_1_1_1_61_1_1_40_1_79",
        "X_1_1_1_1_1_1_21_1_1_41_1_79",
        "X_1_1_1_1_1_1_62_1_1_42_1_79",
        "X_1_1_1_1_1_1_22_1_1_43_1_79",
        "X_1_1_1_1_1_1_63_1_1_44_1_79",
        "X_1_1_1_1_1_1_23_1_1_45_1_79",
        "X_1_1_1_1_1_1_64_1_1_46_1_79",
        "X_1_1_1_1_1_1_24_1_1_47_1_79",
        "X_1_1_1_1_1_1_65_1_1_48_1_79",
        "X_1_1_1_1_1_1_25_1_1_49_1_79",
        "X_1_1_1_1_1_1_66_1_1_50_1_79",
        "X_1_1_1_1_1_1_26_1_1_51_1_79",
        "X_1_1_1_1_1_1_67_1_1_52_1_79",
        "X_1_1_1_1_1_1_27_1_1_53_1_79",
        "X_1_1_1_1_1_1_68_1_1_54_1_79",
        "X_1_1_1_1_1_1_28_1_1_55_1_79",
        "X_1_1_1_1_1_1_69_1_1_56_1_79",
        "X_1_1_1_1_1_1_29_1_1_57_1_79",
        "X_1_1_1_1_1_1_70_1_1_58_1_79",
        "X_1_1_1_1_1_1_30_1_1_59_1_79",
        "X_1_1_1_1_1_1_71_1_1_60_1_79",
        "X_1_1_1_1_1_1_31_1_1_61_1_79",
        "X_1_1_1_1_1_1_72_1_1_62_1_79",
        "X_1_1_1_1_1_1_32_1_1_63_1_79",
        "X_1_1_1_1_1_1_73_1_1_64_1_79",
        "X_1_1_1_1_1_1_33_1_1_65_1_79",
        "X_1_1_1_1_1_1_74_1_1_66_1_79",
        "X_1_1_1_1_1_1_34_1_1_67_1_79",
        "X_1_1_1_1_1_1_75_1_1_68_1_79",
        "X_1_1_1_1_1_1_35_1_1_69_1_79",
        "X_1_1_1_1_1_1_76_1_1_70_1_79",
        "X_1_1_1_1_1_1_36_1_1_71_1_79",
        "X_1_1_1_1_1_1_77_1_1_72_1_79",
        "X_1_1_1_1_1_1_37_1_1_73_1_79",
        "X_1_1_1_1_1_1_78_1_1_74_1_79",
        "X_1_1_1_1_1_1_38_1_1_75_1_79",
        "X_1_1_1_1_1_1_79_1_1_76_1_79",
        "X_1_1_1_1_1_1_39_1_1_77_1_79",
        "X_1_1_1_1_1_1_80_1_1_78_1_79",
        "X_1_1_1_1_1_1_40_1_1_79_1_79",
        "X_1_1_1_1_1_1_81_1_1_80_1_79",
        "X_1_1_1_1_1_1_41_1_1_81_1_79"
],
      "CsaImage.ProtocolSliceNumber": [0, 1, 2, 3, 4, 5, 6, 7, 8, 9, 10, 11, 12, 13, 14, 15, 16, 17, 18, 19, 20, 21, 22, 23, 24, 25, 26, 27, 28, 29, 30, 31, 32, 33, 34, 35, 36, 37, 38, 39, 40, 41, 42, 43, 44, 45, 46, 47, 48, 49, 50, 51, 52, 53, 54, 55, 56, 57, 58, 59, 60, 61, 62, 63, 64, 65, 66, 67, 68, 69, 70, 71, 72, 73, 74, 75, 76, 77, 78, 79, 80],
      "CsaImage.RFSWDDataType": [
        "predicted",
        "predicted",
        "predicted",
        "predicted",
        "predicted",
        "predicted",
        "predicted",
        "predicted",
        "predicted",
        "predicted",
        "predicted",
        "predicted",
        "predicted",
        "predicted",
        "predicted",
        "predicted",
        "predicted",
        "predicted",
        "predicted",
        "predicted",
        "predicted",
        "predicted",
        "predicted",
        "predicted",
        "predicted",
        "measured",
        "predicted",
        "predicted",
        "predicted",
        "predicted",
        "predicted",
        "predicted",
        "predicted",
        "predicted",
        "predicted",
        "predicted",
        "predicted",
        "predicted",
        "predicted",
        "predicted",
        "predicted",
        "predicted",
        "predicted",
        "predicted",
        "predicted",
        "predicted",
        "predicted",
        "predicted",
        "predicted",
        "predicted",
        "predicted",
        "predicted",
        "measured",
        "predicted",
        "predicted",
        "predicted",
        "predicted",
        "predicted",
        "predicted",
        "predicted",
        "predicted",
        "predicted",
        "predicted",
        "predicted",
        "predicted",
        "predicted",
        "predicted",
        "predicted",
        "predicted",
        "predicted",
        "predicted",
        "predicted",
        "predicted",
        "predicted",
        "predicted",
        "predicted",
        "predicted",
        "predicted",
        "predicted",
        "measured",
        "predicted"
],
      "CsaImage.SlicePosition_PCS": [
        [-120.49941805, -164.16739786, 1.0529657],
        [-120.59500769, -163.59017313, 2.64911133],
        [-120.69059757, -163.01294839, 4.24525314],
        [-120.78618744, -162.43572366, 5.84139687],
        [-120.88177708, -161.85849893, 7.43754059],
        [-120.97736696, -161.28127801, 9.03368431],
        [-121.07295683, -160.70405328, 10.62982803],
        [-121.16854671, -160.12682855, 12.22597176],
        [-121.26413635, -159.54960382, 13.82211739],
        [-121.35972622, -158.97237909, 15.41826111],
        [-121.4553161, -158.39515817, 17.01440483],
        [-121.55090574, -157.81793344, 18.61054855],
        [-121.64649561, -157.24070871, 20.20669132],
        [-121.74208549, -156.66348398, 21.802836],
        [-121.83767513, -156.08625925, 23.39897972],
        [-121.933265, -155.50903833, 24.99512344],
        [-122.02885488, -154.9318136, 26.59126717],
        [-122.12444452, -154.35458887, 28.18741089],
        [-122.22003439, -153.77736414, 29.78355461],
        [-122.31562427, -153.2001394, 31.37969833],
        [-122.41121391, -152.62291849, 32.97584218],
        [-122.50680378, -152.04569376, 34.57198599],
        [-122.60239366, -151.46846902, 36.16812974],
        [-122.6979833, -150.89124429, 37.7642737],
        [-122.79357341, -150.31401956, 39.36041742],
        [-122.88916305, -149.73679483, 40.95656115],
        [-122.98475269, -149.15957391, 42.55270487],
        [-123.0803428, -148.58234918, 44.14884907],
        [-123.17593244, -148.00512445, 45.74499279],
        [-123.27152208, -147.42789972, 47.34113651],
        [-123.36711219, -146.85067689, 48.93728024],
        [-123.46270183, -146.27345216, 50.53342396],
        [-123.55829147, -145.69622934, 52.12956863],
        [-123.65388158, -145.11900461, 53.72571236],
        [-123.74947122, -144.54177988, 55.32185608],
        [-123.84506086, -143.96455705, 56.9179998],
        [-123.94065097, -143.38733232, 58.51414352],
        [-124.03624061, -142.8101095, 60.11028725],
        [-124.13183025, -142.23288477, 61.70643097],
        [-124.22742036, -141.65566003, 63.30257469],
        [-124.32301, -141.07843721, 64.89871841],
        [-124.41859964, -140.50121248, 66.49486214],
        [-124.51418975, -139.92398965, 68.09100586],
        [-124.60977939, -139.34676492, 69.68715149],
        [-124.70536903, -138.76954019, 71.2832933],
        [-124.80095914, -138.19231737, 72.87943893],
        [-124.89654878, -137.61509264, 74.47558075],
        [-124.99213842, -137.0378679, 76.07172638],
        [-125.08772853, -136.46064508, 77.66786819],
        [-125.18331817, -135.88342035, 79.26401382],
        [-125.27890781, -135.30619752, 80.86015564],
        [-125.37449792, -134.72897279, 82.45630127],
        [-125.47008756, -134.15174806, 84.05244308],
        [-125.5656772, -133.57452524, 85.64858871],
        [-125.66126731, -132.99730051, 87.24473053],
        [-125.75685695, -132.42007768, 88.84087616],
        [-125.85244659, -131.84285295, 90.43701797],
        [-125.9480367, -131.26562917, 92.0331636],
        [-126.04362634, -130.68840444, 93.62930542],
        [-126.13921598, -130.11118066, 95.22545105],
        [-126.23480609, -129.53395689, 96.82159286],
        [-126.33039573, -128.95673311, 98.41773849],
        [-126.42598537, -128.37950933, 100.01388031],
        [-126.52157548, -127.8022846, 101.61002594],
        [-126.61716512, -127.22506082, 103.20617157],
        [-126.71275476, -126.64783704, 104.8023172],
        [-126.8083444, -126.07061327, 106.3984552],
        [-126.90393499, -125.49338853, 107.99460083],
        [-126.99952462, -124.91616476, 109.59074646],
        [-127.09511426, -124.33894098, 111.18689209],
        [-127.1907039, -123.76171672, 112.78303009],
        [-127.28629354, -123.18449295, 114.37917572],
        [-127.38188318, -122.60726917, 115.97532135],
        [-127.47747377, -122.03004491, 117.57146698],
        [-127.5730634, -121.45282114, 119.16760498],
        [-127.66865304, -120.87559688, 120.76375061],
        [-127.76424268, -120.29837287, 122.35989624],
        [-127.85983232, -119.72114909, 123.95604187],
        [-127.95542196, -119.14392507, 125.55217987],
        [-128.05101255, -118.56670106, 127.1483255],
        [-128.14660219, -117.98947704, 128.74447113]
],
      "CsaImage.TimeAfterStart": [16.4, 18.515, 16.55, 18.665, 16.7025, 18.8175, 16.8525, 18.9675, 17.005, 19.12, 17.155, 19.27, 17.305, 19.4225, 17.4575, 19.5725, 17.6075, 19.725, 17.76, 19.875, 17.91, 20.025, 18.0625, 20.1775, 18.2125, 20.3275, 18.365, 16.4, 18.515, 16.55, 18.665, 16.7025, 18.8175, 16.8525, 18.9675, 17.005, 19.12, 17.155, 19.27, 17.305, 19.4225, 17.4575, 19.5725, 17.6075, 19.725, 17.76, 19.875, 17.91, 20.025, 18.0625, 20.1775, 18.2125, 20.3275, 18.365, 16.4, 18.515, 16.55, 18.665, 16.7025, 18.8175, 16.8525, 18.9675, 17.005, 19.12, 17.155, 19.27, 17.305, 19.4225, 17.4575, 19.5725, 17.6075, 19.725, 17.76, 19.875, 17.91, 20.025, 18.0625, 20.1775, 18.2125, 20.3275, 18.365],
      "ImagePositionPatient": [
        [-120.49941805165, -164.16739785741, 1.0529656981724],
        [-120.59500768941, -163.59017312597, 2.6491113280552],
        [-120.69059756558, -163.01294839452, 4.2452531432408],
        [-120.78618744176, -162.43572366308, 5.8413968657749],
        [-120.88177707952, -161.85849893163, 7.4375405883091],
        [-120.97736695569, -161.28127801488, 9.0336843108433],
        [-121.07295683187, -160.70405328344, 10.629828033377],
        [-121.16854670804, -160.12682855199, 12.225971755912],
        [-121.2641363458, -159.54960382055, 13.822117385794],
        [-121.35972622197, -158.9723790891, 15.418261108329],
        [-121.45531609815, -158.39515817235, 17.014404830863],
        [-121.5509057359, -157.81793344091, 18.610548553397],
        [-121.64649561208, -157.24070870946, 20.206691322257],
        [-121.74208548825, -156.66348397802, 21.802835998465],
        [-121.83767512601, -156.08625924657, 23.398979721],
        [-121.93326500218, -155.50903832982, 24.995123443534],
        [-122.02885487836, -154.93181359838, 26.591267166068],
        [-122.12444451611, -154.35458886693, 28.187410888602],
        [-122.22003439229, -153.77736413549, 29.783554611136],
        [-122.31562426846, -153.20013940404, 31.37969833367],
        [-122.41121390622, -152.62291848729, 32.975842175414],
        [-122.5068037824, -152.04569375585, 34.571985987355],
        [-122.60239365857, -151.4684690244, 36.168129739692],
        [-122.69798329633, -150.89124429296, 37.764273700644],
        [-122.79357341092, -150.31401956151, 39.360417423179],
        [-122.88916304868, -149.73679483007, 40.956561145713],
        [-122.98475268643, -149.15957391332, 42.552704868247],
        [-123.08034280103, -148.58234918187, 44.148849067618],
        [-123.17593243878, -148.00512445043, 45.744992790152],
        [-123.27152207654, -147.42789971898, 47.341136512687],
        [-123.36711219113, -146.85067689489, 48.937280235221],
        [-123.46270182889, -146.27345216344, 50.533423957755],
        [-123.55829146665, -145.69622933934, 52.129568633963],
        [-123.65388158124, -145.1190046079, 53.725712356498],
        [-123.749471219, -144.54177987645, 55.321856079032],
        [-123.84506085675, -143.96455705236, 56.917999801566],
        [-123.94065097135, -143.38733232091, 58.5141435241],
        [-124.0362406091, -142.81010949682, 60.110287246634],
        [-124.13183024686, -142.23288476537, 61.706430969168],
        [-124.22742036145, -141.65566003392, 63.302574691703],
        [-124.32300999921, -141.07843720983, 64.898718414237],
        [-124.41859963696, -140.50121247838, 66.494862136771],
        [-124.51418975156, -139.92398965429, 68.091005859305],
        [-124.60977938931, -139.34676492284, 69.687151489188],
        [-124.70536902707, -138.7695401914, 71.283293304374],
        [-124.80095914166, -138.1923173673, 72.879438934256],
        [-124.89654877942, -137.61509263585, 74.475580749442],
        [-124.99213841718, -137.03786790441, 76.071726379325],
        [-125.08772853177, -136.46064508031, 77.66786819451],
        [-125.18331816953, -135.88342034887, 79.264013824393],
        [-125.27890780728, -135.30619752477, 80.860155639579],
        [-125.37449792188, -134.72897279332, 82.456301269461],
        [-125.47008755963, -134.15174806188, 84.052443084647],
        [-125.56567719739, -133.57452523778, 85.64858871453],
        [-125.66126731198, -132.99730050634, 87.244730529715],
        [-125.75685694974, -132.42007768224, 88.840876159598],
        [-125.8524465875, -131.8428529508, 90.437017974784],
        [-125.94803670209, -131.26562917302, 92.033163604667],
        [-126.04362633985, -130.68840444158, 93.629305419852],
        [-126.1392159776, -130.11118066381, 95.225451049735],
        [-126.2348060922, -129.53395688604, 96.82159286492],
        [-126.33039572995, -128.95673310827, 98.417738494803],
        [-126.42598536771, -128.37950933049, 100.01388030999],
        [-126.5215754823, -127.80228459905, 101.61002593987],
        [-126.61716512006, -127.22506082128, 103.20617156975],
        [-126.71275475781, -126.64783704351, 104.80231719964],
        [-126.80834439557, -126.07061326574, 106.39845520013],
        [-126.903934987, -125.49338853429, 107.99460083001],
        [-126.99952462476, -124.91616475652, 109.59074645989],
        [-127.09511426251, -124.33894097875, 111.18689208977],
        [-127.19070390027, -123.76171672414, 112.78303009026],
        [-127.28629353803, -123.18449294637, 114.37917572015],
        [-127.38188317578, -122.6072691686, 115.97532135003],
        [-127.47747376721, -122.03004491399, 117.57146697991],
        [-127.57306340497, -121.45282113622, 119.1676049804],
        [-127.66865304273, -120.87559688161, 120.76375061028],
        [-127.76424268048, -120.29837286542, 122.35989624016],
        [-127.85983231824, -119.72114908765, 123.95604187005],
        [-127.955421956, -119.14392507146, 125.55217987054],
        [-128.05101254743, -118.56670105527, 127.14832550042],
        [-128.14660218518, -117.98947703908, 128.7444711303]
],
      "InstanceCreationTime": ["152241.243000", "152241.354000", "152241.254000", "152241.360000", "152241.265000", "152241.367000", "152241.274000", "152241.383000", "152241.281000", "152241.390000", "152241.293000", "152241.397000", "152241.300000", "152241.404000", "152241.307000", "152241.410000", "152241.314000", "152241.417000", "152241.322000", "152241.423000", "152241.328000", "152241.429000", "152241.335000", "152241.436000", "152241.341000", "152241.442000", "152241.348000", "152241.246000", "152241.356000", "152241.258000", "152241.362000", "152241.268000", "152241.369000", "152241.276000", "152241.385000", "152241.284000", "152241.393000", "152241.295000", "152241.399000", "152241.302000", "152241.406000", "152241.309000", "152241.412000", "152241.317000", "152241.419000", "152241.324000", "152241.425000", "152241.330000", "152241.431000", "152241.337000", "152241.438000", "152241.343000", "152241.444000", "152241.350000", "152241.251000", "152241.358000", "152241.261000", "152241.364000", "152241.271000", "152241.381000", "152241.279000", "152241.387000", "152241.286000", "152241.395000", "152241.298000", "152241.401000", "152241.305000", "152241.408000", "152241.311000", "152241.414000", "152241.319000", "152241.421000", "152241.326000", "152241.427000", "152241.332000", "152241.434000", "152241.339000", "152241.440000", "152241.346000", "152241.446000", "152241.352000"],
      "InstanceNumber": [1, 2, 3, 4, 5, 6, 7, 8, 9, 10, 11, 12, 13, 14, 15, 16, 17, 18, 19, 20, 21, 22, 23, 24, 25, 26, 27, 28, 29, 30, 31, 32, 33, 34, 35, 36, 37, 38, 39, 40, 41, 42, 43, 44, 45, 46, 47, 48, 49, 50, 51, 52, 53, 54, 55, 56, 57, 58, 59, 60, 61, 62, 63, 64, 65, 66, 67, 68, 69, 70, 71, 72, 73, 74, 75, 76, 77, 78, 79, 80, 81],
      "LargestImagePixelValue": [27451, 16508, 13847, 12882, 25374, 41298, 48851, 53234, 65535, 65535, 65535, 65535, 40896, 27618, 24233, 21569, 32287, 32449, 35686, 36747, 39684, 42831, 43508, 39774, 43289, 44113, 48505, 59848, 56157, 65535, 61007, 56452, 50325, 53306, 46465, 50567, 56771, 51017, 41738, 35767, 36363, 38199, 45504, 40913, 43673, 43698, 43626, 42354, 34676, 40618, 46988, 39526, 45191, 47262, 38572, 37413, 41853, 32828, 42776, 48062, 42741, 41958, 45468, 42142, 41791, 34823, 30994, 37046, 39525, 39722, 40587, 37275, 40414, 38595, 37374, 38354, 41103, 33945, 28597, 18208, 20949],
      "SliceLocation": [-47.977740996991, -46.277739043689, -44.57774065863, -42.877740482747, -41.177740320269, -39.477741439641, -37.777741263758, -36.077741087874, -34.377739134572, -32.677738958688, -30.977740078061, -29.277739915583, -27.577740635112, -25.877739563816, -24.177739401339, -22.477740520711, -20.777740344827, -19.07774018235, -17.377740006467, -15.677739830583, -13.977740851435, -12.277740591606, -10.577740387741, -8.8777400014106, -7.177739812121, -5.4777396496436, -3.7777407824219, -2.077740145426, -0.3777399829486, 1.3222601795288, 3.0222597211905, 4.7222598836679, 6.42226029393, 8.1222604832197, 9.8222606456971, 11.522260160547, 13.222260349836, 14.922259864686, 16.622260027163, 18.322260216453, 20.022259731302, 21.72225989378, 23.422259435441, 25.122261388744, 26.822259760396, 28.522261092883, 30.222259464535, 31.922261417838, 33.622259168675, 35.322261121977, 37.022258846002, 38.722260826116, 40.422259197769, 42.122260503443, 43.822258901908, 45.522260207582, 47.222258579235, 48.922260235536, 50.622258607188, 52.322260236676, 54.022258311327, 55.722259940816, 57.422257988654, 59.122259968769, 60.822261598257, 62.522263227746, 64.222257693934, 65.922259700861, 67.622261330349, 69.322262959838, 71.022257587933, 72.722259217422, 74.42226084691, 76.12226269193, 77.822257158118, 79.522258949514, 81.222260659956, 82.922262289445, 84.622256836586, 86.322258600653, 88.022260311095],
      "WindowCenter": [5773.0, 3986.0, 3183.0, 3003.0, 6631.0, 8216.0, 8848.0, 9304.0, 9788.0, 8499.0, 8093.0, 7834.0, 6645.0, 5902.0, 5578.0, 5461.0, 5989.0, 6284.0, 6471.0, 6837.0, 7056.0, 7342.0, 7479.0, 7461.0, 7577.0, 7722.0, 7932.0, 8036.0, 8022.0, 8231.0, 8328.0, 8414.0, 8431.0, 8631.0, 8484.0, 8590.0, 8750.0, 8826.0, 8738.0, 8751.0, 8885.0, 9032.0, 9083.0, 9141.0, 9343.0, 9276.0, 9301.0, 8864.0, 8730.0, 8855.0, 9042.0, 8976.0, 9147.0, 9150.0, 8599.0, 8477.0, 8664.0, 8575.0, 8831.0, 8812.0, 8834.0, 8919.0, 9062.0, 9077.0, 9380.0, 9241.0, 9149.0, 9295.0, 9415.0, 9217.0, 9387.0, 9373.0, 9267.0, 9236.0, 9367.0, 9329.0, 8995.0, 6985.0, 5419.0, 4454.0, 4874.0],
      "WindowWidth": [12842.0, 9864.0, 8670.0, 8544.0, 14087.0, 17242.0, 18969.0, 20487.0, 22231.0, 19922.0, 19210.0, 18298.0, 15193.0, 13442.0, 12729.0, 12595.0, 13601.0, 14264.0, 14758.0, 15480.0, 15682.0, 16372.0, 16781.0, 16995.0, 17146.0, 17491.0, 18032.0, 18178.0, 18455.0, 19149.0, 19154.0, 19350.0, 18946.0, 19037.0, 18675.0, 18979.0, 19245.0, 19267.0, 19048.0, 19112.0, 19422.0, 19669.0, 19774.0, 19918.0, 20222.0, 20108.0, 20205.0, 19279.0, 19090.0, 19455.0, 19842.0, 19675.0, 20151.0, 20144.0, 18725.0, 18412.0, 18723.0, 18564.0, 19134.0, 19014.0, 19023.0, 19197.0, 19656.0, 19580.0, 20323.0, 19962.0, 19724.0, 20188.0, 20487.0, 19871.0, 20228.0, 20129.0, 19895.0, 19820.0, 20144.0, 19947.0, 19210.0, 14997.0, 11636.0, 9807.0, 10519.0]
    }
  }
}