{
  "AcquisitionMatrixPE": 82,
  "AcquisitionNumber": 1,
  "AcquisitionTime": "11:18:57.130000",
  "BandwidthPerPixelPhaseEncode": 24.888,
  "BaseResolution": 82,
  "BodyPartExamined": "BRAIN",
  "ConsistencyInfo": "N4_VE11C_LATEST_20160120",
  "ConversionSoftware": "dcm2niix",
  "ConversionSoftwareVersion": "v1.0.20201102",
  "DerivedVendorReportedEchoSpacing": 0.00049,
  "DeviceSerialNumber": "66112",
  "DwellTime": 2e-06,
  "EchoTime": 0.0272,
  "EchoTrainLength": 82,
  "EffectiveEchoSpacing": 0.00049,
  "FlipAngle": 44,
  "ImageComments": "Unaliased MB8/PE3",
  "ImageOrientationPatientDICOM": [0.99668, 0.0750597, 0.0315378, -0.0812416, 0.942249, 0.324911],
  "ImageType": [
    "ORIGINAL",
    "PRIMARY",
    "M",
    "MB",
    "ND",
    "NORM",
    "MOSAIC"
],
  "ImagingFrequency": 123.252,
  "InPlanePhaseEncodingDirectionDICOM": "COL",
  "InstitutionAddress": "Maynard 3,Hanover,NH,US,03755",
  "InstitutionName": "Dartmouth College - PBS",
  "InstitutionalDepartmentName": "Department",
  "MRAcquisitionType": "2D",
  "MagneticFieldStrength": 3,
  "Manufacturer": "Siemens",
  "ManufacturersModelName": "Prisma",
  "Modality": "MR",
  "MultibandAccelerationFactor": 8,
  "PartialFourier": 1,
  "PatientPosition": "HFS",
  "PercentPhaseFOV": 100,
  "PercentSampling": 100,
  "PhaseEncodingDirection": "j-",
  "PhaseEncodingSteps": 82,
  "PhaseResolution": 1,
  "PixelBandwidth": 3050,
  "ProcedureStepDescription": "Wager_Wager^1076_spacetop",
  "ProtocolName": "func_run-03_task-alignvideo_acq-ap-mb8",
  "PulseSequenceDetails": "%CustomerSeq%\\cmrr_mbep2d_bold",
  "ReceiveCoilActiveElements": "HEA;HEP",
  "ReceiveCoilName": "Head_32",
  "ReconMatrixPE": 82,
  "RepetitionTime": 0.46,
  "SAR": 0.0976502,
  "ScanOptions": "FS",
  "ScanningSequence": "EP",
  "SequenceName": "epfid2d1_82",
  "SequenceVariant": "SK\\SS",
  "SeriesDescription": "func_run-03_task-alignvideo_acq-ap-mb8",
  "SeriesNumber": 32,
  "ShimSetting": [4140, -7781, -7250, 397, -151, -131, 59, 39],
  "SliceThickness": 2.7,
  "SliceTiming": [0, 0.25, 0.0625, 0.3125, 0.125, 0.375, 0.1875, 0, 0.25, 0.0625, 0.3125, 0.125, 0.375, 0.1875, 0, 0.25, 0.0625, 0.3125, 0.125, 0.375, 0.1875, 0, 0.25, 0.0625, 0.3125, 0.125, 0.375, 0.1875, 0, 0.25, 0.0625, 0.3125, 0.125, 0.375, 0.1875, 0, 0.25, 0.0625, 0.3125, 0.125, 0.375, 0.1875, 0, 0.25, 0.0625, 0.3125, 0.125, 0.375, 0.1875, 0, 0.25, 0.0625, 0.3125, 0.125, 0.375, 0.1875],
  "SoftwareVersions": "syngo MR E11",
  "SpacingBetweenSlices": 2.7,
  "StationName": "AWP66112",
  "TaskName": "alignvideo",
  "TotalReadoutTime": 0.03969,
  "TxRefAmp": 251.33,
  "WipMemBlock": "f1151a58-faf9-42d9-adda-d607f112bc6b||Sequence: R016 ve11c/master r/e634e98; Dec 19 2017 11:00:25 by eja",
  "dcmmeta_affine": [
    [-2.6740200519561768, -0.21796518564224243, 0.014387616887688637, 124.51841735839844],
    [-0.20137964189052582, 2.527984619140625, 0.8812645673751831, -87.80216217041016],
    [0.08461358398199081, -0.871711790561676, 2.5520904064178467, -6.175644874572754],
    [0.0, 0.0, 0.0, 1.0]
],
  "dcmmeta_reorient_transform": [
    [0.0, -1.0, 0.0, 81.0],
    [1.0, 0.0, 0.0, 0.0],
    [0.0, 0.0, 1.0, 0.0],
    [0.0, 0.0, 0.0, 1.0]
],
  "dcmmeta_shape": [82, 82, 56, 1065],
  "dcmmeta_slice_dim": 2,
  "dcmmeta_version": 0.6,
  "global": {
    "const": {
      "AccessionNumber": "A003531",
      "AcquisitionMatrix": [82, 0, 0, 82],
      "AngioFlag": "N",
      "BitsAllocated": 16,
      "BitsStored": 16,
      "BodyPartExamined": "BRAIN",
      "Columns": 656,
      "EchoNumbers": 1,
      "EchoTime": 27.2,
      "EchoTrainLength": 82,
      "FlipAngle": 44.0,
      "HighBit": 15,
      "ImageOrientationPatient": [0.99668019552417, 0.07505968116346, 0.03153778865978, -0.0812415675821, 0.94224880909565, 0.32491074074989],
      "ImagePositionPatient": [-811.75099554507, -900.29215504159, -351.24967216037],
      "ImageType": [
        "ORIGINAL",
        "PRIMARY",
        "M",
        "MB",
        "ND",
        "NORM",
        "MOSAIC"
],
      "ImagedNucleus": "1H",
      "ImagingFrequency": 123.252126,
      "InPlanePhaseEncodingDirection": "COL",
      "MRAcquisitionType": "2D",
      "MagneticFieldStrength": 3.0,
      "Manufacturer": "SIEMENS",
      "ManufacturerModelName": "Prisma",
      "Modality": "MR",
      "NumberOfAverages": 1.0,
      "NumberOfPhaseEncodingSteps": 82,
      "PercentPhaseFieldOfView": 100.0,
      "PercentSampling": 100.0,
      "PerformedProcedureStepStartTime": "084137.980000",
      "PhotometricInterpretation": "MONOCHROME2",
      "PixelBandwidth": 3050.0,
      "PixelRepresentation": 0,
      "PixelSpacing": [2.6829268932343, 2.6829268932343],
      "ProtocolName": "func_run-03_task-alignvideo_acq-ap-mb8",
      "RepetitionTime": 460.0,
      "Rows": 656,
      "SAR": 0.0976502304808,
      "SamplesPerPixel": 1,
      "ScanOptions": "FS",
      "ScanningSequence": "EP",
      "SequenceName": "epfid2d1_82",
      "SequenceVariant": [
        "SK",
        "SS"
],
      "SeriesDescription": "func_run-03_task-alignvideo_acq-ap-mb8",
      "SeriesNumber": 32,
      "SeriesTime": "111923.151000",
      "SliceLocation": -33.831930606536,
      "SliceThickness": 2.7000000476837,
      "SmallestImagePixelValue": 0,
      "SoftwareVersions": "syngo MR E11",
      "SpacingBetweenSlices": 2.6999999801845,
      "SpecificCharacterSet": "ISO_IR 100",
      "StudyID": "3",
      "StudyTime": "084137.898000",
      "TransmitCoilName": "Body",
      "VariableFlipAngleFlag": "N",
      "WindowCenterWidthExplanation": "Algo1",
      "dBdt": 0.0},
    "slices": {}
  },
  "time": {
    "samples": {
      "AcquisitionNumber": [1, 2, 3, 4, 5, 6, 7, 8, 9, 10, 11, 12, 13, 14, 15, 16, 17, 18, 19, 20, 21, 22, 23, 24, 25, 26, 27, 28, 29, 30, 31, 32, 33, 34, 35, 36, 37, 38, 39, 40, 41, 42, 43, 44, 45, 46, 47, 48, 49, 50, 51, 52, 53, 54, 55, 56, 57, 58, 59, 60, 61, 62, 63, 64, 65, 66, 67, 68, 69, 70, 71, 72, 73, 74, 75, 76, 77, 78, 79, 80, 81, 82, 83, 84, 85, 86, 87, 88, 89, 90, 91, 92, 93, 94, 95, 96, 97, 98, 99, 100, 101, 102, 103, 104, 105, 106, 107, 108, 109, 110, 111, 112, 113, 114, 115, 116, 117, 118, 119, 120, 121, 122, 123, 124, 125, 126, 127, 128, 129, 130, 131, 132, 133, 134, 135, 136, 137, 138, 139, 140, 141, 142, 143, 144, 145, 146, 147, 148, 149, 150, 151, 152, 153, 154, 155, 156, 157, 158, 159, 160, 161, 162, 163, 164, 165, 166, 167, 168, 169, 170, 171, 172, 173, 174, 175, 176, 177, 178, 179, 180, 181, 182, 183, 184, 185, 186, 187, 188, 189, 190, 191, 192, 193, 194, 195, 196, 197, 198, 199, 200, 201, 202, 203, 204, 205, 206, 207, 208, 209, 210, 211, 212, 213, 214, 215, 216, 217, 218, 219, 220, 221, 222, 223, 224, 225, 226, 227, 228, 229, 230, 231, 232, 233, 234, 235, 236, 237, 238, 239, 240, 241, 242, 243, 244, 245, 246, 247, 248, 249, 250, 251, 252, 253, 254, 255, 256, 257, 258, 259, 260, 261, 262, 263, 264, 265, 266, 267, 268, 269, 270, 271, 272, 273, 274, 275, 276, 277, 278, 279, 280, 281, 282, 283, 284, 285, 286, 287, 288, 289, 290, 291, 292, 293, 294, 295, 296, 297, 298, 299, 300, 301, 302, 303, 304, 305, 306, 307, 308, 309, 310, 311, 312, 313, 314, 315, 316, 317, 318, 319, 320, 321, 322, 323, 324, 325, 326, 327, 328, 329, 330, 331, 332, 333, 334, 335, 336, 337, 338, 339, 340, 341, 342, 343, 344, 345, 346, 347, 348, 349, 350, 351, 352, 353, 354, 355, 356, 357, 358, 359, 360, 361, 362, 363, 364, 365, 366, 367, 368, 369, 370, 371, 372, 373, 374, 375, 376, 377, 378, 379, 380, 381, 382, 383, 384, 385, 386, 387, 388, 389, 390, 391, 392, 393, 394, 395, 396, 397, 398, 399, 400, 401, 402, 403, 404, 405, 406, 407, 408, 409, 410, 411, 412, 413, 414, 415, 416, 417, 418, 419, 420, 421, 422, 423, 424, 425, 426, 427, 428, 429, 430, 431, 432, 433, 434, 435, 436, 437, 438, 439, 440, 441, 442, 443, 444, 445, 446, 447, 448, 449, 450, 451, 452, 453, 454, 455, 456, 457, 458, 459, 460, 461, 462, 463, 464, 465, 466, 467, 468, 469, 470, 471, 472, 473, 474, 475, 476, 477, 478, 479, 480, 481, 482, 483, 484, 485, 486, 487, 488, 489, 490, 491, 492, 493, 494, 495, 496, 497, 498, 499, 500, 501, 502, 503, 504, 505, 506, 507, 508, 509, 510, 511, 512, 513, 514, 515, 516, 517, 518, 519, 520, 521, 522, 523, 524, 525, 526, 527, 528, 529, 530, 531, 532, 533, 534, 535, 536, 537, 538, 539, 540, 541, 542, 543, 544, 545, 546, 547, 548, 549, 550, 551, 552, 553, 554, 555, 556, 557, 558, 559, 560, 561, 562, 563, 564, 565, 566, 567, 568, 569, 570, 571, 572, 573, 574, 575, 576, 577, 578, 579, 580, 581, 582, 583, 584, 585, 586, 587, 588, 589, 590, 591, 592, 593, 594, 595, 596, 597, 598, 599, 600, 601, 602, 603, 604, 605, 606, 607, 608, 609, 610, 611, 612, 613, 614, 615, 616, 617, 618, 619, 620, 621, 622, 623, 624, 625, 626, 627, 628, 629, 630, 631, 632, 633, 634, 635, 636, 637, 638, 639, 640, 641, 642, 643, 644, 645, 646, 647, 648, 649, 650, 651, 652, 653, 654, 655, 656, 657, 658, 659, 660, 661, 662, 663, 664, 665, 666, 667, 668, 669, 670, 671, 672, 673, 674, 675, 676, 677, 678, 679, 680, 681, 682, 683, 684, 685, 686, 687, 688, 689, 690, 691, 692, 693, 694, 695, 696, 697, 698, 699, 700, 701, 702, 703, 704, 705, 706, 707, 708, 709, 710, 711, 712, 713, 714, 715, 716, 717, 718, 719, 720, 721, 722, 723, 724, 725, 726, 727, 728, 729, 730, 731, 732, 733, 734, 735, 736, 737, 738, 739, 740, 741, 742, 743, 744, 745, 746, 747, 748, 749, 750, 751, 752, 753, 754, 755, 756, 757, 758, 759, 760, 761, 762, 763, 764, 765, 766, 767, 768, 769, 770, 771, 772, 773, 774, 775, 776, 777, 778, 779, 780, 781, 782, 783, 784, 785, 786, 787, 788, 789, 790, 791, 792, 793, 794, 795, 796, 797, 798, 799, 800, 801, 802, 803, 804, 805, 806, 807, 808, 809, 810, 811, 812, 813, 814, 815, 816, 817, 818, 819, 820, 821, 822, 823, 824, 825, 826, 827, 828, 829, 830, 831, 832, 833, 834, 835, 836, 837, 838, 839, 840, 841, 842, 843, 844, 845, 846, 847, 848, 849, 850, 851, 852, 853, 854, 855, 856, 857, 858, 859, 860, 861, 862, 863, 864, 865, 866, 867, 868, 869, 870, 871, 872, 873, 874, 875, 876, 877, 878, 879, 880, 881, 882, 883, 884, 885, 886, 887, 888, 889, 890, 891, 892, 893, 894, 895, 896, 897, 898, 899, 900, 901, 902, 903, 904, 905, 906, 907, 908, 909, 910, 911, 912, 913, 914, 915, 916, 917, 918, 919, 920, 921, 922, 923, 924, 925, 926, 927, 928, 929, 930, 931, 932, 933, 934, 935, 936, 937, 938, 939, 940, 941, 942, 943, 944, 945, 946, 947, 948, 949, 950, 951, 952, 953, 954, 955, 956, 957, 958, 959, 960, 961, 962, 963, 964, 965, 966, 967, 968, 969, 970, 971, 972, 973, 974, 975, 976, 977, 978, 979, 980, 981, 982, 983, 984, 985, 986, 987, 988, 989, 990, 991, 992, 993, 994, 995, 996, 997, 998, 999, 1000, 1001, 1002, 1003, 1004, 1005, 1006, 1007, 1008, 1009, 1010, 1011, 1012, 1013, 1014, 1015, 1016, 1017, 1018, 1019, 1020, 1021, 1022, 1023, 1024, 1025, 1026, 1027, 1028, 1029, 1030, 1031, 1032, 1033, 1034, 1035, 1036, 1037, 1038, 1039, 1040, 1041, 1042, 1043, 1044, 1045, 1046, 1047, 1048, 1049, 1050, 1051, 1052, 1053, 1054, 1055, 1056, 1057, 1058, 1059, 1060, 1061, 1062, 1063, 1064, 1065],
      "AcquisitionTime": ["111857.130000", "111857.590000", "111858.050000", "111858.510000", "111858.970000", "111859.430000", "111859.890000", "111900.350000", "111900.810000", "111901.270000", "111901.730000", "111902.190000", "111902.650000", "111903.110000", "111903.570000", "111904.030000", "111904.490000", "111904.950000", "111905.410000", "111905.870000", "111906.330000", "111906.790000", "111907.250000", "111907.710000", "111908.170000", "111908.630000", "111909.090000", "111909.550000", "111910.010000", "111910.470000", "111910.930000", "111911.390000", "111911.850000", "111912.310000", "111912.770000", "111913.230000", "111913.690000", "111914.150000", "111914.610000", "111915.070000", "111915.530000", "111915.990000", "111916.450000", "111916.910000", "111917.370000", "111917.830000", "111918.290000", "111918.750000", "111919.210000", "111919.670000", "111920.130000", "111920.590000", "111921.050000", "111921.510000", "111921.970000", "111922.430000", "111922.890000", "111923.350000", "111923.810000", "111924.270000", "111924.730000", "111925.190000", "111925.650000", "111926.110000", "111926.570000", "111927.030000", "111927.490000", "111927.950000", "111928.410000", "111928.870000", "111929.330000", "111929.790000", "111930.250000", "111930.710000", "111931.170000", "111931.630000", "111932.090000", "111932.550000", "111933.010000", "111933.470000", "111933.930000", "111934.390000", "111934.850000", "111935.310000", "111935.770000", "111936.230000", "111936.690000", "111937.150000", "111937.610000", "111938.070000", "111938.530000", "111938.990000", "111939.450000", "111939.910000", "111940.370000", "111940.830000", "111941.290000", "111941.750000", "111942.210000", "111942.670000", "111943.130000", "111943.590000", "111944.050000", "111944.510000", "111944.970000", "111945.430000", "111945.890000", "111946.350000", "111946.810000", "111947.270000", "111947.730000", "111948.190000", "111948.650000", "111949.110000", "111949.570000", "111950.030000", "111950.490000", "111950.950000", "111951.410000", "111951.870000", "111952.330000", "111952.790000", "111953.250000", "111953.710000", "111954.170000", "111954.630000", "111955.090000", "111955.550000", "111956.010000", "111956.470000", "111956.930000", "111957.390000", "111957.850000", "111958.310000", "111958.770000", "111959.230000", "111959.690000", "112000.150000", "112000.610000", "112001.070000", "112001.530000", "112001.990000", "112002.450000", "112002.910000", "112003.370000", "112003.830000", "112004.290000", "112004.750000", "112005.210000", "112005.670000", "112006.130000", "112006.590000", "112007.050000", "112007.510000", "112007.970000", "112008.430000", "112008.890000", "112009.350000", "112009.810000", "112010.270000", "112010.730000", "112011.190000", "112011.650000", "112012.110000", "112012.570000", "112013.030000", "112013.490000", "112013.950000", "112014.410000", "112014.870000", "112015.330000", "112015.790000", "112016.250000", "112016.710000", "112017.170000", "112017.630000", "112018.090000", "112018.550000", "112019.010000", "112019.470000", "112019.930000", "112020.390000", "112020.850000", "112021.310000", "112021.770000", "112022.230000", "112022.690000", "112023.150000", "112023.610000", "112024.070000", "112024.530000", "112024.990000", "112025.450000", "112025.910000", "112026.370000", "112026.830000", "112027.290000", "112027.750000", "112028.210000", "112028.670000", "112029.130000", "112029.590000", "112030.050000", "112030.510000", "112030.970000", "112031.430000", "112031.890000", "112032.350000", "112032.810000", "112033.270000", "112033.730000", "112034.190000", "112034.650000", "112035.110000", "112035.570000", "112036.030000", "112036.490000", "112036.950000", "112037.410000", "112037.870000", "112038.330000", "112038.790000", "112039.250000", "112039.710000", "112040.170000", "112040.630000", "112041.090000", "112041.550000", "112042.010000", "112042.470000", "112042.930000", "112043.390000", "112043.850000", "112044.310000", "112044.770000", "112045.230000", "112045.690000", "112046.150000", "112046.610000", "112047.070000", "112047.530000", "112047.990000", "112048.450000", "112048.910000", "112049.370000", "112049.830000", "112050.290000", "112050.750000", "112051.210000", "112051.670000", "112052.130000", "112052.590000", "112053.050000", "112053.510000", "112053.970000", "112054.430000", "112054.890000", "112055.350000", "112055.810000", "112056.270000", "112056.730000", "112057.190000", "112057.650000", "112058.110000", "112058.570000", "112059.030000", "112059.490000", "112059.950000", "112100.410000", "112100.870000", "112101.330000", "112101.790000", "112102.250000", "112102.710000", "112103.170000", "112103.630000", "112104.090000", "112104.550000", "112105.010000", "112105.470000", "112105.930000", "112106.390000", "112106.850000", "112107.310000", "112107.770000", "112108.230000", "112108.690000", "112109.150000", "112109.610000", "112110.070000", "112110.530000", "112110.990000", "112111.450000", "112111.910000", "112112.370000", "112112.830000", "112113.290000", "112113.750000", "112114.210000", "112114.670000", "112115.130000", "112115.590000", "112116.050000", "112116.510000", "112116.970000", "112117.430000", "112117.890000", "112118.350000", "112118.810000", "112119.270000", "112119.730000", "112120.190000", "112120.650000", "112121.110000", "112121.570000", "112122.030000", "112122.490000", "112122.950000", "112123.410000", "112123.870000", "112124.330000", "112124.790000", "112125.250000", "112125.710000", "112126.170000", "112126.630000", "112127.090000", "112127.550000", "112128.010000", "112128.470000", "112128.930000", "112129.390000", "112129.850000", "112130.310000", "112130.770000", "112131.230000", "112131.690000", "112132.150000", "112132.610000", "112133.070000", "112133.530000", "112133.990000", "112134.450000", "112134.910000", "112135.370000", "112135.830000", "112136.290000", "112136.750000", "112137.210000", "112137.670000", "112138.130000", "112138.590000", "112139.050000", "112139.510000", "112139.970000", "112140.430000", "112140.890000", "112141.350000", "112141.810000", "112142.270000", "112142.730000", "112143.190000", "112143.650000", "112144.110000", "112144.570000", "112145.030000", "112145.490000", "112145.950000", "112146.410000", "112146.870000", "112147.330000", "112147.790000", "112148.250000", "112148.710000", "112149.170000", "112149.630000", "112150.090000", "112150.550000", "112151.010000", "112151.470000", "112151.930000", "112152.390000", "112152.850000", "112153.310000", "112153.770000", "112154.230000", "112154.690000", "112155.150000", "112155.610000", "112156.070000", "112156.530000", "112156.990000", "112157.450000", "112157.910000", "112158.370000", "112158.830000", "112159.290000", "112159.750000", "112200.210000", "112200.670000", "112201.130000", "112201.590000", "112202.050000", "112202.510000", "112202.970000", "112203.430000", "112203.890000", "112204.350000", "112204.810000", "112205.270000", "112205.730000", "112206.190000", "112206.650000", "112207.110000", "112207.570000", "112208.030000", "112208.490000", "112208.950000", "112209.410000", "112209.870000", "112210.330000", "112210.790000", "112211.250000", "112211.710000", "112212.170000", "112212.630000", "112213.090000", "112213.550000", "112214.010000", "112214.470000", "112214.930000", "112215.390000", "112215.850000", "112216.310000", "112216.770000", "112217.230000", "112217.690000", "112218.150000", "112218.610000", "112219.070000", "112219.530000", "112219.990000", "112220.450000", "112220.910000", "112221.370000", "112221.830000", "112222.290000", "112222.750000", "112223.210000", "112223.670000", "112224.130000", "112224.590000", "112225.050000", "112225.510000", "112225.970000", "112226.430000", "112226.890000", "112227.350000", "112227.810000", "112228.270000", "112228.730000", "112229.190000", "112229.650000", "112230.110000", "112230.570000", "112231.030000", "112231.490000", "112231.950000", "112232.410000", "112232.870000", "112233.330000", "112233.790000", "112234.250000", "112234.710000", "112235.170000", "112235.630000", "112236.090000", "112236.550000", "112237.010000", "112237.470000", "112237.930000", "112238.390000", "112238.850000", "112239.310000", "112239.770000", "112240.230000", "112240.690000", "112241.150000", "112241.610000", "112242.070000", "112242.530000", "112242.990000", "112243.450000", "112243.910000", "112244.370000", "112244.830000", "112245.290000", "112245.750000", "112246.210000", "112246.670000", "112247.130000", "112247.590000", "112248.050000", "112248.510000", "112248.970000", "112249.430000", "112249.890000", "112250.350000", "112250.810000", "112251.270000", "112251.730000", "112252.190000", "112252.650000", "112253.110000", "112253.570000", "112254.030000", "112254.490000", "112254.950000", "112255.410000", "112255.870000", "112256.330000", "112256.790000", "112257.250000", "112257.710000", "112258.170000", "112258.630000", "112259.090000", "112259.550000", "112300.010000", "112300.470000", "112300.930000", "112301.390000", "112301.850000", "112302.310000", "112302.770000", "112303.230000", "112303.690000", "112304.150000", "112304.610000", "112305.070000", "112305.530000", "112305.990000", "112306.450000", "112306.910000", "112307.370000", "112307.830000", "112308.290000", "112308.750000", "112309.210000", "112309.670000", "112310.130000", "112310.590000", "112311.050000", "112311.510000", "112311.970000", "112312.430000", "112312.890000", "112313.350000", "112313.810000", "112314.270000", "112314.730000", "112315.190000", "112315.650000", "112316.110000", "112316.570000", "112317.030000", "112317.490000", "112317.950000", "112318.410000", "112318.870000", "112319.330000", "112319.790000", "112320.250000", "112320.710000", "112321.170000", "112321.630000", "112322.090000", "112322.550000", "112323.010000", "112323.470000", "112323.930000", "112324.390000", "112324.850000", "112325.310000", "112325.770000", "112326.230000", "112326.690000", "112327.150000", "112327.610000", "112328.070000", "112328.530000", "112328.990000", "112329.450000", "112329.910000", "112330.370000", "112330.830000", "112331.290000", "112331.750000", "112332.210000", "112332.670000", "112333.130000", "112333.590000", "112334.050000", "112334.510000", "112334.970000", "112335.430000", "112335.890000", "112336.350000", "112336.810000", "112337.270000", "112337.730000", "112338.190000", "112338.650000", "112339.110000", "112339.570000", "112340.030000", "112340.490000", "112340.950000", "112341.410000", "112341.870000", "112342.330000", "112342.790000", "112343.250000", "112343.710000", "112344.170000", "112344.630000", "112345.090000", "112345.550000", "112346.010000", "112346.470000", "112346.930000", "112347.390000", "112347.850000", "112348.310000", "112348.770000", "112349.230000", "112349.690000", "112350.150000", "112350.610000", "112351.070000", "112351.530000", "112351.990000", "112352.450000", "112352.910000", "112353.370000", "112353.830000", "112354.290000", "112354.750000", "112355.210000", "112355.670000", "112356.130000", "112356.590000", "112357.050000", "112357.510000", "112357.970000", "112358.430000", "112358.890000", "112359.350000", "112359.810000", "112400.270000", "112400.730000", "112401.190000", "112401.650000", "112402.110000", "112402.570000", "112403.030000", "112403.490000", "112403.950000", "112404.410000", "112404.870000", "112405.330000", "112405.790000", "112406.250000", "112406.710000", "112407.170000", "112407.630000", "112408.090000", "112408.550000", "112409.010000", "112409.470000", "112409.930000", "112410.390000", "112410.850000", "112411.310000", "112411.770000", "112412.230000", "112412.690000", "112413.150000", "112413.610000", "112414.070000", "112414.530000", "112414.990000", "112415.450000", "112415.910000", "112416.370000", "112416.830000", "112417.290000", "112417.750000", "112418.210000", "112418.670000", "112419.130000", "112419.590000", "112420.050000", "112420.510000", "112420.970000", "112421.430000", "112421.890000", "112422.350000", "112422.810000", "112423.270000", "112423.730000", "112424.190000", "112424.650000", "112425.110000", "112425.570000", "112426.030000", "112426.490000", "112426.950000", "112427.410000", "112427.870000", "112428.330000", "112428.790000", "112429.250000", "112429.710000", "112430.170000", "112430.630000", "112431.090000", "112431.550000", "112432.010000", "112432.470000", "112432.930000", "112433.390000", "112433.850000", "112434.310000", "112434.770000", "112435.230000", "112435.690000", "112436.150000", "112436.610000", "112437.070000", "112437.530000", "112437.990000", "112438.450000", "112438.910000", "112439.370000", "112439.830000", "112440.290000", "112440.750000", "112441.210000", "112441.670000", "112442.130000", "112442.590000", "112443.050000", "112443.510000", "112443.970000", "112444.430000", "112444.890000", "112445.350000", "112445.810000", "112446.270000", "112446.730000", "112447.190000", "112447.650000", "112448.110000", "112448.570000", "112449.030000", "112449.490000", "112449.950000", "112450.410000", "112450.870000", "112451.330000", "112451.790000", "112452.250000", "112452.710000", "112453.170000", "112453.630000", "112454.090000", "112454.550000", "112455.010000", "112455.470000", "112455.930000", "112456.390000", "112456.850000", "112457.310000", "112457.770000", "112458.230000", "112458.690000", "112459.150000", "112459.610000", "112500.070000", "112500.530000", "112500.990000", "112501.450000", "112501.910000", "112502.370000", "112502.830000", "112503.290000", "112503.750000", "112504.210000", "112504.670000", "112505.130000", "112505.590000", "112506.050000", "112506.510000", "112506.970000", "112507.430000", "112507.890000", "112508.350000", "112508.810000", "112509.270000", "112509.730000", "112510.190000", "112510.650000", "112511.110000", "112511.570000", "112512.030000", "112512.490000", "112512.950000", "112513.410000", "112513.870000", "112514.330000", "112514.790000", "112515.250000", "112515.710000", "112516.170000", "112516.630000", "112517.090000", "112517.550000", "112518.010000", "112518.470000", "112518.930000", "112519.390000", "112519.850000", "112520.310000", "112520.770000", "112521.230000", "112521.690000", "112522.150000", "112522.610000", "112523.070000", "112523.530000", "112523.990000", "112524.450000", "112524.910000", "112525.370000", "112525.830000", "112526.290000", "112526.750000", "112527.210000", "112527.670000", "112528.130000", "112528.590000", "112529.050000", "112529.510000", "112529.970000", "112530.430000", "112530.890000", "112531.350000", "112531.810000", "112532.270000", "112532.730000", "112533.190000", "112533.650000", "112534.110000", "112534.570000", "112535.030000", "112535.490000", "112535.950000", "112536.410000", "112536.870000", "112537.330000", "112537.790000", "112538.250000", "112538.710000", "112539.170000", "112539.630000", "112540.090000", "112540.550000", "112541.010000", "112541.470000", "112541.930000", "112542.390000", "112542.850000", "112543.310000", "112543.770000", "112544.230000", "112544.690000", "112545.150000", "112545.610000", "112546.070000", "112546.530000", "112546.990000", "112547.450000", "112547.910000", "112548.370000", "112548.830000", "112549.290000", "112549.750000", "112550.210000", "112550.670000", "112551.130000", "112551.590000", "112552.050000", "112552.510000", "112552.970000", "112553.430000", "112553.890000", "112554.350000", "112554.810000", "112555.270000", "112555.730000", "112556.190000", "112556.650000", "112557.110000", "112557.570000", "112558.030000", "112558.490000", "112558.950000", "112559.410000", "112559.870000", "112600.330000", "112600.790000", "112601.250000", "112601.710000", "112602.170000", "112602.630000", "112603.090000", "112603.550000", "112604.010000", "112604.470000", "112604.930000", "112605.390000", "112605.850000", "112606.310000", "112606.770000", "112607.230000", "112607.690000", "112608.150000", "112608.610000", "112609.070000", "112609.530000", "112609.990000", "112610.450000", "112610.910000", "112611.370000", "112611.830000", "112612.290000", "112612.750000", "112613.210000", "112613.670000", "112614.130000", "112614.590000", "112615.050000", "112615.510000", "112615.970000", "112616.430000", "112616.890000", "112617.350000", "112617.810000", "112618.270000", "112618.730000", "112619.190000", "112619.650000", "112620.110000", "112620.570000", "112621.030000", "112621.490000", "112621.950000", "112622.410000", "112622.870000", "112623.330000", "112623.790000", "112624.250000", "112624.710000", "112625.170000", "112625.630000", "112626.090000", "112626.550000", "112627.010000", "112627.470000", "112627.930000", "112628.390000", "112628.850000", "112629.310000", "112629.770000", "112630.230000", "112630.690000", "112631.150000", "112631.610000", "112632.070000", "112632.530000", "112632.990000", "112633.450000", "112633.910000", "112634.370000", "112634.830000", "112635.290000", "112635.750000", "112636.210000", "112636.670000", "112637.130000", "112637.590000", "112638.050000", "112638.510000", "112638.970000", "112639.430000", "112639.890000", "112640.350000", "112640.810000", "112641.270000", "112641.730000", "112642.190000", "112642.650000", "112643.110000", "112643.570000", "112644.030000", "112644.490000", "112644.950000", "112645.410000", "112645.870000", "112646.330000", "112646.790000", "112647.250000", "112647.710000", "112648.170000", "112648.630000", "112649.090000", "112649.550000", "112650.010000", "112650.470000", "112650.930000", "112651.390000", "112651.850000", "112652.310000", "112652.770000", "112653.230000", "112653.690000", "112654.150000", "112654.610000", "112655.070000", "112655.530000", "112655.990000", "112656.450000", "112656.910000", "112657.370000", "112657.830000", "112658.290000", "112658.750000", "112659.210000", "112659.670000", "112700.130000", "112700.590000", "112701.050000", "112701.510000", "112701.970000", "112702.430000", "112702.890000", "112703.350000", "112703.810000", "112704.270000", "112704.730000", "112705.190000", "112705.650000", "112706.110000", "112706.570000"],
