{
  "AcquisitionMatrixPE": 82,
  "AcquisitionNumber": 1,
  "AcquisitionTime": "10:34:48.440000",
  "BandwidthPerPixelPhaseEncode": 24.888,
  "BaseResolution": 82,
  "BodyPartExamined": "BRAIN",
  "ConsistencyInfo": "N4_VE11C_LATEST_20160120",
  "ConversionSoftware": "dcm2niix",
  "ConversionSoftwareVersion": "v1.0.20201102",
  "DerivedVendorReportedEchoSpacing": 0.00049,
  "DeviceSerialNumber": "66112",
  "DwellTime": 2e-06,
  "EchoTime": 0.0272,
  "EchoTrainLength": 82,
  "EffectiveEchoSpacing": 0.00049,
  "FlipAngle": 44,
  "ImageComments": "Unaliased MB8/PE3",
  "ImageOrientationPatientDICOM": [0.99647, 0.0826215, 0.0149018, -0.0829754, 0.942179, 0.324675],
  "ImageType": [
    "ORIGINAL",
    "PRIMARY",
    "M",
    "MB",
    "ND",
    "NORM",
    "MOSAIC"
],
  "ImagingFrequency": 123.252,
  "InPlanePhaseEncodingDirectionDICOM": "COL",
  "InstitutionAddress": "Maynard 3,Hanover,NH,US,03755",
  "InstitutionName": "Dartmouth College - PBS",
  "InstitutionalDepartmentName": "Department",
  "MRAcquisitionType": "2D",
  "MagneticFieldStrength": 3,
  "Manufacturer": "Siemens",
  "ManufacturersModelName": "Prisma",
  "Modality": "MR",
  "MultibandAccelerationFactor": 8,
  "PartialFourier": 1,
  "PatientPosition": "HFS",
  "PercentPhaseFOV": 100,
  "PercentSampling": 100,
  "PhaseEncodingDirection": "j-",
  "PhaseEncodingSteps": 82,
  "PhaseResolution": 1,
  "PixelBandwidth": 3050,
  "ProcedureStepDescription": "Wager_Wager^1076_spacetop",
  "ProtocolName": "func_run-06_task-social_acq-ap-mb8",
  "PulseSequenceDetails": "%CustomerSeq%\\cmrr_mbep2d_bold",
  "ReceiveCoilActiveElements": "HEA;HEP",
  "ReceiveCoilName": "Head_32",
  "ReconMatrixPE": 82,
  "RepetitionTime": 0.46,
  "SAR": 0.0975402,
  "ScanOptions": "FS",
  "ScanningSequence": "EP",
  "SequenceName": "epfid2d1_82",
  "SequenceVariant": "SK\\SS",
  "SeriesDescription": "func_run-06_task-social_acq-ap-mb8",
  "SeriesNumber": 18,
  "ShimSetting": [4138, -7782, -7243, 427, -158, -167, 54, 41],
  "SliceThickness": 2.7,
  "SliceTiming": [0, 0.2525, 0.0625, 0.315, 0.125, 0.3775, 0.19, 0, 0.2525, 0.0625, 0.315, 0.125, 0.3775, 0.19, 0, 0.2525, 0.0625, 0.315, 0.125, 0.3775, 0.19, 0, 0.2525, 0.0625, 0.315, 0.125, 0.3775, 0.19, 0, 0.2525, 0.0625, 0.315, 0.125, 0.3775, 0.19, 0, 0.2525, 0.0625, 0.315, 0.125, 0.3775, 0.19, 0, 0.2525, 0.0625, 0.315, 0.125, 0.3775, 0.19, 0, 0.2525, 0.0625, 0.315, 0.125, 0.3775, 0.19],
  "SoftwareVersions": "syngo MR E11",
  "SpacingBetweenSlices": 2.7,
  "StationName": "AWP66112",
  "TaskName": "social",
  "TotalReadoutTime": 0.03969,
  "TxRefAmp": 251.33,
  "WipMemBlock": "338bccfb-07ec-443e-9cef-94fa7083a014||Sequence: R016 ve11c/master r/e634e98; Dec 19 2017 11:00:25 by eja",
  "dcmmeta_affine": [
    [-2.673454999923706, -0.22261697053909302, -0.0345195010304451, 125.21573638916016],
    [-0.22166745364665985, 2.5277974605560303, 0.8768657445907593, -88.23226928710938],
    [0.03998032584786415, -0.8710789084434509, 2.553412437438965, -9.392427444458008],
    [0.0, 0.0, 0.0, 1.0]
],
  "dcmmeta_reorient_transform": [
    [0.0, -1.0, 0.0, 81.0],
    [1.0, 0.0, 0.0, 0.0],
    [0.0, 0.0, 1.0, 0.0],
    [0.0, 0.0, 0.0, 1.0]
],
  "dcmmeta_shape": [82, 82, 56, 872],
  "dcmmeta_slice_dim": 2,
  "dcmmeta_version": 0.6,
  "global": {
    "const": {
      "AccessionNumber": "A003531",
      "AcquisitionMatrix": [82, 0, 0, 82],
      "AngioFlag": "N",
      "BitsAllocated": 16,
      "BitsStored": 16,
      "BodyPartExamined": "BRAIN",
      "Columns": 656,
      "EchoNumbers": 1,
      "EchoTime": 27.2,
      "EchoTrainLength": 82,
      "FlipAngle": 44.0,
      "HighBit": 15,
      "ImageOrientationPatient": [0.99646958044792, 0.08262150364524, 0.01490175752554, -0.0829754120149, 0.94217902970015, 0.32467484810844],
      "ImagePositionPatient": [-810.57428733503, -905.61575371018, -341.42380985301],
      "ImageType": [
        "ORIGINAL",
        "PRIMARY",
        "M",
        "MB",
        "ND",
        "NORM",
        "MOSAIC"
],
      "ImagedNucleus": "1H",
      "ImagingFrequency": 123.252115,
      "InPlanePhaseEncodingDirection": "COL",
      "MRAcquisitionType": "2D",
      "MagneticFieldStrength": 3.0,
      "Manufacturer": "SIEMENS",
      "ManufacturerModelName": "Prisma",
      "Modality": "MR",
      "NumberOfAverages": 1.0,
      "NumberOfPhaseEncodingSteps": 82,
      "PercentPhaseFieldOfView": 100.0,
      "PercentSampling": 100.0,
      "PerformedProcedureStepStartTime": "084137.980000",
      "PhotometricInterpretation": "MONOCHROME2",
      "PixelBandwidth": 3050.0,
      "PixelRepresentation": 0,
      "PixelSpacing": [2.6829268932343, 2.6829268932343],
      "ProtocolName": "func_run-06_task-social_acq-ap-mb8",
      "RepetitionTime": 460.0,
      "Rows": 656,
      "SAR": 0.09754019298294,
      "SamplesPerPixel": 1,
      "ScanOptions": "FS",
      "ScanningSequence": "EP",
      "SequenceName": "epfid2d1_82",
      "SequenceVariant": [
        "SK",
        "SS"
],
      "SeriesDescription": "func_run-06_task-social_acq-ap-mb8",
      "SeriesNumber": 18,
      "SeriesTime": "103503.073000",
      "SliceLocation": -39.13814118515,
      "SliceThickness": 2.7000000476837,
      "SmallestImagePixelValue": 0,
      "SoftwareVersions": "syngo MR E11",
      "SpacingBetweenSlices": 2.7000000220317,
      "SpecificCharacterSet": "ISO_IR 100",
      "StudyID": "3",
      "StudyTime": "084137.898000",
      "TransmitCoilName": "Body",
      "VariableFlipAngleFlag": "N",
      "WindowCenterWidthExplanation": "Algo1",
      "dBdt": 0.0},
    "slices": {}
  },
  "time": {
    "samples": {
      "AcquisitionNumber": [1, 2, 3, 4, 5, 6, 7, 8, 9, 10, 11, 12, 13, 14, 15, 16, 17, 18, 19, 20, 21, 22, 23, 24, 25, 26, 27, 28, 29, 30, 31, 32, 33, 34, 35, 36, 37, 38, 39, 40, 41, 42, 43, 44, 45, 46, 47, 48, 49, 50, 51, 52, 53, 54, 55, 56, 57, 58, 59, 60, 61, 62, 63, 64, 65, 66, 67, 68, 69, 70, 71, 72, 73, 74, 75, 76, 77, 78, 79, 80, 81, 82, 83, 84, 85, 86, 87, 88, 89, 90, 91, 92, 93, 94, 95, 96, 97, 98, 99, 100, 101, 102, 103, 104, 105, 106, 107, 108, 109, 110, 111, 112, 113, 114, 115, 116, 117, 118, 119, 120, 121, 122, 123, 124, 125, 126, 127, 128, 129, 130, 131, 132, 133, 134, 135, 136, 137, 138, 139, 140, 141, 142, 143, 144, 145, 146, 147, 148, 149, 150, 151, 152, 153, 154, 155, 156, 157, 158, 159, 160, 161, 162, 163, 164, 165, 166, 167, 168, 169, 170, 171, 172, 173, 174, 175, 176, 177, 178, 179, 180, 181, 182, 183, 184, 185, 186, 187, 188, 189, 190, 191, 192, 193, 194, 195, 196, 197, 198, 199, 200, 201, 202, 203, 204, 205, 206, 207, 208, 209, 210, 211, 212, 213, 214, 215, 216, 217, 218, 219, 220, 221, 222, 223, 224, 225, 226, 227, 228, 229, 230, 231, 232, 233, 234, 235, 236, 237, 238, 239, 240, 241, 242, 243, 244, 245, 246, 247, 248, 249, 250, 251, 252, 253, 254, 255, 256, 257, 258, 259, 260, 261, 262, 263, 264, 265, 266, 267, 268, 269, 270, 271, 272, 273, 274, 275, 276, 277, 278, 279, 280, 281, 282, 283, 284, 285, 286, 287, 288, 289, 290, 291, 292, 293, 294, 295, 296, 297, 298, 299, 300, 301, 302, 303, 304, 305, 306, 307, 308, 309, 310, 311, 312, 313, 314, 315, 316, 317, 318, 319, 320, 321, 322, 323, 324, 325, 326, 327, 328, 329, 330, 331, 332, 333, 334, 335, 336, 337, 338, 339, 340, 341, 342, 343, 344, 345, 346, 347, 348, 349, 350, 351, 352, 353, 354, 355, 356, 357, 358, 359, 360, 361, 362, 363, 364, 365, 366, 367, 368, 369, 370, 371, 372, 373, 374, 375, 376, 377, 378, 379, 380, 381, 382, 383, 384, 385, 386, 387, 388, 389, 390, 391, 392, 393, 394, 395, 396, 397, 398, 399, 400, 401, 402, 403, 404, 405, 406, 407, 408, 409, 410, 411, 412, 413, 414, 415, 416, 417, 418, 419, 420, 421, 422, 423, 424, 425, 426, 427, 428, 429, 430, 431, 432, 433, 434, 435, 436, 437, 438, 439, 440, 441, 442, 443, 444, 445, 446, 447, 448, 449, 450, 451, 452, 453, 454, 455, 456, 457, 458, 459, 460, 461, 462, 463, 464, 465, 466, 467, 468, 469, 470, 471, 472, 473, 474, 475, 476, 477, 478, 479, 480, 481, 482, 483, 484, 485, 486, 487, 488, 489, 490, 491, 492, 493, 494, 495, 496, 497, 498, 499, 500, 501, 502, 503, 504, 505, 506, 507, 508, 509, 510, 511, 512, 513, 514, 515, 516, 517, 518, 519, 520, 521, 522, 523, 524, 525, 526, 527, 528, 529, 530, 531, 532, 533, 534, 535, 536, 537, 538, 539, 540, 541, 542, 543, 544, 545, 546, 547, 548, 549, 550, 551, 552, 553, 554, 555, 556, 557, 558, 559, 560, 561, 562, 563, 564, 565, 566, 567, 568, 569, 570, 571, 572, 573, 574, 575, 576, 577, 578, 579, 580, 581, 582, 583, 584, 585, 586, 587, 588, 589, 590, 591, 592, 593, 594, 595, 596, 597, 598, 599, 600, 601, 602, 603, 604, 605, 606, 607, 608, 609, 610, 611, 612, 613, 614, 615, 616, 617, 618, 619, 620, 621, 622, 623, 624, 625, 626, 627, 628, 629, 630, 631, 632, 633, 634, 635, 636, 637, 638, 639, 640, 641, 642, 643, 644, 645, 646, 647, 648, 649, 650, 651, 652, 653, 654, 655, 656, 657, 658, 659, 660, 661, 662, 663, 664, 665, 666, 667, 668, 669, 670, 671, 672, 673, 674, 675, 676, 677, 678, 679, 680, 681, 682, 683, 684, 685, 686, 687, 688, 689, 690, 691, 692, 693, 694, 695, 696, 697, 698, 699, 700, 701, 702, 703, 704, 705, 706, 707, 708, 709, 710, 711, 712, 713, 714, 715, 716, 717, 718, 719, 720, 721, 722, 723, 724, 725, 726, 727, 728, 729, 730, 731, 732, 733, 734, 735, 736, 737, 738, 739, 740, 741, 742, 743, 744, 745, 746, 747, 748, 749, 750, 751, 752, 753, 754, 755, 756, 757, 758, 759, 760, 761, 762, 763, 764, 765, 766, 767, 768, 769, 770, 771, 772, 773, 774, 775, 776, 777, 778, 779, 780, 781, 782, 783, 784, 785, 786, 787, 788, 789, 790, 791, 792, 793, 794, 795, 796, 797, 798, 799, 800, 801, 802, 803, 804, 805, 806, 807, 808, 809, 810, 811, 812, 813, 814, 815, 816, 817, 818, 819, 820, 821, 822, 823, 824, 825, 826, 827, 828, 829, 830, 831, 832, 833, 834, 835, 836, 837, 838, 839, 840, 841, 842, 843, 844, 845, 846, 847, 848, 849, 850, 851, 852, 853, 854, 855, 856, 857, 858, 859, 860, 861, 862, 863, 864, 865, 866, 867, 868, 869, 870, 871, 872],
      "AcquisitionTime": ["103448.440000", "103448.900000", "103449.360000", "103449.820000", "103450.280000", "103450.740000", "103451.200000", "103451.660000", "103452.120000", "103452.580000", "103453.040000", "103453.500000", "103453.960000", "103454.420000", "103454.880000", "103455.340000", "103455.800000", "103456.260000", "103456.720000", "103457.180000", "103457.640000", "103458.100000", "103458.560000", "103459.020000", "103459.480000", "103459.940000", "103500.400000", "103500.860000", "103501.320000", "103501.780000", "103502.240000", "103502.700000", "103503.160000", "103503.620000", "103504.080000", "103504.540000", "103505.000000", "103505.460000", "103505.920000", "103506.380000", "103506.840000", "103507.300000", "103507.760000", "103508.220000", "103508.680000", "103509.140000", "103509.600000", "103510.060000", "103510.520000", "103510.980000", "103511.440000", "103511.900000", "103512.360000", "103512.820000", "103513.280000", "103513.740000", "103514.200000", "103514.660000", "103515.120000", "103515.580000", "103516.040000", "103516.500000", "103516.960000", "103517.420000", "103517.880000", "103518.340000", "103518.800000", "103519.260000", "103519.720000", "103520.180000", "103520.640000", "103521.100000", "103521.560000", "103522.020000", "103522.480000", "103522.940000", "103523.400000", "103523.860000", "103524.320000", "103524.780000", "103525.240000", "103525.700000", "103526.160000", "103526.620000", "103527.080000", "103527.540000", "103528.000000", "103528.460000", "103528.920000", "103529.380000", "103529.840000", "103530.300000", "103530.760000", "103531.220000", "103531.680000", "103532.140000", "103532.600000", "103533.060000", "103533.520000", "103533.980000", "103534.440000", "103534.900000", "103535.360000", "103535.820000", "103536.280000", "103536.740000", "103537.200000", "103537.660000", "103538.120000", "103538.580000", "103539.040000", "103539.500000", "103539.960000", "103540.420000", "103540.880000", "103541.340000", "103541.800000", "103542.260000", "103542.720000", "103543.180000", "103543.640000", "103544.100000", "103544.560000", "103545.020000", "103545.480000", "103545.940000", "103546.400000", "103546.860000", "103547.320000", "103547.780000", "103548.240000", "103548.700000", "103549.160000", "103549.620000", "103550.080000", "103550.540000", "103551.000000", "103551.460000", "103551.920000", "103552.380000", "103552.840000", "103553.300000", "103553.760000", "103554.220000", "103554.680000", "103555.140000", "103555.600000", "103556.060000", "103556.520000", "103556.980000", "103557.440000", "103557.900000", "103558.360000", "103558.820000", "103559.280000", "103559.740000", "103600.200000", "103600.660000", "103601.120000", "103601.580000", "103602.040000", "103602.500000", "103602.960000", "103603.420000", "103603.880000", "103604.340000", "103604.800000", "103605.260000", "103605.720000", "103606.180000", "103606.640000", "103607.100000", "103607.560000", "103608.020000", "103608.480000", "103608.940000", "103609.400000", "103609.860000", "103610.320000", "103610.780000", "103611.240000", "103611.700000", "103612.160000", "103612.620000", "103613.080000", "103613.540000", "103614.000000", "103614.460000", "103614.920000", "103615.380000", "103615.840000", "103616.300000", "103616.760000", "103617.220000", "103617.680000", "103618.140000", "103618.600000", "103619.060000", "103619.520000", "103619.980000", "103620.440000", "103620.900000", "103621.360000", "103621.820000", "103622.280000", "103622.740000", "103623.200000", "103623.660000", "103624.120000", "103624.580000", "103625.040000", "103625.500000", "103625.960000", "103626.420000", "103626.880000", "103627.340000", "103627.800000", "103628.260000", "103628.720000", "103629.180000", "103629.640000", "103630.100000", "103630.560000", "103631.020000", "103631.480000", "103631.940000", "103632.400000", "103632.860000", "103633.320000", "103633.780000", "103634.240000", "103634.700000", "103635.160000", "103635.620000", "103636.080000", "103636.540000", "103637.000000", "103637.460000", "103637.920000", "103638.380000", "103638.840000", "103639.300000", "103639.760000", "103640.220000", "103640.680000", "103641.140000", "103641.600000", "103642.060000", "103642.520000", "103642.980000", "103643.440000", "103643.900000", "103644.360000", "103644.820000", "103645.280000", "103645.740000", "103646.200000", "103646.660000", "103647.120000", "103647.580000", "103648.040000", "103648.500000", "103648.960000", "103649.420000", "103649.880000", "103650.340000", "103650.800000", "103651.260000", "103651.720000", "103652.180000", "103652.640000", "103653.100000", "103653.560000", "103654.020000", "103654.480000", "103654.940000", "103655.400000", "103655.860000", "103656.320000", "103656.780000", "103657.240000", "103657.700000", "103658.160000", "103658.620000", "103659.080000", "103659.540000", "103700.000000", "103700.460000", "103700.920000", "103701.380000", "103701.840000", "103702.300000", "103702.760000", "103703.220000", "103703.680000", "103704.140000", "103704.600000", "103705.060000", "103705.520000", "103705.980000", "103706.440000", "103706.900000", "103707.360000", "103707.820000", "103708.280000", "103708.740000", "103709.200000", "103709.660000", "103710.120000", "103710.580000", "103711.040000", "103711.500000", "103711.960000", "103712.420000", "103712.880000", "103713.340000", "103713.800000", "103714.260000", "103714.720000", "103715.180000", "103715.640000", "103716.100000", "103716.560000", "103717.020000", "103717.480000", "103717.940000", "103718.400000", "103718.860000", "103719.320000", "103719.780000", "103720.240000", "103720.700000", "103721.160000", "103721.620000", "103722.080000", "103722.540000", "103723.000000", "103723.460000", "103723.920000", "103724.380000", "103724.840000", "103725.300000", "103725.760000", "103726.220000", "103726.680000", "103727.140000", "103727.600000", "103728.060000", "103728.520000", "103728.980000", "103729.440000", "103729.900000", "103730.360000", "103730.820000", "103731.280000", "103731.740000", "103732.200000", "103732.660000", "103733.120000", "103733.580000", "103734.040000", "103734.500000", "103734.960000", "103735.420000", "103735.880000", "103736.340000", "103736.800000", "103737.260000", "103737.720000", "103738.180000", "103738.640000", "103739.100000", "103739.560000", "103740.020000", "103740.480000", "103740.940000", "103741.400000", "103741.860000", "103742.320000", "103742.780000", "103743.240000", "103743.700000", "103744.160000", "103744.620000", "103745.080000", "103745.540000", "103746.000000", "103746.460000", "103746.920000", "103747.380000", "103747.840000", "103748.300000", "103748.760000", "103749.220000", "103749.680000", "103750.140000", "103750.600000", "103751.060000", "103751.520000", "103751.980000", "103752.440000", "103752.900000", "103753.360000", "103753.820000", "103754.280000", "103754.740000", "103755.200000", "103755.660000", "103756.120000", "103756.580000", "103757.040000", "103757.500000", "103757.960000", "103758.420000", "103758.880000", "103759.340000", "103759.800000", "103800.260000", "103800.720000", "103801.180000", "103801.640000", "103802.100000", "103802.560000", "103803.020000", "103803.480000", "103803.940000", "103804.400000", "103804.860000", "103805.320000", "103805.780000", "103806.240000", "103806.700000", "103807.160000", "103807.620000", "103808.080000", "103808.540000", "103809.000000", "103809.460000", "103809.920000", "103810.380000", "103810.840000", "103811.300000", "103811.760000", "103812.220000", "103812.680000", "103813.140000", "103813.600000", "103814.060000", "103814.520000", "103814.980000", "103815.440000", "103815.900000", "103816.360000", "103816.820000", "103817.280000", "103817.740000", "103818.200000", "103818.660000", "103819.120000", "103819.580000", "103820.040000", "103820.500000", "103820.960000", "103821.420000", "103821.880000", "103822.340000", "103822.800000", "103823.260000", "103823.720000", "103824.180000", "103824.640000", "103825.100000", "103825.560000", "103826.020000", "103826.480000", "103826.940000", "103827.400000", "103827.860000", "103828.320000", "103828.780000", "103829.240000", "103829.700000", "103830.160000", "103830.620000", "103831.080000", "103831.540000", "103832.000000", "103832.460000", "103832.920000", "103833.380000", "103833.840000", "103834.300000", "103834.760000", "103835.220000", "103835.680000", "103836.140000", "103836.600000", "103837.060000", "103837.520000", "103837.980000", "103838.440000", "103838.900000", "103839.360000", "103839.820000", "103840.280000", "103840.740000", "103841.200000", "103841.660000", "103842.120000", "103842.580000", "103843.040000", "103843.500000", "103843.960000", "103844.420000", "103844.880000", "103845.340000", "103845.800000", "103846.260000", "103846.720000", "103847.180000", "103847.640000", "103848.100000", "103848.560000", "103849.020000", "103849.480000", "103849.940000", "103850.400000", "103850.860000", "103851.320000", "103851.780000", "103852.240000", "103852.700000", "103853.160000", "103853.620000", "103854.080000", "103854.540000", "103855.000000", "103855.460000", "103855.920000", "103856.380000", "103856.840000", "103857.300000", "103857.760000", "103858.220000", "103858.680000", "103859.140000", "103859.600000", "103900.060000", "103900.520000", "103900.980000", "103901.440000", "103901.900000", "103902.360000", "103902.820000", "103903.280000", "103903.740000", "103904.200000", "103904.660000", "103905.120000", "103905.580000", "103906.040000", "103906.500000", "103906.960000", "103907.420000", "103907.880000", "103908.340000", "103908.800000", "103909.260000", "103909.720000", "103910.180000", "103910.640000", "103911.100000", "103911.560000", "103912.020000", "103912.480000", "103912.940000", "103913.400000", "103913.860000", "103914.320000", "103914.780000", "103915.240000", "103915.700000", "103916.160000", "103916.620000", "103917.080000", "103917.540000", "103918.000000", "103918.460000", "103918.920000", "103919.380000", "103919.840000", "103920.300000", "103920.760000", "103921.220000", "103921.680000", "103922.140000", "103922.600000", "103923.060000", "103923.520000", "103923.980000", "103924.440000", "103924.900000", "103925.360000", "103925.820000", "103926.280000", "103926.740000", "103927.200000", "103927.660000", "103928.120000", "103928.580000", "103929.040000", "103929.500000", "103929.960000", "103930.420000", "103930.880000", "103931.340000", "103931.800000", "103932.260000", "103932.720000", "103933.180000", "103933.640000", "103934.100000", "103934.560000", "103935.020000", "103935.480000", "103935.940000", "103936.400000", "103936.860000", "103937.320000", "103937.780000", "103938.240000", "103938.700000", "103939.160000", "103939.620000", "103940.080000", "103940.540000", "103941.000000", "103941.460000", "103941.920000", "103942.380000", "103942.840000", "103943.300000", "103943.760000", "103944.220000", "103944.680000", "103945.140000", "103945.600000", "103946.060000", "103946.520000", "103946.980000", "103947.440000", "103947.900000", "103948.360000", "103948.820000", "103949.280000", "103949.740000", "103950.200000", "103950.660000", "103951.120000", "103951.580000", "103952.040000", "103952.500000", "103952.960000", "103953.420000", "103953.880000", "103954.340000", "103954.800000", "103955.260000", "103955.720000", "103956.180000", "103956.640000", "103957.100000", "103957.560000", "103958.020000", "103958.480000", "103958.940000", "103959.400000", "103959.860000", "104000.320000", "104000.780000", "104001.240000", "104001.700000", "104002.160000", "104002.620000", "104003.080000", "104003.540000", "104004.000000", "104004.460000", "104004.920000", "104005.380000", "104005.840000", "104006.300000", "104006.760000", "104007.220000", "104007.680000", "104008.140000", "104008.600000", "104009.060000", "104009.520000", "104009.980000", "104010.440000", "104010.900000", "104011.360000", "104011.820000", "104012.280000", "104012.740000", "104013.200000", "104013.660000", "104014.120000", "104014.580000", "104015.040000", "104015.500000", "104015.960000", "104016.420000", "104016.880000", "104017.340000", "104017.800000", "104018.260000", "104018.720000", "104019.180000", "104019.640000", "104020.100000", "104020.560000", "104021.020000", "104021.480000", "104021.940000", "104022.400000", "104022.860000", "104023.320000", "104023.780000", "104024.240000", "104024.700000", "104025.160000", "104025.620000", "104026.080000", "104026.540000", "104027.000000", "104027.460000", "104027.920000", "104028.380000", "104028.840000", "104029.300000", "104029.760000", "104030.220000", "104030.680000", "104031.140000", "104031.600000", "104032.060000", "104032.520000", "104032.980000", "104033.440000", "104033.900000", "104034.360000", "104034.820000", "104035.280000", "104035.740000", "104036.200000", "104036.660000", "104037.120000", "104037.580000", "104038.040000", "104038.500000", "104038.960000", "104039.420000", "104039.880000", "104040.340000", "104040.800000", "104041.260000", "104041.720000", "104042.180000", "104042.640000", "104043.100000", "104043.560000", "104044.020000", "104044.480000", "104044.940000", "104045.400000", "104045.860000", "104046.320000", "104046.780000", "104047.240000", "104047.700000", "104048.160000", "104048.620000", "104049.080000", "104049.540000", "104050.000000", "104050.460000", "104050.920000", "104051.380000", "104051.840000", "104052.300000", "104052.760000", "104053.220000", "104053.680000", "104054.140000", "104054.600000", "104055.060000", "104055.520000", "104055.980000", "104056.440000", "104056.900000", "104057.360000", "104057.820000", "104058.280000", "104058.740000", "104059.200000", "104059.660000", "104100.120000", "104100.580000", "104101.040000", "104101.500000", "104101.960000", "104102.420000", "104102.880000", "104103.340000", "104103.800000", "104104.260000", "104104.720000", "104105.180000", "104105.640000", "104106.100000", "104106.560000", "104107.020000", "104107.480000", "104107.940000", "104108.400000", "104108.860000", "104109.320000", "104109.780000", "104110.240000", "104110.700000", "104111.160000", "104111.620000", "104112.080000", "104112.540000", "104113.000000", "104113.460000", "104113.920000", "104114.380000", "104114.840000", "104115.300000", "104115.760000", "104116.220000", "104116.680000", "104117.140000", "104117.600000", "104118.060000", "104118.520000", "104118.980000", "104119.440000", "104119.900000", "104120.360000", "104120.820000", "104121.280000", "104121.740000", "104122.200000", "104122.660000", "104123.120000", "104123.580000", "104124.040000", "104124.500000", "104124.960000", "104125.420000", "104125.880000", "104126.340000", "104126.800000", "104127.260000", "104127.720000", "104128.180000", "104128.640000", "104129.100000"],
