{
  "AcquisitionMatrixPE": 82,
  "AcquisitionNumber": 1,
  "AcquisitionTime": "10:26:18.167500",
  "BandwidthPerPixelPhaseEncode": 24.888,
  "BaseResolution": 82,
  "BodyPartExamined": "BRAIN",
  "ConsistencyInfo": "N4_VE11C_LATEST_20160120",
  "ConversionSoftware": "dcm2niix",
  "ConversionSoftwareVersion": "v1.0.20201102",
  "DerivedVendorReportedEchoSpacing": 0.00049,
  "DeviceSerialNumber": "66112",
  "DwellTime": 2e-06,
  "EchoTime": 0.0272,
  "EchoTrainLength": 82,
  "EffectiveEchoSpacing": 0.00049,
  "FlipAngle": 44,
  "ImageComments": "Unaliased MB8/PE3",
  "ImageOrientationPatientDICOM": [0.99647, 0.0826215, 0.0149018, -0.0829754, 0.942179, 0.324675],
  "ImageType": [
    "ORIGINAL",
    "PRIMARY",
    "M",
    "MB",
    "ND",
    "NORM",
    "MOSAIC"
],
  "ImagingFrequency": 123.252,
  "InPlanePhaseEncodingDirectionDICOM": "COL",
  "InstitutionAddress": "Maynard 3,Hanover,NH,US,03755",
  "InstitutionName": "Dartmouth College - PBS",
  "InstitutionalDepartmentName": "Department",
  "MRAcquisitionType": "2D",
  "MagneticFieldStrength": 3,
  "Manufacturer": "Siemens",
  "ManufacturersModelName": "Prisma",
  "Modality": "MR",
  "MultibandAccelerationFactor": 8,
  "PartialFourier": 1,
  "PatientPosition": "HFS",
  "PercentPhaseFOV": 100,
  "PercentSampling": 100,
  "PhaseEncodingDirection": "j-",
  "PhaseEncodingSteps": 82,
  "PhaseResolution": 1,
  "PixelBandwidth": 3050,
  "ProcedureStepDescription": "Wager_Wager^1076_spacetop",
  "ProtocolName": "func_run-05_task-social_acq-ap-mb8",
  "PulseSequenceDetails": "%CustomerSeq%\\cmrr_mbep2d_bold",
  "ReceiveCoilActiveElements": "HEA;HEP",
  "ReceiveCoilName": "Head_32",
  "ReconMatrixPE": 82,
  "RepetitionTime": 0.46,
  "SAR": 0.0975402,
  "ScanOptions": "FS",
  "ScanningSequence": "EP",
  "SequenceName": "epfid2d1_82",
  "SequenceVariant": "SK\\SS",
  "SeriesDescription": "func_run-05_task-social_acq-ap-mb8",
  "SeriesNumber": 16,
  "ShimSetting": [4138, -7782, -7243, 427, -158, -167, 54, 41],
  "SliceThickness": 2.7,
  "SliceTiming": [0, 0.25, 0.0625, 0.315, 0.125, 0.3775, 0.1875, 0, 0.25, 0.0625, 0.315, 0.125, 0.3775, 0.1875, 0, 0.25, 0.0625, 0.315, 0.125, 0.3775, 0.1875, 0, 0.25, 0.0625, 0.315, 0.125, 0.3775, 0.1875, 0, 0.25, 0.0625, 0.315, 0.125, 0.3775, 0.1875, 0, 0.25, 0.0625, 0.315, 0.125, 0.3775, 0.1875, 0, 0.25, 0.0625, 0.315, 0.125, 0.3775, 0.1875, 0, 0.25, 0.0625, 0.315, 0.125, 0.3775, 0.1875],
  "SoftwareVersions": "syngo MR E11",
  "SpacingBetweenSlices": 2.7,
  "StationName": "AWP66112",
  "TaskName": "social",
  "TotalReadoutTime": 0.03969,
  "TxRefAmp": 251.33,
  "WipMemBlock": "2738ffdb-1a51-4404-bf61-0f4f16cf17b3||Sequence: R016 ve11c/master r/e634e98; Dec 19 2017 11:00:25 by eja",
  "dcmmeta_affine": [
    [-2.673454999923706, -0.22261697053909302, -0.0345195010304451, 125.21573638916016],
    [-0.22166745364665985, 2.5277974605560303, 0.8768657445907593, -88.23226928710938],
    [0.03998032584786415, -0.8710789084434509, 2.553412437438965, -9.392427444458008],
    [0.0, 0.0, 0.0, 1.0]
],
  "dcmmeta_reorient_transform": [
    [0.0, -1.0, 0.0, 81.0],
    [1.0, 0.0, 0.0, 0.0],
    [0.0, 0.0, 1.0, 0.0],
    [0.0, 0.0, 0.0, 1.0]
],
  "dcmmeta_shape": [82, 82, 56, 872],
  "dcmmeta_slice_dim": 2,
  "dcmmeta_version": 0.6,
  "global": {
    "const": {
      "AccessionNumber": "A003531",
      "AcquisitionMatrix": [82, 0, 0, 82],
      "AngioFlag": "N",
      "BitsAllocated": 16,
      "BitsStored": 16,
      "BodyPartExamined": "BRAIN",
      "Columns": 656,
      "EchoNumbers": 1,
      "EchoTime": 27.2,
      "EchoTrainLength": 82,
      "FlipAngle": 44.0,
      "HighBit": 15,
      "ImageOrientationPatient": [0.99646958044792, 0.08262150364524, 0.01490175752554, -0.0829754120149, 0.94217902970015, 0.32467484810844],
      "ImagePositionPatient": [-810.57428733503, -905.61575371018, -341.42380985301],
      "ImageType": [
        "ORIGINAL",
        "PRIMARY",
        "M",
        "MB",
        "ND",
        "NORM",
        "MOSAIC"
],
      "ImagedNucleus": "1H",
      "ImagingFrequency": 123.252113,
      "InPlanePhaseEncodingDirection": "COL",
      "MRAcquisitionType": "2D",
      "MagneticFieldStrength": 3.0,
      "Manufacturer": "SIEMENS",
      "ManufacturerModelName": "Prisma",
      "Modality": "MR",
      "NumberOfAverages": 1.0,
      "NumberOfPhaseEncodingSteps": 82,
      "PercentPhaseFieldOfView": 100.0,
      "PercentSampling": 100.0,
      "PerformedProcedureStepStartTime": "084137.980000",
      "PhotometricInterpretation": "MONOCHROME2",
      "PixelBandwidth": 3050.0,
      "PixelRepresentation": 0,
      "PixelSpacing": [2.6829268932343, 2.6829268932343],
      "ProtocolName": "func_run-05_task-social_acq-ap-mb8",
      "RepetitionTime": 460.0,
      "Rows": 656,
      "SAR": 0.09754019298294,
      "SamplesPerPixel": 1,
      "ScanOptions": "FS",
      "ScanningSequence": "EP",
      "SequenceName": "epfid2d1_82",
      "SequenceVariant": [
        "SK",
        "SS"
],
      "SeriesDescription": "func_run-05_task-social_acq-ap-mb8",
      "SeriesNumber": 16,
      "SeriesTime": "102643.207000",
      "SliceLocation": -39.13814118515,
      "SliceThickness": 2.7000000476837,
      "SmallestImagePixelValue": 0,
      "SoftwareVersions": "syngo MR E11",
      "SpacingBetweenSlices": 2.7000000220317,
      "SpecificCharacterSet": "ISO_IR 100",
      "StudyID": "3",
      "StudyTime": "084137.898000",
      "TransmitCoilName": "Body",
      "VariableFlipAngleFlag": "N",
      "WindowCenterWidthExplanation": "Algo1",
      "dBdt": 0.0},
    "slices": {}
  },
  "time": {
    "samples": {
      "AcquisitionNumber": [1, 2, 3, 4, 5, 6, 7, 8, 9, 10, 11, 12, 13, 14, 15, 16, 17, 18, 19, 20, 21, 22, 23, 24, 25, 26, 27, 28, 29, 30, 31, 32, 33, 34, 35, 36, 37, 38, 39, 40, 41, 42, 43, 44, 45, 46, 47, 48, 49, 50, 51, 52, 53, 54, 55, 56, 57, 58, 59, 60, 61, 62, 63, 64, 65, 66, 67, 68, 69, 70, 71, 72, 73, 74, 75, 76, 77, 78, 79, 80, 81, 82, 83, 84, 85, 86, 87, 88, 89, 90, 91, 92, 93, 94, 95, 96, 97, 98, 99, 100, 101, 102, 103, 104, 105, 106, 107, 108, 109, 110, 111, 112, 113, 114, 115, 116, 117, 118, 119, 120, 121, 122, 123, 124, 125, 126, 127, 128, 129, 130, 131, 132, 133, 134, 135, 136, 137, 138, 139, 140, 141, 142, 143, 144, 145, 146, 147, 148, 149, 150, 151, 152, 153, 154, 155, 156, 157, 158, 159, 160, 161, 162, 163, 164, 165, 166, 167, 168, 169, 170, 171, 172, 173, 174, 175, 176, 177, 178, 179, 180, 181, 182, 183, 184, 185, 186, 187, 188, 189, 190, 191, 192, 193, 194, 195, 196, 197, 198, 199, 200, 201, 202, 203, 204, 205, 206, 207, 208, 209, 210, 211, 212, 213, 214, 215, 216, 217, 218, 219, 220, 221, 222, 223, 224, 225, 226, 227, 228, 229, 230, 231, 232, 233, 234, 235, 236, 237, 238, 239, 240, 241, 242, 243, 244, 245, 246, 247, 248, 249, 250, 251, 252, 253, 254, 255, 256, 257, 258, 259, 260, 261, 262, 263, 264, 265, 266, 267, 268, 269, 270, 271, 272, 273, 274, 275, 276, 277, 278, 279, 280, 281, 282, 283, 284, 285, 286, 287, 288, 289, 290, 291, 292, 293, 294, 295, 296, 297, 298, 299, 300, 301, 302, 303, 304, 305, 306, 307, 308, 309, 310, 311, 312, 313, 314, 315, 316, 317, 318, 319, 320, 321, 322, 323, 324, 325, 326, 327, 328, 329, 330, 331, 332, 333, 334, 335, 336, 337, 338, 339, 340, 341, 342, 343, 344, 345, 346, 347, 348, 349, 350, 351, 352, 353, 354, 355, 356, 357, 358, 359, 360, 361, 362, 363, 364, 365, 366, 367, 368, 369, 370, 371, 372, 373, 374, 375, 376, 377, 378, 379, 380, 381, 382, 383, 384, 385, 386, 387, 388, 389, 390, 391, 392, 393, 394, 395, 396, 397, 398, 399, 400, 401, 402, 403, 404, 405, 406, 407, 408, 409, 410, 411, 412, 413, 414, 415, 416, 417, 418, 419, 420, 421, 422, 423, 424, 425, 426, 427, 428, 429, 430, 431, 432, 433, 434, 435, 436, 437, 438, 439, 440, 441, 442, 443, 444, 445, 446, 447, 448, 449, 450, 451, 452, 453, 454, 455, 456, 457, 458, 459, 460, 461, 462, 463, 464, 465, 466, 467, 468, 469, 470, 471, 472, 473, 474, 475, 476, 477, 478, 479, 480, 481, 482, 483, 484, 485, 486, 487, 488, 489, 490, 491, 492, 493, 494, 495, 496, 497, 498, 499, 500, 501, 502, 503, 504, 505, 506, 507, 508, 509, 510, 511, 512, 513, 514, 515, 516, 517, 518, 519, 520, 521, 522, 523, 524, 525, 526, 527, 528, 529, 530, 531, 532, 533, 534, 535, 536, 537, 538, 539, 540, 541, 542, 543, 544, 545, 546, 547, 548, 549, 550, 551, 552, 553, 554, 555, 556, 557, 558, 559, 560, 561, 562, 563, 564, 565, 566, 567, 568, 569, 570, 571, 572, 573, 574, 575, 576, 577, 578, 579, 580, 581, 582, 583, 584, 585, 586, 587, 588, 589, 590, 591, 592, 593, 594, 595, 596, 597, 598, 599, 600, 601, 602, 603, 604, 605, 606, 607, 608, 609, 610, 611, 612, 613, 614, 615, 616, 617, 618, 619, 620, 621, 622, 623, 624, 625, 626, 627, 628, 629, 630, 631, 632, 633, 634, 635, 636, 637, 638, 639, 640, 641, 642, 643, 644, 645, 646, 647, 648, 649, 650, 651, 652, 653, 654, 655, 656, 657, 658, 659, 660, 661, 662, 663, 664, 665, 666, 667, 668, 669, 670, 671, 672, 673, 674, 675, 676, 677, 678, 679, 680, 681, 682, 683, 684, 685, 686, 687, 688, 689, 690, 691, 692, 693, 694, 695, 696, 697, 698, 699, 700, 701, 702, 703, 704, 705, 706, 707, 708, 709, 710, 711, 712, 713, 714, 715, 716, 717, 718, 719, 720, 721, 722, 723, 724, 725, 726, 727, 728, 729, 730, 731, 732, 733, 734, 735, 736, 737, 738, 739, 740, 741, 742, 743, 744, 745, 746, 747, 748, 749, 750, 751, 752, 753, 754, 755, 756, 757, 758, 759, 760, 761, 762, 763, 764, 765, 766, 767, 768, 769, 770, 771, 772, 773, 774, 775, 776, 777, 778, 779, 780, 781, 782, 783, 784, 785, 786, 787, 788, 789, 790, 791, 792, 793, 794, 795, 796, 797, 798, 799, 800, 801, 802, 803, 804, 805, 806, 807, 808, 809, 810, 811, 812, 813, 814, 815, 816, 817, 818, 819, 820, 821, 822, 823, 824, 825, 826, 827, 828, 829, 830, 831, 832, 833, 834, 835, 836, 837, 838, 839, 840, 841, 842, 843, 844, 845, 846, 847, 848, 849, 850, 851, 852, 853, 854, 855, 856, 857, 858, 859, 860, 861, 862, 863, 864, 865, 866, 867, 868, 869, 870, 871, 872],
      "AcquisitionTime": ["102618.167500", "102618.627500", "102619.087500", "102619.547500", "102620.007500", "102620.467500", "102620.927500", "102621.387500", "102621.847500", "102622.307500", "102622.767500", "102623.227500", "102623.687500", "102624.147500", "102624.607500", "102625.067500", "102625.527500", "102625.987500", "102626.447500", "102626.907500", "102627.367500", "102627.827500", "102628.287500", "102628.747500", "102629.207500", "102629.667500", "102630.127500", "102630.587500", "102631.047500", "102631.507500", "102631.967500", "102632.427500", "102632.887500", "102633.347500", "102633.807500", "102634.267500", "102634.727500", "102635.187500", "102635.647500", "102636.107500", "102636.567500", "102637.027500", "102637.487500", "102637.947500", "102638.407500", "102638.867500", "102639.327500", "102639.787500", "102640.247500", "102640.707500", "102641.167500", "102641.627500", "102642.087500", "102642.547500", "102643.007500", "102643.467500", "102643.927500", "102644.387500", "102644.847500", "102645.307500", "102645.767500", "102646.227500", "102646.687500", "102647.147500", "102647.607500", "102648.067500", "102648.527500", "102648.987500", "102649.447500", "102649.907500", "102650.367500", "102650.827500", "102651.287500", "102651.747500", "102652.207500", "102652.667500", "102653.127500", "102653.587500", "102654.047500", "102654.507500", "102654.967500", "102655.427500", "102655.887500", "102656.347500", "102656.807500", "102657.267500", "102657.727500", "102658.187500", "102658.647500", "102659.107500", "102659.567500", "102700.027500", "102700.487500", "102700.947500", "102701.407500", "102701.867500", "102702.327500", "102702.787500", "102703.247500", "102703.707500", "102704.167500", "102704.627500", "102705.087500", "102705.547500", "102706.007500", "102706.467500", "102706.927500", "102707.387500", "102707.847500", "102708.307500", "102708.767500", "102709.227500", "102709.687500", "102710.147500", "102710.607500", "102711.067500", "102711.527500", "102711.987500", "102712.447500", "102712.907500", "102713.367500", "102713.827500", "102714.287500", "102714.747500", "102715.207500", "102715.667500", "102716.127500", "102716.587500", "102717.047500", "102717.507500", "102717.967500", "102718.427500", "102718.887500", "102719.347500", "102719.807500", "102720.267500", "102720.727500", "102721.187500", "102721.647500", "102722.107500", "102722.567500", "102723.027500", "102723.487500", "102723.947500", "102724.407500", "102724.867500", "102725.327500", "102725.787500", "102726.247500", "102726.707500", "102727.167500", "102727.627500", "102728.087500", "102728.547500", "102729.007500", "102729.467500", "102729.927500", "102730.387500", "102730.847500", "102731.307500", "102731.767500", "102732.227500", "102732.687500", "102733.147500", "102733.607500", "102734.067500", "102734.527500", "102734.987500", "102735.447500", "102735.907500", "102736.367500", "102736.827500", "102737.287500", "102737.747500", "102738.207500", "102738.667500", "102739.127500", "102739.587500", "102740.047500", "102740.507500", "102740.967500", "102741.427500", "102741.887500", "102742.347500", "102742.807500", "102743.267500", "102743.727500", "102744.187500", "102744.647500", "102745.107500", "102745.567500", "102746.027500", "102746.487500", "102746.947500", "102747.407500", "102747.867500", "102748.327500", "102748.787500", "102749.247500", "102749.707500", "102750.167500", "102750.627500", "102751.087500", "102751.547500", "102752.007500", "102752.467500", "102752.927500", "102753.387500", "102753.847500", "102754.307500", "102754.767500", "102755.227500", "102755.687500", "102756.147500", "102756.607500", "102757.067500", "102757.527500", "102757.987500", "102758.447500", "102758.907500", "102759.367500", "102759.827500", "102800.287500", "102800.747500", "102801.207500", "102801.667500", "102802.127500", "102802.587500", "102803.047500", "102803.507500", "102803.967500", "102804.427500", "102804.887500", "102805.347500", "102805.807500", "102806.267500", "102806.727500", "102807.187500", "102807.647500", "102808.107500", "102808.567500", "102809.027500", "102809.487500", "102809.947500", "102810.407500", "102810.867500", "102811.327500", "102811.787500", "102812.247500", "102812.707500", "102813.167500", "102813.627500", "102814.087500", "102814.547500", "102815.007500", "102815.467500", "102815.927500", "102816.387500", "102816.847500", "102817.307500", "102817.767500", "102818.227500", "102818.687500", "102819.147500", "102819.607500", "102820.067500", "102820.527500", "102820.987500", "102821.447500", "102821.907500", "102822.367500", "102822.827500", "102823.287500", "102823.747500", "102824.207500", "102824.667500", "102825.127500", "102825.587500", "102826.047500", "102826.507500", "102826.967500", "102827.427500", "102827.887500", "102828.347500", "102828.807500", "102829.267500", "102829.727500", "102830.187500", "102830.647500", "102831.107500", "102831.567500", "102832.027500", "102832.487500", "102832.947500", "102833.407500", "102833.867500", "102834.327500", "102834.787500", "102835.247500", "102835.707500", "102836.167500", "102836.627500", "102837.087500", "102837.547500", "102838.007500", "102838.467500", "102838.927500", "102839.387500", "102839.847500", "102840.307500", "102840.767500", "102841.227500", "102841.687500", "102842.147500", "102842.607500", "102843.067500", "102843.527500", "102843.987500", "102844.447500", "102844.907500", "102845.367500", "102845.827500", "102846.287500", "102846.747500", "102847.207500", "102847.667500", "102848.127500", "102848.587500", "102849.047500", "102849.507500", "102849.967500", "102850.427500", "102850.887500", "102851.347500", "102851.807500", "102852.267500", "102852.727500", "102853.187500", "102853.647500", "102854.107500", "102854.567500", "102855.027500", "102855.487500", "102855.947500", "102856.407500", "102856.867500", "102857.327500", "102857.787500", "102858.247500", "102858.707500", "102859.167500", "102859.627500", "102900.087500", "102900.547500", "102901.007500", "102901.467500", "102901.927500", "102902.387500", "102902.847500", "102903.307500", "102903.767500", "102904.227500", "102904.687500", "102905.147500", "102905.607500", "102906.067500", "102906.527500", "102906.987500", "102907.447500", "102907.907500", "102908.367500", "102908.827500", "102909.287500", "102909.747500", "102910.207500", "102910.667500", "102911.127500", "102911.587500", "102912.047500", "102912.507500", "102912.967500", "102913.427500", "102913.887500", "102914.347500", "102914.807500", "102915.267500", "102915.727500", "102916.187500", "102916.647500", "102917.107500", "102917.567500", "102918.027500", "102918.487500", "102918.947500", "102919.407500", "102919.867500", "102920.327500", "102920.787500", "102921.247500", "102921.707500", "102922.167500", "102922.627500", "102923.087500", "102923.547500", "102924.007500", "102924.467500", "102924.927500", "102925.387500", "102925.847500", "102926.307500", "102926.767500", "102927.227500", "102927.687500", "102928.147500", "102928.607500", "102929.067500", "102929.527500", "102929.987500", "102930.447500", "102930.907500", "102931.367500", "102931.827500", "102932.287500", "102932.747500", "102933.207500", "102933.667500", "102934.127500", "102934.587500", "102935.047500", "102935.507500", "102935.967500", "102936.427500", "102936.887500", "102937.347500", "102937.807500", "102938.267500", "102938.727500", "102939.187500", "102939.647500", "102940.107500", "102940.567500", "102941.027500", "102941.487500", "102941.947500", "102942.407500", "102942.867500", "102943.327500", "102943.787500", "102944.247500", "102944.707500", "102945.167500", "102945.627500", "102946.087500", "102946.547500", "102947.007500", "102947.467500", "102947.927500", "102948.387500", "102948.847500", "102949.307500", "102949.767500", "102950.227500", "102950.687500", "102951.147500", "102951.607500", "102952.067500", "102952.527500", "102952.987500", "102953.447500", "102953.907500", "102954.367500", "102954.827500", "102955.287500", "102955.747500", "102956.207500", "102956.667500", "102957.127500", "102957.587500", "102958.047500", "102958.507500", "102958.967500", "102959.427500", "102959.887500", "103000.347500", "103000.807500", "103001.267500", "103001.727500", "103002.187500", "103002.647500", "103003.107500", "103003.567500", "103004.027500", "103004.487500", "103004.947500", "103005.407500", "103005.867500", "103006.327500", "103006.787500", "103007.247500", "103007.707500", "103008.167500", "103008.627500", "103009.087500", "103009.547500", "103010.007500", "103010.467500", "103010.927500", "103011.387500", "103011.847500", "103012.307500", "103012.767500", "103013.227500", "103013.687500", "103014.147500", "103014.607500", "103015.067500", "103015.527500", "103015.987500", "103016.447500", "103016.907500", "103017.367500", "103017.827500", "103018.287500", "103018.747500", "103019.207500", "103019.667500", "103020.127500", "103020.587500", "103021.047500", "103021.507500", "103021.967500", "103022.427500", "103022.887500", "103023.347500", "103023.807500", "103024.267500", "103024.727500", "103025.187500", "103025.647500", "103026.107500", "103026.567500", "103027.027500", "103027.487500", "103027.947500", "103028.407500", "103028.867500", "103029.327500", "103029.787500", "103030.247500", "103030.707500", "103031.167500", "103031.627500", "103032.087500", "103032.547500", "103033.007500", "103033.467500", "103033.927500", "103034.387500", "103034.847500", "103035.307500", "103035.767500", "103036.227500", "103036.687500", "103037.147500", "103037.607500", "103038.067500", "103038.527500", "103038.987500", "103039.447500", "103039.907500", "103040.367500", "103040.827500", "103041.287500", "103041.747500", "103042.207500", "103042.667500", "103043.127500", "103043.587500", "103044.047500", "103044.507500", "103044.967500", "103045.427500", "103045.887500", "103046.347500", "103046.807500", "103047.267500", "103047.727500", "103048.187500", "103048.647500", "103049.107500", "103049.567500", "103050.027500", "103050.487500", "103050.947500", "103051.407500", "103051.867500", "103052.327500", "103052.787500", "103053.247500", "103053.707500", "103054.167500", "103054.627500", "103055.087500", "103055.547500", "103056.007500", "103056.467500", "103056.927500", "103057.387500", "103057.847500", "103058.307500", "103058.767500", "103059.227500", "103059.687500", "103100.147500", "103100.607500", "103101.067500", "103101.527500", "103101.987500", "103102.447500", "103102.907500", "103103.367500", "103103.827500", "103104.287500", "103104.747500", "103105.207500", "103105.667500", "103106.127500", "103106.587500", "103107.047500", "103107.507500", "103107.967500", "103108.427500", "103108.887500", "103109.347500", "103109.807500", "103110.267500", "103110.727500", "103111.187500", "103111.647500", "103112.107500", "103112.567500", "103113.027500", "103113.487500", "103113.947500", "103114.407500", "103114.867500", "103115.327500", "103115.787500", "103116.247500", "103116.707500", "103117.167500", "103117.627500", "103118.087500", "103118.547500", "103119.007500", "103119.467500", "103119.927500", "103120.387500", "103120.847500", "103121.307500", "103121.767500", "103122.227500", "103122.687500", "103123.147500", "103123.607500", "103124.067500", "103124.527500", "103124.987500", "103125.447500", "103125.907500", "103126.367500", "103126.827500", "103127.287500", "103127.747500", "103128.207500", "103128.667500", "103129.127500", "103129.587500", "103130.047500", "103130.507500", "103130.967500", "103131.427500", "103131.887500", "103132.347500", "103132.807500", "103133.267500", "103133.727500", "103134.187500", "103134.647500", "103135.107500", "103135.567500", "103136.027500", "103136.487500", "103136.947500", "103137.407500", "103137.867500", "103138.327500", "103138.787500", "103139.247500", "103139.707500", "103140.167500", "103140.627500", "103141.087500", "103141.547500", "103142.007500", "103142.467500", "103142.927500", "103143.387500", "103143.847500", "103144.307500", "103144.767500", "103145.227500", "103145.687500", "103146.147500", "103146.607500", "103147.067500", "103147.527500", "103147.987500", "103148.447500", "103148.907500", "103149.367500", "103149.827500", "103150.287500", "103150.747500", "103151.207500", "103151.667500", "103152.127500", "103152.587500", "103153.047500", "103153.507500", "103153.967500", "103154.427500", "103154.887500", "103155.347500", "103155.807500", "103156.267500", "103156.727500", "103157.187500", "103157.647500", "103158.107500", "103158.567500", "103159.027500", "103159.487500", "103159.947500", "103200.407500", "103200.867500", "103201.327500", "103201.787500", "103202.247500", "103202.707500", "103203.167500", "103203.627500", "103204.087500", "103204.547500", "103205.007500", "103205.467500", "103205.927500", "103206.387500", "103206.847500", "103207.307500", "103207.767500", "103208.227500", "103208.687500", "103209.147500", "103209.607500", "103210.067500", "103210.527500", "103210.987500", "103211.447500", "103211.907500", "103212.367500", "103212.827500", "103213.287500", "103213.747500", "103214.207500", "103214.667500", "103215.127500", "103215.587500", "103216.047500", "103216.507500", "103216.967500", "103217.427500", "103217.887500", "103218.347500", "103218.807500", "103219.267500", "103219.727500", "103220.187500", "103220.647500", "103221.107500", "103221.567500", "103222.027500", "103222.487500", "103222.947500", "103223.407500", "103223.867500", "103224.327500", "103224.787500", "103225.247500", "103225.707500", "103226.167500", "103226.627500", "103227.087500", "103227.547500", "103228.007500", "103228.467500", "103228.927500", "103229.387500", "103229.847500", "103230.307500", "103230.767500", "103231.227500", "103231.687500", "103232.147500", "103232.607500", "103233.067500", "103233.527500", "103233.987500", "103234.447500", "103234.907500", "103235.367500", "103235.827500", "103236.287500", "103236.747500", "103237.207500", "103237.667500", "103238.127500", "103238.587500", "103239.047500", "103239.507500", "103239.967500", "103240.427500", "103240.887500", "103241.347500", "103241.807500", "103242.267500", "103242.727500", "103243.187500", "103243.647500", "103244.107500", "103244.567500", "103245.027500", "103245.487500", "103245.947500", "103246.407500", "103246.867500", "103247.327500", "103247.787500", "103248.247500", "103248.707500", "103249.167500", "103249.627500", "103250.087500", "103250.547500", "103251.007500", "103251.467500", "103251.927500", "103252.387500", "103252.847500", "103253.307500", "103253.767500", "103254.227500", "103254.687500", "103255.147500", "103255.607500", "103256.067500", "103256.527500", "103256.987500", "103257.447500", "103257.907500", "103258.367500", "103258.827500"],
