{
  "AcquisitionMatrixPE": 82,
  "AcquisitionNumber": 1,
  "AcquisitionTime": "09:58:12.760000",
  "BandwidthPerPixelPhaseEncode": 24.888,
  "BaseResolution": 82,
  "BodyPartExamined": "BRAIN",
  "ConsistencyInfo": "N4_VE11C_LATEST_20160120",
  "ConversionSoftware": "dcm2niix",
  "ConversionSoftwareVersion": "v1.0.20201102",
  "DerivedVendorReportedEchoSpacing": 0.00049,
  "DeviceSerialNumber": "66112",
  "DwellTime": 2e-06,
  "EchoTime": 0.0272,
  "EchoTrainLength": 82,
  "EffectiveEchoSpacing": 0.00049,
  "FlipAngle": 44,
  "ImageComments": "Unaliased MB8/PE3",
  "ImageOrientationPatientDICOM": [0.99647, 0.0826215, 0.0149018, -0.0829754, 0.942179, 0.324675],
  "ImageType": [
    "ORIGINAL",
    "PRIMARY",
    "M",
    "MB",
    "ND",
    "NORM",
    "MOSAIC"
],
  "ImagingFrequency": 123.252,
  "InPlanePhaseEncodingDirectionDICOM": "COL",
  "InstitutionAddress": "Maynard 3,Hanover,NH,US,03755",
  "InstitutionName": "Dartmouth College - PBS",
  "InstitutionalDepartmentName": "Department",
  "MRAcquisitionType": "2D",
  "MagneticFieldStrength": 3,
  "Manufacturer": "Siemens",
  "ManufacturersModelName": "Prisma",
  "Modality": "MR",
  "MultibandAccelerationFactor": 8,
  "PartialFourier": 1,
  "PatientPosition": "HFS",
  "PercentPhaseFOV": 100,
  "PercentSampling": 100,
  "PhaseEncodingDirection": "j-",
  "PhaseEncodingSteps": 82,
  "PhaseResolution": 1,
  "PixelBandwidth": 3050,
  "ProcedureStepDescription": "Wager_Wager^1076_spacetop",
  "ProtocolName": "func_run-01_task-social_acq-ap-mb8",
  "PulseSequenceDetails": "%CustomerSeq%\\cmrr_mbep2d_bold",
  "ReceiveCoilActiveElements": "HEA;HEP",
  "ReceiveCoilName": "Head_32",
  "ReconMatrixPE": 82,
  "RepetitionTime": 0.46,
  "SAR": 0.0975402,
  "ScanOptions": "FS",
  "ScanningSequence": "EP",
  "SequenceName": "epfid2d1_82",
  "SequenceVariant": "SK\\SS",
  "SeriesDescription": "func_run-01_task-social_acq-ap-mb8",
  "SeriesNumber": 8,
  "ShimSetting": [4138, -7782, -7243, 427, -158, -167, 54, 41],
  "SliceThickness": 2.7,
  "SliceTiming": [0, 0.2525, 0.0625, 0.315, 0.1275, 0.3775, 0.19, 0, 0.2525, 0.0625, 0.315, 0.1275, 0.3775, 0.19, 0, 0.2525, 0.0625, 0.315, 0.1275, 0.3775, 0.19, 0, 0.2525, 0.0625, 0.315, 0.1275, 0.3775, 0.19, 0, 0.2525, 0.0625, 0.315, 0.1275, 0.3775, 0.19, 0, 0.2525, 0.0625, 0.315, 0.1275, 0.3775, 0.19, 0, 0.2525, 0.0625, 0.315, 0.1275, 0.3775, 0.19, 0, 0.2525, 0.0625, 0.315, 0.1275, 0.3775, 0.19],
  "SoftwareVersions": "syngo MR E11",
  "SpacingBetweenSlices": 2.7,
  "StationName": "AWP66112",
  "TaskName": "social",
  "TotalReadoutTime": 0.03969,
  "TxRefAmp": 251.33,
  "WipMemBlock": "4587cbf6-88c2-4f80-8e37-1074827dd527||Sequence: R016 ve11c/master r/e634e98; Dec 19 2017 11:00:25 by eja",
  "dcmmeta_affine": [
    [-2.673454999923706, -0.22261697053909302, -0.0345195010304451, 125.21573638916016],
    [-0.22166745364665985, 2.5277974605560303, 0.8768657445907593, -88.23226928710938],
    [0.03998032584786415, -0.8710789084434509, 2.553412437438965, -9.392427444458008],
    [0.0, 0.0, 0.0, 1.0]
],
  "dcmmeta_reorient_transform": [
    [0.0, -1.0, 0.0, 81.0],
    [1.0, 0.0, 0.0, 0.0],
    [0.0, 0.0, 1.0, 0.0],
    [0.0, 0.0, 0.0, 1.0]
],
  "dcmmeta_shape": [82, 82, 56, 872],
  "dcmmeta_slice_dim": 2,
  "dcmmeta_version": 0.6,
  "global": {
    "const": {
      "AccessionNumber": "A003531",
      "AcquisitionMatrix": [82, 0, 0, 82],
      "AngioFlag": "N",
      "BitsAllocated": 16,
      "BitsStored": 16,
      "BodyPartExamined": "BRAIN",
      "Columns": 656,
      "EchoNumbers": 1,
      "EchoTime": 27.2,
      "EchoTrainLength": 82,
      "FlipAngle": 44.0,
      "HighBit": 15,
      "ImageOrientationPatient": [0.99646958044792, 0.08262150364524, 0.01490175752554, -0.0829754120149, 0.94217902970015, 0.32467484810844],
      "ImagePositionPatient": [-810.57428733503, -905.61575371018, -341.42380985301],
      "ImageType": [
        "ORIGINAL",
        "PRIMARY",
        "M",
        "MB",
        "ND",
        "NORM",
        "MOSAIC"
],
      "ImagedNucleus": "1H",
      "ImagingFrequency": 123.252087,
      "InPlanePhaseEncodingDirection": "COL",
      "MRAcquisitionType": "2D",
      "MagneticFieldStrength": 3.0,
      "Manufacturer": "SIEMENS",
      "ManufacturerModelName": "Prisma",
      "Modality": "MR",
      "NumberOfAverages": 1.0,
      "NumberOfPhaseEncodingSteps": 82,
      "PercentPhaseFieldOfView": 100.0,
      "PercentSampling": 100.0,
      "PerformedProcedureStepStartTime": "084137.980000",
      "PhotometricInterpretation": "MONOCHROME2",
      "PixelBandwidth": 3050.0,
      "PixelRepresentation": 0,
      "PixelSpacing": [2.6829268932343, 2.6829268932343],
      "ProtocolName": "func_run-01_task-social_acq-ap-mb8",
      "RepetitionTime": 460.0,
      "Rows": 656,
      "SAR": 0.09754019298294,
      "SamplesPerPixel": 1,
      "ScanOptions": "FS",
      "ScanningSequence": "EP",
      "SequenceName": "epfid2d1_82",
      "SequenceVariant": [
        "SK",
        "SS"
],
      "SeriesDescription": "func_run-01_task-social_acq-ap-mb8",
      "SeriesNumber": 8,
      "SeriesTime": "095823.149000",
      "SliceLocation": -39.13814118515,
      "SliceThickness": 2.7000000476837,
      "SmallestImagePixelValue": 0,
      "SoftwareVersions": "syngo MR E11",
      "SpacingBetweenSlices": 2.7000000220317,
      "SpecificCharacterSet": "ISO_IR 100",
      "StudyID": "3",
      "StudyTime": "084137.898000",
      "TransmitCoilName": "Body",
      "VariableFlipAngleFlag": "N",
      "WindowCenterWidthExplanation": "Algo1",
      "dBdt": 0.0},
    "slices": {}
  },
  "time": {
    "samples": {
      "AcquisitionNumber": [1, 2, 3, 4, 5, 6, 7, 8, 9, 10, 11, 12, 13, 14, 15, 16, 17, 18, 19, 20, 21, 22, 23, 24, 25, 26, 27, 28, 29, 30, 31, 32, 33, 34, 35, 36, 37, 38, 39, 40, 41, 42, 43, 44, 45, 46, 47, 48, 49, 50, 51, 52, 53, 54, 55, 56, 57, 58, 59, 60, 61, 62, 63, 64, 65, 66, 67, 68, 69, 70, 71, 72, 73, 74, 75, 76, 77, 78, 79, 80, 81, 82, 83, 84, 85, 86, 87, 88, 89, 90, 91, 92, 93, 94, 95, 96, 97, 98, 99, 100, 101, 102, 103, 104, 105, 106, 107, 108, 109, 110, 111, 112, 113, 114, 115, 116, 117, 118, 119, 120, 121, 122, 123, 124, 125, 126, 127, 128, 129, 130, 131, 132, 133, 134, 135, 136, 137, 138, 139, 140, 141, 142, 143, 144, 145, 146, 147, 148, 149, 150, 151, 152, 153, 154, 155, 156, 157, 158, 159, 160, 161, 162, 163, 164, 165, 166, 167, 168, 169, 170, 171, 172, 173, 174, 175, 176, 177, 178, 179, 180, 181, 182, 183, 184, 185, 186, 187, 188, 189, 190, 191, 192, 193, 194, 195, 196, 197, 198, 199, 200, 201, 202, 203, 204, 205, 206, 207, 208, 209, 210, 211, 212, 213, 214, 215, 216, 217, 218, 219, 220, 221, 222, 223, 224, 225, 226, 227, 228, 229, 230, 231, 232, 233, 234, 235, 236, 237, 238, 239, 240, 241, 242, 243, 244, 245, 246, 247, 248, 249, 250, 251, 252, 253, 254, 255, 256, 257, 258, 259, 260, 261, 262, 263, 264, 265, 266, 267, 268, 269, 270, 271, 272, 273, 274, 275, 276, 277, 278, 279, 280, 281, 282, 283, 284, 285, 286, 287, 288, 289, 290, 291, 292, 293, 294, 295, 296, 297, 298, 299, 300, 301, 302, 303, 304, 305, 306, 307, 308, 309, 310, 311, 312, 313, 314, 315, 316, 317, 318, 319, 320, 321, 322, 323, 324, 325, 326, 327, 328, 329, 330, 331, 332, 333, 334, 335, 336, 337, 338, 339, 340, 341, 342, 343, 344, 345, 346, 347, 348, 349, 350, 351, 352, 353, 354, 355, 356, 357, 358, 359, 360, 361, 362, 363, 364, 365, 366, 367, 368, 369, 370, 371, 372, 373, 374, 375, 376, 377, 378, 379, 380, 381, 382, 383, 384, 385, 386, 387, 388, 389, 390, 391, 392, 393, 394, 395, 396, 397, 398, 399, 400, 401, 402, 403, 404, 405, 406, 407, 408, 409, 410, 411, 412, 413, 414, 415, 416, 417, 418, 419, 420, 421, 422, 423, 424, 425, 426, 427, 428, 429, 430, 431, 432, 433, 434, 435, 436, 437, 438, 439, 440, 441, 442, 443, 444, 445, 446, 447, 448, 449, 450, 451, 452, 453, 454, 455, 456, 457, 458, 459, 460, 461, 462, 463, 464, 465, 466, 467, 468, 469, 470, 471, 472, 473, 474, 475, 476, 477, 478, 479, 480, 481, 482, 483, 484, 485, 486, 487, 488, 489, 490, 491, 492, 493, 494, 495, 496, 497, 498, 499, 500, 501, 502, 503, 504, 505, 506, 507, 508, 509, 510, 511, 512, 513, 514, 515, 516, 517, 518, 519, 520, 521, 522, 523, 524, 525, 526, 527, 528, 529, 530, 531, 532, 533, 534, 535, 536, 537, 538, 539, 540, 541, 542, 543, 544, 545, 546, 547, 548, 549, 550, 551, 552, 553, 554, 555, 556, 557, 558, 559, 560, 561, 562, 563, 564, 565, 566, 567, 568, 569, 570, 571, 572, 573, 574, 575, 576, 577, 578, 579, 580, 581, 582, 583, 584, 585, 586, 587, 588, 589, 590, 591, 592, 593, 594, 595, 596, 597, 598, 599, 600, 601, 602, 603, 604, 605, 606, 607, 608, 609, 610, 611, 612, 613, 614, 615, 616, 617, 618, 619, 620, 621, 622, 623, 624, 625, 626, 627, 628, 629, 630, 631, 632, 633, 634, 635, 636, 637, 638, 639, 640, 641, 642, 643, 644, 645, 646, 647, 648, 649, 650, 651, 652, 653, 654, 655, 656, 657, 658, 659, 660, 661, 662, 663, 664, 665, 666, 667, 668, 669, 670, 671, 672, 673, 674, 675, 676, 677, 678, 679, 680, 681, 682, 683, 684, 685, 686, 687, 688, 689, 690, 691, 692, 693, 694, 695, 696, 697, 698, 699, 700, 701, 702, 703, 704, 705, 706, 707, 708, 709, 710, 711, 712, 713, 714, 715, 716, 717, 718, 719, 720, 721, 722, 723, 724, 725, 726, 727, 728, 729, 730, 731, 732, 733, 734, 735, 736, 737, 738, 739, 740, 741, 742, 743, 744, 745, 746, 747, 748, 749, 750, 751, 752, 753, 754, 755, 756, 757, 758, 759, 760, 761, 762, 763, 764, 765, 766, 767, 768, 769, 770, 771, 772, 773, 774, 775, 776, 777, 778, 779, 780, 781, 782, 783, 784, 785, 786, 787, 788, 789, 790, 791, 792, 793, 794, 795, 796, 797, 798, 799, 800, 801, 802, 803, 804, 805, 806, 807, 808, 809, 810, 811, 812, 813, 814, 815, 816, 817, 818, 819, 820, 821, 822, 823, 824, 825, 826, 827, 828, 829, 830, 831, 832, 833, 834, 835, 836, 837, 838, 839, 840, 841, 842, 843, 844, 845, 846, 847, 848, 849, 850, 851, 852, 853, 854, 855, 856, 857, 858, 859, 860, 861, 862, 863, 864, 865, 866, 867, 868, 869, 870, 871, 872],
      "AcquisitionTime": ["095812.760000", "095813.220000", "095813.680000", "095814.140000", "095814.600000", "095815.060000", "095815.520000", "095815.980000", "095816.440000", "095816.900000", "095817.360000", "095817.820000", "095818.280000", "095818.740000", "095819.200000", "095819.660000", "095820.120000", "095820.580000", "095821.040000", "095821.500000", "095821.960000", "095822.420000", "095822.880000", "095823.340000", "095823.800000", "095824.260000", "095824.720000", "095825.180000", "095825.640000", "095826.100000", "095826.560000", "095827.020000", "095827.480000", "095827.940000", "095828.400000", "095828.860000", "095829.320000", "095829.780000", "095830.240000", "095830.700000", "095831.160000", "095831.620000", "095832.080000", "095832.540000", "095833.000000", "095833.460000", "095833.920000", "095834.380000", "095834.840000", "095835.300000", "095835.760000", "095836.220000", "095836.680000", "095837.140000", "095837.600000", "095838.060000", "095838.520000", "095838.980000", "095839.440000", "095839.900000", "095840.360000", "095840.820000", "095841.280000", "095841.740000", "095842.200000", "095842.660000", "095843.120000", "095843.580000", "095844.040000", "095844.500000", "095844.960000", "095845.420000", "095845.880000", "095846.340000", "095846.800000", "095847.260000", "095847.720000", "095848.180000", "095848.640000", "095849.100000", "095849.560000", "095850.020000", "095850.480000", "095850.940000", "095851.400000", "095851.860000", "095852.320000", "095852.780000", "095853.240000", "095853.700000", "095854.160000", "095854.620000", "095855.080000", "095855.540000", "095856.000000", "095856.460000", "095856.920000", "095857.380000", "095857.840000", "095858.300000", "095858.760000", "095859.220000", "095859.680000", "095900.140000", "095900.600000", "095901.060000", "095901.520000", "095901.980000", "095902.440000", "095902.900000", "095903.360000", "095903.820000", "095904.280000", "095904.740000", "095905.200000", "095905.660000", "095906.120000", "095906.580000", "095907.040000", "095907.500000", "095907.960000", "095908.420000", "095908.880000", "095909.340000", "095909.800000", "095910.260000", "095910.720000", "095911.180000", "095911.640000", "095912.100000", "095912.560000", "095913.020000", "095913.480000", "095913.940000", "095914.400000", "095914.860000", "095915.320000", "095915.780000", "095916.240000", "095916.700000", "095917.160000", "095917.620000", "095918.080000", "095918.540000", "095919.000000", "095919.460000", "095919.920000", "095920.380000", "095920.840000", "095921.300000", "095921.760000", "095922.220000", "095922.680000", "095923.140000", "095923.600000", "095924.060000", "095924.520000", "095924.980000", "095925.440000", "095925.900000", "095926.360000", "095926.820000", "095927.280000", "095927.740000", "095928.200000", "095928.660000", "095929.120000", "095929.580000", "095930.040000", "095930.500000", "095930.960000", "095931.420000", "095931.880000", "095932.340000", "095932.800000", "095933.260000", "095933.720000", "095934.180000", "095934.640000", "095935.100000", "095935.560000", "095936.020000", "095936.480000", "095936.940000", "095937.400000", "095937.860000", "095938.320000", "095938.780000", "095939.240000", "095939.700000", "095940.160000", "095940.620000", "095941.080000", "095941.540000", "095942.000000", "095942.460000", "095942.920000", "095943.380000", "095943.840000", "095944.300000", "095944.760000", "095945.220000", "095945.680000", "095946.140000", "095946.600000", "095947.060000", "095947.520000", "095947.980000", "095948.440000", "095948.900000", "095949.360000", "095949.820000", "095950.280000", "095950.740000", "095951.200000", "095951.660000", "095952.120000", "095952.580000", "095953.040000", "095953.500000", "095953.960000", "095954.420000", "095954.880000", "095955.340000", "095955.800000", "095956.260000", "095956.720000", "095957.180000", "095957.640000", "095958.100000", "095958.560000", "095959.020000", "095959.480000", "095959.940000", "100000.400000", "100000.860000", "100001.320000", "100001.780000", "100002.240000", "100002.700000", "100003.160000", "100003.620000", "100004.080000", "100004.540000", "100005.000000", "100005.460000", "100005.920000", "100006.380000", "100006.840000", "100007.300000", "100007.760000", "100008.220000", "100008.680000", "100009.140000", "100009.600000", "100010.060000", "100010.520000", "100010.980000", "100011.440000", "100011.900000", "100012.360000", "100012.820000", "100013.280000", "100013.740000", "100014.200000", "100014.660000", "100015.120000", "100015.580000", "100016.040000", "100016.500000", "100016.960000", "100017.420000", "100017.880000", "100018.340000", "100018.800000", "100019.260000", "100019.720000", "100020.180000", "100020.640000", "100021.100000", "100021.560000", "100022.020000", "100022.480000", "100022.940000", "100023.400000", "100023.860000", "100024.320000", "100024.780000", "100025.240000", "100025.700000", "100026.160000", "100026.620000", "100027.080000", "100027.540000", "100028.000000", "100028.460000", "100028.920000", "100029.380000", "100029.840000", "100030.300000", "100030.760000", "100031.220000", "100031.680000", "100032.140000", "100032.600000", "100033.060000", "100033.520000", "100033.980000", "100034.440000", "100034.900000", "100035.360000", "100035.820000", "100036.280000", "100036.740000", "100037.200000", "100037.660000", "100038.120000", "100038.580000", "100039.040000", "100039.500000", "100039.960000", "100040.420000", "100040.880000", "100041.340000", "100041.800000", "100042.260000", "100042.720000", "100043.180000", "100043.640000", "100044.100000", "100044.560000", "100045.020000", "100045.480000", "100045.940000", "100046.400000", "100046.860000", "100047.320000", "100047.780000", "100048.240000", "100048.700000", "100049.160000", "100049.620000", "100050.080000", "100050.540000", "100051.000000", "100051.460000", "100051.920000", "100052.380000", "100052.840000", "100053.300000", "100053.760000", "100054.220000", "100054.680000", "100055.140000", "100055.600000", "100056.060000", "100056.520000", "100056.980000", "100057.440000", "100057.900000", "100058.360000", "100058.820000", "100059.280000", "100059.740000", "100100.200000", "100100.660000", "100101.120000", "100101.580000", "100102.040000", "100102.500000", "100102.960000", "100103.420000", "100103.880000", "100104.340000", "100104.800000", "100105.260000", "100105.720000", "100106.180000", "100106.640000", "100107.100000", "100107.560000", "100108.020000", "100108.480000", "100108.940000", "100109.400000", "100109.860000", "100110.320000", "100110.780000", "100111.240000", "100111.700000", "100112.160000", "100112.620000", "100113.080000", "100113.540000", "100114.000000", "100114.460000", "100114.920000", "100115.380000", "100115.840000", "100116.300000", "100116.760000", "100117.220000", "100117.680000", "100118.140000", "100118.600000", "100119.060000", "100119.520000", "100119.980000", "100120.440000", "100120.900000", "100121.360000", "100121.820000", "100122.280000", "100122.740000", "100123.200000", "100123.660000", "100124.120000", "100124.580000", "100125.040000", "100125.500000", "100125.960000", "100126.420000", "100126.880000", "100127.340000", "100127.800000", "100128.260000", "100128.720000", "100129.180000", "100129.640000", "100130.100000", "100130.560000", "100131.020000", "100131.480000", "100131.940000", "100132.400000", "100132.860000", "100133.320000", "100133.780000", "100134.240000", "100134.700000", "100135.160000", "100135.620000", "100136.080000", "100136.540000", "100137.000000", "100137.460000", "100137.920000", "100138.380000", "100138.840000", "100139.300000", "100139.760000", "100140.220000", "100140.680000", "100141.140000", "100141.600000", "100142.060000", "100142.520000", "100142.980000", "100143.440000", "100143.900000", "100144.360000", "100144.820000", "100145.280000", "100145.740000", "100146.200000", "100146.660000", "100147.120000", "100147.580000", "100148.040000", "100148.500000", "100148.960000", "100149.420000", "100149.880000", "100150.340000", "100150.800000", "100151.260000", "100151.720000", "100152.180000", "100152.640000", "100153.100000", "100153.560000", "100154.020000", "100154.480000", "100154.940000", "100155.400000", "100155.860000", "100156.320000", "100156.780000", "100157.240000", "100157.700000", "100158.160000", "100158.620000", "100159.080000", "100159.540000", "100200.000000", "100200.460000", "100200.920000", "100201.380000", "100201.840000", "100202.300000", "100202.760000", "100203.220000", "100203.680000", "100204.140000", "100204.600000", "100205.060000", "100205.520000", "100205.980000", "100206.440000", "100206.900000", "100207.360000", "100207.820000", "100208.280000", "100208.740000", "100209.200000", "100209.660000", "100210.120000", "100210.580000", "100211.040000", "100211.500000", "100211.960000", "100212.420000", "100212.880000", "100213.340000", "100213.800000", "100214.260000", "100214.720000", "100215.180000", "100215.640000", "100216.100000", "100216.560000", "100217.020000", "100217.480000", "100217.940000", "100218.400000", "100218.860000", "100219.320000", "100219.780000", "100220.240000", "100220.700000", "100221.160000", "100221.620000", "100222.080000", "100222.540000", "100223.000000", "100223.460000", "100223.920000", "100224.380000", "100224.840000", "100225.300000", "100225.760000", "100226.220000", "100226.680000", "100227.140000", "100227.600000", "100228.060000", "100228.520000", "100228.980000", "100229.440000", "100229.900000", "100230.360000", "100230.820000", "100231.280000", "100231.740000", "100232.200000", "100232.660000", "100233.120000", "100233.580000", "100234.040000", "100234.500000", "100234.960000", "100235.420000", "100235.880000", "100236.340000", "100236.800000", "100237.260000", "100237.720000", "100238.180000", "100238.640000", "100239.100000", "100239.560000", "100240.020000", "100240.480000", "100240.940000", "100241.400000", "100241.860000", "100242.320000", "100242.780000", "100243.240000", "100243.700000", "100244.160000", "100244.620000", "100245.080000", "100245.540000", "100246.000000", "100246.460000", "100246.920000", "100247.380000", "100247.840000", "100248.300000", "100248.760000", "100249.220000", "100249.680000", "100250.140000", "100250.600000", "100251.060000", "100251.520000", "100251.980000", "100252.440000", "100252.900000", "100253.360000", "100253.820000", "100254.280000", "100254.740000", "100255.200000", "100255.660000", "100256.120000", "100256.580000", "100257.040000", "100257.500000", "100257.960000", "100258.420000", "100258.880000", "100259.340000", "100259.800000", "100300.260000", "100300.720000", "100301.180000", "100301.640000", "100302.100000", "100302.560000", "100303.020000", "100303.480000", "100303.940000", "100304.400000", "100304.860000", "100305.320000", "100305.780000", "100306.240000", "100306.700000", "100307.160000", "100307.620000", "100308.080000", "100308.540000", "100309.000000", "100309.460000", "100309.920000", "100310.380000", "100310.840000", "100311.300000", "100311.760000", "100312.220000", "100312.680000", "100313.140000", "100313.600000", "100314.060000", "100314.520000", "100314.980000", "100315.440000", "100315.900000", "100316.360000", "100316.820000", "100317.280000", "100317.740000", "100318.200000", "100318.660000", "100319.120000", "100319.580000", "100320.040000", "100320.500000", "100320.960000", "100321.420000", "100321.880000", "100322.340000", "100322.800000", "100323.260000", "100323.720000", "100324.180000", "100324.640000", "100325.100000", "100325.560000", "100326.020000", "100326.480000", "100326.940000", "100327.400000", "100327.860000", "100328.320000", "100328.780000", "100329.240000", "100329.700000", "100330.160000", "100330.620000", "100331.080000", "100331.540000", "100332.000000", "100332.460000", "100332.920000", "100333.380000", "100333.840000", "100334.300000", "100334.760000", "100335.220000", "100335.680000", "100336.140000", "100336.600000", "100337.060000", "100337.520000", "100337.980000", "100338.440000", "100338.900000", "100339.360000", "100339.820000", "100340.280000", "100340.740000", "100341.200000", "100341.660000", "100342.120000", "100342.580000", "100343.040000", "100343.500000", "100343.960000", "100344.420000", "100344.880000", "100345.340000", "100345.800000", "100346.260000", "100346.720000", "100347.180000", "100347.640000", "100348.100000", "100348.560000", "100349.020000", "100349.480000", "100349.940000", "100350.400000", "100350.860000", "100351.320000", "100351.780000", "100352.240000", "100352.700000", "100353.160000", "100353.620000", "100354.080000", "100354.540000", "100355.000000", "100355.460000", "100355.920000", "100356.380000", "100356.840000", "100357.300000", "100357.760000", "100358.220000", "100358.680000", "100359.140000", "100359.600000", "100400.060000", "100400.520000", "100400.980000", "100401.440000", "100401.900000", "100402.360000", "100402.820000", "100403.280000", "100403.740000", "100404.200000", "100404.660000", "100405.120000", "100405.580000", "100406.040000", "100406.500000", "100406.960000", "100407.420000", "100407.880000", "100408.340000", "100408.800000", "100409.260000", "100409.720000", "100410.180000", "100410.640000", "100411.100000", "100411.560000", "100412.020000", "100412.480000", "100412.940000", "100413.400000", "100413.860000", "100414.320000", "100414.780000", "100415.240000", "100415.700000", "100416.160000", "100416.620000", "100417.080000", "100417.540000", "100418.000000", "100418.460000", "100418.920000", "100419.380000", "100419.840000", "100420.300000", "100420.760000", "100421.220000", "100421.680000", "100422.140000", "100422.600000", "100423.060000", "100423.520000", "100423.980000", "100424.440000", "100424.900000", "100425.360000", "100425.820000", "100426.280000", "100426.740000", "100427.200000", "100427.660000", "100428.120000", "100428.580000", "100429.040000", "100429.500000", "100429.960000", "100430.420000", "100430.880000", "100431.340000", "100431.800000", "100432.260000", "100432.720000", "100433.180000", "100433.640000", "100434.100000", "100434.560000", "100435.020000", "100435.480000", "100435.940000", "100436.400000", "100436.860000", "100437.320000", "100437.780000", "100438.240000", "100438.700000", "100439.160000", "100439.620000", "100440.080000", "100440.540000", "100441.000000", "100441.460000", "100441.920000", "100442.380000", "100442.840000", "100443.300000", "100443.760000", "100444.220000", "100444.680000", "100445.140000", "100445.600000", "100446.060000", "100446.520000", "100446.980000", "100447.440000", "100447.900000", "100448.360000", "100448.820000", "100449.280000", "100449.740000", "100450.200000", "100450.660000", "100451.120000", "100451.580000", "100452.040000", "100452.500000", "100452.960000", "100453.420000"],
