{
  "AcquisitionMatrixPE": 82,
  "AcquisitionNumber": 1,
  "AcquisitionTime": "16:36:52.672500",
  "BandwidthPerPixelPhaseEncode": 24.888,
  "BaseResolution": 82,
  "BodyPartExamined": "BRAIN",
  "ConsistencyInfo": "N4_VE11E_LATEST_20181129",
  "ConversionSoftware": "dcm2niix",
  "ConversionSoftwareVersion": "v1.0.20201102",
  "DerivedVendorReportedEchoSpacing": 0.00049,
  "DeviceSerialNumber": "66112",
  "DwellTime": 2e-06,
  "EchoTime": 0.0272,
  "EchoTrainLength": 82,
  "EffectiveEchoSpacing": 0.00049,
  "FlipAngle": 44,
  "ImageComments": "Unaliased MB8/PE3",
  "ImageOrientationPatientDICOM": [0.999679, -0.018177, 0.0176326, 0.0179731, 0.999771, 0.0116516],
  "ImageType": [
    "ORIGINAL",
    "PRIMARY",
    "M",
    "MB",
    "ND",
    "NORM",
    "MOSAIC"
],
  "ImagingFrequency": 123.252,
  "InPlanePhaseEncodingDirectionDICOM": "COL",
  "InstitutionAddress": "Maynard 3,Hanover,NH,US,03755",
  "InstitutionName": "Dartmouth College - PBS",
  "InstitutionalDepartmentName": "Department",
  "MRAcquisitionType": "2D",
  "MagneticFieldStrength": 3,
  "Manufacturer": "Siemens",
  "ManufacturersModelName": "Prisma",
  "Modality": "MR",
  "MultibandAccelerationFactor": 8,
  "PartialFourier": 1,
  "PatientPosition": "HFS",
  "PercentPhaseFOV": 100,
  "PercentSampling": 100,
  "PhaseEncodingDirection": "j-",
  "PhaseEncodingSteps": 82,
  "PhaseResolution": 1,
  "PixelBandwidth": 3050,
  "ProcedureStepDescription": "Wager_Wager^1076_spacetop",
  "ProtocolName": "func_run-05_task-social_acq-ap-mb8",
  "PulseSequenceDetails": "%CustomerSeq%\\cmrr_mbep2d_bold",
  "ReceiveCoilActiveElements": "HEA;HEP",
  "ReceiveCoilName": "Head_32",
  "ReconMatrixPE": 82,
  "RepetitionTime": 0.46,
  "SAR": 0.0821419,
  "ScanOptions": "FS",
  "ScanningSequence": "EP",
  "SequenceName": "epfid2d1_82",
  "SequenceVariant": "SK\\SS",
  "SeriesDescription": "func_run-05_task-social_acq-ap-mb8",
  "SeriesNumber": 16,
  "ShimSetting": [4163, -7723, -7241, 703, -47, -90, -63, 23],
  "SliceThickness": 2.7,
  "SliceTiming": [0, 0.2525, 0.065, 0.315, 0.1275, 0.3775, 0.19, 0, 0.2525, 0.065, 0.315, 0.1275, 0.3775, 0.19, 0, 0.2525, 0.065, 0.315, 0.1275, 0.3775, 0.19, 0, 0.2525, 0.065, 0.315, 0.1275, 0.3775, 0.19, 0, 0.2525, 0.065, 0.315, 0.1275, 0.3775, 0.19, 0, 0.2525, 0.065, 0.315, 0.1275, 0.3775, 0.19, 0, 0.2525, 0.065, 0.315, 0.1275, 0.3775, 0.19, 0, 0.2525, 0.065, 0.315, 0.1275, 0.3775, 0.19],
  "SoftwareVersions": "syngo MR E11",
  "SpacingBetweenSlices": 2.7,
  "StationName": "AWP66112",
  "TaskName": "social",
  "TotalReadoutTime": 0.03969,
  "TxRefAmp": 232.593,
  "WipMemBlock": "859c3bcb-1b15-4b39-9b80-b78263157422||Sequence: R016 ve11e/master r/434b28f1; Aug  7 2019 18:53:46 by eja",
  "dcmmeta_affine": [
    [-2.6820664405822754, 0.04822053760290146, 0.04816905036568642, 108.258056640625],
    [0.048767462372779846, 2.6823112964630127, 0.030593503266572952, -89.70439910888672],
    [0.0473070964217186, -0.031260330229997635, 2.699396848678589, -64.2834701538086],
    [0.0, 0.0, 0.0, 1.0]
],
  "dcmmeta_reorient_transform": [
    [0.0, -1.0, 0.0, 81.0],
    [1.0, 0.0, 0.0, 0.0],
    [0.0, 0.0, 1.0, 0.0],
    [0.0, 0.0, 0.0, 1.0]
],
  "dcmmeta_shape": [82, 82, 56, 872],
  "dcmmeta_slice_dim": 2,
  "dcmmeta_version": 0.6,
  "global": {
    "const": {
      "AccessionNumber": "A004017",
      "AcquisitionMatrix": [82, 0, 0, 82],
      "AngioFlag": "N",
      "BitsAllocated": 16,
      "BitsStored": 16,
      "BodyPartExamined": "BRAIN",
      "Columns": 656,
      "EchoNumbers": 1,
      "EchoTime": 27.2,
      "EchoTrainLength": 82,
      "FlipAngle": 44.0,
      "HighBit": 15,
      "ImageOrientationPatient": [0.99967929249887, -0.0181769627819, 0.01763264509344, 0.01797310855392, 0.99977057773283, 0.01165157794741],
      "ImagePositionPatient": [-895.75628613825, -883.38992044347, -89.364408577366],
      "ImageType": [
        "ORIGINAL",
        "PRIMARY",
        "M",
        "MB",
        "ND",
        "NORM",
        "MOSAIC"
],
      "ImagedNucleus": "1H",
      "ImagingFrequency": 123.2522,
      "InPlanePhaseEncodingDirection": "COL",
      "MRAcquisitionType": "2D",
      "MagneticFieldStrength": 3.0,
      "Manufacturer": "SIEMENS",
      "ManufacturerModelName": "Prisma",
      "Modality": "MR",
      "NumberOfAverages": 1.0,
      "NumberOfPhaseEncodingSteps": 82,
      "PercentPhaseFieldOfView": 100.0,
      "PercentSampling": 100.0,
      "PerformedProcedureStepStartTime": "155909.629000",
      "PhotometricInterpretation": "MONOCHROME2",
      "PixelBandwidth": 3050.0,
      "PixelRepresentation": 0,
      "PixelSpacing": [2.6829268932343, 2.6829268932343],
      "ProtocolName": "func_run-05_task-social_acq-ap-mb8",
      "RepetitionTime": 460.0,
      "Rows": 656,
      "SAR": 0.08214188861129,
      "SamplesPerPixel": 1,
      "ScanOptions": "FS",
      "ScanningSequence": "EP",
      "SequenceName": "epfid2d1_82",
      "SequenceVariant": [
        "SK",
        "SS"
],
      "SeriesDescription": "func_run-05_task-social_acq-ap-mb8",
      "SeriesNumber": 16,
      "SeriesTime": "163715.197000",
      "SliceLocation": -63.354179252247,
      "SliceThickness": 2.7000000476837,
      "SmallestImagePixelValue": 0,
      "SoftwareVersions": "syngo MR E11",
      "SpacingBetweenSlices": 2.6999999330782,
      "SpecificCharacterSet": "ISO_IR 100",
      "StudyID": "1",
      "StudyTime": "155909.565000",
      "TransmitCoilName": "Body",
      "VariableFlipAngleFlag": "N",
      "WindowCenterWidthExplanation": "Algo1"
    },
    "slices": {}
  },
  "time": {
    "samples": {
      "AcquisitionNumber": [1, 2, 3, 4, 5, 6, 7, 8, 9, 10, 11, 12, 13, 14, 15, 16, 17, 18, 19, 20, 21, 22, 23, 24, 25, 26, 27, 28, 29, 30, 31, 32, 33, 34, 35, 36, 37, 38, 39, 40, 41, 42, 43, 44, 45, 46, 47, 48, 49, 50, 51, 52, 53, 54, 55, 56, 57, 58, 59, 60, 61, 62, 63, 64, 65, 66, 67, 68, 69, 70, 71, 72, 73, 74, 75, 76, 77, 78, 79, 80, 81, 82, 83, 84, 85, 86, 87, 88, 89, 90, 91, 92, 93, 94, 95, 96, 97, 98, 99, 100, 101, 102, 103, 104, 105, 106, 107, 108, 109, 110, 111, 112, 113, 114, 115, 116, 117, 118, 119, 120, 121, 122, 123, 124, 125, 126, 127, 128, 129, 130, 131, 132, 133, 134, 135, 136, 137, 138, 139, 140, 141, 142, 143, 144, 145, 146, 147, 148, 149, 150, 151, 152, 153, 154, 155, 156, 157, 158, 159, 160, 161, 162, 163, 164, 165, 166, 167, 168, 169, 170, 171, 172, 173, 174, 175, 176, 177, 178, 179, 180, 181, 182, 183, 184, 185, 186, 187, 188, 189, 190, 191, 192, 193, 194, 195, 196, 197, 198, 199, 200, 201, 202, 203, 204, 205, 206, 207, 208, 209, 210, 211, 212, 213, 214, 215, 216, 217, 218, 219, 220, 221, 222, 223, 224, 225, 226, 227, 228, 229, 230, 231, 232, 233, 234, 235, 236, 237, 238, 239, 240, 241, 242, 243, 244, 245, 246, 247, 248, 249, 250, 251, 252, 253, 254, 255, 256, 257, 258, 259, 260, 261, 262, 263, 264, 265, 266, 267, 268, 269, 270, 271, 272, 273, 274, 275, 276, 277, 278, 279, 280, 281, 282, 283, 284, 285, 286, 287, 288, 289, 290, 291, 292, 293, 294, 295, 296, 297, 298, 299, 300, 301, 302, 303, 304, 305, 306, 307, 308, 309, 310, 311, 312, 313, 314, 315, 316, 317, 318, 319, 320, 321, 322, 323, 324, 325, 326, 327, 328, 329, 330, 331, 332, 333, 334, 335, 336, 337, 338, 339, 340, 341, 342, 343, 344, 345, 346, 347, 348, 349, 350, 351, 352, 353, 354, 355, 356, 357, 358, 359, 360, 361, 362, 363, 364, 365, 366, 367, 368, 369, 370, 371, 372, 373, 374, 375, 376, 377, 378, 379, 380, 381, 382, 383, 384, 385, 386, 387, 388, 389, 390, 391, 392, 393, 394, 395, 396, 397, 398, 399, 400, 401, 402, 403, 404, 405, 406, 407, 408, 409, 410, 411, 412, 413, 414, 415, 416, 417, 418, 419, 420, 421, 422, 423, 424, 425, 426, 427, 428, 429, 430, 431, 432, 433, 434, 435, 436, 437, 438, 439, 440, 441, 442, 443, 444, 445, 446, 447, 448, 449, 450, 451, 452, 453, 454, 455, 456, 457, 458, 459, 460, 461, 462, 463, 464, 465, 466, 467, 468, 469, 470, 471, 472, 473, 474, 475, 476, 477, 478, 479, 480, 481, 482, 483, 484, 485, 486, 487, 488, 489, 490, 491, 492, 493, 494, 495, 496, 497, 498, 499, 500, 501, 502, 503, 504, 505, 506, 507, 508, 509, 510, 511, 512, 513, 514, 515, 516, 517, 518, 519, 520, 521, 522, 523, 524, 525, 526, 527, 528, 529, 530, 531, 532, 533, 534, 535, 536, 537, 538, 539, 540, 541, 542, 543, 544, 545, 546, 547, 548, 549, 550, 551, 552, 553, 554, 555, 556, 557, 558, 559, 560, 561, 562, 563, 564, 565, 566, 567, 568, 569, 570, 571, 572, 573, 574, 575, 576, 577, 578, 579, 580, 581, 582, 583, 584, 585, 586, 587, 588, 589, 590, 591, 592, 593, 594, 595, 596, 597, 598, 599, 600, 601, 602, 603, 604, 605, 606, 607, 608, 609, 610, 611, 612, 613, 614, 615, 616, 617, 618, 619, 620, 621, 622, 623, 624, 625, 626, 627, 628, 629, 630, 631, 632, 633, 634, 635, 636, 637, 638, 639, 640, 641, 642, 643, 644, 645, 646, 647, 648, 649, 650, 651, 652, 653, 654, 655, 656, 657, 658, 659, 660, 661, 662, 663, 664, 665, 666, 667, 668, 669, 670, 671, 672, 673, 674, 675, 676, 677, 678, 679, 680, 681, 682, 683, 684, 685, 686, 687, 688, 689, 690, 691, 692, 693, 694, 695, 696, 697, 698, 699, 700, 701, 702, 703, 704, 705, 706, 707, 708, 709, 710, 711, 712, 713, 714, 715, 716, 717, 718, 719, 720, 721, 722, 723, 724, 725, 726, 727, 728, 729, 730, 731, 732, 733, 734, 735, 736, 737, 738, 739, 740, 741, 742, 743, 744, 745, 746, 747, 748, 749, 750, 751, 752, 753, 754, 755, 756, 757, 758, 759, 760, 761, 762, 763, 764, 765, 766, 767, 768, 769, 770, 771, 772, 773, 774, 775, 776, 777, 778, 779, 780, 781, 782, 783, 784, 785, 786, 787, 788, 789, 790, 791, 792, 793, 794, 795, 796, 797, 798, 799, 800, 801, 802, 803, 804, 805, 806, 807, 808, 809, 810, 811, 812, 813, 814, 815, 816, 817, 818, 819, 820, 821, 822, 823, 824, 825, 826, 827, 828, 829, 830, 831, 832, 833, 834, 835, 836, 837, 838, 839, 840, 841, 842, 843, 844, 845, 846, 847, 848, 849, 850, 851, 852, 853, 854, 855, 856, 857, 858, 859, 860, 861, 862, 863, 864, 865, 866, 867, 868, 869, 870, 871, 872],
      "AcquisitionTime": ["163652.672500", "163653.132500", "163653.592500", "163654.052500", "163654.512500", "163654.972500", "163655.432500", "163655.892500", "163656.352500", "163656.812500", "163657.272500", "163657.732500", "163658.192500", "163658.652500", "163659.112500", "163659.572500", "163700.032500", "163700.492500", "163700.952500", "163701.412500", "163701.872500", "163702.332500", "163702.792500", "163703.252500", "163703.712500", "163704.172500", "163704.632500", "163705.092500", "163705.552500", "163706.012500", "163706.472500", "163706.932500", "163707.392500", "163707.852500", "163708.312500", "163708.772500", "163709.232500", "163709.692500", "163710.152500", "163710.612500", "163711.072500", "163711.532500", "163711.992500", "163712.452500", "163712.912500", "163713.372500", "163713.832500", "163714.292500", "163714.752500", "163715.212500", "163715.672500", "163716.132500", "163716.592500", "163717.052500", "163717.512500", "163717.972500", "163718.432500", "163718.892500", "163719.352500", "163719.812500", "163720.272500", "163720.732500", "163721.192500", "163721.652500", "163722.112500", "163722.572500", "163723.032500", "163723.492500", "163723.952500", "163724.412500", "163724.872500", "163725.332500", "163725.792500", "163726.252500", "163726.712500", "163727.172500", "163727.632500", "163728.092500", "163728.552500", "163729.012500", "163729.472500", "163729.932500", "163730.392500", "163730.852500", "163731.312500", "163731.772500", "163732.232500", "163732.692500", "163733.152500", "163733.612500", "163734.072500", "163734.532500", "163734.992500", "163735.452500", "163735.912500", "163736.372500", "163736.832500", "163737.292500", "163737.752500", "163738.212500", "163738.672500", "163739.132500", "163739.592500", "163740.052500", "163740.512500", "163740.972500", "163741.432500", "163741.892500", "163742.352500", "163742.812500", "163743.272500", "163743.732500", "163744.192500", "163744.652500", "163745.112500", "163745.572500", "163746.032500", "163746.492500", "163746.952500", "163747.412500", "163747.872500", "163748.332500", "163748.792500", "163749.252500", "163749.712500", "163750.172500", "163750.632500", "163751.092500", "163751.552500", "163752.012500", "163752.472500", "163752.932500", "163753.392500", "163753.852500", "163754.312500", "163754.772500", "163755.232500", "163755.692500", "163756.152500", "163756.612500", "163757.072500", "163757.532500", "163757.992500", "163758.452500", "163758.912500", "163759.372500", "163759.832500", "163800.292500", "163800.752500", "163801.212500", "163801.672500", "163802.132500", "163802.592500", "163803.052500", "163803.512500", "163803.972500", "163804.432500", "163804.892500", "163805.352500", "163805.812500", "163806.272500", "163806.732500", "163807.192500", "163807.652500", "163808.112500", "163808.572500", "163809.032500", "163809.492500", "163809.952500", "163810.412500", "163810.872500", "163811.332500", "163811.792500", "163812.252500", "163812.712500", "163813.172500", "163813.632500", "163814.092500", "163814.552500", "163815.012500", "163815.472500", "163815.932500", "163816.392500", "163816.852500", "163817.312500", "163817.772500", "163818.232500", "163818.692500", "163819.152500", "163819.612500", "163820.072500", "163820.532500", "163820.992500", "163821.452500", "163821.912500", "163822.372500", "163822.832500", "163823.292500", "163823.752500", "163824.212500", "163824.672500", "163825.132500", "163825.592500", "163826.052500", "163826.512500", "163826.972500", "163827.432500", "163827.892500", "163828.352500", "163828.812500", "163829.272500", "163829.732500", "163830.192500", "163830.652500", "163831.112500", "163831.572500", "163832.032500", "163832.492500", "163832.952500", "163833.412500", "163833.872500", "163834.332500", "163834.792500", "163835.252500", "163835.712500", "163836.172500", "163836.632500", "163837.092500", "163837.552500", "163838.012500", "163838.472500", "163838.932500", "163839.392500", "163839.852500", "163840.312500", "163840.772500", "163841.232500", "163841.692500", "163842.152500", "163842.612500", "163843.072500", "163843.532500", "163843.992500", "163844.452500", "163844.912500", "163845.372500", "163845.832500", "163846.292500", "163846.752500", "163847.212500", "163847.672500", "163848.132500", "163848.592500", "163849.052500", "163849.512500", "163849.972500", "163850.432500", "163850.892500", "163851.352500", "163851.812500", "163852.272500", "163852.732500", "163853.192500", "163853.652500", "163854.112500", "163854.572500", "163855.032500", "163855.492500", "163855.952500", "163856.412500", "163856.872500", "163857.332500", "163857.792500", "163858.252500", "163858.712500", "163859.172500", "163859.632500", "163900.092500", "163900.552500", "163901.012500", "163901.472500", "163901.932500", "163902.392500", "163902.852500", "163903.312500", "163903.772500", "163904.232500", "163904.692500", "163905.152500", "163905.612500", "163906.072500", "163906.532500", "163906.992500", "163907.452500", "163907.912500", "163908.372500", "163908.832500", "163909.292500", "163909.752500", "163910.212500", "163910.672500", "163911.132500", "163911.592500", "163912.052500", "163912.512500", "163912.972500", "163913.432500", "163913.892500", "163914.352500", "163914.812500", "163915.272500", "163915.732500", "163916.192500", "163916.652500", "163917.112500", "163917.572500", "163918.032500", "163918.492500", "163918.952500", "163919.412500", "163919.872500", "163920.332500", "163920.792500", "163921.252500", "163921.712500", "163922.172500", "163922.632500", "163923.092500", "163923.552500", "163924.012500", "163924.472500", "163924.932500", "163925.392500", "163925.852500", "163926.312500", "163926.772500", "163927.232500", "163927.692500", "163928.152500", "163928.612500", "163929.072500", "163929.532500", "163929.992500", "163930.452500", "163930.912500", "163931.372500", "163931.832500", "163932.292500", "163932.752500", "163933.212500", "163933.672500", "163934.132500", "163934.592500", "163935.052500", "163935.512500", "163935.972500", "163936.432500", "163936.892500", "163937.352500", "163937.812500", "163938.272500", "163938.732500", "163939.192500", "163939.652500", "163940.112500", "163940.572500", "163941.032500", "163941.492500", "163941.952500", "163942.412500", "163942.872500", "163943.332500", "163943.792500", "163944.252500", "163944.712500", "163945.172500", "163945.632500", "163946.092500", "163946.552500", "163947.012500", "163947.472500", "163947.932500", "163948.392500", "163948.852500", "163949.312500", "163949.772500", "163950.232500", "163950.692500", "163951.152500", "163951.612500", "163952.072500", "163952.532500", "163952.992500", "163953.452500", "163953.912500", "163954.372500", "163954.832500", "163955.292500", "163955.752500", "163956.212500", "163956.672500", "163957.132500", "163957.592500", "163958.052500", "163958.512500", "163958.972500", "163959.432500", "163959.892500", "164000.352500", "164000.812500", "164001.272500", "164001.732500", "164002.192500", "164002.652500", "164003.112500", "164003.572500", "164004.032500", "164004.492500", "164004.952500", "164005.412500", "164005.872500", "164006.332500", "164006.792500", "164007.252500", "164007.712500", "164008.172500", "164008.632500", "164009.092500", "164009.552500", "164010.012500", "164010.472500", "164010.932500", "164011.392500", "164011.852500", "164012.312500", "164012.772500", "164013.232500", "164013.692500", "164014.152500", "164014.612500", "164015.072500", "164015.532500", "164015.992500", "164016.452500", "164016.912500", "164017.372500", "164017.832500", "164018.292500", "164018.752500", "164019.212500", "164019.672500", "164020.132500", "164020.592500", "164021.052500", "164021.512500", "164021.972500", "164022.432500", "164022.892500", "164023.352500", "164023.812500", "164024.272500", "164024.732500", "164025.192500", "164025.652500", "164026.112500", "164026.572500", "164027.032500", "164027.492500", "164027.952500", "164028.412500", "164028.872500", "164029.332500", "164029.792500", "164030.252500", "164030.712500", "164031.172500", "164031.632500", "164032.092500", "164032.552500", "164033.012500", "164033.472500", "164033.932500", "164034.392500", "164034.852500", "164035.312500", "164035.772500", "164036.232500", "164036.692500", "164037.152500", "164037.612500", "164038.072500", "164038.532500", "164038.992500", "164039.452500", "164039.912500", "164040.372500", "164040.832500", "164041.292500", "164041.752500", "164042.212500", "164042.672500", "164043.132500", "164043.592500", "164044.052500", "164044.512500", "164044.972500", "164045.432500", "164045.892500", "164046.352500", "164046.812500", "164047.272500", "164047.732500", "164048.192500", "164048.652500", "164049.112500", "164049.572500", "164050.032500", "164050.492500", "164050.952500", "164051.412500", "164051.872500", "164052.332500", "164052.792500", "164053.252500", "164053.712500", "164054.172500", "164054.632500", "164055.092500", "164055.552500", "164056.012500", "164056.472500", "164056.932500", "164057.392500", "164057.852500", "164058.312500", "164058.772500", "164059.232500", "164059.692500", "164100.152500", "164100.612500", "164101.072500", "164101.532500", "164101.992500", "164102.452500", "164102.912500", "164103.372500", "164103.832500", "164104.292500", "164104.752500", "164105.212500", "164105.672500", "164106.132500", "164106.592500", "164107.052500", "164107.512500", "164107.972500", "164108.432500", "164108.892500", "164109.352500", "164109.812500", "164110.272500", "164110.732500", "164111.192500", "164111.652500", "164112.112500", "164112.572500", "164113.032500", "164113.492500", "164113.952500", "164114.412500", "164114.872500", "164115.332500", "164115.792500", "164116.252500", "164116.712500", "164117.172500", "164117.632500", "164118.092500", "164118.552500", "164119.012500", "164119.472500", "164119.932500", "164120.392500", "164120.852500", "164121.312500", "164121.772500", "164122.232500", "164122.692500", "164123.152500", "164123.612500", "164124.072500", "164124.532500", "164124.992500", "164125.452500", "164125.912500", "164126.372500", "164126.832500", "164127.292500", "164127.752500", "164128.212500", "164128.672500", "164129.132500", "164129.592500", "164130.052500", "164130.512500", "164130.972500", "164131.432500", "164131.892500", "164132.352500", "164132.812500", "164133.272500", "164133.732500", "164134.192500", "164134.652500", "164135.112500", "164135.572500", "164136.032500", "164136.492500", "164136.952500", "164137.412500", "164137.872500", "164138.332500", "164138.792500", "164139.252500", "164139.712500", "164140.172500", "164140.632500", "164141.092500", "164141.552500", "164142.012500", "164142.472500", "164142.932500", "164143.392500", "164143.852500", "164144.312500", "164144.772500", "164145.232500", "164145.692500", "164146.152500", "164146.612500", "164147.072500", "164147.532500", "164147.992500", "164148.452500", "164148.912500", "164149.372500", "164149.832500", "164150.292500", "164150.752500", "164151.212500", "164151.672500", "164152.132500", "164152.592500", "164153.052500", "164153.512500", "164153.972500", "164154.432500", "164154.892500", "164155.352500", "164155.812500", "164156.272500", "164156.732500", "164157.192500", "164157.652500", "164158.112500", "164158.572500", "164159.032500", "164159.492500", "164159.952500", "164200.412500", "164200.872500", "164201.332500", "164201.792500", "164202.252500", "164202.712500", "164203.172500", "164203.632500", "164204.092500", "164204.552500", "164205.012500", "164205.472500", "164205.932500", "164206.392500", "164206.852500", "164207.312500", "164207.772500", "164208.232500", "164208.692500", "164209.152500", "164209.612500", "164210.072500", "164210.532500", "164210.992500", "164211.452500", "164211.912500", "164212.372500", "164212.832500", "164213.292500", "164213.752500", "164214.212500", "164214.672500", "164215.132500", "164215.592500", "164216.052500", "164216.512500", "164216.972500", "164217.432500", "164217.892500", "164218.352500", "164218.812500", "164219.272500", "164219.732500", "164220.192500", "164220.652500", "164221.112500", "164221.572500", "164222.032500", "164222.492500", "164222.952500", "164223.412500", "164223.872500", "164224.332500", "164224.792500", "164225.252500", "164225.712500", "164226.172500", "164226.632500", "164227.092500", "164227.552500", "164228.012500", "164228.472500", "164228.932500", "164229.392500", "164229.852500", "164230.312500", "164230.772500", "164231.232500", "164231.692500", "164232.152500", "164232.612500", "164233.072500", "164233.532500", "164233.992500", "164234.452500", "164234.912500", "164235.372500", "164235.832500", "164236.292500", "164236.752500", "164237.212500", "164237.672500", "164238.132500", "164238.592500", "164239.052500", "164239.512500", "164239.972500", "164240.432500", "164240.892500", "164241.352500", "164241.812500", "164242.272500", "164242.732500", "164243.192500", "164243.652500", "164244.112500", "164244.572500", "164245.032500", "164245.492500", "164245.952500", "164246.412500", "164246.872500", "164247.332500", "164247.792500", "164248.252500", "164248.712500", "164249.172500", "164249.632500", "164250.092500", "164250.552500", "164251.012500", "164251.472500", "164251.932500", "164252.392500", "164252.852500", "164253.312500", "164253.772500", "164254.232500", "164254.692500", "164255.152500", "164255.612500", "164256.072500", "164256.532500", "164256.992500", "164257.452500", "164257.912500", "164258.372500", "164258.832500", "164259.292500", "164259.752500", "164300.212500", "164300.672500", "164301.132500", "164301.592500", "164302.052500", "164302.512500", "164302.972500", "164303.432500", "164303.892500", "164304.352500", "164304.812500", "164305.272500", "164305.732500", "164306.192500", "164306.652500", "164307.112500", "164307.572500", "164308.032500", "164308.492500", "164308.952500", "164309.412500", "164309.872500", "164310.332500", "164310.792500", "164311.252500", "164311.712500", "164312.172500", "164312.632500", "164313.092500", "164313.552500", "164314.012500", "164314.472500", "164314.932500", "164315.392500", "164315.852500", "164316.312500", "164316.772500", "164317.232500", "164317.692500", "164318.152500", "164318.612500", "164319.072500", "164319.532500", "164319.992500", "164320.452500", "164320.912500", "164321.372500", "164321.832500", "164322.292500", "164322.752500", "164323.212500", "164323.672500", "164324.132500", "164324.592500", "164325.052500", "164325.512500", "164325.972500", "164326.432500", "164326.892500", "164327.352500", "164327.812500", "164328.272500", "164328.732500", "164329.192500", "164329.652500", "164330.112500", "164330.572500", "164331.032500", "164331.492500", "164331.952500", "164332.412500", "164332.872500", "164333.332500"],
