{
  "AcquisitionMatrixPE": 82,
  "AcquisitionNumber": 1,
  "AcquisitionTime": "16:28:52.660000",
  "BandwidthPerPixelPhaseEncode": 24.888,
  "BaseResolution": 82,
  "BodyPartExamined": "BRAIN",
  "ConsistencyInfo": "N4_VE11E_LATEST_20181129",
  "ConversionSoftware": "dcm2niix",
  "ConversionSoftwareVersion": "v1.0.20201102",
  "DerivedVendorReportedEchoSpacing": 0.00049,
  "DeviceSerialNumber": "66112",
  "DwellTime": 2e-06,
  "EchoTime": 0.0272,
  "EchoTrainLength": 82,
  "EffectiveEchoSpacing": 0.00049,
  "FlipAngle": 44,
  "ImageComments": "Unaliased MB8/PE3",
  "ImageOrientationPatientDICOM": [0.999679, -0.018177, 0.0176326, 0.0179731, 0.999771, 0.0116516],
  "ImageType": [
    "ORIGINAL",
    "PRIMARY",
    "M",
    "MB",
    "ND",
    "NORM",
    "MOSAIC"
],
  "ImagingFrequency": 123.252,
  "InPlanePhaseEncodingDirectionDICOM": "COL",
  "InstitutionAddress": "Maynard 3,Hanover,NH,US,03755",
  "InstitutionName": "Dartmouth College - PBS",
  "InstitutionalDepartmentName": "Department",
  "MRAcquisitionType": "2D",
  "MagneticFieldStrength": 3,
  "Manufacturer": "Siemens",
  "ManufacturersModelName": "Prisma",
  "Modality": "MR",
  "MultibandAccelerationFactor": 8,
  "PartialFourier": 1,
  "PatientPosition": "HFS",
  "PercentPhaseFOV": 100,
  "PercentSampling": 100,
  "PhaseEncodingDirection": "j-",
  "PhaseEncodingSteps": 82,
  "PhaseResolution": 1,
  "PixelBandwidth": 3050,
  "ProcedureStepDescription": "Wager_Wager^1076_spacetop",
  "ProtocolName": "func_run-02_task-social_acq-ap-mb8",
  "PulseSequenceDetails": "%CustomerSeq%\\cmrr_mbep2d_bold",
  "ReceiveCoilActiveElements": "HEA;HEP",
  "ReceiveCoilName": "Head_32",
  "ReconMatrixPE": 82,
  "RepetitionTime": 0.46,
  "SAR": 0.0821419,
  "ScanOptions": "FS",
  "ScanningSequence": "EP",
  "SequenceName": "epfid2d1_82",
  "SequenceVariant": "SK\\SS",
  "SeriesDescription": "func_run-02_task-social_acq-ap-mb8",
  "SeriesNumber": 14,
  "ShimSetting": [4163, -7723, -7241, 703, -47, -90, -63, 23],
  "SliceThickness": 2.7,
  "SliceTiming": [0, 0.2525, 0.0625, 0.315, 0.125, 0.3775, 0.1875, 0, 0.2525, 0.0625, 0.315, 0.125, 0.3775, 0.1875, 0, 0.2525, 0.0625, 0.315, 0.125, 0.3775, 0.1875, 0, 0.2525, 0.0625, 0.315, 0.125, 0.3775, 0.1875, 0, 0.2525, 0.0625, 0.315, 0.125, 0.3775, 0.1875, 0, 0.2525, 0.0625, 0.315, 0.125, 0.3775, 0.1875, 0, 0.2525, 0.0625, 0.315, 0.125, 0.3775, 0.1875, 0, 0.2525, 0.0625, 0.315, 0.125, 0.3775, 0.1875],
  "SoftwareVersions": "syngo MR E11",
  "SpacingBetweenSlices": 2.7,
  "StationName": "AWP66112",
  "TaskName": "social",
  "TotalReadoutTime": 0.03969,
  "TxRefAmp": 232.593,
  "WipMemBlock": "a58e25d9-eaaf-48f1-8530-4e979fc50261||Sequence: R016 ve11e/master r/434b28f1; Aug  7 2019 18:53:46 by eja",
  "dcmmeta_affine": [
    [-2.6820664405822754, 0.04822053760290146, 0.04816905036568642, 108.258056640625],
    [0.048767462372779846, 2.6823112964630127, 0.030593503266572952, -89.70439910888672],
    [0.0473070964217186, -0.031260330229997635, 2.699396848678589, -64.2834701538086],
    [0.0, 0.0, 0.0, 1.0]
],
  "dcmmeta_reorient_transform": [
    [0.0, -1.0, 0.0, 81.0],
    [1.0, 0.0, 0.0, 0.0],
    [0.0, 0.0, 1.0, 0.0],
    [0.0, 0.0, 0.0, 1.0]
],
  "dcmmeta_shape": [82, 82, 56, 872],
  "dcmmeta_slice_dim": 2,
  "dcmmeta_version": 0.6,
  "global": {
    "const": {
      "AccessionNumber": "A004017",
      "AcquisitionMatrix": [82, 0, 0, 82],
      "AngioFlag": "N",
      "BitsAllocated": 16,
      "BitsStored": 16,
      "BodyPartExamined": "BRAIN",
      "Columns": 656,
      "EchoNumbers": 1,
      "EchoTime": 27.2,
      "EchoTrainLength": 82,
      "FlipAngle": 44.0,
      "HighBit": 15,
      "ImageOrientationPatient": [0.99967929249887, -0.0181769627819, 0.01763264509344, 0.01797310855392, 0.99977057773283, 0.01165157794741],
      "ImagePositionPatient": [-895.75628613825, -883.38992044347, -89.364408577366],
      "ImageType": [
        "ORIGINAL",
        "PRIMARY",
        "M",
        "MB",
        "ND",
        "NORM",
        "MOSAIC"
],
      "ImagedNucleus": "1H",
      "ImagingFrequency": 123.2522,
      "InPlanePhaseEncodingDirection": "COL",
      "MRAcquisitionType": "2D",
      "MagneticFieldStrength": 3.0,
      "Manufacturer": "SIEMENS",
      "ManufacturerModelName": "Prisma",
      "Modality": "MR",
      "NumberOfAverages": 1.0,
      "NumberOfPhaseEncodingSteps": 82,
      "PercentPhaseFieldOfView": 100.0,
      "PercentSampling": 100.0,
      "PerformedProcedureStepStartTime": "155909.629000",
      "PhotometricInterpretation": "MONOCHROME2",
      "PixelBandwidth": 3050.0,
      "PixelRepresentation": 0,
      "PixelSpacing": [2.6829268932343, 2.6829268932343],
      "ProtocolName": "func_run-02_task-social_acq-ap-mb8",
      "RepetitionTime": 460.0,
      "Rows": 656,
      "SAR": 0.08214188861129,
      "SamplesPerPixel": 1,
      "ScanOptions": "FS",
      "ScanningSequence": "EP",
      "SequenceName": "epfid2d1_82",
      "SequenceVariant": [
        "SK",
        "SS"
],
      "SeriesDescription": "func_run-02_task-social_acq-ap-mb8",
      "SeriesNumber": 14,
      "SeriesTime": "162915.370000",
      "SliceLocation": -63.354179252247,
      "SliceThickness": 2.7000000476837,
      "SmallestImagePixelValue": 0,
      "SoftwareVersions": "syngo MR E11",
      "SpacingBetweenSlices": 2.6999999330782,
      "SpecificCharacterSet": "ISO_IR 100",
      "StudyID": "1",
      "StudyTime": "155909.565000",
      "TransmitCoilName": "Body",
      "VariableFlipAngleFlag": "N",
      "WindowCenterWidthExplanation": "Algo1"
    },
    "slices": {}
  },
  "time": {
    "samples": {
      "AcquisitionNumber": [1, 2, 3, 4, 5, 6, 7, 8, 9, 10, 11, 12, 13, 14, 15, 16, 17, 18, 19, 20, 21, 22, 23, 24, 25, 26, 27, 28, 29, 30, 31, 32, 33, 34, 35, 36, 37, 38, 39, 40, 41, 42, 43, 44, 45, 46, 47, 48, 49, 50, 51, 52, 53, 54, 55, 56, 57, 58, 59, 60, 61, 62, 63, 64, 65, 66, 67, 68, 69, 70, 71, 72, 73, 74, 75, 76, 77, 78, 79, 80, 81, 82, 83, 84, 85, 86, 87, 88, 89, 90, 91, 92, 93, 94, 95, 96, 97, 98, 99, 100, 101, 102, 103, 104, 105, 106, 107, 108, 109, 110, 111, 112, 113, 114, 115, 116, 117, 118, 119, 120, 121, 122, 123, 124, 125, 126, 127, 128, 129, 130, 131, 132, 133, 134, 135, 136, 137, 138, 139, 140, 141, 142, 143, 144, 145, 146, 147, 148, 149, 150, 151, 152, 153, 154, 155, 156, 157, 158, 159, 160, 161, 162, 163, 164, 165, 166, 167, 168, 169, 170, 171, 172, 173, 174, 175, 176, 177, 178, 179, 180, 181, 182, 183, 184, 185, 186, 187, 188, 189, 190, 191, 192, 193, 194, 195, 196, 197, 198, 199, 200, 201, 202, 203, 204, 205, 206, 207, 208, 209, 210, 211, 212, 213, 214, 215, 216, 217, 218, 219, 220, 221, 222, 223, 224, 225, 226, 227, 228, 229, 230, 231, 232, 233, 234, 235, 236, 237, 238, 239, 240, 241, 242, 243, 244, 245, 246, 247, 248, 249, 250, 251, 252, 253, 254, 255, 256, 257, 258, 259, 260, 261, 262, 263, 264, 265, 266, 267, 268, 269, 270, 271, 272, 273, 274, 275, 276, 277, 278, 279, 280, 281, 282, 283, 284, 285, 286, 287, 288, 289, 290, 291, 292, 293, 294, 295, 296, 297, 298, 299, 300, 301, 302, 303, 304, 305, 306, 307, 308, 309, 310, 311, 312, 313, 314, 315, 316, 317, 318, 319, 320, 321, 322, 323, 324, 325, 326, 327, 328, 329, 330, 331, 332, 333, 334, 335, 336, 337, 338, 339, 340, 341, 342, 343, 344, 345, 346, 347, 348, 349, 350, 351, 352, 353, 354, 355, 356, 357, 358, 359, 360, 361, 362, 363, 364, 365, 366, 367, 368, 369, 370, 371, 372, 373, 374, 375, 376, 377, 378, 379, 380, 381, 382, 383, 384, 385, 386, 387, 388, 389, 390, 391, 392, 393, 394, 395, 396, 397, 398, 399, 400, 401, 402, 403, 404, 405, 406, 407, 408, 409, 410, 411, 412, 413, 414, 415, 416, 417, 418, 419, 420, 421, 422, 423, 424, 425, 426, 427, 428, 429, 430, 431, 432, 433, 434, 435, 436, 437, 438, 439, 440, 441, 442, 443, 444, 445, 446, 447, 448, 449, 450, 451, 452, 453, 454, 455, 456, 457, 458, 459, 460, 461, 462, 463, 464, 465, 466, 467, 468, 469, 470, 471, 472, 473, 474, 475, 476, 477, 478, 479, 480, 481, 482, 483, 484, 485, 486, 487, 488, 489, 490, 491, 492, 493, 494, 495, 496, 497, 498, 499, 500, 501, 502, 503, 504, 505, 506, 507, 508, 509, 510, 511, 512, 513, 514, 515, 516, 517, 518, 519, 520, 521, 522, 523, 524, 525, 526, 527, 528, 529, 530, 531, 532, 533, 534, 535, 536, 537, 538, 539, 540, 541, 542, 543, 544, 545, 546, 547, 548, 549, 550, 551, 552, 553, 554, 555, 556, 557, 558, 559, 560, 561, 562, 563, 564, 565, 566, 567, 568, 569, 570, 571, 572, 573, 574, 575, 576, 577, 578, 579, 580, 581, 582, 583, 584, 585, 586, 587, 588, 589, 590, 591, 592, 593, 594, 595, 596, 597, 598, 599, 600, 601, 602, 603, 604, 605, 606, 607, 608, 609, 610, 611, 612, 613, 614, 615, 616, 617, 618, 619, 620, 621, 622, 623, 624, 625, 626, 627, 628, 629, 630, 631, 632, 633, 634, 635, 636, 637, 638, 639, 640, 641, 642, 643, 644, 645, 646, 647, 648, 649, 650, 651, 652, 653, 654, 655, 656, 657, 658, 659, 660, 661, 662, 663, 664, 665, 666, 667, 668, 669, 670, 671, 672, 673, 674, 675, 676, 677, 678, 679, 680, 681, 682, 683, 684, 685, 686, 687, 688, 689, 690, 691, 692, 693, 694, 695, 696, 697, 698, 699, 700, 701, 702, 703, 704, 705, 706, 707, 708, 709, 710, 711, 712, 713, 714, 715, 716, 717, 718, 719, 720, 721, 722, 723, 724, 725, 726, 727, 728, 729, 730, 731, 732, 733, 734, 735, 736, 737, 738, 739, 740, 741, 742, 743, 744, 745, 746, 747, 748, 749, 750, 751, 752, 753, 754, 755, 756, 757, 758, 759, 760, 761, 762, 763, 764, 765, 766, 767, 768, 769, 770, 771, 772, 773, 774, 775, 776, 777, 778, 779, 780, 781, 782, 783, 784, 785, 786, 787, 788, 789, 790, 791, 792, 793, 794, 795, 796, 797, 798, 799, 800, 801, 802, 803, 804, 805, 806, 807, 808, 809, 810, 811, 812, 813, 814, 815, 816, 817, 818, 819, 820, 821, 822, 823, 824, 825, 826, 827, 828, 829, 830, 831, 832, 833, 834, 835, 836, 837, 838, 839, 840, 841, 842, 843, 844, 845, 846, 847, 848, 849, 850, 851, 852, 853, 854, 855, 856, 857, 858, 859, 860, 861, 862, 863, 864, 865, 866, 867, 868, 869, 870, 871, 872],
      "AcquisitionTime": ["162852.660000", "162853.120000", "162853.580000", "162854.040000", "162854.500000", "162854.960000", "162855.420000", "162855.880000", "162856.340000", "162856.800000", "162857.260000", "162857.720000", "162858.180000", "162858.640000", "162859.100000", "162859.560000", "162900.020000", "162900.480000", "162900.940000", "162901.400000", "162901.860000", "162902.320000", "162902.780000", "162903.240000", "162903.700000", "162904.160000", "162904.620000", "162905.080000", "162905.540000", "162906.000000", "162906.460000", "162906.920000", "162907.380000", "162907.840000", "162908.300000", "162908.760000", "162909.220000", "162909.680000", "162910.140000", "162910.600000", "162911.060000", "162911.520000", "162911.980000", "162912.440000", "162912.900000", "162913.360000", "162913.820000", "162914.280000", "162914.740000", "162915.200000", "162915.660000", "162916.120000", "162916.580000", "162917.040000", "162917.500000", "162917.960000", "162918.420000", "162918.880000", "162919.340000", "162919.800000", "162920.260000", "162920.720000", "162921.180000", "162921.640000", "162922.100000", "162922.560000", "162923.020000", "162923.480000", "162923.940000", "162924.400000", "162924.860000", "162925.320000", "162925.780000", "162926.240000", "162926.700000", "162927.160000", "162927.620000", "162928.080000", "162928.540000", "162929.000000", "162929.460000", "162929.920000", "162930.380000", "162930.840000", "162931.300000", "162931.760000", "162932.220000", "162932.680000", "162933.140000", "162933.600000", "162934.060000", "162934.520000", "162934.980000", "162935.440000", "162935.900000", "162936.360000", "162936.820000", "162937.280000", "162937.740000", "162938.200000", "162938.660000", "162939.120000", "162939.580000", "162940.040000", "162940.500000", "162940.960000", "162941.420000", "162941.880000", "162942.340000", "162942.800000", "162943.260000", "162943.720000", "162944.180000", "162944.640000", "162945.100000", "162945.560000", "162946.020000", "162946.480000", "162946.940000", "162947.400000", "162947.860000", "162948.320000", "162948.780000", "162949.240000", "162949.700000", "162950.160000", "162950.620000", "162951.080000", "162951.540000", "162952.000000", "162952.460000", "162952.920000", "162953.380000", "162953.840000", "162954.300000", "162954.760000", "162955.220000", "162955.680000", "162956.140000", "162956.600000", "162957.060000", "162957.520000", "162957.980000", "162958.440000", "162958.900000", "162959.360000", "162959.820000", "163000.280000", "163000.740000", "163001.200000", "163001.660000", "163002.120000", "163002.580000", "163003.040000", "163003.500000", "163003.960000", "163004.420000", "163004.880000", "163005.340000", "163005.800000", "163006.260000", "163006.720000", "163007.180000", "163007.640000", "163008.100000", "163008.560000", "163009.020000", "163009.480000", "163009.940000", "163010.400000", "163010.860000", "163011.320000", "163011.780000", "163012.240000", "163012.700000", "163013.160000", "163013.620000", "163014.080000", "163014.540000", "163015.000000", "163015.460000", "163015.920000", "163016.380000", "163016.840000", "163017.300000", "163017.760000", "163018.220000", "163018.680000", "163019.140000", "163019.600000", "163020.060000", "163020.520000", "163020.980000", "163021.440000", "163021.900000", "163022.360000", "163022.820000", "163023.280000", "163023.740000", "163024.200000", "163024.660000", "163025.120000", "163025.580000", "163026.040000", "163026.500000", "163026.960000", "163027.420000", "163027.880000", "163028.340000", "163028.800000", "163029.260000", "163029.720000", "163030.180000", "163030.640000", "163031.100000", "163031.560000", "163032.020000", "163032.480000", "163032.940000", "163033.400000", "163033.860000", "163034.320000", "163034.780000", "163035.240000", "163035.700000", "163036.160000", "163036.620000", "163037.080000", "163037.540000", "163038.000000", "163038.460000", "163038.920000", "163039.380000", "163039.840000", "163040.300000", "163040.760000", "163041.220000", "163041.680000", "163042.140000", "163042.600000", "163043.060000", "163043.520000", "163043.980000", "163044.440000", "163044.900000", "163045.360000", "163045.820000", "163046.280000", "163046.740000", "163047.200000", "163047.660000", "163048.120000", "163048.580000", "163049.040000", "163049.500000", "163049.960000", "163050.420000", "163050.880000", "163051.340000", "163051.800000", "163052.260000", "163052.720000", "163053.180000", "163053.640000", "163054.100000", "163054.560000", "163055.020000", "163055.480000", "163055.940000", "163056.400000", "163056.860000", "163057.320000", "163057.780000", "163058.240000", "163058.700000", "163059.160000", "163059.620000", "163100.080000", "163100.540000", "163101.000000", "163101.460000", "163101.920000", "163102.380000", "163102.840000", "163103.300000", "163103.760000", "163104.220000", "163104.680000", "163105.140000", "163105.600000", "163106.060000", "163106.520000", "163106.980000", "163107.440000", "163107.900000", "163108.360000", "163108.820000", "163109.280000", "163109.740000", "163110.200000", "163110.660000", "163111.120000", "163111.580000", "163112.040000", "163112.500000", "163112.960000", "163113.420000", "163113.880000", "163114.340000", "163114.800000", "163115.260000", "163115.720000", "163116.180000", "163116.640000", "163117.100000", "163117.560000", "163118.020000", "163118.480000", "163118.940000", "163119.400000", "163119.860000", "163120.320000", "163120.780000", "163121.240000", "163121.700000", "163122.160000", "163122.620000", "163123.080000", "163123.540000", "163124.000000", "163124.460000", "163124.920000", "163125.380000", "163125.840000", "163126.300000", "163126.760000", "163127.220000", "163127.680000", "163128.140000", "163128.600000", "163129.060000", "163129.520000", "163129.980000", "163130.440000", "163130.900000", "163131.360000", "163131.820000", "163132.280000", "163132.740000", "163133.200000", "163133.660000", "163134.120000", "163134.580000", "163135.040000", "163135.500000", "163135.960000", "163136.420000", "163136.880000", "163137.340000", "163137.800000", "163138.260000", "163138.720000", "163139.180000", "163139.640000", "163140.100000", "163140.560000", "163141.020000", "163141.480000", "163141.940000", "163142.400000", "163142.860000", "163143.320000", "163143.780000", "163144.240000", "163144.700000", "163145.160000", "163145.620000", "163146.080000", "163146.540000", "163147.000000", "163147.460000", "163147.920000", "163148.380000", "163148.840000", "163149.300000", "163149.760000", "163150.220000", "163150.680000", "163151.140000", "163151.600000", "163152.060000", "163152.520000", "163152.980000", "163153.440000", "163153.900000", "163154.360000", "163154.820000", "163155.280000", "163155.740000", "163156.200000", "163156.660000", "163157.120000", "163157.580000", "163158.040000", "163158.500000", "163158.960000", "163159.420000", "163159.880000", "163200.340000", "163200.800000", "163201.260000", "163201.720000", "163202.180000", "163202.640000", "163203.100000", "163203.560000", "163204.020000", "163204.480000", "163204.940000", "163205.400000", "163205.860000", "163206.320000", "163206.780000", "163207.240000", "163207.700000", "163208.160000", "163208.620000", "163209.080000", "163209.540000", "163210.000000", "163210.460000", "163210.920000", "163211.380000", "163211.840000", "163212.300000", "163212.760000", "163213.220000", "163213.680000", "163214.140000", "163214.600000", "163215.060000", "163215.520000", "163215.980000", "163216.440000", "163216.900000", "163217.360000", "163217.820000", "163218.280000", "163218.740000", "163219.200000", "163219.660000", "163220.120000", "163220.580000", "163221.040000", "163221.500000", "163221.960000", "163222.420000", "163222.880000", "163223.340000", "163223.800000", "163224.260000", "163224.720000", "163225.180000", "163225.640000", "163226.100000", "163226.560000", "163227.020000", "163227.480000", "163227.940000", "163228.400000", "163228.860000", "163229.320000", "163229.780000", "163230.240000", "163230.700000", "163231.160000", "163231.620000", "163232.080000", "163232.540000", "163233.000000", "163233.460000", "163233.920000", "163234.380000", "163234.840000", "163235.300000", "163235.760000", "163236.220000", "163236.680000", "163237.140000", "163237.600000", "163238.060000", "163238.520000", "163238.980000", "163239.440000", "163239.900000", "163240.360000", "163240.820000", "163241.280000", "163241.740000", "163242.200000", "163242.660000", "163243.120000", "163243.580000", "163244.040000", "163244.500000", "163244.960000", "163245.420000", "163245.880000", "163246.340000", "163246.800000", "163247.260000", "163247.720000", "163248.180000", "163248.640000", "163249.100000", "163249.560000", "163250.020000", "163250.480000", "163250.940000", "163251.400000", "163251.860000", "163252.320000", "163252.780000", "163253.240000", "163253.700000", "163254.160000", "163254.620000", "163255.080000", "163255.540000", "163256.000000", "163256.460000", "163256.920000", "163257.380000", "163257.840000", "163258.300000", "163258.760000", "163259.220000", "163259.680000", "163300.140000", "163300.600000", "163301.060000", "163301.520000", "163301.980000", "163302.440000", "163302.900000", "163303.360000", "163303.820000", "163304.280000", "163304.740000", "163305.200000", "163305.660000", "163306.120000", "163306.580000", "163307.040000", "163307.500000", "163307.960000", "163308.420000", "163308.880000", "163309.340000", "163309.800000", "163310.260000", "163310.720000", "163311.180000", "163311.640000", "163312.100000", "163312.560000", "163313.020000", "163313.480000", "163313.940000", "163314.400000", "163314.860000", "163315.320000", "163315.780000", "163316.240000", "163316.700000", "163317.160000", "163317.620000", "163318.080000", "163318.540000", "163319.000000", "163319.460000", "163319.920000", "163320.380000", "163320.840000", "163321.300000", "163321.760000", "163322.220000", "163322.680000", "163323.140000", "163323.600000", "163324.060000", "163324.520000", "163324.980000", "163325.440000", "163325.900000", "163326.360000", "163326.820000", "163327.280000", "163327.740000", "163328.200000", "163328.660000", "163329.120000", "163329.580000", "163330.040000", "163330.500000", "163330.960000", "163331.420000", "163331.880000", "163332.340000", "163332.800000", "163333.260000", "163333.720000", "163334.180000", "163334.640000", "163335.100000", "163335.560000", "163336.020000", "163336.480000", "163336.940000", "163337.400000", "163337.860000", "163338.320000", "163338.780000", "163339.240000", "163339.700000", "163340.160000", "163340.620000", "163341.080000", "163341.540000", "163342.000000", "163342.460000", "163342.920000", "163343.380000", "163343.840000", "163344.300000", "163344.760000", "163345.220000", "163345.680000", "163346.140000", "163346.600000", "163347.060000", "163347.520000", "163347.980000", "163348.440000", "163348.900000", "163349.360000", "163349.820000", "163350.280000", "163350.740000", "163351.200000", "163351.660000", "163352.120000", "163352.580000", "163353.040000", "163353.500000", "163353.960000", "163354.420000", "163354.880000", "163355.340000", "163355.800000", "163356.260000", "163356.720000", "163357.180000", "163357.640000", "163358.100000", "163358.560000", "163359.020000", "163359.480000", "163359.940000", "163400.400000", "163400.860000", "163401.320000", "163401.780000", "163402.240000", "163402.700000", "163403.160000", "163403.620000", "163404.080000", "163404.540000", "163405.000000", "163405.460000", "163405.920000", "163406.380000", "163406.840000", "163407.300000", "163407.760000", "163408.220000", "163408.680000", "163409.140000", "163409.600000", "163410.060000", "163410.520000", "163410.980000", "163411.440000", "163411.900000", "163412.360000", "163412.820000", "163413.280000", "163413.740000", "163414.200000", "163414.660000", "163415.120000", "163415.580000", "163416.040000", "163416.500000", "163416.960000", "163417.420000", "163417.880000", "163418.340000", "163418.800000", "163419.260000", "163419.720000", "163420.180000", "163420.640000", "163421.100000", "163421.560000", "163422.020000", "163422.480000", "163422.940000", "163423.400000", "163423.860000", "163424.320000", "163424.780000", "163425.240000", "163425.700000", "163426.160000", "163426.620000", "163427.080000", "163427.540000", "163428.000000", "163428.460000", "163428.920000", "163429.380000", "163429.840000", "163430.300000", "163430.760000", "163431.220000", "163431.680000", "163432.140000", "163432.600000", "163433.060000", "163433.520000", "163433.980000", "163434.440000", "163434.900000", "163435.360000", "163435.820000", "163436.280000", "163436.740000", "163437.200000", "163437.660000", "163438.120000", "163438.580000", "163439.040000", "163439.500000", "163439.960000", "163440.420000", "163440.880000", "163441.340000", "163441.800000", "163442.260000", "163442.720000", "163443.180000", "163443.640000", "163444.100000", "163444.560000", "163445.020000", "163445.480000", "163445.940000", "163446.400000", "163446.860000", "163447.320000", "163447.780000", "163448.240000", "163448.700000", "163449.160000", "163449.620000", "163450.080000", "163450.540000", "163451.000000", "163451.460000", "163451.920000", "163452.380000", "163452.840000", "163453.300000", "163453.760000", "163454.220000", "163454.680000", "163455.140000", "163455.600000", "163456.060000", "163456.520000", "163456.980000", "163457.440000", "163457.900000", "163458.360000", "163458.820000", "163459.280000", "163459.740000", "163500.200000", "163500.660000", "163501.120000", "163501.580000", "163502.040000", "163502.500000", "163502.960000", "163503.420000", "163503.880000", "163504.340000", "163504.800000", "163505.260000", "163505.720000", "163506.180000", "163506.640000", "163507.100000", "163507.560000", "163508.020000", "163508.480000", "163508.940000", "163509.400000", "163509.860000", "163510.320000", "163510.780000", "163511.240000", "163511.700000", "163512.160000", "163512.620000", "163513.080000", "163513.540000", "163514.000000", "163514.460000", "163514.920000", "163515.380000", "163515.840000", "163516.300000", "163516.760000", "163517.220000", "163517.680000", "163518.140000", "163518.600000", "163519.060000", "163519.520000", "163519.980000", "163520.440000", "163520.900000", "163521.360000", "163521.820000", "163522.280000", "163522.740000", "163523.200000", "163523.660000", "163524.120000", "163524.580000", "163525.040000", "163525.500000", "163525.960000", "163526.420000", "163526.880000", "163527.340000", "163527.800000", "163528.260000", "163528.720000", "163529.180000", "163529.640000", "163530.100000", "163530.560000", "163531.020000", "163531.480000", "163531.940000", "163532.400000", "163532.860000", "163533.320000"],
