{
  "AcquisitionMatrixPE": 82,
  "AcquisitionNumber": 1,
  "AcquisitionTime": "16:21:44.967500",
  "BandwidthPerPixelPhaseEncode": 24.888,
  "BaseResolution": 82,
  "BodyPartExamined": "BRAIN",
  "ConsistencyInfo": "N4_VE11E_LATEST_20181129",
  "ConversionSoftware": "dcm2niix",
  "ConversionSoftwareVersion": "v1.0.20201102",
  "DerivedVendorReportedEchoSpacing": 0.00049,
  "DeviceSerialNumber": "66112",
  "DwellTime": 2e-06,
  "EchoTime": 0.0272,
  "EchoTrainLength": 82,
  "EffectiveEchoSpacing": 0.00049,
  "FlipAngle": 44,
  "ImageComments": "Unaliased MB8/PE3",
  "ImageOrientationPatientDICOM": [0.999679, -0.018177, 0.0176326, 0.0179731, 0.999771, 0.0116516],
  "ImageType": [
    "ORIGINAL",
    "PRIMARY",
    "M",
    "MB",
    "ND",
    "NORM",
    "MOSAIC"
],
  "ImagingFrequency": 123.252,
  "InPlanePhaseEncodingDirectionDICOM": "COL",
  "InstitutionAddress": "Maynard 3,Hanover,NH,US,03755",
  "InstitutionName": "Dartmouth College - PBS",
  "InstitutionalDepartmentName": "Department",
  "MRAcquisitionType": "2D",
  "MagneticFieldStrength": 3,
  "Manufacturer": "Siemens",
  "ManufacturersModelName": "Prisma",
  "Modality": "MR",
  "MultibandAccelerationFactor": 8,
  "PartialFourier": 1,
  "PatientPosition": "HFS",
  "PercentPhaseFOV": 100,
  "PercentSampling": 100,
  "PhaseEncodingDirection": "j-",
  "PhaseEncodingSteps": 82,
  "PhaseResolution": 1,
  "PixelBandwidth": 3050,
  "ProcedureStepDescription": "Wager_Wager^1076_spacetop",
  "ProtocolName": "func_run-01_task-social_acq-ap-mb8",
  "PulseSequenceDetails": "%CustomerSeq%\\cmrr_mbep2d_bold",
  "ReceiveCoilActiveElements": "HEA;HEP",
  "ReceiveCoilName": "Head_32",
  "ReconMatrixPE": 82,
  "RepetitionTime": 0.46,
  "SAR": 0.0821419,
  "ScanOptions": "FS",
  "ScanningSequence": "EP",
  "SequenceName": "epfid2d1_82",
  "SequenceVariant": "SK\\SS",
  "SeriesDescription": "func_run-01_task-social_acq-ap-mb8",
  "SeriesNumber": 12,
  "ShimSetting": [4163, -7723, -7241, 703, -47, -90, -63, 23],
  "SliceThickness": 2.7,
  "SliceTiming": [0, 0.2525, 0.0625, 0.315, 0.1275, 0.3775, 0.19, 0, 0.2525, 0.0625, 0.315, 0.1275, 0.3775, 0.19, 0, 0.2525, 0.0625, 0.315, 0.1275, 0.3775, 0.19, 0, 0.2525, 0.0625, 0.315, 0.1275, 0.3775, 0.19, 0, 0.2525, 0.0625, 0.315, 0.1275, 0.3775, 0.19, 0, 0.2525, 0.0625, 0.315, 0.1275, 0.3775, 0.19, 0, 0.2525, 0.0625, 0.315, 0.1275, 0.3775, 0.19, 0, 0.2525, 0.0625, 0.315, 0.1275, 0.3775, 0.19],
  "SoftwareVersions": "syngo MR E11",
  "SpacingBetweenSlices": 2.7,
  "StationName": "AWP66112",
  "TaskName": "social",
  "TotalReadoutTime": 0.03969,
  "TxRefAmp": 232.593,
  "WipMemBlock": "8213183c-c3cf-4d69-b10d-d8fee5e34537||Sequence: R016 ve11e/master r/434b28f1; Aug  7 2019 18:53:46 by eja",
  "dcmmeta_affine": [
    [-2.6820664405822754, 0.04822053760290146, 0.04816905036568642, 108.258056640625],
    [0.048767462372779846, 2.6823112964630127, 0.030593503266572952, -89.70439910888672],
    [0.0473070964217186, -0.031260330229997635, 2.699396848678589, -64.2834701538086],
    [0.0, 0.0, 0.0, 1.0]
],
  "dcmmeta_reorient_transform": [
    [0.0, -1.0, 0.0, 81.0],
    [1.0, 0.0, 0.0, 0.0],
    [0.0, 0.0, 1.0, 0.0],
    [0.0, 0.0, 0.0, 1.0]
],
  "dcmmeta_shape": [82, 82, 56, 872],
  "dcmmeta_slice_dim": 2,
  "dcmmeta_version": 0.6,
  "global": {
    "const": {
      "AccessionNumber": "A004017",
      "AcquisitionMatrix": [82, 0, 0, 82],
      "AngioFlag": "N",
      "BitsAllocated": 16,
      "BitsStored": 16,
      "BodyPartExamined": "BRAIN",
      "Columns": 656,
      "EchoNumbers": 1,
      "EchoTime": 27.2,
      "EchoTrainLength": 82,
      "FlipAngle": 44.0,
      "HighBit": 15,
      "ImageOrientationPatient": [0.99967929249887, -0.0181769627819, 0.01763264509344, 0.01797310855392, 0.99977057773283, 0.01165157794741],
      "ImagePositionPatient": [-895.75628613825, -883.38992044347, -89.364408577366],
      "ImageType": [
        "ORIGINAL",
        "PRIMARY",
        "M",
        "MB",
        "ND",
        "NORM",
        "MOSAIC"
],
      "ImagedNucleus": "1H",
      "ImagingFrequency": 123.252194,
      "InPlanePhaseEncodingDirection": "COL",
      "MRAcquisitionType": "2D",
      "MagneticFieldStrength": 3.0,
      "Manufacturer": "SIEMENS",
      "ManufacturerModelName": "Prisma",
      "Modality": "MR",
      "NumberOfAverages": 1.0,
      "NumberOfPhaseEncodingSteps": 82,
      "PercentPhaseFieldOfView": 100.0,
      "PercentSampling": 100.0,
      "PerformedProcedureStepStartTime": "155909.629000",
      "PhotometricInterpretation": "MONOCHROME2",
      "PixelBandwidth": 3050.0,
      "PixelRepresentation": 0,
      "PixelSpacing": [2.6829268932343, 2.6829268932343],
      "ProtocolName": "func_run-01_task-social_acq-ap-mb8",
      "RepetitionTime": 460.0,
      "Rows": 656,
      "SAR": 0.08214188861129,
      "SamplesPerPixel": 1,
      "ScanOptions": "FS",
      "ScanningSequence": "EP",
      "SequenceName": "epfid2d1_82",
      "SequenceVariant": [
        "SK",
        "SS"
],
      "SeriesDescription": "func_run-01_task-social_acq-ap-mb8",
      "SeriesNumber": 12,
      "SeriesTime": "162155.285000",
      "SliceLocation": -63.354179252247,
      "SliceThickness": 2.7000000476837,
      "SmallestImagePixelValue": 0,
      "SoftwareVersions": "syngo MR E11",
      "SpacingBetweenSlices": 2.6999999330782,
      "SpecificCharacterSet": "ISO_IR 100",
      "StudyID": "1",
      "StudyTime": "155909.565000",
      "TransmitCoilName": "Body",
      "VariableFlipAngleFlag": "N",
      "WindowCenterWidthExplanation": "Algo1"
    },
    "slices": {}
  },
  "time": {
    "samples": {
      "AcquisitionNumber": [1, 2, 3, 4, 5, 6, 7, 8, 9, 10, 11, 12, 13, 14, 15, 16, 17, 18, 19, 20, 21, 22, 23, 24, 25, 26, 27, 28, 29, 30, 31, 32, 33, 34, 35, 36, 37, 38, 39, 40, 41, 42, 43, 44, 45, 46, 47, 48, 49, 50, 51, 52, 53, 54, 55, 56, 57, 58, 59, 60, 61, 62, 63, 64, 65, 66, 67, 68, 69, 70, 71, 72, 73, 74, 75, 76, 77, 78, 79, 80, 81, 82, 83, 84, 85, 86, 87, 88, 89, 90, 91, 92, 93, 94, 95, 96, 97, 98, 99, 100, 101, 102, 103, 104, 105, 106, 107, 108, 109, 110, 111, 112, 113, 114, 115, 116, 117, 118, 119, 120, 121, 122, 123, 124, 125, 126, 127, 128, 129, 130, 131, 132, 133, 134, 135, 136, 137, 138, 139, 140, 141, 142, 143, 144, 145, 146, 147, 148, 149, 150, 151, 152, 153, 154, 155, 156, 157, 158, 159, 160, 161, 162, 163, 164, 165, 166, 167, 168, 169, 170, 171, 172, 173, 174, 175, 176, 177, 178, 179, 180, 181, 182, 183, 184, 185, 186, 187, 188, 189, 190, 191, 192, 193, 194, 195, 196, 197, 198, 199, 200, 201, 202, 203, 204, 205, 206, 207, 208, 209, 210, 211, 212, 213, 214, 215, 216, 217, 218, 219, 220, 221, 222, 223, 224, 225, 226, 227, 228, 229, 230, 231, 232, 233, 234, 235, 236, 237, 238, 239, 240, 241, 242, 243, 244, 245, 246, 247, 248, 249, 250, 251, 252, 253, 254, 255, 256, 257, 258, 259, 260, 261, 262, 263, 264, 265, 266, 267, 268, 269, 270, 271, 272, 273, 274, 275, 276, 277, 278, 279, 280, 281, 282, 283, 284, 285, 286, 287, 288, 289, 290, 291, 292, 293, 294, 295, 296, 297, 298, 299, 300, 301, 302, 303, 304, 305, 306, 307, 308, 309, 310, 311, 312, 313, 314, 315, 316, 317, 318, 319, 320, 321, 322, 323, 324, 325, 326, 327, 328, 329, 330, 331, 332, 333, 334, 335, 336, 337, 338, 339, 340, 341, 342, 343, 344, 345, 346, 347, 348, 349, 350, 351, 352, 353, 354, 355, 356, 357, 358, 359, 360, 361, 362, 363, 364, 365, 366, 367, 368, 369, 370, 371, 372, 373, 374, 375, 376, 377, 378, 379, 380, 381, 382, 383, 384, 385, 386, 387, 388, 389, 390, 391, 392, 393, 394, 395, 396, 397, 398, 399, 400, 401, 402, 403, 404, 405, 406, 407, 408, 409, 410, 411, 412, 413, 414, 415, 416, 417, 418, 419, 420, 421, 422, 423, 424, 425, 426, 427, 428, 429, 430, 431, 432, 433, 434, 435, 436, 437, 438, 439, 440, 441, 442, 443, 444, 445, 446, 447, 448, 449, 450, 451, 452, 453, 454, 455, 456, 457, 458, 459, 460, 461, 462, 463, 464, 465, 466, 467, 468, 469, 470, 471, 472, 473, 474, 475, 476, 477, 478, 479, 480, 481, 482, 483, 484, 485, 486, 487, 488, 489, 490, 491, 492, 493, 494, 495, 496, 497, 498, 499, 500, 501, 502, 503, 504, 505, 506, 507, 508, 509, 510, 511, 512, 513, 514, 515, 516, 517, 518, 519, 520, 521, 522, 523, 524, 525, 526, 527, 528, 529, 530, 531, 532, 533, 534, 535, 536, 537, 538, 539, 540, 541, 542, 543, 544, 545, 546, 547, 548, 549, 550, 551, 552, 553, 554, 555, 556, 557, 558, 559, 560, 561, 562, 563, 564, 565, 566, 567, 568, 569, 570, 571, 572, 573, 574, 575, 576, 577, 578, 579, 580, 581, 582, 583, 584, 585, 586, 587, 588, 589, 590, 591, 592, 593, 594, 595, 596, 597, 598, 599, 600, 601, 602, 603, 604, 605, 606, 607, 608, 609, 610, 611, 612, 613, 614, 615, 616, 617, 618, 619, 620, 621, 622, 623, 624, 625, 626, 627, 628, 629, 630, 631, 632, 633, 634, 635, 636, 637, 638, 639, 640, 641, 642, 643, 644, 645, 646, 647, 648, 649, 650, 651, 652, 653, 654, 655, 656, 657, 658, 659, 660, 661, 662, 663, 664, 665, 666, 667, 668, 669, 670, 671, 672, 673, 674, 675, 676, 677, 678, 679, 680, 681, 682, 683, 684, 685, 686, 687, 688, 689, 690, 691, 692, 693, 694, 695, 696, 697, 698, 699, 700, 701, 702, 703, 704, 705, 706, 707, 708, 709, 710, 711, 712, 713, 714, 715, 716, 717, 718, 719, 720, 721, 722, 723, 724, 725, 726, 727, 728, 729, 730, 731, 732, 733, 734, 735, 736, 737, 738, 739, 740, 741, 742, 743, 744, 745, 746, 747, 748, 749, 750, 751, 752, 753, 754, 755, 756, 757, 758, 759, 760, 761, 762, 763, 764, 765, 766, 767, 768, 769, 770, 771, 772, 773, 774, 775, 776, 777, 778, 779, 780, 781, 782, 783, 784, 785, 786, 787, 788, 789, 790, 791, 792, 793, 794, 795, 796, 797, 798, 799, 800, 801, 802, 803, 804, 805, 806, 807, 808, 809, 810, 811, 812, 813, 814, 815, 816, 817, 818, 819, 820, 821, 822, 823, 824, 825, 826, 827, 828, 829, 830, 831, 832, 833, 834, 835, 836, 837, 838, 839, 840, 841, 842, 843, 844, 845, 846, 847, 848, 849, 850, 851, 852, 853, 854, 855, 856, 857, 858, 859, 860, 861, 862, 863, 864, 865, 866, 867, 868, 869, 870, 871, 872],
      "AcquisitionTime": ["162144.967500", "162145.427500", "162145.887500", "162146.347500", "162146.807500", "162147.267500", "162147.727500", "162148.187500", "162148.647500", "162149.107500", "162149.567500", "162150.027500", "162150.487500", "162150.947500", "162151.407500", "162151.867500", "162152.327500", "162152.787500", "162153.247500", "162153.707500", "162154.167500", "162154.627500", "162155.087500", "162155.547500", "162156.007500", "162156.467500", "162156.927500", "162157.387500", "162157.847500", "162158.307500", "162158.767500", "162159.227500", "162159.687500", "162200.147500", "162200.607500", "162201.067500", "162201.527500", "162201.987500", "162202.447500", "162202.907500", "162203.367500", "162203.827500", "162204.287500", "162204.747500", "162205.207500", "162205.667500", "162206.127500", "162206.587500", "162207.047500", "162207.507500", "162207.967500", "162208.427500", "162208.887500", "162209.347500", "162209.807500", "162210.267500", "162210.727500", "162211.187500", "162211.647500", "162212.107500", "162212.567500", "162213.027500", "162213.487500", "162213.947500", "162214.407500", "162214.867500", "162215.327500", "162215.787500", "162216.247500", "162216.707500", "162217.167500", "162217.627500", "162218.087500", "162218.547500", "162219.007500", "162219.467500", "162219.927500", "162220.387500", "162220.847500", "162221.307500", "162221.767500", "162222.227500", "162222.687500", "162223.147500", "162223.607500", "162224.067500", "162224.527500", "162224.987500", "162225.447500", "162225.907500", "162226.367500", "162226.827500", "162227.287500", "162227.747500", "162228.207500", "162228.667500", "162229.127500", "162229.587500", "162230.047500", "162230.507500", "162230.967500", "162231.427500", "162231.887500", "162232.347500", "162232.807500", "162233.267500", "162233.727500", "162234.187500", "162234.647500", "162235.107500", "162235.567500", "162236.027500", "162236.487500", "162236.947500", "162237.407500", "162237.867500", "162238.327500", "162238.787500", "162239.247500", "162239.707500", "162240.167500", "162240.627500", "162241.087500", "162241.547500", "162242.007500", "162242.467500", "162242.927500", "162243.387500", "162243.847500", "162244.307500", "162244.767500", "162245.227500", "162245.687500", "162246.147500", "162246.607500", "162247.067500", "162247.527500", "162247.987500", "162248.447500", "162248.907500", "162249.367500", "162249.827500", "162250.287500", "162250.747500", "162251.207500", "162251.667500", "162252.127500", "162252.587500", "162253.047500", "162253.507500", "162253.967500", "162254.427500", "162254.887500", "162255.347500", "162255.807500", "162256.267500", "162256.727500", "162257.187500", "162257.647500", "162258.107500", "162258.567500", "162259.027500", "162259.487500", "162259.947500", "162300.407500", "162300.867500", "162301.327500", "162301.787500", "162302.247500", "162302.707500", "162303.167500", "162303.627500", "162304.087500", "162304.547500", "162305.007500", "162305.467500", "162305.927500", "162306.387500", "162306.847500", "162307.307500", "162307.767500", "162308.227500", "162308.687500", "162309.147500", "162309.607500", "162310.067500", "162310.527500", "162310.987500", "162311.447500", "162311.907500", "162312.367500", "162312.827500", "162313.287500", "162313.747500", "162314.207500", "162314.667500", "162315.127500", "162315.587500", "162316.047500", "162316.507500", "162316.967500", "162317.427500", "162317.887500", "162318.347500", "162318.807500", "162319.267500", "162319.727500", "162320.187500", "162320.647500", "162321.107500", "162321.567500", "162322.027500", "162322.487500", "162322.947500", "162323.407500", "162323.867500", "162324.327500", "162324.787500", "162325.247500", "162325.707500", "162326.167500", "162326.627500", "162327.087500", "162327.547500", "162328.007500", "162328.467500", "162328.927500", "162329.387500", "162329.847500", "162330.307500", "162330.767500", "162331.227500", "162331.687500", "162332.147500", "162332.607500", "162333.067500", "162333.527500", "162333.987500", "162334.447500", "162334.907500", "162335.367500", "162335.827500", "162336.287500", "162336.747500", "162337.207500", "162337.667500", "162338.127500", "162338.587500", "162339.047500", "162339.507500", "162339.967500", "162340.427500", "162340.887500", "162341.347500", "162341.807500", "162342.267500", "162342.727500", "162343.187500", "162343.647500", "162344.107500", "162344.567500", "162345.027500", "162345.487500", "162345.947500", "162346.407500", "162346.867500", "162347.327500", "162347.787500", "162348.247500", "162348.707500", "162349.167500", "162349.627500", "162350.087500", "162350.547500", "162351.007500", "162351.467500", "162351.927500", "162352.387500", "162352.847500", "162353.307500", "162353.767500", "162354.227500", "162354.687500", "162355.147500", "162355.607500", "162356.067500", "162356.527500", "162356.987500", "162357.447500", "162357.907500", "162358.367500", "162358.827500", "162359.287500", "162359.747500", "162400.207500", "162400.667500", "162401.127500", "162401.587500", "162402.047500", "162402.507500", "162402.967500", "162403.427500", "162403.887500", "162404.347500", "162404.807500", "162405.267500", "162405.727500", "162406.187500", "162406.647500", "162407.107500", "162407.567500", "162408.027500", "162408.487500", "162408.947500", "162409.407500", "162409.867500", "162410.327500", "162410.787500", "162411.247500", "162411.707500", "162412.167500", "162412.627500", "162413.087500", "162413.547500", "162414.007500", "162414.467500", "162414.927500", "162415.387500", "162415.847500", "162416.307500", "162416.767500", "162417.227500", "162417.687500", "162418.147500", "162418.607500", "162419.067500", "162419.527500", "162419.987500", "162420.447500", "162420.907500", "162421.367500", "162421.827500", "162422.287500", "162422.747500", "162423.207500", "162423.667500", "162424.127500", "162424.587500", "162425.047500", "162425.507500", "162425.967500", "162426.427500", "162426.887500", "162427.347500", "162427.807500", "162428.267500", "162428.727500", "162429.187500", "162429.647500", "162430.107500", "162430.567500", "162431.027500", "162431.487500", "162431.947500", "162432.407500", "162432.867500", "162433.327500", "162433.787500", "162434.247500", "162434.707500", "162435.167500", "162435.627500", "162436.087500", "162436.547500", "162437.007500", "162437.467500", "162437.927500", "162438.387500", "162438.847500", "162439.307500", "162439.767500", "162440.227500", "162440.687500", "162441.147500", "162441.607500", "162442.067500", "162442.527500", "162442.987500", "162443.447500", "162443.907500", "162444.367500", "162444.827500", "162445.287500", "162445.747500", "162446.207500", "162446.667500", "162447.127500", "162447.587500", "162448.047500", "162448.507500", "162448.967500", "162449.427500", "162449.887500", "162450.347500", "162450.807500", "162451.267500", "162451.727500", "162452.187500", "162452.647500", "162453.107500", "162453.567500", "162454.027500", "162454.487500", "162454.947500", "162455.407500", "162455.867500", "162456.327500", "162456.787500", "162457.247500", "162457.707500", "162458.167500", "162458.627500", "162459.087500", "162459.547500", "162500.007500", "162500.467500", "162500.927500", "162501.387500", "162501.847500", "162502.307500", "162502.767500", "162503.227500", "162503.687500", "162504.147500", "162504.607500", "162505.067500", "162505.527500", "162505.987500", "162506.447500", "162506.907500", "162507.367500", "162507.827500", "162508.287500", "162508.747500", "162509.207500", "162509.667500", "162510.127500", "162510.587500", "162511.047500", "162511.507500", "162511.967500", "162512.427500", "162512.887500", "162513.347500", "162513.807500", "162514.267500", "162514.727500", "162515.187500", "162515.647500", "162516.107500", "162516.567500", "162517.027500", "162517.487500", "162517.947500", "162518.407500", "162518.867500", "162519.327500", "162519.787500", "162520.247500", "162520.707500", "162521.167500", "162521.627500", "162522.087500", "162522.547500", "162523.007500", "162523.467500", "162523.927500", "162524.387500", "162524.847500", "162525.307500", "162525.767500", "162526.227500", "162526.687500", "162527.147500", "162527.607500", "162528.067500", "162528.527500", "162528.987500", "162529.447500", "162529.907500", "162530.367500", "162530.827500", "162531.287500", "162531.747500", "162532.207500", "162532.667500", "162533.127500", "162533.587500", "162534.047500", "162534.507500", "162534.967500", "162535.427500", "162535.887500", "162536.347500", "162536.807500", "162537.267500", "162537.727500", "162538.187500", "162538.647500", "162539.107500", "162539.567500", "162540.027500", "162540.487500", "162540.947500", "162541.407500", "162541.867500", "162542.327500", "162542.787500", "162543.247500", "162543.707500", "162544.167500", "162544.627500", "162545.087500", "162545.547500", "162546.007500", "162546.467500", "162546.927500", "162547.387500", "162547.847500", "162548.307500", "162548.767500", "162549.227500", "162549.687500", "162550.147500", "162550.607500", "162551.067500", "162551.527500", "162551.987500", "162552.447500", "162552.907500", "162553.367500", "162553.827500", "162554.287500", "162554.747500", "162555.207500", "162555.667500", "162556.127500", "162556.587500", "162557.047500", "162557.507500", "162557.967500", "162558.427500", "162558.887500", "162559.347500", "162559.807500", "162600.267500", "162600.727500", "162601.187500", "162601.647500", "162602.107500", "162602.567500", "162603.027500", "162603.487500", "162603.947500", "162604.407500", "162604.867500", "162605.327500", "162605.787500", "162606.247500", "162606.707500", "162607.167500", "162607.627500", "162608.087500", "162608.547500", "162609.007500", "162609.467500", "162609.927500", "162610.387500", "162610.847500", "162611.307500", "162611.767500", "162612.227500", "162612.687500", "162613.147500", "162613.607500", "162614.067500", "162614.527500", "162614.987500", "162615.447500", "162615.907500", "162616.367500", "162616.827500", "162617.287500", "162617.747500", "162618.207500", "162618.667500", "162619.127500", "162619.587500", "162620.047500", "162620.507500", "162620.967500", "162621.427500", "162621.887500", "162622.347500", "162622.807500", "162623.267500", "162623.727500", "162624.187500", "162624.647500", "162625.107500", "162625.567500", "162626.027500", "162626.487500", "162626.947500", "162627.407500", "162627.867500", "162628.327500", "162628.787500", "162629.247500", "162629.707500", "162630.167500", "162630.627500", "162631.087500", "162631.547500", "162632.007500", "162632.467500", "162632.927500", "162633.387500", "162633.847500", "162634.307500", "162634.767500", "162635.227500", "162635.687500", "162636.147500", "162636.607500", "162637.067500", "162637.527500", "162637.987500", "162638.447500", "162638.907500", "162639.367500", "162639.827500", "162640.287500", "162640.747500", "162641.207500", "162641.667500", "162642.127500", "162642.587500", "162643.047500", "162643.507500", "162643.967500", "162644.427500", "162644.887500", "162645.347500", "162645.807500", "162646.267500", "162646.727500", "162647.187500", "162647.647500", "162648.107500", "162648.567500", "162649.027500", "162649.487500", "162649.947500", "162650.407500", "162650.867500", "162651.327500", "162651.787500", "162652.247500", "162652.707500", "162653.167500", "162653.627500", "162654.087500", "162654.547500", "162655.007500", "162655.467500", "162655.927500", "162656.387500", "162656.847500", "162657.307500", "162657.767500", "162658.227500", "162658.687500", "162659.147500", "162659.607500", "162700.067500", "162700.527500", "162700.987500", "162701.447500", "162701.907500", "162702.367500", "162702.827500", "162703.287500", "162703.747500", "162704.207500", "162704.667500", "162705.127500", "162705.587500", "162706.047500", "162706.507500", "162706.967500", "162707.427500", "162707.887500", "162708.347500", "162708.807500", "162709.267500", "162709.727500", "162710.187500", "162710.647500", "162711.107500", "162711.567500", "162712.027500", "162712.487500", "162712.947500", "162713.407500", "162713.867500", "162714.327500", "162714.787500", "162715.247500", "162715.707500", "162716.167500", "162716.627500", "162717.087500", "162717.547500", "162718.007500", "162718.467500", "162718.927500", "162719.387500", "162719.847500", "162720.307500", "162720.767500", "162721.227500", "162721.687500", "162722.147500", "162722.607500", "162723.067500", "162723.527500", "162723.987500", "162724.447500", "162724.907500", "162725.367500", "162725.827500", "162726.287500", "162726.747500", "162727.207500", "162727.667500", "162728.127500", "162728.587500", "162729.047500", "162729.507500", "162729.967500", "162730.427500", "162730.887500", "162731.347500", "162731.807500", "162732.267500", "162732.727500", "162733.187500", "162733.647500", "162734.107500", "162734.567500", "162735.027500", "162735.487500", "162735.947500", "162736.407500", "162736.867500", "162737.327500", "162737.787500", "162738.247500", "162738.707500", "162739.167500", "162739.627500", "162740.087500", "162740.547500", "162741.007500", "162741.467500", "162741.927500", "162742.387500", "162742.847500", "162743.307500", "162743.767500", "162744.227500", "162744.687500", "162745.147500", "162745.607500", "162746.067500", "162746.527500", "162746.987500", "162747.447500", "162747.907500", "162748.367500", "162748.827500", "162749.287500", "162749.747500", "162750.207500", "162750.667500", "162751.127500", "162751.587500", "162752.047500", "162752.507500", "162752.967500", "162753.427500", "162753.887500", "162754.347500", "162754.807500", "162755.267500", "162755.727500", "162756.187500", "162756.647500", "162757.107500", "162757.567500", "162758.027500", "162758.487500", "162758.947500", "162759.407500", "162759.867500", "162800.327500", "162800.787500", "162801.247500", "162801.707500", "162802.167500", "162802.627500", "162803.087500", "162803.547500", "162804.007500", "162804.467500", "162804.927500", "162805.387500", "162805.847500", "162806.307500", "162806.767500", "162807.227500", "162807.687500", "162808.147500", "162808.607500", "162809.067500", "162809.527500", "162809.987500", "162810.447500", "162810.907500", "162811.367500", "162811.827500", "162812.287500", "162812.747500", "162813.207500", "162813.667500", "162814.127500", "162814.587500", "162815.047500", "162815.507500", "162815.967500", "162816.427500", "162816.887500", "162817.347500", "162817.807500", "162818.267500", "162818.727500", "162819.187500", "162819.647500", "162820.107500", "162820.567500", "162821.027500", "162821.487500", "162821.947500", "162822.407500", "162822.867500", "162823.327500", "162823.787500", "162824.247500", "162824.707500", "162825.167500", "162825.627500"],
