{
  "AcquisitionMatrixPE": 82,
  "AcquisitionNumber": 1,
  "AcquisitionTime": "16:44:8.725000",
  "BandwidthPerPixelPhaseEncode": 24.888,
  "BaseResolution": 82,
  "BodyPartExamined": "BRAIN",
  "ConsistencyInfo": "N4_VE11E_LATEST_20181129",
  "ConversionSoftware": "dcm2niix",
  "ConversionSoftwareVersion": "v1.0.20201102",
  "DerivedVendorReportedEchoSpacing": 0.00049,
  "DeviceSerialNumber": "66112",
  "DwellTime": 2e-06,
  "EchoTime": 0.0272,
  "EchoTrainLength": 82,
  "EffectiveEchoSpacing": 0.00049,
  "FlipAngle": 44,
  "ImageComments": "Unaliased MB8/PE3",
  "ImageOrientationPatientDICOM": [0.999679, -0.018177, 0.0176326, 0.0179731, 0.999771, 0.0116516],
  "ImageType": [
    "ORIGINAL",
    "PRIMARY",
    "M",
    "MB",
    "ND",
    "NORM",
    "MOSAIC"
],
  "ImagingFrequency": 123.252,
  "InPlanePhaseEncodingDirectionDICOM": "COL",
  "InstitutionAddress": "Maynard 3,Hanover,NH,US,03755",
  "InstitutionName": "Dartmouth College - PBS",
  "InstitutionalDepartmentName": "Department",
  "MRAcquisitionType": "2D",
  "MagneticFieldStrength": 3,
  "Manufacturer": "Siemens",
  "ManufacturersModelName": "Prisma",
  "Modality": "MR",
  "MultibandAccelerationFactor": 8,
  "PartialFourier": 1,
  "PatientPosition": "HFS",
  "PercentPhaseFOV": 100,
  "PercentSampling": 100,
  "PhaseEncodingDirection": "j-",
  "PhaseEncodingSteps": 82,
  "PhaseResolution": 1,
  "PixelBandwidth": 3050,
  "ProcedureStepDescription": "Wager_Wager^1076_spacetop",
  "ProtocolName": "func_run-06_task-social_acq-ap-mb8",
  "PulseSequenceDetails": "%CustomerSeq%\\cmrr_mbep2d_bold",
  "ReceiveCoilActiveElements": "HEA;HEP",
  "ReceiveCoilName": "Head_32",
  "ReconMatrixPE": 82,
  "RepetitionTime": 0.46,
  "SAR": 0.0821419,
  "ScanOptions": "FS",
  "ScanningSequence": "EP",
  "SequenceName": "epfid2d1_82",
  "SequenceVariant": "SK\\SS",
  "SeriesDescription": "func_run-06_task-social_acq-ap-mb8",
  "SeriesNumber": 18,
  "ShimSetting": [4163, -7723, -7241, 703, -47, -90, -63, 23],
  "SliceThickness": 2.7,
  "SliceTiming": [0, 0.2525, 0.0625, 0.315, 0.1275, 0.3775, 0.19, 0, 0.2525, 0.0625, 0.315, 0.1275, 0.3775, 0.19, 0, 0.2525, 0.0625, 0.315, 0.1275, 0.3775, 0.19, 0, 0.2525, 0.0625, 0.315, 0.1275, 0.3775, 0.19, 0, 0.2525, 0.0625, 0.315, 0.1275, 0.3775, 0.19, 0, 0.2525, 0.0625, 0.315, 0.1275, 0.3775, 0.19, 0, 0.2525, 0.0625, 0.315, 0.1275, 0.3775, 0.19, 0, 0.2525, 0.0625, 0.315, 0.1275, 0.3775, 0.19],
  "SoftwareVersions": "syngo MR E11",
  "SpacingBetweenSlices": 2.7,
  "StationName": "AWP66112",
  "TaskName": "social",
  "TotalReadoutTime": 0.03969,
  "TxRefAmp": 232.593,
  "WipMemBlock": "14dfd5e0-1a43-4da4-ba4c-0513ba0deac9||Sequence: R016 ve11e/master r/434b28f1; Aug  7 2019 18:53:46 by eja",
  "dcmmeta_affine": [
    [-2.6820664405822754, 0.04822053760290146, 0.04816905036568642, 108.258056640625],
    [0.048767462372779846, 2.6823112964630127, 0.030593503266572952, -89.70439910888672],
    [0.0473070964217186, -0.031260330229997635, 2.699396848678589, -64.2834701538086],
    [0.0, 0.0, 0.0, 1.0]
],
  "dcmmeta_reorient_transform": [
    [0.0, -1.0, 0.0, 81.0],
    [1.0, 0.0, 0.0, 0.0],
    [0.0, 0.0, 1.0, 0.0],
    [0.0, 0.0, 0.0, 1.0]
],
  "dcmmeta_shape": [82, 82, 56, 872],
  "dcmmeta_slice_dim": 2,
  "dcmmeta_version": 0.6,
  "global": {
    "const": {
      "AccessionNumber": "A004017",
      "AcquisitionMatrix": [82, 0, 0, 82],
      "AngioFlag": "N",
      "BitsAllocated": 16,
      "BitsStored": 16,
      "BodyPartExamined": "BRAIN",
      "Columns": 656,
      "EchoNumbers": 1,
      "EchoTime": 27.2,
      "EchoTrainLength": 82,
      "FlipAngle": 44.0,
      "HighBit": 15,
      "ImageOrientationPatient": [0.99967929249887, -0.0181769627819, 0.01763264509344, 0.01797310855392, 0.99977057773283, 0.01165157794741],
      "ImagePositionPatient": [-895.75628613825, -883.38992044347, -89.364408577366],
      "ImageType": [
        "ORIGINAL",
        "PRIMARY",
        "M",
        "MB",
        "ND",
        "NORM",
        "MOSAIC"
],
      "ImagedNucleus": "1H",
      "ImagingFrequency": 123.252202,
      "InPlanePhaseEncodingDirection": "COL",
      "MRAcquisitionType": "2D",
      "MagneticFieldStrength": 3.0,
      "Manufacturer": "SIEMENS",
      "ManufacturerModelName": "Prisma",
      "Modality": "MR",
      "NumberOfAverages": 1.0,
      "NumberOfPhaseEncodingSteps": 82,
      "PercentPhaseFieldOfView": 100.0,
      "PercentSampling": 100.0,
      "PerformedProcedureStepStartTime": "155909.629000",
      "PhotometricInterpretation": "MONOCHROME2",
      "PixelBandwidth": 3050.0,
      "PixelRepresentation": 0,
      "PixelSpacing": [2.6829268932343, 2.6829268932343],
      "ProtocolName": "func_run-06_task-social_acq-ap-mb8",
      "RepetitionTime": 460.0,
      "Rows": 656,
      "SAR": 0.08214188861129,
      "SamplesPerPixel": 1,
      "ScanOptions": "FS",
      "ScanningSequence": "EP",
      "SequenceName": "epfid2d1_82",
      "SequenceVariant": [
        "SK",
        "SS"
],
      "SeriesDescription": "func_run-06_task-social_acq-ap-mb8",
      "SeriesNumber": 18,
      "SeriesTime": "164415.309000",
      "SliceLocation": -63.354179252247,
      "SliceThickness": 2.7000000476837,
      "SmallestImagePixelValue": 0,
      "SoftwareVersions": "syngo MR E11",
      "SpacingBetweenSlices": 2.6999999330782,
      "SpecificCharacterSet": "ISO_IR 100",
      "StudyID": "1",
      "StudyTime": "155909.565000",
      "TransmitCoilName": "Body",
      "VariableFlipAngleFlag": "N",
      "WindowCenterWidthExplanation": "Algo1"
    },
    "slices": {}
  },
  "time": {
    "samples": {
      "AcquisitionNumber": [1, 2, 3, 4, 5, 6, 7, 8, 9, 10, 11, 12, 13, 14, 15, 16, 17, 18, 19, 20, 21, 22, 23, 24, 25, 26, 27, 28, 29, 30, 31, 32, 33, 34, 35, 36, 37, 38, 39, 40, 41, 42, 43, 44, 45, 46, 47, 48, 49, 50, 51, 52, 53, 54, 55, 56, 57, 58, 59, 60, 61, 62, 63, 64, 65, 66, 67, 68, 69, 70, 71, 72, 73, 74, 75, 76, 77, 78, 79, 80, 81, 82, 83, 84, 85, 86, 87, 88, 89, 90, 91, 92, 93, 94, 95, 96, 97, 98, 99, 100, 101, 102, 103, 104, 105, 106, 107, 108, 109, 110, 111, 112, 113, 114, 115, 116, 117, 118, 119, 120, 121, 122, 123, 124, 125, 126, 127, 128, 129, 130, 131, 132, 133, 134, 135, 136, 137, 138, 139, 140, 141, 142, 143, 144, 145, 146, 147, 148, 149, 150, 151, 152, 153, 154, 155, 156, 157, 158, 159, 160, 161, 162, 163, 164, 165, 166, 167, 168, 169, 170, 171, 172, 173, 174, 175, 176, 177, 178, 179, 180, 181, 182, 183, 184, 185, 186, 187, 188, 189, 190, 191, 192, 193, 194, 195, 196, 197, 198, 199, 200, 201, 202, 203, 204, 205, 206, 207, 208, 209, 210, 211, 212, 213, 214, 215, 216, 217, 218, 219, 220, 221, 222, 223, 224, 225, 226, 227, 228, 229, 230, 231, 232, 233, 234, 235, 236, 237, 238, 239, 240, 241, 242, 243, 244, 245, 246, 247, 248, 249, 250, 251, 252, 253, 254, 255, 256, 257, 258, 259, 260, 261, 262, 263, 264, 265, 266, 267, 268, 269, 270, 271, 272, 273, 274, 275, 276, 277, 278, 279, 280, 281, 282, 283, 284, 285, 286, 287, 288, 289, 290, 291, 292, 293, 294, 295, 296, 297, 298, 299, 300, 301, 302, 303, 304, 305, 306, 307, 308, 309, 310, 311, 312, 313, 314, 315, 316, 317, 318, 319, 320, 321, 322, 323, 324, 325, 326, 327, 328, 329, 330, 331, 332, 333, 334, 335, 336, 337, 338, 339, 340, 341, 342, 343, 344, 345, 346, 347, 348, 349, 350, 351, 352, 353, 354, 355, 356, 357, 358, 359, 360, 361, 362, 363, 364, 365, 366, 367, 368, 369, 370, 371, 372, 373, 374, 375, 376, 377, 378, 379, 380, 381, 382, 383, 384, 385, 386, 387, 388, 389, 390, 391, 392, 393, 394, 395, 396, 397, 398, 399, 400, 401, 402, 403, 404, 405, 406, 407, 408, 409, 410, 411, 412, 413, 414, 415, 416, 417, 418, 419, 420, 421, 422, 423, 424, 425, 426, 427, 428, 429, 430, 431, 432, 433, 434, 435, 436, 437, 438, 439, 440, 441, 442, 443, 444, 445, 446, 447, 448, 449, 450, 451, 452, 453, 454, 455, 456, 457, 458, 459, 460, 461, 462, 463, 464, 465, 466, 467, 468, 469, 470, 471, 472, 473, 474, 475, 476, 477, 478, 479, 480, 481, 482, 483, 484, 485, 486, 487, 488, 489, 490, 491, 492, 493, 494, 495, 496, 497, 498, 499, 500, 501, 502, 503, 504, 505, 506, 507, 508, 509, 510, 511, 512, 513, 514, 515, 516, 517, 518, 519, 520, 521, 522, 523, 524, 525, 526, 527, 528, 529, 530, 531, 532, 533, 534, 535, 536, 537, 538, 539, 540, 541, 542, 543, 544, 545, 546, 547, 548, 549, 550, 551, 552, 553, 554, 555, 556, 557, 558, 559, 560, 561, 562, 563, 564, 565, 566, 567, 568, 569, 570, 571, 572, 573, 574, 575, 576, 577, 578, 579, 580, 581, 582, 583, 584, 585, 586, 587, 588, 589, 590, 591, 592, 593, 594, 595, 596, 597, 598, 599, 600, 601, 602, 603, 604, 605, 606, 607, 608, 609, 610, 611, 612, 613, 614, 615, 616, 617, 618, 619, 620, 621, 622, 623, 624, 625, 626, 627, 628, 629, 630, 631, 632, 633, 634, 635, 636, 637, 638, 639, 640, 641, 642, 643, 644, 645, 646, 647, 648, 649, 650, 651, 652, 653, 654, 655, 656, 657, 658, 659, 660, 661, 662, 663, 664, 665, 666, 667, 668, 669, 670, 671, 672, 673, 674, 675, 676, 677, 678, 679, 680, 681, 682, 683, 684, 685, 686, 687, 688, 689, 690, 691, 692, 693, 694, 695, 696, 697, 698, 699, 700, 701, 702, 703, 704, 705, 706, 707, 708, 709, 710, 711, 712, 713, 714, 715, 716, 717, 718, 719, 720, 721, 722, 723, 724, 725, 726, 727, 728, 729, 730, 731, 732, 733, 734, 735, 736, 737, 738, 739, 740, 741, 742, 743, 744, 745, 746, 747, 748, 749, 750, 751, 752, 753, 754, 755, 756, 757, 758, 759, 760, 761, 762, 763, 764, 765, 766, 767, 768, 769, 770, 771, 772, 773, 774, 775, 776, 777, 778, 779, 780, 781, 782, 783, 784, 785, 786, 787, 788, 789, 790, 791, 792, 793, 794, 795, 796, 797, 798, 799, 800, 801, 802, 803, 804, 805, 806, 807, 808, 809, 810, 811, 812, 813, 814, 815, 816, 817, 818, 819, 820, 821, 822, 823, 824, 825, 826, 827, 828, 829, 830, 831, 832, 833, 834, 835, 836, 837, 838, 839, 840, 841, 842, 843, 844, 845, 846, 847, 848, 849, 850, 851, 852, 853, 854, 855, 856, 857, 858, 859, 860, 861, 862, 863, 864, 865, 866, 867, 868, 869, 870, 871, 872],
      "AcquisitionTime": ["164408.725000", "164409.185000", "164409.645000", "164410.105000", "164410.565000", "164411.025000", "164411.485000", "164411.945000", "164412.405000", "164412.865000", "164413.325000", "164413.785000", "164414.245000", "164414.705000", "164415.165000", "164415.625000", "164416.085000", "164416.545000", "164417.005000", "164417.465000", "164417.925000", "164418.385000", "164418.845000", "164419.305000", "164419.765000", "164420.225000", "164420.685000", "164421.145000", "164421.605000", "164422.065000", "164422.525000", "164422.985000", "164423.445000", "164423.905000", "164424.365000", "164424.825000", "164425.285000", "164425.745000", "164426.205000", "164426.665000", "164427.125000", "164427.585000", "164428.045000", "164428.505000", "164428.965000", "164429.425000", "164429.885000", "164430.345000", "164430.805000", "164431.265000", "164431.725000", "164432.185000", "164432.645000", "164433.105000", "164433.565000", "164434.025000", "164434.485000", "164434.945000", "164435.405000", "164435.865000", "164436.325000", "164436.785000", "164437.245000", "164437.705000", "164438.165000", "164438.625000", "164439.085000", "164439.545000", "164440.005000", "164440.465000", "164440.925000", "164441.385000", "164441.845000", "164442.305000", "164442.765000", "164443.225000", "164443.685000", "164444.145000", "164444.605000", "164445.065000", "164445.525000", "164445.985000", "164446.445000", "164446.905000", "164447.365000", "164447.825000", "164448.285000", "164448.745000", "164449.205000", "164449.665000", "164450.125000", "164450.585000", "164451.045000", "164451.505000", "164451.965000", "164452.425000", "164452.885000", "164453.345000", "164453.805000", "164454.265000", "164454.725000", "164455.185000", "164455.645000", "164456.105000", "164456.565000", "164457.025000", "164457.485000", "164457.945000", "164458.405000", "164458.865000", "164459.325000", "164459.785000", "164500.245000", "164500.705000", "164501.165000", "164501.625000", "164502.085000", "164502.545000", "164503.005000", "164503.465000", "164503.925000", "164504.385000", "164504.845000", "164505.305000", "164505.765000", "164506.225000", "164506.685000", "164507.145000", "164507.605000", "164508.065000", "164508.525000", "164508.985000", "164509.445000", "164509.905000", "164510.365000", "164510.825000", "164511.285000", "164511.745000", "164512.205000", "164512.665000", "164513.125000", "164513.585000", "164514.045000", "164514.505000", "164514.965000", "164515.425000", "164515.885000", "164516.345000", "164516.805000", "164517.265000", "164517.725000", "164518.185000", "164518.645000", "164519.105000", "164519.565000", "164520.025000", "164520.485000", "164520.945000", "164521.405000", "164521.865000", "164522.325000", "164522.785000", "164523.245000", "164523.705000", "164524.165000", "164524.625000", "164525.085000", "164525.545000", "164526.005000", "164526.465000", "164526.925000", "164527.385000", "164527.845000", "164528.305000", "164528.765000", "164529.225000", "164529.685000", "164530.145000", "164530.605000", "164531.065000", "164531.525000", "164531.985000", "164532.445000", "164532.905000", "164533.365000", "164533.825000", "164534.285000", "164534.745000", "164535.205000", "164535.665000", "164536.125000", "164536.585000", "164537.045000", "164537.505000", "164537.965000", "164538.425000", "164538.885000", "164539.345000", "164539.805000", "164540.265000", "164540.725000", "164541.185000", "164541.645000", "164542.105000", "164542.565000", "164543.025000", "164543.485000", "164543.945000", "164544.405000", "164544.865000", "164545.325000", "164545.785000", "164546.245000", "164546.705000", "164547.165000", "164547.625000", "164548.085000", "164548.545000", "164549.005000", "164549.465000", "164549.925000", "164550.385000", "164550.845000", "164551.305000", "164551.765000", "164552.225000", "164552.685000", "164553.145000", "164553.605000", "164554.065000", "164554.525000", "164554.985000", "164555.445000", "164555.905000", "164556.365000", "164556.825000", "164557.285000", "164557.745000", "164558.205000", "164558.665000", "164559.125000", "164559.585000", "164600.045000", "164600.505000", "164600.965000", "164601.425000", "164601.885000", "164602.345000", "164602.805000", "164603.265000", "164603.725000", "164604.185000", "164604.645000", "164605.105000", "164605.565000", "164606.025000", "164606.485000", "164606.945000", "164607.405000", "164607.865000", "164608.325000", "164608.785000", "164609.245000", "164609.705000", "164610.165000", "164610.625000", "164611.085000", "164611.545000", "164612.005000", "164612.465000", "164612.925000", "164613.385000", "164613.845000", "164614.305000", "164614.765000", "164615.225000", "164615.685000", "164616.145000", "164616.605000", "164617.065000", "164617.525000", "164617.985000", "164618.445000", "164618.905000", "164619.365000", "164619.825000", "164620.285000", "164620.745000", "164621.205000", "164621.665000", "164622.125000", "164622.585000", "164623.045000", "164623.505000", "164623.965000", "164624.425000", "164624.885000", "164625.345000", "164625.805000", "164626.265000", "164626.725000", "164627.185000", "164627.645000", "164628.105000", "164628.565000", "164629.025000", "164629.485000", "164629.945000", "164630.405000", "164630.865000", "164631.325000", "164631.785000", "164632.245000", "164632.705000", "164633.165000", "164633.625000", "164634.085000", "164634.545000", "164635.005000", "164635.465000", "164635.925000", "164636.385000", "164636.845000", "164637.305000", "164637.765000", "164638.225000", "164638.685000", "164639.145000", "164639.605000", "164640.065000", "164640.525000", "164640.985000", "164641.445000", "164641.905000", "164642.365000", "164642.825000", "164643.285000", "164643.745000", "164644.205000", "164644.665000", "164645.125000", "164645.585000", "164646.045000", "164646.505000", "164646.965000", "164647.425000", "164647.885000", "164648.345000", "164648.805000", "164649.265000", "164649.725000", "164650.185000", "164650.645000", "164651.105000", "164651.565000", "164652.025000", "164652.485000", "164652.945000", "164653.405000", "164653.865000", "164654.325000", "164654.785000", "164655.245000", "164655.705000", "164656.165000", "164656.625000", "164657.085000", "164657.545000", "164658.005000", "164658.465000", "164658.925000", "164659.385000", "164659.845000", "164700.305000", "164700.765000", "164701.225000", "164701.685000", "164702.145000", "164702.605000", "164703.065000", "164703.525000", "164703.985000", "164704.445000", "164704.905000", "164705.365000", "164705.825000", "164706.285000", "164706.745000", "164707.205000", "164707.665000", "164708.125000", "164708.585000", "164709.045000", "164709.505000", "164709.965000", "164710.425000", "164710.885000", "164711.345000", "164711.805000", "164712.265000", "164712.725000", "164713.185000", "164713.645000", "164714.105000", "164714.565000", "164715.025000", "164715.485000", "164715.945000", "164716.405000", "164716.865000", "164717.325000", "164717.785000", "164718.245000", "164718.705000", "164719.165000", "164719.625000", "164720.085000", "164720.545000", "164721.005000", "164721.465000", "164721.925000", "164722.385000", "164722.845000", "164723.305000", "164723.765000", "164724.225000", "164724.685000", "164725.145000", "164725.605000", "164726.065000", "164726.525000", "164726.985000", "164727.445000", "164727.905000", "164728.365000", "164728.825000", "164729.285000", "164729.745000", "164730.205000", "164730.665000", "164731.125000", "164731.585000", "164732.045000", "164732.505000", "164732.965000", "164733.425000", "164733.885000", "164734.345000", "164734.805000", "164735.265000", "164735.725000", "164736.185000", "164736.645000", "164737.105000", "164737.565000", "164738.025000", "164738.485000", "164738.945000", "164739.405000", "164739.865000", "164740.325000", "164740.785000", "164741.245000", "164741.705000", "164742.165000", "164742.625000", "164743.085000", "164743.545000", "164744.005000", "164744.465000", "164744.925000", "164745.385000", "164745.845000", "164746.305000", "164746.765000", "164747.225000", "164747.685000", "164748.145000", "164748.605000", "164749.065000", "164749.525000", "164749.985000", "164750.445000", "164750.905000", "164751.365000", "164751.825000", "164752.285000", "164752.745000", "164753.205000", "164753.665000", "164754.125000", "164754.585000", "164755.045000", "164755.505000", "164755.965000", "164756.425000", "164756.885000", "164757.345000", "164757.805000", "164758.265000", "164758.725000", "164759.185000", "164759.645000", "164800.105000", "164800.565000", "164801.025000", "164801.485000", "164801.945000", "164802.405000", "164802.865000", "164803.325000", "164803.785000", "164804.245000", "164804.705000", "164805.165000", "164805.625000", "164806.085000", "164806.545000", "164807.005000", "164807.465000", "164807.925000", "164808.385000", "164808.845000", "164809.305000", "164809.765000", "164810.225000", "164810.685000", "164811.145000", "164811.605000", "164812.065000", "164812.525000", "164812.985000", "164813.445000", "164813.905000", "164814.365000", "164814.825000", "164815.285000", "164815.745000", "164816.205000", "164816.665000", "164817.125000", "164817.585000", "164818.045000", "164818.505000", "164818.965000", "164819.425000", "164819.885000", "164820.345000", "164820.805000", "164821.265000", "164821.725000", "164822.185000", "164822.645000", "164823.105000", "164823.565000", "164824.025000", "164824.485000", "164824.945000", "164825.405000", "164825.865000", "164826.325000", "164826.785000", "164827.245000", "164827.705000", "164828.165000", "164828.625000", "164829.085000", "164829.545000", "164830.005000", "164830.465000", "164830.925000", "164831.385000", "164831.845000", "164832.305000", "164832.765000", "164833.225000", "164833.685000", "164834.145000", "164834.605000", "164835.065000", "164835.525000", "164835.985000", "164836.445000", "164836.905000", "164837.365000", "164837.825000", "164838.285000", "164838.745000", "164839.205000", "164839.665000", "164840.125000", "164840.585000", "164841.045000", "164841.505000", "164841.965000", "164842.425000", "164842.885000", "164843.345000", "164843.805000", "164844.265000", "164844.725000", "164845.185000", "164845.645000", "164846.105000", "164846.565000", "164847.025000", "164847.485000", "164847.945000", "164848.405000", "164848.865000", "164849.325000", "164849.785000", "164850.245000", "164850.705000", "164851.165000", "164851.625000", "164852.085000", "164852.545000", "164853.005000", "164853.465000", "164853.925000", "164854.385000", "164854.845000", "164855.305000", "164855.765000", "164856.225000", "164856.685000", "164857.145000", "164857.605000", "164858.065000", "164858.525000", "164858.985000", "164859.445000", "164859.905000", "164900.365000", "164900.825000", "164901.285000", "164901.745000", "164902.205000", "164902.665000", "164903.125000", "164903.585000", "164904.045000", "164904.505000", "164904.965000", "164905.425000", "164905.885000", "164906.345000", "164906.805000", "164907.265000", "164907.725000", "164908.185000", "164908.645000", "164909.105000", "164909.565000", "164910.025000", "164910.485000", "164910.945000", "164911.405000", "164911.865000", "164912.325000", "164912.785000", "164913.245000", "164913.705000", "164914.165000", "164914.625000", "164915.085000", "164915.545000", "164916.005000", "164916.465000", "164916.925000", "164917.385000", "164917.845000", "164918.305000", "164918.765000", "164919.225000", "164919.685000", "164920.145000", "164920.605000", "164921.065000", "164921.525000", "164921.985000", "164922.445000", "164922.905000", "164923.365000", "164923.825000", "164924.285000", "164924.745000", "164925.205000", "164925.665000", "164926.125000", "164926.585000", "164927.045000", "164927.505000", "164927.965000", "164928.425000", "164928.885000", "164929.345000", "164929.805000", "164930.265000", "164930.725000", "164931.185000", "164931.645000", "164932.105000", "164932.565000", "164933.025000", "164933.485000", "164933.945000", "164934.405000", "164934.865000", "164935.325000", "164935.785000", "164936.245000", "164936.705000", "164937.165000", "164937.625000", "164938.085000", "164938.545000", "164939.005000", "164939.465000", "164939.925000", "164940.385000", "164940.845000", "164941.305000", "164941.765000", "164942.225000", "164942.685000", "164943.145000", "164943.605000", "164944.065000", "164944.525000", "164944.985000", "164945.445000", "164945.905000", "164946.365000", "164946.825000", "164947.285000", "164947.745000", "164948.205000", "164948.665000", "164949.125000", "164949.585000", "164950.045000", "164950.505000", "164950.965000", "164951.425000", "164951.885000", "164952.345000", "164952.805000", "164953.265000", "164953.725000", "164954.185000", "164954.645000", "164955.105000", "164955.565000", "164956.025000", "164956.485000", "164956.945000", "164957.405000", "164957.865000", "164958.325000", "164958.785000", "164959.245000", "164959.705000", "165000.165000", "165000.625000", "165001.085000", "165001.545000", "165002.005000", "165002.465000", "165002.925000", "165003.385000", "165003.845000", "165004.305000", "165004.765000", "165005.225000", "165005.685000", "165006.145000", "165006.605000", "165007.065000", "165007.525000", "165007.985000", "165008.445000", "165008.905000", "165009.365000", "165009.825000", "165010.285000", "165010.745000", "165011.205000", "165011.665000", "165012.125000", "165012.585000", "165013.045000", "165013.505000", "165013.965000", "165014.425000", "165014.885000", "165015.345000", "165015.805000", "165016.265000", "165016.725000", "165017.185000", "165017.645000", "165018.105000", "165018.565000", "165019.025000", "165019.485000", "165019.945000", "165020.405000", "165020.865000", "165021.325000", "165021.785000", "165022.245000", "165022.705000", "165023.165000", "165023.625000", "165024.085000", "165024.545000", "165025.005000", "165025.465000", "165025.925000", "165026.385000", "165026.845000", "165027.305000", "165027.765000", "165028.225000", "165028.685000", "165029.145000", "165029.605000", "165030.065000", "165030.525000", "165030.985000", "165031.445000", "165031.905000", "165032.365000", "165032.825000", "165033.285000", "165033.745000", "165034.205000", "165034.665000", "165035.125000", "165035.585000", "165036.045000", "165036.505000", "165036.965000", "165037.425000", "165037.885000", "165038.345000", "165038.805000", "165039.265000", "165039.725000", "165040.185000", "165040.645000", "165041.105000", "165041.565000", "165042.025000", "165042.485000", "165042.945000", "165043.405000", "165043.865000", "165044.325000", "165044.785000", "165045.245000", "165045.705000", "165046.165000", "165046.625000", "165047.085000", "165047.545000", "165048.005000", "165048.465000", "165048.925000", "165049.385000"],
