{
  "AcquisitionMatrixPE": 82,
  "AcquisitionNumber": 1,
  "AcquisitionTime": "18:36:16.295000",
  "BandwidthPerPixelPhaseEncode": 24.888,
  "BaseResolution": 82,
  "BodyPartExamined": "BRAIN",
  "ConsistencyInfo": "N4_VE11C_LATEST_20160120",
  "ConversionSoftware": "dcm2niix",
  "ConversionSoftwareVersion": "v1.0.20201102",
  "DerivedVendorReportedEchoSpacing": 0.00049,
  "DeviceSerialNumber": "66112",
  "DwellTime": 2e-06,
  "EchoTime": 0.0272,
  "EchoTrainLength": 82,
  "EffectiveEchoSpacing": 0.00049,
  "FlipAngle": 44,
  "ImageComments": "Unaliased MB8/PE3",
  "ImageOrientationPatientDICOM": [0.997967, 0.0266851, 0.0578761, -0.0329316, 0.993407, 0.109812],
  "ImageType": [
    "ORIGINAL",
    "PRIMARY",
    "M",
    "MB",
    "ND",
    "NORM",
    "MOSAIC"
],
  "ImagingFrequency": 123.252,
  "InPlanePhaseEncodingDirectionDICOM": "COL",
  "InstitutionAddress": "Maynard 3,Hanover,NH,US,03755",
  "InstitutionName": "Dartmouth College - PBS",
  "InstitutionalDepartmentName": "Department",
  "MRAcquisitionType": "2D",
  "MagneticFieldStrength": 3,
  "Manufacturer": "Siemens",
  "ManufacturersModelName": "Prisma",
  "Modality": "MR",
  "MultibandAccelerationFactor": 8,
  "PartialFourier": 1,
  "PatientPosition": "HFS",
  "PercentPhaseFOV": 100,
  "PercentSampling": 100,
  "PhaseEncodingDirection": "j-",
  "PhaseEncodingSteps": 82,
  "PhaseResolution": 1,
  "PixelBandwidth": 3050,
  "ProcedureStepDescription": "Wager_Wager^1076_spacetop",
  "ProtocolName": "func_run-03_task-alignvideo_acq-ap-mb8",
  "PulseSequenceDetails": "%CustomerSeq%\\cmrr_mbep2d_bold",
  "ReceiveCoilActiveElements": "HEA;HEP",
  "ReceiveCoilName": "Head_32",
  "ReconMatrixPE": 82,
  "RepetitionTime": 0.46,
  "SAR": 0.104982,
  "ScanOptions": "FS",
  "ScanningSequence": "EP",
  "SequenceName": "epfid2d1_82",
  "SequenceVariant": "SK\\SS",
  "SeriesDescription": "func_run-03_task-alignvideo_acq-ap-mb8",
  "SeriesNumber": 28,
  "ShimSetting": [4159, -7733, -7203, 641, -14, -48, 97, 49],
  "SliceThickness": 2.7,
  "SliceTiming": [0, 0.25, 0.0625, 0.3125, 0.125, 0.3775, 0.1875, 0, 0.25, 0.0625, 0.3125, 0.125, 0.3775, 0.1875, 0, 0.25, 0.0625, 0.3125, 0.125, 0.3775, 0.1875, 0, 0.25, 0.0625, 0.3125, 0.125, 0.3775, 0.1875, 0, 0.25, 0.0625, 0.3125, 0.125, 0.3775, 0.1875, 0, 0.25, 0.0625, 0.3125, 0.125, 0.3775, 0.1875, 0, 0.25, 0.0625, 0.3125, 0.125, 0.3775, 0.1875, 0, 0.25, 0.0625, 0.3125, 0.125, 0.3775, 0.1875],
  "SoftwareVersions": "syngo MR E11",
  "SpacingBetweenSlices": 2.7,
  "StationName": "AWP66112",
  "TaskName": "alignvideo",
  "TotalReadoutTime": 0.03969,
  "TxRefAmp": 258.164,
  "WipMemBlock": "4b3cf12f-09fa-4e89-a4ad-3df83c5fa934||Sequence: R016 ve11c/master r/e634e98; Dec 19 2017 11:00:25 by eja",
  "dcmmeta_affine": [
    [-2.6774725914001465, -0.08835303038358688, 0.14732317626476288, 113.32148742675781],
    [-0.07159408181905746, 2.6652374267578125, 0.3010369539260864, -103.45694732666016],
    [0.1552773118019104, -0.2946188151836395, 2.6791179180145264, -45.13510513305664],
    [0.0, 0.0, 0.0, 1.0]
],
  "dcmmeta_reorient_transform": [
    [0.0, -1.0, 0.0, 81.0],
    [1.0, 0.0, 0.0, 0.0],
    [0.0, 0.0, 1.0, 0.0],
    [0.0, 0.0, 0.0, 1.0]
],
  "dcmmeta_shape": [82, 82, 56, 1065],
  "dcmmeta_slice_dim": 2,
  "dcmmeta_version": 0.6,
  "global": {
    "const": {
      "AccessionNumber": "A003839",
      "AcquisitionMatrix": [82, 0, 0, 82],
      "AngioFlag": "N",
      "BitsAllocated": 16,
      "BitsStored": 16,
      "BodyPartExamined": "BRAIN",
      "Columns": 656,
      "EchoNumbers": 1,
      "EchoTime": 27.2,
      "EchoTrainLength": 82,
      "FlipAngle": 44.0,
      "HighBit": 15,
      "ImageOrientationPatient": [0.99796706631906, 0.02668506556027, 0.05787609021497, -0.0329315846156, 0.99340663097987, 0.10981245949314],
      "ImagePositionPatient": [-849.24223097549, -897.89790240308, -198.11941313174],
      "ImageType": [
        "ORIGINAL",
        "PRIMARY",
        "M",
        "MB",
        "ND",
        "NORM",
        "MOSAIC"
],
      "ImagedNucleus": "1H",
      "ImagingFrequency": 123.252189,
      "InPlanePhaseEncodingDirection": "COL",
      "MRAcquisitionType": "2D",
      "MagneticFieldStrength": 3.0,
      "Manufacturer": "SIEMENS",
      "ManufacturerModelName": "Prisma",
      "Modality": "MR",
      "NumberOfAverages": 1.0,
      "NumberOfPhaseEncodingSteps": 82,
      "PercentPhaseFieldOfView": 100.0,
      "PercentSampling": 100.0,
      "PerformedProcedureStepStartTime": "171422.726000",
      "PhotometricInterpretation": "MONOCHROME2",
      "PixelBandwidth": 3050.0,
      "PixelRepresentation": 0,
      "PixelSpacing": [2.6829268932343, 2.6829268932343],
      "ProtocolName": "func_run-03_task-alignvideo_acq-ap-mb8",
      "RepetitionTime": 460.0,
      "Rows": 656,
      "SAR": 0.1049820165475,
      "SamplesPerPixel": 1,
      "ScanOptions": "FS",
      "ScanningSequence": "EP",
      "SequenceName": "epfid2d1_82",
      "SequenceVariant": [
        "SK",
        "SS"
],
      "SeriesDescription": "func_run-03_task-alignvideo_acq-ap-mb8",
      "SeriesNumber": 28,
      "SeriesTime": "183640.409000",
      "SliceLocation": -50.137684374681,
      "SliceThickness": 2.7000000476837,
      "SmallestImagePixelValue": 0,
      "SoftwareVersions": "syngo MR E11",
      "SpacingBetweenSlices": 2.6999999756579,
      "SpecificCharacterSet": "ISO_IR 100",
      "StudyID": "1",
      "StudyTime": "171422.661000",
      "TransmitCoilName": "Body",
      "VariableFlipAngleFlag": "N",
      "WindowCenterWidthExplanation": "Algo1",
      "dBdt": 0.0},
    "slices": {}
  },
  "time": {
    "samples": {
      "AcquisitionNumber": [1, 2, 3, 4, 5, 6, 7, 8, 9, 10, 11, 12, 13, 14, 15, 16, 17, 18, 19, 20, 21, 22, 23, 24, 25, 26, 27, 28, 29, 30, 31, 32, 33, 34, 35, 36, 37, 38, 39, 40, 41, 42, 43, 44, 45, 46, 47, 48, 49, 50, 51, 52, 53, 54, 55, 56, 57, 58, 59, 60, 61, 62, 63, 64, 65, 66, 67, 68, 69, 70, 71, 72, 73, 74, 75, 76, 77, 78, 79, 80, 81, 82, 83, 84, 85, 86, 87, 88, 89, 90, 91, 92, 93, 94, 95, 96, 97, 98, 99, 100, 101, 102, 103, 104, 105, 106, 107, 108, 109, 110, 111, 112, 113, 114, 115, 116, 117, 118, 119, 120, 121, 122, 123, 124, 125, 126, 127, 128, 129, 130, 131, 132, 133, 134, 135, 136, 137, 138, 139, 140, 141, 142, 143, 144, 145, 146, 147, 148, 149, 150, 151, 152, 153, 154, 155, 156, 157, 158, 159, 160, 161, 162, 163, 164, 165, 166, 167, 168, 169, 170, 171, 172, 173, 174, 175, 176, 177, 178, 179, 180, 181, 182, 183, 184, 185, 186, 187, 188, 189, 190, 191, 192, 193, 194, 195, 196, 197, 198, 199, 200, 201, 202, 203, 204, 205, 206, 207, 208, 209, 210, 211, 212, 213, 214, 215, 216, 217, 218, 219, 220, 221, 222, 223, 224, 225, 226, 227, 228, 229, 230, 231, 232, 233, 234, 235, 236, 237, 238, 239, 240, 241, 242, 243, 244, 245, 246, 247, 248, 249, 250, 251, 252, 253, 254, 255, 256, 257, 258, 259, 260, 261, 262, 263, 264, 265, 266, 267, 268, 269, 270, 271, 272, 273, 274, 275, 276, 277, 278, 279, 280, 281, 282, 283, 284, 285, 286, 287, 288, 289, 290, 291, 292, 293, 294, 295, 296, 297, 298, 299, 300, 301, 302, 303, 304, 305, 306, 307, 308, 309, 310, 311, 312, 313, 314, 315, 316, 317, 318, 319, 320, 321, 322, 323, 324, 325, 326, 327, 328, 329, 330, 331, 332, 333, 334, 335, 336, 337, 338, 339, 340, 341, 342, 343, 344, 345, 346, 347, 348, 349, 350, 351, 352, 353, 354, 355, 356, 357, 358, 359, 360, 361, 362, 363, 364, 365, 366, 367, 368, 369, 370, 371, 372, 373, 374, 375, 376, 377, 378, 379, 380, 381, 382, 383, 384, 385, 386, 387, 388, 389, 390, 391, 392, 393, 394, 395, 396, 397, 398, 399, 400, 401, 402, 403, 404, 405, 406, 407, 408, 409, 410, 411, 412, 413, 414, 415, 416, 417, 418, 419, 420, 421, 422, 423, 424, 425, 426, 427, 428, 429, 430, 431, 432, 433, 434, 435, 436, 437, 438, 439, 440, 441, 442, 443, 444, 445, 446, 447, 448, 449, 450, 451, 452, 453, 454, 455, 456, 457, 458, 459, 460, 461, 462, 463, 464, 465, 466, 467, 468, 469, 470, 471, 472, 473, 474, 475, 476, 477, 478, 479, 480, 481, 482, 483, 484, 485, 486, 487, 488, 489, 490, 491, 492, 493, 494, 495, 496, 497, 498, 499, 500, 501, 502, 503, 504, 505, 506, 507, 508, 509, 510, 511, 512, 513, 514, 515, 516, 517, 518, 519, 520, 521, 522, 523, 524, 525, 526, 527, 528, 529, 530, 531, 532, 533, 534, 535, 536, 537, 538, 539, 540, 541, 542, 543, 544, 545, 546, 547, 548, 549, 550, 551, 552, 553, 554, 555, 556, 557, 558, 559, 560, 561, 562, 563, 564, 565, 566, 567, 568, 569, 570, 571, 572, 573, 574, 575, 576, 577, 578, 579, 580, 581, 582, 583, 584, 585, 586, 587, 588, 589, 590, 591, 592, 593, 594, 595, 596, 597, 598, 599, 600, 601, 602, 603, 604, 605, 606, 607, 608, 609, 610, 611, 612, 613, 614, 615, 616, 617, 618, 619, 620, 621, 622, 623, 624, 625, 626, 627, 628, 629, 630, 631, 632, 633, 634, 635, 636, 637, 638, 639, 640, 641, 642, 643, 644, 645, 646, 647, 648, 649, 650, 651, 652, 653, 654, 655, 656, 657, 658, 659, 660, 661, 662, 663, 664, 665, 666, 667, 668, 669, 670, 671, 672, 673, 674, 675, 676, 677, 678, 679, 680, 681, 682, 683, 684, 685, 686, 687, 688, 689, 690, 691, 692, 693, 694, 695, 696, 697, 698, 699, 700, 701, 702, 703, 704, 705, 706, 707, 708, 709, 710, 711, 712, 713, 714, 715, 716, 717, 718, 719, 720, 721, 722, 723, 724, 725, 726, 727, 728, 729, 730, 731, 732, 733, 734, 735, 736, 737, 738, 739, 740, 741, 742, 743, 744, 745, 746, 747, 748, 749, 750, 751, 752, 753, 754, 755, 756, 757, 758, 759, 760, 761, 762, 763, 764, 765, 766, 767, 768, 769, 770, 771, 772, 773, 774, 775, 776, 777, 778, 779, 780, 781, 782, 783, 784, 785, 786, 787, 788, 789, 790, 791, 792, 793, 794, 795, 796, 797, 798, 799, 800, 801, 802, 803, 804, 805, 806, 807, 808, 809, 810, 811, 812, 813, 814, 815, 816, 817, 818, 819, 820, 821, 822, 823, 824, 825, 826, 827, 828, 829, 830, 831, 832, 833, 834, 835, 836, 837, 838, 839, 840, 841, 842, 843, 844, 845, 846, 847, 848, 849, 850, 851, 852, 853, 854, 855, 856, 857, 858, 859, 860, 861, 862, 863, 864, 865, 866, 867, 868, 869, 870, 871, 872, 873, 874, 875, 876, 877, 878, 879, 880, 881, 882, 883, 884, 885, 886, 887, 888, 889, 890, 891, 892, 893, 894, 895, 896, 897, 898, 899, 900, 901, 902, 903, 904, 905, 906, 907, 908, 909, 910, 911, 912, 913, 914, 915, 916, 917, 918, 919, 920, 921, 922, 923, 924, 925, 926, 927, 928, 929, 930, 931, 932, 933, 934, 935, 936, 937, 938, 939, 940, 941, 942, 943, 944, 945, 946, 947, 948, 949, 950, 951, 952, 953, 954, 955, 956, 957, 958, 959, 960, 961, 962, 963, 964, 965, 966, 967, 968, 969, 970, 971, 972, 973, 974, 975, 976, 977, 978, 979, 980, 981, 982, 983, 984, 985, 986, 987, 988, 989, 990, 991, 992, 993, 994, 995, 996, 997, 998, 999, 1000, 1001, 1002, 1003, 1004, 1005, 1006, 1007, 1008, 1009, 1010, 1011, 1012, 1013, 1014, 1015, 1016, 1017, 1018, 1019, 1020, 1021, 1022, 1023, 1024, 1025, 1026, 1027, 1028, 1029, 1030, 1031, 1032, 1033, 1034, 1035, 1036, 1037, 1038, 1039, 1040, 1041, 1042, 1043, 1044, 1045, 1046, 1047, 1048, 1049, 1050, 1051, 1052, 1053, 1054, 1055, 1056, 1057, 1058, 1059, 1060, 1061, 1062, 1063, 1064, 1065],
      "AcquisitionTime": ["183616.295000", "183616.755000", "183617.215000", "183617.675000", "183618.135000", "183618.595000", "183619.055000", "183619.515000", "183619.975000", "183620.435000", "183620.895000", "183621.355000", "183621.815000", "183622.275000", "183622.735000", "183623.195000", "183623.655000", "183624.115000", "183624.575000", "183625.035000", "183625.495000", "183625.955000", "183626.415000", "183626.875000", "183627.335000", "183627.795000", "183628.255000", "183628.715000", "183629.175000", "183629.635000", "183630.095000", "183630.555000", "183631.015000", "183631.475000", "183631.935000", "183632.395000", "183632.855000", "183633.315000", "183633.775000", "183634.235000", "183634.695000", "183635.155000", "183635.615000", "183636.075000", "183636.535000", "183636.995000", "183637.455000", "183637.915000", "183638.375000", "183638.835000", "183639.295000", "183639.755000", "183640.215000", "183640.675000", "183641.135000", "183641.595000", "183642.055000", "183642.515000", "183642.975000", "183643.435000", "183643.895000", "183644.355000", "183644.815000", "183645.275000", "183645.735000", "183646.195000", "183646.655000", "183647.115000", "183647.575000", "183648.035000", "183648.495000", "183648.955000", "183649.415000", "183649.875000", "183650.335000", "183650.795000", "183651.255000", "183651.715000", "183652.175000", "183652.635000", "183653.095000", "183653.555000", "183654.015000", "183654.475000", "183654.935000", "183655.395000", "183655.855000", "183656.315000", "183656.775000", "183657.235000", "183657.695000", "183658.155000", "183658.615000", "183659.075000", "183659.535000", "183659.995000", "183700.455000", "183700.915000", "183701.375000", "183701.835000", "183702.295000", "183702.755000", "183703.215000", "183703.675000", "183704.135000", "183704.595000", "183705.055000", "183705.515000", "183705.975000", "183706.435000", "183706.895000", "183707.355000", "183707.815000", "183708.275000", "183708.735000", "183709.195000", "183709.655000", "183710.115000", "183710.575000", "183711.035000", "183711.495000", "183711.955000", "183712.415000", "183712.875000", "183713.335000", "183713.795000", "183714.255000", "183714.715000", "183715.175000", "183715.635000", "183716.095000", "183716.555000", "183717.015000", "183717.475000", "183717.935000", "183718.395000", "183718.855000", "183719.315000", "183719.775000", "183720.235000", "183720.695000", "183721.155000", "183721.615000", "183722.075000", "183722.535000", "183722.995000", "183723.455000", "183723.915000", "183724.375000", "183724.835000", "183725.295000", "183725.755000", "183726.215000", "183726.675000", "183727.135000", "183727.595000", "183728.055000", "183728.515000", "183728.975000", "183729.435000", "183729.895000", "183730.355000", "183730.815000", "183731.275000", "183731.735000", "183732.195000", "183732.655000", "183733.115000", "183733.575000", "183734.035000", "183734.495000", "183734.955000", "183735.415000", "183735.875000", "183736.335000", "183736.795000", "183737.255000", "183737.715000", "183738.175000", "183738.635000", "183739.095000", "183739.555000", "183740.015000", "183740.475000", "183740.935000", "183741.395000", "183741.855000", "183742.315000", "183742.775000", "183743.235000", "183743.695000", "183744.155000", "183744.615000", "183745.075000", "183745.535000", "183745.995000", "183746.455000", "183746.915000", "183747.375000", "183747.835000", "183748.295000", "183748.755000", "183749.215000", "183749.675000", "183750.135000", "183750.595000", "183751.055000", "183751.515000", "183751.975000", "183752.435000", "183752.895000", "183753.355000", "183753.815000", "183754.275000", "183754.735000", "183755.195000", "183755.655000", "183756.115000", "183756.575000", "183757.035000", "183757.495000", "183757.955000", "183758.415000", "183758.875000", "183759.335000", "183759.795000", "183800.255000", "183800.715000", "183801.175000", "183801.635000", "183802.095000", "183802.555000", "183803.015000", "183803.475000", "183803.935000", "183804.395000", "183804.855000", "183805.315000", "183805.775000", "183806.235000", "183806.695000", "183807.155000", "183807.615000", "183808.075000", "183808.535000", "183808.995000", "183809.455000", "183809.915000", "183810.375000", "183810.835000", "183811.295000", "183811.755000", "183812.215000", "183812.675000", "183813.135000", "183813.595000", "183814.055000", "183814.515000", "183814.975000", "183815.435000", "183815.895000", "183816.355000", "183816.815000", "183817.275000", "183817.735000", "183818.195000", "183818.655000", "183819.115000", "183819.575000", "183820.035000", "183820.495000", "183820.955000", "183821.415000", "183821.875000", "183822.335000", "183822.795000", "183823.255000", "183823.715000", "183824.175000", "183824.635000", "183825.095000", "183825.555000", "183826.015000", "183826.475000", "183826.935000", "183827.395000", "183827.855000", "183828.315000", "183828.775000", "183829.235000", "183829.695000", "183830.155000", "183830.615000", "183831.075000", "183831.535000", "183831.995000", "183832.455000", "183832.915000", "183833.375000", "183833.835000", "183834.295000", "183834.755000", "183835.215000", "183835.675000", "183836.135000", "183836.595000", "183837.055000", "183837.515000", "183837.975000", "183838.435000", "183838.895000", "183839.355000", "183839.815000", "183840.275000", "183840.735000", "183841.195000", "183841.655000", "183842.115000", "183842.575000", "183843.035000", "183843.495000", "183843.955000", "183844.415000", "183844.875000", "183845.335000", "183845.795000", "183846.255000", "183846.715000", "183847.175000", "183847.635000", "183848.095000", "183848.555000", "183849.015000", "183849.475000", "183849.935000", "183850.395000", "183850.855000", "183851.315000", "183851.775000", "183852.235000", "183852.695000", "183853.155000", "183853.615000", "183854.075000", "183854.535000", "183854.995000", "183855.455000", "183855.915000", "183856.375000", "183856.835000", "183857.295000", "183857.755000", "183858.215000", "183858.675000", "183859.135000", "183859.595000", "183900.055000", "183900.515000", "183900.975000", "183901.435000", "183901.895000", "183902.355000", "183902.815000", "183903.275000", "183903.735000", "183904.195000", "183904.655000", "183905.115000", "183905.575000", "183906.035000", "183906.495000", "183906.955000", "183907.415000", "183907.875000", "183908.335000", "183908.795000", "183909.255000", "183909.715000", "183910.175000", "183910.635000", "183911.095000", "183911.555000", "183912.015000", "183912.475000", "183912.935000", "183913.395000", "183913.855000", "183914.315000", "183914.775000", "183915.235000", "183915.695000", "183916.155000", "183916.615000", "183917.075000", "183917.535000", "183917.995000", "183918.455000", "183918.915000", "183919.375000", "183919.835000", "183920.295000", "183920.755000", "183921.215000", "183921.675000", "183922.135000", "183922.595000", "183923.055000", "183923.515000", "183923.975000", "183924.435000", "183924.895000", "183925.355000", "183925.815000", "183926.275000", "183926.735000", "183927.195000", "183927.655000", "183928.115000", "183928.575000", "183929.035000", "183929.495000", "183929.955000", "183930.415000", "183930.875000", "183931.335000", "183931.795000", "183932.255000", "183932.715000", "183933.175000", "183933.635000", "183934.095000", "183934.555000", "183935.015000", "183935.475000", "183935.935000", "183936.395000", "183936.855000", "183937.315000", "183937.775000", "183938.235000", "183938.695000", "183939.155000", "183939.615000", "183940.075000", "183940.535000", "183940.995000", "183941.455000", "183941.915000", "183942.375000", "183942.835000", "183943.295000", "183943.755000", "183944.215000", "183944.675000", "183945.135000", "183945.595000", "183946.055000", "183946.515000", "183946.975000", "183947.435000", "183947.895000", "183948.355000", "183948.815000", "183949.275000", "183949.735000", "183950.195000", "183950.655000", "183951.115000", "183951.575000", "183952.035000", "183952.495000", "183952.955000", "183953.415000", "183953.875000", "183954.335000", "183954.795000", "183955.255000", "183955.715000", "183956.175000", "183956.635000", "183957.095000", "183957.555000", "183958.015000", "183958.475000", "183958.935000", "183959.395000", "183959.855000", "184000.315000", "184000.775000", "184001.235000", "184001.695000", "184002.155000", "184002.615000", "184003.075000", "184003.535000", "184003.995000", "184004.455000", "184004.915000", "184005.375000", "184005.835000", "184006.295000", "184006.755000", "184007.215000", "184007.675000", "184008.135000", "184008.595000", "184009.055000", "184009.515000", "184009.975000", "184010.435000", "184010.895000", "184011.355000", "184011.815000", "184012.275000", "184012.735000", "184013.195000", "184013.655000", "184014.115000", "184014.575000", "184015.035000", "184015.495000", "184015.955000", "184016.415000", "184016.875000", "184017.335000", "184017.795000", "184018.255000", "184018.715000", "184019.175000", "184019.635000", "184020.095000", "184020.555000", "184021.015000", "184021.475000", "184021.935000", "184022.395000", "184022.855000", "184023.315000", "184023.775000", "184024.235000", "184024.695000", "184025.155000", "184025.615000", "184026.075000", "184026.535000", "184026.995000", "184027.455000", "184027.915000", "184028.375000", "184028.835000", "184029.295000", "184029.755000", "184030.215000", "184030.675000", "184031.135000", "184031.595000", "184032.055000", "184032.515000", "184032.975000", "184033.435000", "184033.895000", "184034.355000", "184034.815000", "184035.275000", "184035.735000", "184036.195000", "184036.655000", "184037.115000", "184037.575000", "184038.035000", "184038.495000", "184038.955000", "184039.415000", "184039.875000", "184040.335000", "184040.795000", "184041.255000", "184041.715000", "184042.175000", "184042.635000", "184043.095000", "184043.555000", "184044.015000", "184044.475000", "184044.935000", "184045.395000", "184045.855000", "184046.315000", "184046.775000", "184047.235000", "184047.695000", "184048.155000", "184048.615000", "184049.075000", "184049.535000", "184049.995000", "184050.455000", "184050.915000", "184051.375000", "184051.835000", "184052.295000", "184052.755000", "184053.215000", "184053.675000", "184054.135000", "184054.595000", "184055.055000", "184055.515000", "184055.975000", "184056.435000", "184056.895000", "184057.355000", "184057.815000", "184058.275000", "184058.735000", "184059.195000", "184059.655000", "184100.115000", "184100.575000", "184101.035000", "184101.495000", "184101.955000", "184102.415000", "184102.875000", "184103.335000", "184103.795000", "184104.255000", "184104.715000", "184105.175000", "184105.635000", "184106.095000", "184106.555000", "184107.015000", "184107.475000", "184107.935000", "184108.395000", "184108.855000", "184109.315000", "184109.775000", "184110.235000", "184110.695000", "184111.155000", "184111.615000", "184112.075000", "184112.535000", "184112.995000", "184113.455000", "184113.915000", "184114.375000", "184114.835000", "184115.295000", "184115.755000", "184116.215000", "184116.675000", "184117.135000", "184117.595000", "184118.055000", "184118.515000", "184118.975000", "184119.435000", "184119.895000", "184120.355000", "184120.815000", "184121.275000", "184121.735000", "184122.195000", "184122.655000", "184123.115000", "184123.575000", "184124.035000", "184124.495000", "184124.955000", "184125.415000", "184125.875000", "184126.335000", "184126.795000", "184127.255000", "184127.715000", "184128.175000", "184128.635000", "184129.095000", "184129.555000", "184130.015000", "184130.475000", "184130.935000", "184131.395000", "184131.855000", "184132.315000", "184132.775000", "184133.235000", "184133.695000", "184134.155000", "184134.615000", "184135.075000", "184135.535000", "184135.995000", "184136.455000", "184136.915000", "184137.375000", "184137.835000", "184138.295000", "184138.755000", "184139.215000", "184139.675000", "184140.135000", "184140.595000", "184141.055000", "184141.515000", "184141.975000", "184142.435000", "184142.895000", "184143.355000", "184143.815000", "184144.275000", "184144.735000", "184145.195000", "184145.655000", "184146.115000", "184146.575000", "184147.035000", "184147.495000", "184147.955000", "184148.415000", "184148.875000", "184149.335000", "184149.795000", "184150.255000", "184150.715000", "184151.175000", "184151.635000", "184152.095000", "184152.555000", "184153.015000", "184153.475000", "184153.935000", "184154.395000", "184154.855000", "184155.315000", "184155.775000", "184156.235000", "184156.695000", "184157.155000", "184157.615000", "184158.075000", "184158.535000", "184158.995000", "184159.455000", "184159.915000", "184200.375000", "184200.835000", "184201.295000", "184201.755000", "184202.215000", "184202.675000", "184203.135000", "184203.595000", "184204.055000", "184204.515000", "184204.975000", "184205.435000", "184205.895000", "184206.355000", "184206.815000", "184207.275000", "184207.735000", "184208.195000", "184208.655000", "184209.115000", "184209.575000", "184210.035000", "184210.495000", "184210.955000", "184211.415000", "184211.875000", "184212.335000", "184212.795000", "184213.255000", "184213.715000", "184214.175000", "184214.635000", "184215.095000", "184215.555000", "184216.015000", "184216.475000", "184216.935000", "184217.395000", "184217.855000", "184218.315000", "184218.775000", "184219.235000", "184219.695000", "184220.155000", "184220.615000", "184221.075000", "184221.535000", "184221.995000", "184222.455000", "184222.915000", "184223.375000", "184223.835000", "184224.295000", "184224.755000", "184225.215000", "184225.675000", "184226.135000", "184226.595000", "184227.055000", "184227.515000", "184227.975000", "184228.435000", "184228.895000", "184229.355000", "184229.815000", "184230.275000", "184230.735000", "184231.195000", "184231.655000", "184232.115000", "184232.575000", "184233.035000", "184233.495000", "184233.955000", "184234.415000", "184234.875000", "184235.335000", "184235.795000", "184236.255000", "184236.715000", "184237.175000", "184237.635000", "184238.095000", "184238.555000", "184239.015000", "184239.475000", "184239.935000", "184240.395000", "184240.855000", "184241.315000", "184241.775000", "184242.235000", "184242.695000", "184243.155000", "184243.615000", "184244.075000", "184244.535000", "184244.995000", "184245.455000", "184245.915000", "184246.375000", "184246.835000", "184247.295000", "184247.755000", "184248.215000", "184248.675000", "184249.135000", "184249.595000", "184250.055000", "184250.515000", "184250.975000", "184251.435000", "184251.895000", "184252.355000", "184252.815000", "184253.275000", "184253.735000", "184254.195000", "184254.655000", "184255.115000", "184255.575000", "184256.035000", "184256.495000", "184256.955000", "184257.415000", "184257.875000", "184258.335000", "184258.795000", "184259.255000", "184259.715000", "184300.175000", "184300.635000", "184301.095000", "184301.555000", "184302.015000", "184302.475000", "184302.935000", "184303.395000", "184303.855000", "184304.315000", "184304.775000", "184305.235000", "184305.695000", "184306.155000", "184306.615000", "184307.075000", "184307.535000", "184307.995000", "184308.455000", "184308.915000", "184309.375000", "184309.835000", "184310.295000", "184310.755000", "184311.215000", "184311.675000", "184312.135000", "184312.595000", "184313.055000", "184313.515000", "184313.975000", "184314.435000", "184314.895000", "184315.355000", "184315.815000", "184316.275000", "184316.735000", "184317.195000", "184317.655000", "184318.115000", "184318.575000", "184319.035000", "184319.495000", "184319.955000", "184320.415000", "184320.875000", "184321.335000", "184321.795000", "184322.255000", "184322.715000", "184323.175000", "184323.635000", "184324.095000", "184324.555000", "184325.015000", "184325.475000", "184325.935000", "184326.395000", "184326.855000", "184327.315000", "184327.775000", "184328.235000", "184328.695000", "184329.155000", "184329.615000", "184330.075000", "184330.535000", "184330.995000", "184331.455000", "184331.915000", "184332.375000", "184332.835000", "184333.295000", "184333.755000", "184334.215000", "184334.675000", "184335.135000", "184335.595000", "184336.055000", "184336.515000", "184336.975000", "184337.435000", "184337.895000", "184338.355000", "184338.815000", "184339.275000", "184339.735000", "184340.195000", "184340.655000", "184341.115000", "184341.575000", "184342.035000", "184342.495000", "184342.955000", "184343.415000", "184343.875000", "184344.335000", "184344.795000", "184345.255000", "184345.715000", "184346.175000", "184346.635000", "184347.095000", "184347.555000", "184348.015000", "184348.475000", "184348.935000", "184349.395000", "184349.855000", "184350.315000", "184350.775000", "184351.235000", "184351.695000", "184352.155000", "184352.615000", "184353.075000", "184353.535000", "184353.995000", "184354.455000", "184354.915000", "184355.375000", "184355.835000", "184356.295000", "184356.755000", "184357.215000", "184357.675000", "184358.135000", "184358.595000", "184359.055000", "184359.515000", "184359.975000", "184400.435000", "184400.895000", "184401.355000", "184401.815000", "184402.275000", "184402.735000", "184403.195000", "184403.655000", "184404.115000", "184404.575000", "184405.035000", "184405.495000", "184405.955000", "184406.415000", "184406.875000", "184407.335000", "184407.795000", "184408.255000", "184408.715000", "184409.175000", "184409.635000", "184410.095000", "184410.555000", "184411.015000", "184411.475000", "184411.935000", "184412.395000", "184412.855000", "184413.315000", "184413.775000", "184414.235000", "184414.695000", "184415.155000", "184415.615000", "184416.075000", "184416.535000", "184416.995000", "184417.455000", "184417.915000", "184418.375000", "184418.835000", "184419.295000", "184419.755000", "184420.215000", "184420.675000", "184421.135000", "184421.595000", "184422.055000", "184422.515000", "184422.975000", "184423.435000", "184423.895000", "184424.355000", "184424.815000", "184425.275000", "184425.735000"],
