{
  "AcquisitionMatrixPE": 82,
  "AcquisitionNumber": 1,
  "AcquisitionTime": "17:30:2.740000",
  "BandwidthPerPixelPhaseEncode": 24.888,
  "BaseResolution": 82,
  "BodyPartExamined": "BRAIN",
  "ConsistencyInfo": "N4_VE11C_LATEST_20160120",
  "ConversionSoftware": "dcm2niix",
  "ConversionSoftwareVersion": "v1.0.20201102",
  "DerivedVendorReportedEchoSpacing": 0.00049,
  "DeviceSerialNumber": "66112",
  "DwellTime": 2e-06,
  "EchoTime": 0.0272,
  "EchoTrainLength": 82,
  "EffectiveEchoSpacing": 0.00049,
  "FlipAngle": 44,
  "ImageComments": "Unaliased MB8/PE3",
  "ImageOrientationPatientDICOM": [0.996565, 0.00711865, 0.0825096, -0.0163512, 0.9936, 0.111768],
  "ImageType": [
    "ORIGINAL",
    "PRIMARY",
    "M",
    "MB",
    "ND",
    "NORM",
    "MOSAIC"
],
  "ImagingFrequency": 123.252,
  "InPlanePhaseEncodingDirectionDICOM": "COL",
  "InstitutionAddress": "Maynard 3,Hanover,NH,US,03755",
  "InstitutionName": "Dartmouth College - PBS",
  "InstitutionalDepartmentName": "Department",
  "MRAcquisitionType": "2D",
  "MagneticFieldStrength": 3,
  "Manufacturer": "Siemens",
  "ManufacturersModelName": "Prisma",
  "Modality": "MR",
  "MultibandAccelerationFactor": 8,
  "PartialFourier": 1,
  "PatientPosition": "HFS",
  "PercentPhaseFOV": 100,
  "PercentSampling": 100,
  "PhaseEncodingDirection": "j-",
  "PhaseEncodingSteps": 82,
  "PhaseResolution": 1,
  "PixelBandwidth": 3050,
  "ProcedureStepDescription": "Wager_Wager^1076_spacetop",
  "ProtocolName": "func_run-01_task-social_acq-ap-mb8",
  "PulseSequenceDetails": "%CustomerSeq%\\cmrr_mbep2d_bold",
  "ReceiveCoilActiveElements": "HEA;HEP",
  "ReceiveCoilName": "Head_32",
  "ReconMatrixPE": 82,
  "RepetitionTime": 0.46,
  "SAR": 0.104864,
  "ScanOptions": "FS",
  "ScanningSequence": "EP",
  "SequenceName": "epfid2d1_82",
  "SequenceVariant": "SK\\SS",
  "SeriesDescription": "func_run-01_task-social_acq-ap-mb8",
  "SeriesNumber": 8,
  "ShimSetting": [4159, -7735, -7206, 627, -14, -59, 96, 48],
  "SliceThickness": 2.7,
  "SliceTiming": [0, 0.2525, 0.065, 0.315, 0.1275, 0.3775, 0.19, 0, 0.2525, 0.065, 0.315, 0.1275, 0.3775, 0.19, 0, 0.2525, 0.065, 0.315, 0.1275, 0.3775, 0.19, 0, 0.2525, 0.065, 0.315, 0.1275, 0.3775, 0.19, 0, 0.2525, 0.065, 0.315, 0.1275, 0.3775, 0.19, 0, 0.2525, 0.065, 0.315, 0.1275, 0.3775, 0.19, 0, 0.2525, 0.065, 0.315, 0.1275, 0.3775, 0.19, 0, 0.2525, 0.065, 0.315, 0.1275, 0.3775, 0.19],
  "SoftwareVersions": "syngo MR E11",
  "SpacingBetweenSlices": 2.7,
  "StationName": "AWP66112",
  "TaskName": "social",
  "TotalReadoutTime": 0.03969,
  "TxRefAmp": 258.164,
  "WipMemBlock": "8f3accfa-25d3-4424-b4b2-70980ce6b5d8||Sequence: R016 ve11c/master r/e634e98; Dec 19 2017 11:00:25 by eja",
  "dcmmeta_affine": [
    [-2.673710584640503, -0.04386912286281586, 0.2192019373178482, 109.48077392578125],
    [-0.01909881830215454, 2.6657555103302, 0.3043804168701172, -104.3335189819336],
    [0.22136728465557098, -0.2998661696910858, 2.6738181114196777, -51.4133186340332],
    [0.0, 0.0, 0.0, 1.0]
],
  "dcmmeta_reorient_transform": [
    [0.0, -1.0, 0.0, 81.0],
    [1.0, 0.0, 0.0, 0.0],
    [0.0, 0.0, 1.0, 0.0],
    [0.0, 0.0, 0.0, 1.0]
],
  "dcmmeta_shape": [82, 82, 56, 872],
  "dcmmeta_slice_dim": 2,
  "dcmmeta_version": 0.6,
  "global": {
    "const": {
      "AccessionNumber": "A003839",
      "AcquisitionMatrix": [82, 0, 0, 82],
      "AngioFlag": "N",
      "BitsAllocated": 16,
      "BitsStored": 16,
      "BodyPartExamined": "BRAIN",
      "Columns": 656,
      "EchoNumbers": 1,
      "EchoTime": 27.2,
      "EchoTrainLength": 82,
      "FlipAngle": 44.0,
      "HighBit": 15,
      "ImageOrientationPatient": [0.99656484334978, 0.00711865045536, 0.08250962255958, -0.0163512182113, 0.99359976143927, 0.1117682948373],
      "ImagePositionPatient": [-860.69188441723, -882.14587578786, -225.29647675036],
      "ImageType": [
        "ORIGINAL",
        "PRIMARY",
        "M",
        "MB",
        "ND",
        "NORM",
        "MOSAIC"
],
      "ImagedNucleus": "1H",
      "ImagingFrequency": 123.252172,
      "InPlanePhaseEncodingDirection": "COL",
      "MRAcquisitionType": "2D",
      "MagneticFieldStrength": 3.0,
      "Manufacturer": "SIEMENS",
      "ManufacturerModelName": "Prisma",
      "Modality": "MR",
      "NumberOfAverages": 1.0,
      "NumberOfPhaseEncodingSteps": 82,
      "PercentPhaseFieldOfView": 100.0,
      "PercentSampling": 100.0,
      "PerformedProcedureStepStartTime": "171422.726000",
      "PhotometricInterpretation": "MONOCHROME2",
      "PixelBandwidth": 3050.0,
      "PixelRepresentation": 0,
      "PixelSpacing": [2.6829268932343, 2.6829268932343],
      "ProtocolName": "func_run-01_task-social_acq-ap-mb8",
      "RepetitionTime": 460.0,
      "Rows": 656,
      "SAR": 0.10486371719505,
      "SamplesPerPixel": 1,
      "ScanOptions": "FS",
      "ScanningSequence": "EP",
      "SequenceName": "epfid2d1_82",
      "SequenceVariant": [
        "SK",
        "SS"
],
      "SeriesDescription": "func_run-01_task-social_acq-ap-mb8",
      "SeriesNumber": 8,
      "SeriesTime": "173020.404000",
      "SliceLocation": -53.788347710901,
      "SliceThickness": 2.7000000476837,
      "SmallestImagePixelValue": 0,
      "SoftwareVersions": "syngo MR E11",
      "SpacingBetweenSlices": 2.6999999995995,
      "SpecificCharacterSet": "ISO_IR 100",
      "StudyID": "1",
      "StudyTime": "171422.661000",
      "TransmitCoilName": "Body",
      "VariableFlipAngleFlag": "N",
      "WindowCenterWidthExplanation": "Algo1",
      "dBdt": 0.0},
    "slices": {}
  },
  "time": {
    "samples": {
      "AcquisitionNumber": [1, 2, 3, 4, 5, 6, 7, 8, 9, 10, 11, 12, 13, 14, 15, 16, 17, 18, 19, 20, 21, 22, 23, 24, 25, 26, 27, 28, 29, 30, 31, 32, 33, 34, 35, 36, 37, 38, 39, 40, 41, 42, 43, 44, 45, 46, 47, 48, 49, 50, 51, 52, 53, 54, 55, 56, 57, 58, 59, 60, 61, 62, 63, 64, 65, 66, 67, 68, 69, 70, 71, 72, 73, 74, 75, 76, 77, 78, 79, 80, 81, 82, 83, 84, 85, 86, 87, 88, 89, 90, 91, 92, 93, 94, 95, 96, 97, 98, 99, 100, 101, 102, 103, 104, 105, 106, 107, 108, 109, 110, 111, 112, 113, 114, 115, 116, 117, 118, 119, 120, 121, 122, 123, 124, 125, 126, 127, 128, 129, 130, 131, 132, 133, 134, 135, 136, 137, 138, 139, 140, 141, 142, 143, 144, 145, 146, 147, 148, 149, 150, 151, 152, 153, 154, 155, 156, 157, 158, 159, 160, 161, 162, 163, 164, 165, 166, 167, 168, 169, 170, 171, 172, 173, 174, 175, 176, 177, 178, 179, 180, 181, 182, 183, 184, 185, 186, 187, 188, 189, 190, 191, 192, 193, 194, 195, 196, 197, 198, 199, 200, 201, 202, 203, 204, 205, 206, 207, 208, 209, 210, 211, 212, 213, 214, 215, 216, 217, 218, 219, 220, 221, 222, 223, 224, 225, 226, 227, 228, 229, 230, 231, 232, 233, 234, 235, 236, 237, 238, 239, 240, 241, 242, 243, 244, 245, 246, 247, 248, 249, 250, 251, 252, 253, 254, 255, 256, 257, 258, 259, 260, 261, 262, 263, 264, 265, 266, 267, 268, 269, 270, 271, 272, 273, 274, 275, 276, 277, 278, 279, 280, 281, 282, 283, 284, 285, 286, 287, 288, 289, 290, 291, 292, 293, 294, 295, 296, 297, 298, 299, 300, 301, 302, 303, 304, 305, 306, 307, 308, 309, 310, 311, 312, 313, 314, 315, 316, 317, 318, 319, 320, 321, 322, 323, 324, 325, 326, 327, 328, 329, 330, 331, 332, 333, 334, 335, 336, 337, 338, 339, 340, 341, 342, 343, 344, 345, 346, 347, 348, 349, 350, 351, 352, 353, 354, 355, 356, 357, 358, 359, 360, 361, 362, 363, 364, 365, 366, 367, 368, 369, 370, 371, 372, 373, 374, 375, 376, 377, 378, 379, 380, 381, 382, 383, 384, 385, 386, 387, 388, 389, 390, 391, 392, 393, 394, 395, 396, 397, 398, 399, 400, 401, 402, 403, 404, 405, 406, 407, 408, 409, 410, 411, 412, 413, 414, 415, 416, 417, 418, 419, 420, 421, 422, 423, 424, 425, 426, 427, 428, 429, 430, 431, 432, 433, 434, 435, 436, 437, 438, 439, 440, 441, 442, 443, 444, 445, 446, 447, 448, 449, 450, 451, 452, 453, 454, 455, 456, 457, 458, 459, 460, 461, 462, 463, 464, 465, 466, 467, 468, 469, 470, 471, 472, 473, 474, 475, 476, 477, 478, 479, 480, 481, 482, 483, 484, 485, 486, 487, 488, 489, 490, 491, 492, 493, 494, 495, 496, 497, 498, 499, 500, 501, 502, 503, 504, 505, 506, 507, 508, 509, 510, 511, 512, 513, 514, 515, 516, 517, 518, 519, 520, 521, 522, 523, 524, 525, 526, 527, 528, 529, 530, 531, 532, 533, 534, 535, 536, 537, 538, 539, 540, 541, 542, 543, 544, 545, 546, 547, 548, 549, 550, 551, 552, 553, 554, 555, 556, 557, 558, 559, 560, 561, 562, 563, 564, 565, 566, 567, 568, 569, 570, 571, 572, 573, 574, 575, 576, 577, 578, 579, 580, 581, 582, 583, 584, 585, 586, 587, 588, 589, 590, 591, 592, 593, 594, 595, 596, 597, 598, 599, 600, 601, 602, 603, 604, 605, 606, 607, 608, 609, 610, 611, 612, 613, 614, 615, 616, 617, 618, 619, 620, 621, 622, 623, 624, 625, 626, 627, 628, 629, 630, 631, 632, 633, 634, 635, 636, 637, 638, 639, 640, 641, 642, 643, 644, 645, 646, 647, 648, 649, 650, 651, 652, 653, 654, 655, 656, 657, 658, 659, 660, 661, 662, 663, 664, 665, 666, 667, 668, 669, 670, 671, 672, 673, 674, 675, 676, 677, 678, 679, 680, 681, 682, 683, 684, 685, 686, 687, 688, 689, 690, 691, 692, 693, 694, 695, 696, 697, 698, 699, 700, 701, 702, 703, 704, 705, 706, 707, 708, 709, 710, 711, 712, 713, 714, 715, 716, 717, 718, 719, 720, 721, 722, 723, 724, 725, 726, 727, 728, 729, 730, 731, 732, 733, 734, 735, 736, 737, 738, 739, 740, 741, 742, 743, 744, 745, 746, 747, 748, 749, 750, 751, 752, 753, 754, 755, 756, 757, 758, 759, 760, 761, 762, 763, 764, 765, 766, 767, 768, 769, 770, 771, 772, 773, 774, 775, 776, 777, 778, 779, 780, 781, 782, 783, 784, 785, 786, 787, 788, 789, 790, 791, 792, 793, 794, 795, 796, 797, 798, 799, 800, 801, 802, 803, 804, 805, 806, 807, 808, 809, 810, 811, 812, 813, 814, 815, 816, 817, 818, 819, 820, 821, 822, 823, 824, 825, 826, 827, 828, 829, 830, 831, 832, 833, 834, 835, 836, 837, 838, 839, 840, 841, 842, 843, 844, 845, 846, 847, 848, 849, 850, 851, 852, 853, 854, 855, 856, 857, 858, 859, 860, 861, 862, 863, 864, 865, 866, 867, 868, 869, 870, 871, 872],
      "AcquisitionTime": ["173002.740000", "173003.200000", "173003.660000", "173004.120000", "173004.580000", "173005.040000", "173005.500000", "173005.960000", "173006.420000", "173006.880000", "173007.340000", "173007.800000", "173008.260000", "173008.720000", "173009.180000", "173009.640000", "173010.100000", "173010.560000", "173011.020000", "173011.480000", "173011.940000", "173012.400000", "173012.860000", "173013.320000", "173013.780000", "173014.240000", "173014.700000", "173015.160000", "173015.620000", "173016.080000", "173016.540000", "173017.000000", "173017.460000", "173017.920000", "173018.380000", "173018.840000", "173019.300000", "173019.760000", "173020.220000", "173020.680000", "173021.140000", "173021.600000", "173022.060000", "173022.520000", "173022.980000", "173023.440000", "173023.900000", "173024.360000", "173024.820000", "173025.280000", "173025.740000", "173026.200000", "173026.660000", "173027.120000", "173027.580000", "173028.040000", "173028.500000", "173028.960000", "173029.420000", "173029.880000", "173030.340000", "173030.800000", "173031.260000", "173031.720000", "173032.180000", "173032.640000", "173033.100000", "173033.560000", "173034.020000", "173034.480000", "173034.940000", "173035.400000", "173035.860000", "173036.320000", "173036.780000", "173037.240000", "173037.700000", "173038.160000", "173038.620000", "173039.080000", "173039.540000", "173040.000000", "173040.460000", "173040.920000", "173041.380000", "173041.840000", "173042.300000", "173042.760000", "173043.220000", "173043.680000", "173044.140000", "173044.600000", "173045.060000", "173045.520000", "173045.980000", "173046.440000", "173046.900000", "173047.360000", "173047.820000", "173048.280000", "173048.740000", "173049.200000", "173049.660000", "173050.120000", "173050.580000", "173051.040000", "173051.500000", "173051.960000", "173052.420000", "173052.880000", "173053.340000", "173053.800000", "173054.260000", "173054.720000", "173055.180000", "173055.640000", "173056.100000", "173056.560000", "173057.020000", "173057.480000", "173057.940000", "173058.400000", "173058.860000", "173059.320000", "173059.780000", "173100.240000", "173100.700000", "173101.160000", "173101.620000", "173102.080000", "173102.540000", "173103.000000", "173103.460000", "173103.920000", "173104.380000", "173104.840000", "173105.300000", "173105.760000", "173106.220000", "173106.680000", "173107.140000", "173107.600000", "173108.060000", "173108.520000", "173108.980000", "173109.440000", "173109.900000", "173110.360000", "173110.820000", "173111.280000", "173111.740000", "173112.200000", "173112.660000", "173113.120000", "173113.580000", "173114.040000", "173114.500000", "173114.960000", "173115.420000", "173115.880000", "173116.340000", "173116.800000", "173117.260000", "173117.720000", "173118.180000", "173118.640000", "173119.100000", "173119.560000", "173120.020000", "173120.480000", "173120.940000", "173121.400000", "173121.860000", "173122.320000", "173122.780000", "173123.240000", "173123.700000", "173124.160000", "173124.620000", "173125.080000", "173125.540000", "173126.000000", "173126.460000", "173126.920000", "173127.380000", "173127.840000", "173128.300000", "173128.760000", "173129.220000", "173129.680000", "173130.140000", "173130.600000", "173131.060000", "173131.520000", "173131.980000", "173132.440000", "173132.900000", "173133.360000", "173133.820000", "173134.280000", "173134.740000", "173135.200000", "173135.660000", "173136.120000", "173136.580000", "173137.040000", "173137.500000", "173137.960000", "173138.420000", "173138.880000", "173139.340000", "173139.800000", "173140.260000", "173140.720000", "173141.180000", "173141.640000", "173142.100000", "173142.560000", "173143.020000", "173143.480000", "173143.940000", "173144.400000", "173144.860000", "173145.320000", "173145.780000", "173146.240000", "173146.700000", "173147.160000", "173147.620000", "173148.080000", "173148.540000", "173149.000000", "173149.460000", "173149.920000", "173150.380000", "173150.840000", "173151.300000", "173151.760000", "173152.220000", "173152.680000", "173153.140000", "173153.600000", "173154.060000", "173154.520000", "173154.980000", "173155.440000", "173155.900000", "173156.360000", "173156.820000", "173157.280000", "173157.740000", "173158.200000", "173158.660000", "173159.120000", "173159.580000", "173200.040000", "173200.500000", "173200.960000", "173201.420000", "173201.880000", "173202.340000", "173202.800000", "173203.260000", "173203.720000", "173204.180000", "173204.640000", "173205.100000", "173205.560000", "173206.020000", "173206.480000", "173206.940000", "173207.400000", "173207.860000", "173208.320000", "173208.780000", "173209.240000", "173209.700000", "173210.160000", "173210.620000", "173211.080000", "173211.540000", "173212.000000", "173212.460000", "173212.920000", "173213.380000", "173213.840000", "173214.300000", "173214.760000", "173215.220000", "173215.680000", "173216.140000", "173216.600000", "173217.060000", "173217.520000", "173217.980000", "173218.440000", "173218.900000", "173219.360000", "173219.820000", "173220.280000", "173220.740000", "173221.200000", "173221.660000", "173222.120000", "173222.580000", "173223.040000", "173223.500000", "173223.960000", "173224.420000", "173224.880000", "173225.340000", "173225.800000", "173226.260000", "173226.720000", "173227.180000", "173227.640000", "173228.100000", "173228.560000", "173229.020000", "173229.480000", "173229.940000", "173230.400000", "173230.860000", "173231.320000", "173231.780000", "173232.240000", "173232.700000", "173233.160000", "173233.620000", "173234.080000", "173234.540000", "173235.000000", "173235.460000", "173235.920000", "173236.380000", "173236.840000", "173237.300000", "173237.760000", "173238.220000", "173238.680000", "173239.140000", "173239.600000", "173240.060000", "173240.520000", "173240.980000", "173241.440000", "173241.900000", "173242.360000", "173242.820000", "173243.280000", "173243.740000", "173244.200000", "173244.660000", "173245.120000", "173245.580000", "173246.040000", "173246.500000", "173246.960000", "173247.420000", "173247.880000", "173248.340000", "173248.800000", "173249.260000", "173249.720000", "173250.180000", "173250.640000", "173251.100000", "173251.560000", "173252.020000", "173252.480000", "173252.940000", "173253.400000", "173253.860000", "173254.320000", "173254.780000", "173255.240000", "173255.700000", "173256.160000", "173256.620000", "173257.080000", "173257.540000", "173258.000000", "173258.460000", "173258.920000", "173259.380000", "173259.840000", "173300.300000", "173300.760000", "173301.220000", "173301.680000", "173302.140000", "173302.600000", "173303.060000", "173303.520000", "173303.980000", "173304.440000", "173304.900000", "173305.360000", "173305.820000", "173306.280000", "173306.740000", "173307.200000", "173307.660000", "173308.120000", "173308.580000", "173309.040000", "173309.500000", "173309.960000", "173310.420000", "173310.880000", "173311.340000", "173311.800000", "173312.260000", "173312.720000", "173313.180000", "173313.640000", "173314.100000", "173314.560000", "173315.020000", "173315.480000", "173315.940000", "173316.400000", "173316.860000", "173317.320000", "173317.780000", "173318.240000", "173318.700000", "173319.160000", "173319.620000", "173320.080000", "173320.540000", "173321.000000", "173321.460000", "173321.920000", "173322.380000", "173322.840000", "173323.300000", "173323.760000", "173324.220000", "173324.680000", "173325.140000", "173325.600000", "173326.060000", "173326.520000", "173326.980000", "173327.440000", "173327.900000", "173328.360000", "173328.820000", "173329.280000", "173329.740000", "173330.200000", "173330.660000", "173331.120000", "173331.580000", "173332.040000", "173332.500000", "173332.960000", "173333.420000", "173333.880000", "173334.340000", "173334.800000", "173335.260000", "173335.720000", "173336.180000", "173336.640000", "173337.100000", "173337.560000", "173338.020000", "173338.480000", "173338.940000", "173339.400000", "173339.860000", "173340.320000", "173340.780000", "173341.240000", "173341.700000", "173342.160000", "173342.620000", "173343.080000", "173343.540000", "173344.000000", "173344.460000", "173344.920000", "173345.380000", "173345.840000", "173346.300000", "173346.760000", "173347.220000", "173347.680000", "173348.140000", "173348.600000", "173349.060000", "173349.520000", "173349.980000", "173350.440000", "173350.900000", "173351.360000", "173351.820000", "173352.280000", "173352.740000", "173353.200000", "173353.660000", "173354.120000", "173354.580000", "173355.040000", "173355.500000", "173355.960000", "173356.420000", "173356.880000", "173357.340000", "173357.800000", "173358.260000", "173358.720000", "173359.180000", "173359.640000", "173400.100000", "173400.560000", "173401.020000", "173401.480000", "173401.940000", "173402.400000", "173402.860000", "173403.320000", "173403.780000", "173404.240000", "173404.700000", "173405.160000", "173405.620000", "173406.080000", "173406.540000", "173407.000000", "173407.460000", "173407.920000", "173408.380000", "173408.840000", "173409.300000", "173409.760000", "173410.220000", "173410.680000", "173411.140000", "173411.600000", "173412.060000", "173412.520000", "173412.980000", "173413.440000", "173413.900000", "173414.360000", "173414.820000", "173415.280000", "173415.740000", "173416.200000", "173416.660000", "173417.120000", "173417.580000", "173418.040000", "173418.500000", "173418.960000", "173419.420000", "173419.880000", "173420.340000", "173420.800000", "173421.260000", "173421.720000", "173422.180000", "173422.640000", "173423.100000", "173423.560000", "173424.020000", "173424.480000", "173424.940000", "173425.400000", "173425.860000", "173426.320000", "173426.780000", "173427.240000", "173427.700000", "173428.160000", "173428.620000", "173429.080000", "173429.540000", "173430.000000", "173430.460000", "173430.920000", "173431.380000", "173431.840000", "173432.300000", "173432.760000", "173433.220000", "173433.680000", "173434.140000", "173434.600000", "173435.060000", "173435.520000", "173435.980000", "173436.440000", "173436.900000", "173437.360000", "173437.820000", "173438.280000", "173438.740000", "173439.200000", "173439.660000", "173440.120000", "173440.580000", "173441.040000", "173441.500000", "173441.960000", "173442.420000", "173442.880000", "173443.340000", "173443.800000", "173444.260000", "173444.720000", "173445.180000", "173445.640000", "173446.100000", "173446.560000", "173447.020000", "173447.480000", "173447.940000", "173448.400000", "173448.860000", "173449.320000", "173449.780000", "173450.240000", "173450.700000", "173451.160000", "173451.620000", "173452.080000", "173452.540000", "173453.000000", "173453.460000", "173453.920000", "173454.380000", "173454.840000", "173455.300000", "173455.760000", "173456.220000", "173456.680000", "173457.140000", "173457.600000", "173458.060000", "173458.520000", "173458.980000", "173459.440000", "173459.900000", "173500.360000", "173500.820000", "173501.280000", "173501.740000", "173502.200000", "173502.660000", "173503.120000", "173503.580000", "173504.040000", "173504.500000", "173504.960000", "173505.420000", "173505.880000", "173506.340000", "173506.800000", "173507.260000", "173507.720000", "173508.180000", "173508.640000", "173509.100000", "173509.560000", "173510.020000", "173510.480000", "173510.940000", "173511.400000", "173511.860000", "173512.320000", "173512.780000", "173513.240000", "173513.700000", "173514.160000", "173514.620000", "173515.080000", "173515.540000", "173516.000000", "173516.460000", "173516.920000", "173517.380000", "173517.840000", "173518.300000", "173518.760000", "173519.220000", "173519.680000", "173520.140000", "173520.600000", "173521.060000", "173521.520000", "173521.980000", "173522.440000", "173522.900000", "173523.360000", "173523.820000", "173524.280000", "173524.740000", "173525.200000", "173525.660000", "173526.120000", "173526.580000", "173527.040000", "173527.500000", "173527.960000", "173528.420000", "173528.880000", "173529.340000", "173529.800000", "173530.260000", "173530.720000", "173531.180000", "173531.640000", "173532.100000", "173532.560000", "173533.020000", "173533.480000", "173533.940000", "173534.400000", "173534.860000", "173535.320000", "173535.780000", "173536.240000", "173536.700000", "173537.160000", "173537.620000", "173538.080000", "173538.540000", "173539.000000", "173539.460000", "173539.920000", "173540.380000", "173540.840000", "173541.300000", "173541.760000", "173542.220000", "173542.680000", "173543.140000", "173543.600000", "173544.060000", "173544.520000", "173544.980000", "173545.440000", "173545.900000", "173546.360000", "173546.820000", "173547.280000", "173547.740000", "173548.200000", "173548.660000", "173549.120000", "173549.580000", "173550.040000", "173550.500000", "173550.960000", "173551.420000", "173551.880000", "173552.340000", "173552.800000", "173553.260000", "173553.720000", "173554.180000", "173554.640000", "173555.100000", "173555.560000", "173556.020000", "173556.480000", "173556.940000", "173557.400000", "173557.860000", "173558.320000", "173558.780000", "173559.240000", "173559.700000", "173600.160000", "173600.620000", "173601.080000", "173601.540000", "173602.000000", "173602.460000", "173602.920000", "173603.380000", "173603.840000", "173604.300000", "173604.760000", "173605.220000", "173605.680000", "173606.140000", "173606.600000", "173607.060000", "173607.520000", "173607.980000", "173608.440000", "173608.900000", "173609.360000", "173609.820000", "173610.280000", "173610.740000", "173611.200000", "173611.660000", "173612.120000", "173612.580000", "173613.040000", "173613.500000", "173613.960000", "173614.420000", "173614.880000", "173615.340000", "173615.800000", "173616.260000", "173616.720000", "173617.180000", "173617.640000", "173618.100000", "173618.560000", "173619.020000", "173619.480000", "173619.940000", "173620.400000", "173620.860000", "173621.320000", "173621.780000", "173622.240000", "173622.700000", "173623.160000", "173623.620000", "173624.080000", "173624.540000", "173625.000000", "173625.460000", "173625.920000", "173626.380000", "173626.840000", "173627.300000", "173627.760000", "173628.220000", "173628.680000", "173629.140000", "173629.600000", "173630.060000", "173630.520000", "173630.980000", "173631.440000", "173631.900000", "173632.360000", "173632.820000", "173633.280000", "173633.740000", "173634.200000", "173634.660000", "173635.120000", "173635.580000", "173636.040000", "173636.500000", "173636.960000", "173637.420000", "173637.880000", "173638.340000", "173638.800000", "173639.260000", "173639.720000", "173640.180000", "173640.640000", "173641.100000", "173641.560000", "173642.020000", "173642.480000", "173642.940000", "173643.400000"],
