{
  "AcquisitionMatrixPE": 82,
  "AcquisitionNumber": 1,
  "AcquisitionTime": "12:59:57.220000",
  "BandwidthPerPixelPhaseEncode": 24.888,
  "BaseResolution": 82,
  "BodyPartExamined": "BRAIN",
  "ConsistencyInfo": "N4_VE11E_LATEST_20181129",
  "ConversionSoftware": "dcm2niix",
  "ConversionSoftwareVersion": "v1.0.20201102",
  "DerivedVendorReportedEchoSpacing": 0.00049,
  "DeviceSerialNumber": "66112",
  "DwellTime": 2e-06,
  "EchoTime": 0.0272,
  "EchoTrainLength": 82,
  "EffectiveEchoSpacing": 0.00049,
  "FlipAngle": 44,
  "ImageComments": "Unaliased MB8/PE3",
  "ImageOrientationPatientDICOM": [0.997759, 0.0457585, 0.0488213, -0.0507189, 0.993099, 0.105743],
  "ImageType": [
    "ORIGINAL",
    "PRIMARY",
    "M",
    "MB",
    "ND",
    "NORM",
    "MOSAIC"
],
  "ImagingFrequency": 123.252,
  "InPlanePhaseEncodingDirectionDICOM": "COL",
  "InstitutionAddress": "Maynard 3,Hanover,NH,US,03755",
  "InstitutionName": "Dartmouth College - PBS",
  "InstitutionalDepartmentName": "Department",
  "MRAcquisitionType": "2D",
  "MagneticFieldStrength": 3,
  "Manufacturer": "Siemens",
  "ManufacturersModelName": "Prisma",
  "Modality": "MR",
  "MultibandAccelerationFactor": 8,
  "PartialFourier": 1,
  "PatientPosition": "HFS",
  "PercentPhaseFOV": 100,
  "PercentSampling": 100,
  "PhaseEncodingDirection": "j-",
  "PhaseEncodingSteps": 82,
  "PhaseResolution": 1,
  "PixelBandwidth": 3050,
  "ProcedureStepDescription": "Wager_Wager^1076_spacetop",
  "ProtocolName": "func_run-04_task-social_acq-ap-mb8",
  "PulseSequenceDetails": "%CustomerSeq%\\cmrr_mbep2d_bold",
  "ReceiveCoilActiveElements": "HEA;HEP",
  "ReceiveCoilName": "Head_32",
  "ReconMatrixPE": 82,
  "RepetitionTime": 0.46,
  "SAR": 0.102029,
  "ScanOptions": "FS",
  "ScanningSequence": "EP",
  "SequenceName": "epfid2d1_82",
  "SequenceVariant": "SK\\SS",
  "SeriesDescription": "func_run-04_task-social_acq-ap-mb8",
  "SeriesNumber": 16,
  "ShimSetting": [4154, -7751, -7251, 456, -83, -164, -29, 7],
  "SliceThickness": 2.7,
  "SliceTiming": [0, 0.25, 0.0625, 0.3125, 0.125, 0.375, 0.1875, 0, 0.25, 0.0625, 0.3125, 0.125, 0.375, 0.1875, 0, 0.25, 0.0625, 0.3125, 0.125, 0.375, 0.1875, 0, 0.25, 0.0625, 0.3125, 0.125, 0.375, 0.1875, 0, 0.25, 0.0625, 0.3125, 0.125, 0.375, 0.1875, 0, 0.25, 0.0625, 0.3125, 0.125, 0.375, 0.1875, 0, 0.25, 0.0625, 0.3125, 0.125, 0.375, 0.1875, 0, 0.25, 0.0625, 0.3125, 0.125, 0.375, 0.1875],
  "SoftwareVersions": "syngo MR E11",
  "SpacingBetweenSlices": 2.7,
  "StationName": "AWP66112",
  "TaskName": "social",
  "TotalReadoutTime": 0.03969,
  "TxRefAmp": 251.813,
  "WipMemBlock": "33eed510-58fc-4e80-ac76-7ef4120540cf||Sequence: R016 ve11e/master r/434b28f1; Aug  7 2019 18:53:46 by eja",
  "dcmmeta_affine": [
    [-2.6769139766693115, -0.1360749751329422, 0.11784358322620392, 116.6454086303711],
    [-0.12276657670736313, 2.664412498474121, 0.29155126214027405, -92.31764221191406],
    [0.13098397850990295, -0.2837001383304596, 2.6816246509552, -50.06892395019531],
    [0.0, 0.0, 0.0, 1.0]
],
  "dcmmeta_reorient_transform": [
    [0.0, -1.0, 0.0, 81.0],
    [1.0, 0.0, 0.0, 0.0],
    [0.0, 0.0, 1.0, 0.0],
    [0.0, 0.0, 0.0, 1.0]
],
  "dcmmeta_shape": [82, 82, 56, 872],
  "dcmmeta_slice_dim": 2,
  "dcmmeta_version": 0.6,
  "global": {
    "const": {
      "AccessionNumber": "A003972",
      "AcquisitionMatrix": [82, 0, 0, 82],
      "AngioFlag": "N",
      "BitsAllocated": 16,
      "BitsStored": 16,
      "BodyPartExamined": "BRAIN",
      "Columns": 656,
      "EchoNumbers": 1,
      "EchoTime": 27.2,
      "EchoTrainLength": 82,
      "FlipAngle": 44.0,
      "HighBit": 15,
      "ImageOrientationPatient": [0.99775881083501, 0.04575845134667, 0.04882130202544, -0.0507188528792, 0.99309922143282, 0.10574277446778],
      "ImagePositionPatient": [-834.84411718745, -923.42020719166, -192.06297563992],
      "ImageType": [
        "ORIGINAL",
        "PRIMARY",
        "M",
        "MB",
        "ND",
        "NORM",
        "MOSAIC"
],
      "ImagedNucleus": "1H",
      "ImagingFrequency": 123.252152,
      "InPlanePhaseEncodingDirection": "COL",
      "MRAcquisitionType": "2D",
      "MagneticFieldStrength": 3.0,
      "Manufacturer": "SIEMENS",
      "ManufacturerModelName": "Prisma",
      "Modality": "MR",
      "NumberOfAverages": 1.0,
      "NumberOfPhaseEncodingSteps": 82,
      "PercentPhaseFieldOfView": 100.0,
      "PercentSampling": 100.0,
      "PerformedProcedureStepStartTime": "115005.810000",
      "PhotometricInterpretation": "MONOCHROME2",
      "PixelBandwidth": 3050.0,
      "PixelRepresentation": 0,
      "PixelSpacing": [2.6829268932343, 2.6829268932343],
      "ProtocolName": "func_run-04_task-social_acq-ap-mb8",
      "RepetitionTime": 460.0,
      "Rows": 656,
      "SAR": 0.10202881911376,
      "SamplesPerPixel": 1,
      "ScanOptions": "FS",
      "ScanningSequence": "EP",
      "SequenceName": "epfid2d1_82",
      "SequenceVariant": [
        "SK",
        "SS"
],
      "SeriesDescription": "func_run-04_task-social_acq-ap-mb8",
      "SeriesNumber": 16,
      "SeriesTime": "130013.709000",
      "SliceLocation": -54.605729549132,
      "SliceThickness": 2.7000000476837,
      "SmallestImagePixelValue": 0,
      "SoftwareVersions": "syngo MR E11",
      "SpacingBetweenSlices": 2.7000000229077,
      "SpecificCharacterSet": "ISO_IR 100",
      "StudyID": "2",
      "StudyTime": "115005.755000",
      "TransmitCoilName": "Body",
      "VariableFlipAngleFlag": "N",
      "WindowCenterWidthExplanation": "Algo1"
    },
    "slices": {}
  },
  "time": {
    "samples": {
      "AcquisitionNumber": [1, 2, 3, 4, 5, 6, 7, 8, 9, 10, 11, 12, 13, 14, 15, 16, 17, 18, 19, 20, 21, 22, 23, 24, 25, 26, 27, 28, 29, 30, 31, 32, 33, 34, 35, 36, 37, 38, 39, 40, 41, 42, 43, 44, 45, 46, 47, 48, 49, 50, 51, 52, 53, 54, 55, 56, 57, 58, 59, 60, 61, 62, 63, 64, 65, 66, 67, 68, 69, 70, 71, 72, 73, 74, 75, 76, 77, 78, 79, 80, 81, 82, 83, 84, 85, 86, 87, 88, 89, 90, 91, 92, 93, 94, 95, 96, 97, 98, 99, 100, 101, 102, 103, 104, 105, 106, 107, 108, 109, 110, 111, 112, 113, 114, 115, 116, 117, 118, 119, 120, 121, 122, 123, 124, 125, 126, 127, 128, 129, 130, 131, 132, 133, 134, 135, 136, 137, 138, 139, 140, 141, 142, 143, 144, 145, 146, 147, 148, 149, 150, 151, 152, 153, 154, 155, 156, 157, 158, 159, 160, 161, 162, 163, 164, 165, 166, 167, 168, 169, 170, 171, 172, 173, 174, 175, 176, 177, 178, 179, 180, 181, 182, 183, 184, 185, 186, 187, 188, 189, 190, 191, 192, 193, 194, 195, 196, 197, 198, 199, 200, 201, 202, 203, 204, 205, 206, 207, 208, 209, 210, 211, 212, 213, 214, 215, 216, 217, 218, 219, 220, 221, 222, 223, 224, 225, 226, 227, 228, 229, 230, 231, 232, 233, 234, 235, 236, 237, 238, 239, 240, 241, 242, 243, 244, 245, 246, 247, 248, 249, 250, 251, 252, 253, 254, 255, 256, 257, 258, 259, 260, 261, 262, 263, 264, 265, 266, 267, 268, 269, 270, 271, 272, 273, 274, 275, 276, 277, 278, 279, 280, 281, 282, 283, 284, 285, 286, 287, 288, 289, 290, 291, 292, 293, 294, 295, 296, 297, 298, 299, 300, 301, 302, 303, 304, 305, 306, 307, 308, 309, 310, 311, 312, 313, 314, 315, 316, 317, 318, 319, 320, 321, 322, 323, 324, 325, 326, 327, 328, 329, 330, 331, 332, 333, 334, 335, 336, 337, 338, 339, 340, 341, 342, 343, 344, 345, 346, 347, 348, 349, 350, 351, 352, 353, 354, 355, 356, 357, 358, 359, 360, 361, 362, 363, 364, 365, 366, 367, 368, 369, 370, 371, 372, 373, 374, 375, 376, 377, 378, 379, 380, 381, 382, 383, 384, 385, 386, 387, 388, 389, 390, 391, 392, 393, 394, 395, 396, 397, 398, 399, 400, 401, 402, 403, 404, 405, 406, 407, 408, 409, 410, 411, 412, 413, 414, 415, 416, 417, 418, 419, 420, 421, 422, 423, 424, 425, 426, 427, 428, 429, 430, 431, 432, 433, 434, 435, 436, 437, 438, 439, 440, 441, 442, 443, 444, 445, 446, 447, 448, 449, 450, 451, 452, 453, 454, 455, 456, 457, 458, 459, 460, 461, 462, 463, 464, 465, 466, 467, 468, 469, 470, 471, 472, 473, 474, 475, 476, 477, 478, 479, 480, 481, 482, 483, 484, 485, 486, 487, 488, 489, 490, 491, 492, 493, 494, 495, 496, 497, 498, 499, 500, 501, 502, 503, 504, 505, 506, 507, 508, 509, 510, 511, 512, 513, 514, 515, 516, 517, 518, 519, 520, 521, 522, 523, 524, 525, 526, 527, 528, 529, 530, 531, 532, 533, 534, 535, 536, 537, 538, 539, 540, 541, 542, 543, 544, 545, 546, 547, 548, 549, 550, 551, 552, 553, 554, 555, 556, 557, 558, 559, 560, 561, 562, 563, 564, 565, 566, 567, 568, 569, 570, 571, 572, 573, 574, 575, 576, 577, 578, 579, 580, 581, 582, 583, 584, 585, 586, 587, 588, 589, 590, 591, 592, 593, 594, 595, 596, 597, 598, 599, 600, 601, 602, 603, 604, 605, 606, 607, 608, 609, 610, 611, 612, 613, 614, 615, 616, 617, 618, 619, 620, 621, 622, 623, 624, 625, 626, 627, 628, 629, 630, 631, 632, 633, 634, 635, 636, 637, 638, 639, 640, 641, 642, 643, 644, 645, 646, 647, 648, 649, 650, 651, 652, 653, 654, 655, 656, 657, 658, 659, 660, 661, 662, 663, 664, 665, 666, 667, 668, 669, 670, 671, 672, 673, 674, 675, 676, 677, 678, 679, 680, 681, 682, 683, 684, 685, 686, 687, 688, 689, 690, 691, 692, 693, 694, 695, 696, 697, 698, 699, 700, 701, 702, 703, 704, 705, 706, 707, 708, 709, 710, 711, 712, 713, 714, 715, 716, 717, 718, 719, 720, 721, 722, 723, 724, 725, 726, 727, 728, 729, 730, 731, 732, 733, 734, 735, 736, 737, 738, 739, 740, 741, 742, 743, 744, 745, 746, 747, 748, 749, 750, 751, 752, 753, 754, 755, 756, 757, 758, 759, 760, 761, 762, 763, 764, 765, 766, 767, 768, 769, 770, 771, 772, 773, 774, 775, 776, 777, 778, 779, 780, 781, 782, 783, 784, 785, 786, 787, 788, 789, 790, 791, 792, 793, 794, 795, 796, 797, 798, 799, 800, 801, 802, 803, 804, 805, 806, 807, 808, 809, 810, 811, 812, 813, 814, 815, 816, 817, 818, 819, 820, 821, 822, 823, 824, 825, 826, 827, 828, 829, 830, 831, 832, 833, 834, 835, 836, 837, 838, 839, 840, 841, 842, 843, 844, 845, 846, 847, 848, 849, 850, 851, 852, 853, 854, 855, 856, 857, 858, 859, 860, 861, 862, 863, 864, 865, 866, 867, 868, 869, 870, 871, 872],
      "AcquisitionTime": ["125957.220000", "125957.680000", "125958.140000", "125958.600000", "125959.060000", "125959.520000", "125959.980000", "130000.440000", "130000.900000", "130001.360000", "130001.820000", "130002.280000", "130002.740000", "130003.200000", "130003.660000", "130004.120000", "130004.580000", "130005.040000", "130005.500000", "130005.960000", "130006.420000", "130006.880000", "130007.340000", "130007.800000", "130008.260000", "130008.720000", "130009.180000", "130009.640000", "130010.100000", "130010.560000", "130011.020000", "130011.480000", "130011.940000", "130012.400000", "130012.860000", "130013.320000", "130013.780000", "130014.240000", "130014.700000", "130015.160000", "130015.620000", "130016.080000", "130016.540000", "130017.000000", "130017.460000", "130017.920000", "130018.380000", "130018.840000", "130019.300000", "130019.760000", "130020.220000", "130020.680000", "130021.140000", "130021.600000", "130022.060000", "130022.520000", "130022.980000", "130023.440000", "130023.900000", "130024.360000", "130024.820000", "130025.280000", "130025.740000", "130026.200000", "130026.660000", "130027.120000", "130027.580000", "130028.040000", "130028.500000", "130028.960000", "130029.420000", "130029.880000", "130030.340000", "130030.800000", "130031.260000", "130031.720000", "130032.180000", "130032.640000", "130033.100000", "130033.560000", "130034.020000", "130034.480000", "130034.940000", "130035.400000", "130035.860000", "130036.320000", "130036.780000", "130037.240000", "130037.700000", "130038.160000", "130038.620000", "130039.080000", "130039.540000", "130040.000000", "130040.460000", "130040.920000", "130041.380000", "130041.840000", "130042.300000", "130042.760000", "130043.220000", "130043.680000", "130044.140000", "130044.600000", "130045.060000", "130045.520000", "130045.980000", "130046.440000", "130046.900000", "130047.360000", "130047.820000", "130048.280000", "130048.740000", "130049.200000", "130049.660000", "130050.120000", "130050.580000", "130051.040000", "130051.500000", "130051.960000", "130052.420000", "130052.880000", "130053.340000", "130053.800000", "130054.260000", "130054.720000", "130055.180000", "130055.640000", "130056.100000", "130056.560000", "130057.020000", "130057.480000", "130057.940000", "130058.400000", "130058.860000", "130059.320000", "130059.780000", "130100.240000", "130100.700000", "130101.160000", "130101.620000", "130102.080000", "130102.540000", "130103.000000", "130103.460000", "130103.920000", "130104.380000", "130104.840000", "130105.300000", "130105.760000", "130106.220000", "130106.680000", "130107.140000", "130107.600000", "130108.060000", "130108.520000", "130108.980000", "130109.440000", "130109.900000", "130110.360000", "130110.820000", "130111.280000", "130111.740000", "130112.200000", "130112.660000", "130113.120000", "130113.580000", "130114.040000", "130114.500000", "130114.960000", "130115.420000", "130115.880000", "130116.340000", "130116.800000", "130117.260000", "130117.720000", "130118.180000", "130118.640000", "130119.100000", "130119.560000", "130120.020000", "130120.480000", "130120.940000", "130121.400000", "130121.860000", "130122.320000", "130122.780000", "130123.240000", "130123.700000", "130124.160000", "130124.620000", "130125.080000", "130125.540000", "130126.000000", "130126.460000", "130126.920000", "130127.380000", "130127.840000", "130128.300000", "130128.760000", "130129.220000", "130129.680000", "130130.140000", "130130.600000", "130131.060000", "130131.520000", "130131.980000", "130132.440000", "130132.900000", "130133.360000", "130133.820000", "130134.280000", "130134.740000", "130135.200000", "130135.660000", "130136.120000", "130136.580000", "130137.040000", "130137.500000", "130137.960000", "130138.420000", "130138.880000", "130139.340000", "130139.800000", "130140.260000", "130140.720000", "130141.180000", "130141.640000", "130142.100000", "130142.560000", "130143.020000", "130143.480000", "130143.940000", "130144.400000", "130144.860000", "130145.320000", "130145.780000", "130146.240000", "130146.700000", "130147.160000", "130147.620000", "130148.080000", "130148.540000", "130149.000000", "130149.460000", "130149.920000", "130150.380000", "130150.840000", "130151.300000", "130151.760000", "130152.220000", "130152.680000", "130153.140000", "130153.600000", "130154.060000", "130154.520000", "130154.980000", "130155.440000", "130155.900000", "130156.360000", "130156.820000", "130157.280000", "130157.740000", "130158.200000", "130158.660000", "130159.120000", "130159.580000", "130200.040000", "130200.500000", "130200.960000", "130201.420000", "130201.880000", "130202.340000", "130202.800000", "130203.260000", "130203.720000", "130204.180000", "130204.640000", "130205.100000", "130205.560000", "130206.020000", "130206.480000", "130206.940000", "130207.400000", "130207.860000", "130208.320000", "130208.780000", "130209.240000", "130209.700000", "130210.160000", "130210.620000", "130211.080000", "130211.540000", "130212.000000", "130212.460000", "130212.920000", "130213.380000", "130213.840000", "130214.300000", "130214.760000", "130215.220000", "130215.680000", "130216.140000", "130216.600000", "130217.060000", "130217.520000", "130217.980000", "130218.440000", "130218.900000", "130219.360000", "130219.820000", "130220.280000", "130220.740000", "130221.200000", "130221.660000", "130222.120000", "130222.580000", "130223.040000", "130223.500000", "130223.960000", "130224.420000", "130224.880000", "130225.340000", "130225.800000", "130226.260000", "130226.720000", "130227.180000", "130227.640000", "130228.100000", "130228.560000", "130229.020000", "130229.480000", "130229.940000", "130230.400000", "130230.860000", "130231.320000", "130231.780000", "130232.240000", "130232.700000", "130233.160000", "130233.620000", "130234.080000", "130234.540000", "130235.000000", "130235.460000", "130235.920000", "130236.380000", "130236.840000", "130237.300000", "130237.760000", "130238.220000", "130238.680000", "130239.140000", "130239.600000", "130240.060000", "130240.520000", "130240.980000", "130241.440000", "130241.900000", "130242.360000", "130242.820000", "130243.280000", "130243.740000", "130244.200000", "130244.660000", "130245.120000", "130245.580000", "130246.040000", "130246.500000", "130246.960000", "130247.420000", "130247.880000", "130248.340000", "130248.800000", "130249.260000", "130249.720000", "130250.180000", "130250.640000", "130251.100000", "130251.560000", "130252.020000", "130252.480000", "130252.940000", "130253.400000", "130253.860000", "130254.320000", "130254.780000", "130255.240000", "130255.700000", "130256.160000", "130256.620000", "130257.080000", "130257.540000", "130258.000000", "130258.460000", "130258.920000", "130259.380000", "130259.840000", "130300.300000", "130300.760000", "130301.220000", "130301.680000", "130302.140000", "130302.600000", "130303.060000", "130303.520000", "130303.980000", "130304.440000", "130304.900000", "130305.360000", "130305.820000", "130306.280000", "130306.740000", "130307.200000", "130307.660000", "130308.120000", "130308.580000", "130309.040000", "130309.500000", "130309.960000", "130310.420000", "130310.880000", "130311.340000", "130311.800000", "130312.260000", "130312.720000", "130313.180000", "130313.640000", "130314.100000", "130314.560000", "130315.020000", "130315.480000", "130315.940000", "130316.400000", "130316.860000", "130317.320000", "130317.780000", "130318.240000", "130318.700000", "130319.160000", "130319.620000", "130320.080000", "130320.540000", "130321.000000", "130321.460000", "130321.920000", "130322.380000", "130322.840000", "130323.300000", "130323.760000", "130324.220000", "130324.680000", "130325.140000", "130325.600000", "130326.060000", "130326.520000", "130326.980000", "130327.440000", "130327.900000", "130328.360000", "130328.820000", "130329.280000", "130329.740000", "130330.200000", "130330.660000", "130331.120000", "130331.580000", "130332.040000", "130332.500000", "130332.960000", "130333.420000", "130333.880000", "130334.340000", "130334.800000", "130335.260000", "130335.720000", "130336.180000", "130336.640000", "130337.100000", "130337.560000", "130338.020000", "130338.480000", "130338.940000", "130339.400000", "130339.860000", "130340.320000", "130340.780000", "130341.240000", "130341.700000", "130342.160000", "130342.620000", "130343.080000", "130343.540000", "130344.000000", "130344.460000", "130344.920000", "130345.380000", "130345.840000", "130346.300000", "130346.760000", "130347.220000", "130347.680000", "130348.140000", "130348.600000", "130349.060000", "130349.520000", "130349.980000", "130350.440000", "130350.900000", "130351.360000", "130351.820000", "130352.280000", "130352.740000", "130353.200000", "130353.660000", "130354.120000", "130354.580000", "130355.040000", "130355.500000", "130355.960000", "130356.420000", "130356.880000", "130357.340000", "130357.800000", "130358.260000", "130358.720000", "130359.180000", "130359.640000", "130400.100000", "130400.560000", "130401.020000", "130401.480000", "130401.940000", "130402.400000", "130402.860000", "130403.320000", "130403.780000", "130404.240000", "130404.700000", "130405.160000", "130405.620000", "130406.080000", "130406.540000", "130407.000000", "130407.460000", "130407.920000", "130408.380000", "130408.840000", "130409.300000", "130409.760000", "130410.220000", "130410.680000", "130411.140000", "130411.600000", "130412.060000", "130412.520000", "130412.980000", "130413.440000", "130413.900000", "130414.360000", "130414.820000", "130415.280000", "130415.740000", "130416.200000", "130416.660000", "130417.120000", "130417.580000", "130418.040000", "130418.500000", "130418.960000", "130419.420000", "130419.880000", "130420.340000", "130420.800000", "130421.260000", "130421.720000", "130422.180000", "130422.640000", "130423.100000", "130423.560000", "130424.020000", "130424.480000", "130424.940000", "130425.400000", "130425.860000", "130426.320000", "130426.780000", "130427.240000", "130427.700000", "130428.160000", "130428.620000", "130429.080000", "130429.540000", "130430.000000", "130430.460000", "130430.920000", "130431.380000", "130431.840000", "130432.300000", "130432.760000", "130433.220000", "130433.680000", "130434.140000", "130434.600000", "130435.060000", "130435.520000", "130435.980000", "130436.440000", "130436.900000", "130437.360000", "130437.820000", "130438.280000", "130438.740000", "130439.200000", "130439.660000", "130440.120000", "130440.580000", "130441.040000", "130441.500000", "130441.960000", "130442.420000", "130442.880000", "130443.340000", "130443.800000", "130444.260000", "130444.720000", "130445.180000", "130445.640000", "130446.100000", "130446.560000", "130447.020000", "130447.480000", "130447.940000", "130448.400000", "130448.860000", "130449.320000", "130449.780000", "130450.240000", "130450.700000", "130451.160000", "130451.620000", "130452.080000", "130452.540000", "130453.000000", "130453.460000", "130453.920000", "130454.380000", "130454.840000", "130455.300000", "130455.760000", "130456.220000", "130456.680000", "130457.140000", "130457.600000", "130458.060000", "130458.520000", "130458.980000", "130459.440000", "130459.900000", "130500.360000", "130500.820000", "130501.280000", "130501.740000", "130502.200000", "130502.660000", "130503.120000", "130503.580000", "130504.040000", "130504.500000", "130504.960000", "130505.420000", "130505.880000", "130506.340000", "130506.800000", "130507.260000", "130507.720000", "130508.180000", "130508.640000", "130509.100000", "130509.560000", "130510.020000", "130510.480000", "130510.940000", "130511.400000", "130511.860000", "130512.320000", "130512.780000", "130513.240000", "130513.700000", "130514.160000", "130514.620000", "130515.080000", "130515.540000", "130516.000000", "130516.460000", "130516.920000", "130517.380000", "130517.840000", "130518.300000", "130518.760000", "130519.220000", "130519.680000", "130520.140000", "130520.600000", "130521.060000", "130521.520000", "130521.980000", "130522.440000", "130522.900000", "130523.360000", "130523.820000", "130524.280000", "130524.740000", "130525.200000", "130525.660000", "130526.120000", "130526.580000", "130527.040000", "130527.500000", "130527.960000", "130528.420000", "130528.880000", "130529.340000", "130529.800000", "130530.260000", "130530.720000", "130531.180000", "130531.640000", "130532.100000", "130532.560000", "130533.020000", "130533.480000", "130533.940000", "130534.400000", "130534.860000", "130535.320000", "130535.780000", "130536.240000", "130536.700000", "130537.160000", "130537.620000", "130538.080000", "130538.540000", "130539.000000", "130539.460000", "130539.920000", "130540.380000", "130540.840000", "130541.300000", "130541.760000", "130542.220000", "130542.680000", "130543.140000", "130543.600000", "130544.060000", "130544.520000", "130544.980000", "130545.440000", "130545.900000", "130546.360000", "130546.820000", "130547.280000", "130547.740000", "130548.200000", "130548.660000", "130549.120000", "130549.580000", "130550.040000", "130550.500000", "130550.960000", "130551.420000", "130551.880000", "130552.340000", "130552.800000", "130553.260000", "130553.720000", "130554.180000", "130554.640000", "130555.100000", "130555.560000", "130556.020000", "130556.480000", "130556.940000", "130557.400000", "130557.860000", "130558.320000", "130558.780000", "130559.240000", "130559.700000", "130600.160000", "130600.620000", "130601.080000", "130601.540000", "130602.000000", "130602.460000", "130602.920000", "130603.380000", "130603.840000", "130604.300000", "130604.760000", "130605.220000", "130605.680000", "130606.140000", "130606.600000", "130607.060000", "130607.520000", "130607.980000", "130608.440000", "130608.900000", "130609.360000", "130609.820000", "130610.280000", "130610.740000", "130611.200000", "130611.660000", "130612.120000", "130612.580000", "130613.040000", "130613.500000", "130613.960000", "130614.420000", "130614.880000", "130615.340000", "130615.800000", "130616.260000", "130616.720000", "130617.180000", "130617.640000", "130618.100000", "130618.560000", "130619.020000", "130619.480000", "130619.940000", "130620.400000", "130620.860000", "130621.320000", "130621.780000", "130622.240000", "130622.700000", "130623.160000", "130623.620000", "130624.080000", "130624.540000", "130625.000000", "130625.460000", "130625.920000", "130626.380000", "130626.840000", "130627.300000", "130627.760000", "130628.220000", "130628.680000", "130629.140000", "130629.600000", "130630.060000", "130630.520000", "130630.980000", "130631.440000", "130631.900000", "130632.360000", "130632.820000", "130633.280000", "130633.740000", "130634.200000", "130634.660000", "130635.120000", "130635.580000", "130636.040000", "130636.500000", "130636.960000", "130637.420000", "130637.880000"],
