{
  "AcquisitionMatrixPE": 82,
  "AcquisitionNumber": 1,
  "AcquisitionTime": "12:51:57.217500",
  "BandwidthPerPixelPhaseEncode": 24.888,
  "BaseResolution": 82,
  "BodyPartExamined": "BRAIN",
  "ConsistencyInfo": "N4_VE11E_LATEST_20181129",
  "ConversionSoftware": "dcm2niix",
  "ConversionSoftwareVersion": "v1.0.20201102",
  "DerivedVendorReportedEchoSpacing": 0.00049,
  "DeviceSerialNumber": "66112",
  "DwellTime": 2e-06,
  "EchoTime": 0.0272,
  "EchoTrainLength": 82,
  "EffectiveEchoSpacing": 0.00049,
  "FlipAngle": 44,
  "ImageComments": "Unaliased MB8/PE3",
  "ImageOrientationPatientDICOM": [0.997759, 0.0457585, 0.0488213, -0.0507189, 0.993099, 0.105743],
  "ImageType": [
    "ORIGINAL",
    "PRIMARY",
    "M",
    "MB",
    "ND",
    "NORM",
    "MOSAIC"
],
  "ImagingFrequency": 123.252,
  "InPlanePhaseEncodingDirectionDICOM": "COL",
  "InstitutionAddress": "Maynard 3,Hanover,NH,US,03755",
  "InstitutionName": "Dartmouth College - PBS",
  "InstitutionalDepartmentName": "Department",
  "MRAcquisitionType": "2D",
  "MagneticFieldStrength": 3,
  "Manufacturer": "Siemens",
  "ManufacturersModelName": "Prisma",
  "Modality": "MR",
  "MultibandAccelerationFactor": 8,
  "PartialFourier": 1,
  "PatientPosition": "HFS",
  "PercentPhaseFOV": 100,
  "PercentSampling": 100,
  "PhaseEncodingDirection": "j-",
  "PhaseEncodingSteps": 82,
  "PhaseResolution": 1,
  "PixelBandwidth": 3050,
  "ProcedureStepDescription": "Wager_Wager^1076_spacetop",
  "ProtocolName": "func_run-03_task-social_acq-ap-mb8",
  "PulseSequenceDetails": "%CustomerSeq%\\cmrr_mbep2d_bold",
  "ReceiveCoilActiveElements": "HEA;HEP",
  "ReceiveCoilName": "Head_32",
  "ReconMatrixPE": 82,
  "RepetitionTime": 0.46,
  "SAR": 0.102029,
  "ScanOptions": "FS",
  "ScanningSequence": "EP",
  "SequenceName": "epfid2d1_82",
  "SequenceVariant": "SK\\SS",
  "SeriesDescription": "func_run-03_task-social_acq-ap-mb8",
  "SeriesNumber": 14,
  "ShimSetting": [4154, -7751, -7251, 456, -83, -164, -29, 7],
  "SliceThickness": 2.7,
  "SliceTiming": [0, 0.25, 0.0625, 0.3125, 0.125, 0.375, 0.1875, 0, 0.25, 0.0625, 0.3125, 0.125, 0.375, 0.1875, 0, 0.25, 0.0625, 0.3125, 0.125, 0.375, 0.1875, 0, 0.25, 0.0625, 0.3125, 0.125, 0.375, 0.1875, 0, 0.25, 0.0625, 0.3125, 0.125, 0.375, 0.1875, 0, 0.25, 0.0625, 0.3125, 0.125, 0.375, 0.1875, 0, 0.25, 0.0625, 0.3125, 0.125, 0.375, 0.1875, 0, 0.25, 0.0625, 0.3125, 0.125, 0.375, 0.1875],
  "SoftwareVersions": "syngo MR E11",
  "SpacingBetweenSlices": 2.7,
  "StationName": "AWP66112",
  "TaskName": "social",
  "TotalReadoutTime": 0.03969,
  "TxRefAmp": 251.813,
  "WipMemBlock": "2269bd3e-f484-41f6-ba0d-778903c2bc37||Sequence: R016 ve11e/master r/434b28f1; Aug  7 2019 18:53:46 by eja",
  "dcmmeta_affine": [
    [-2.6769139766693115, -0.1360749751329422, 0.11784358322620392, 116.6454086303711],
    [-0.12276657670736313, 2.664412498474121, 0.29155126214027405, -92.31764221191406],
    [0.13098397850990295, -0.2837001383304596, 2.6816246509552, -50.06892395019531],
    [0.0, 0.0, 0.0, 1.0]
],
  "dcmmeta_reorient_transform": [
    [0.0, -1.0, 0.0, 81.0],
    [1.0, 0.0, 0.0, 0.0],
    [0.0, 0.0, 1.0, 0.0],
    [0.0, 0.0, 0.0, 1.0]
],
  "dcmmeta_shape": [82, 82, 56, 872],
  "dcmmeta_slice_dim": 2,
  "dcmmeta_version": 0.6,
  "global": {
    "const": {
      "AccessionNumber": "A003972",
      "AcquisitionMatrix": [82, 0, 0, 82],
      "AngioFlag": "N",
      "BitsAllocated": 16,
      "BitsStored": 16,
      "BodyPartExamined": "BRAIN",
      "Columns": 656,
      "EchoNumbers": 1,
      "EchoTime": 27.2,
      "EchoTrainLength": 82,
      "FlipAngle": 44.0,
      "HighBit": 15,
      "ImageOrientationPatient": [0.99775881083501, 0.04575845134667, 0.04882130202544, -0.0507188528792, 0.99309922143282, 0.10574277446778],
      "ImagePositionPatient": [-834.84411718745, -923.42020719166, -192.06297563992],
      "ImageType": [
        "ORIGINAL",
        "PRIMARY",
        "M",
        "MB",
        "ND",
        "NORM",
        "MOSAIC"
],
      "ImagedNucleus": "1H",
      "ImagingFrequency": 123.252147,
      "InPlanePhaseEncodingDirection": "COL",
      "MRAcquisitionType": "2D",
      "MagneticFieldStrength": 3.0,
      "Manufacturer": "SIEMENS",
      "ManufacturerModelName": "Prisma",
      "Modality": "MR",
      "NumberOfAverages": 1.0,
      "NumberOfPhaseEncodingSteps": 82,
      "PercentPhaseFieldOfView": 100.0,
      "PercentSampling": 100.0,
      "PerformedProcedureStepStartTime": "115005.810000",
      "PhotometricInterpretation": "MONOCHROME2",
      "PixelBandwidth": 3050.0,
      "PixelRepresentation": 0,
      "PixelSpacing": [2.6829268932343, 2.6829268932343],
      "ProtocolName": "func_run-03_task-social_acq-ap-mb8",
      "RepetitionTime": 460.0,
      "Rows": 656,
      "SAR": 0.10202881911376,
      "SamplesPerPixel": 1,
      "ScanOptions": "FS",
      "ScanningSequence": "EP",
      "SequenceName": "epfid2d1_82",
      "SequenceVariant": [
        "SK",
        "SS"
],
      "SeriesDescription": "func_run-03_task-social_acq-ap-mb8",
      "SeriesNumber": 14,
      "SeriesTime": "125213.854000",
      "SliceLocation": -54.605729549132,
      "SliceThickness": 2.7000000476837,
      "SmallestImagePixelValue": 0,
      "SoftwareVersions": "syngo MR E11",
      "SpacingBetweenSlices": 2.7000000229077,
      "SpecificCharacterSet": "ISO_IR 100",
      "StudyID": "2",
      "StudyTime": "115005.755000",
      "TransmitCoilName": "Body",
      "VariableFlipAngleFlag": "N",
      "WindowCenterWidthExplanation": "Algo1"
    },
    "slices": {}
  },
  "time": {
    "samples": {
      "AcquisitionNumber": [1, 2, 3, 4, 5, 6, 7, 8, 9, 10, 11, 12, 13, 14, 15, 16, 17, 18, 19, 20, 21, 22, 23, 24, 25, 26, 27, 28, 29, 30, 31, 32, 33, 34, 35, 36, 37, 38, 39, 40, 41, 42, 43, 44, 45, 46, 47, 48, 49, 50, 51, 52, 53, 54, 55, 56, 57, 58, 59, 60, 61, 62, 63, 64, 65, 66, 67, 68, 69, 70, 71, 72, 73, 74, 75, 76, 77, 78, 79, 80, 81, 82, 83, 84, 85, 86, 87, 88, 89, 90, 91, 92, 93, 94, 95, 96, 97, 98, 99, 100, 101, 102, 103, 104, 105, 106, 107, 108, 109, 110, 111, 112, 113, 114, 115, 116, 117, 118, 119, 120, 121, 122, 123, 124, 125, 126, 127, 128, 129, 130, 131, 132, 133, 134, 135, 136, 137, 138, 139, 140, 141, 142, 143, 144, 145, 146, 147, 148, 149, 150, 151, 152, 153, 154, 155, 156, 157, 158, 159, 160, 161, 162, 163, 164, 165, 166, 167, 168, 169, 170, 171, 172, 173, 174, 175, 176, 177, 178, 179, 180, 181, 182, 183, 184, 185, 186, 187, 188, 189, 190, 191, 192, 193, 194, 195, 196, 197, 198, 199, 200, 201, 202, 203, 204, 205, 206, 207, 208, 209, 210, 211, 212, 213, 214, 215, 216, 217, 218, 219, 220, 221, 222, 223, 224, 225, 226, 227, 228, 229, 230, 231, 232, 233, 234, 235, 236, 237, 238, 239, 240, 241, 242, 243, 244, 245, 246, 247, 248, 249, 250, 251, 252, 253, 254, 255, 256, 257, 258, 259, 260, 261, 262, 263, 264, 265, 266, 267, 268, 269, 270, 271, 272, 273, 274, 275, 276, 277, 278, 279, 280, 281, 282, 283, 284, 285, 286, 287, 288, 289, 290, 291, 292, 293, 294, 295, 296, 297, 298, 299, 300, 301, 302, 303, 304, 305, 306, 307, 308, 309, 310, 311, 312, 313, 314, 315, 316, 317, 318, 319, 320, 321, 322, 323, 324, 325, 326, 327, 328, 329, 330, 331, 332, 333, 334, 335, 336, 337, 338, 339, 340, 341, 342, 343, 344, 345, 346, 347, 348, 349, 350, 351, 352, 353, 354, 355, 356, 357, 358, 359, 360, 361, 362, 363, 364, 365, 366, 367, 368, 369, 370, 371, 372, 373, 374, 375, 376, 377, 378, 379, 380, 381, 382, 383, 384, 385, 386, 387, 388, 389, 390, 391, 392, 393, 394, 395, 396, 397, 398, 399, 400, 401, 402, 403, 404, 405, 406, 407, 408, 409, 410, 411, 412, 413, 414, 415, 416, 417, 418, 419, 420, 421, 422, 423, 424, 425, 426, 427, 428, 429, 430, 431, 432, 433, 434, 435, 436, 437, 438, 439, 440, 441, 442, 443, 444, 445, 446, 447, 448, 449, 450, 451, 452, 453, 454, 455, 456, 457, 458, 459, 460, 461, 462, 463, 464, 465, 466, 467, 468, 469, 470, 471, 472, 473, 474, 475, 476, 477, 478, 479, 480, 481, 482, 483, 484, 485, 486, 487, 488, 489, 490, 491, 492, 493, 494, 495, 496, 497, 498, 499, 500, 501, 502, 503, 504, 505, 506, 507, 508, 509, 510, 511, 512, 513, 514, 515, 516, 517, 518, 519, 520, 521, 522, 523, 524, 525, 526, 527, 528, 529, 530, 531, 532, 533, 534, 535, 536, 537, 538, 539, 540, 541, 542, 543, 544, 545, 546, 547, 548, 549, 550, 551, 552, 553, 554, 555, 556, 557, 558, 559, 560, 561, 562, 563, 564, 565, 566, 567, 568, 569, 570, 571, 572, 573, 574, 575, 576, 577, 578, 579, 580, 581, 582, 583, 584, 585, 586, 587, 588, 589, 590, 591, 592, 593, 594, 595, 596, 597, 598, 599, 600, 601, 602, 603, 604, 605, 606, 607, 608, 609, 610, 611, 612, 613, 614, 615, 616, 617, 618, 619, 620, 621, 622, 623, 624, 625, 626, 627, 628, 629, 630, 631, 632, 633, 634, 635, 636, 637, 638, 639, 640, 641, 642, 643, 644, 645, 646, 647, 648, 649, 650, 651, 652, 653, 654, 655, 656, 657, 658, 659, 660, 661, 662, 663, 664, 665, 666, 667, 668, 669, 670, 671, 672, 673, 674, 675, 676, 677, 678, 679, 680, 681, 682, 683, 684, 685, 686, 687, 688, 689, 690, 691, 692, 693, 694, 695, 696, 697, 698, 699, 700, 701, 702, 703, 704, 705, 706, 707, 708, 709, 710, 711, 712, 713, 714, 715, 716, 717, 718, 719, 720, 721, 722, 723, 724, 725, 726, 727, 728, 729, 730, 731, 732, 733, 734, 735, 736, 737, 738, 739, 740, 741, 742, 743, 744, 745, 746, 747, 748, 749, 750, 751, 752, 753, 754, 755, 756, 757, 758, 759, 760, 761, 762, 763, 764, 765, 766, 767, 768, 769, 770, 771, 772, 773, 774, 775, 776, 777, 778, 779, 780, 781, 782, 783, 784, 785, 786, 787, 788, 789, 790, 791, 792, 793, 794, 795, 796, 797, 798, 799, 800, 801, 802, 803, 804, 805, 806, 807, 808, 809, 810, 811, 812, 813, 814, 815, 816, 817, 818, 819, 820, 821, 822, 823, 824, 825, 826, 827, 828, 829, 830, 831, 832, 833, 834, 835, 836, 837, 838, 839, 840, 841, 842, 843, 844, 845, 846, 847, 848, 849, 850, 851, 852, 853, 854, 855, 856, 857, 858, 859, 860, 861, 862, 863, 864, 865, 866, 867, 868, 869, 870, 871, 872],
      "AcquisitionTime": ["125157.217500", "125157.677500", "125158.137500", "125158.597500", "125159.057500", "125159.517500", "125159.977500", "125200.437500", "125200.897500", "125201.357500", "125201.817500", "125202.277500", "125202.737500", "125203.197500", "125203.657500", "125204.117500", "125204.577500", "125205.037500", "125205.497500", "125205.957500", "125206.417500", "125206.877500", "125207.337500", "125207.797500", "125208.257500", "125208.717500", "125209.177500", "125209.637500", "125210.097500", "125210.557500", "125211.017500", "125211.477500", "125211.937500", "125212.397500", "125212.857500", "125213.317500", "125213.777500", "125214.237500", "125214.697500", "125215.157500", "125215.617500", "125216.077500", "125216.537500", "125216.997500", "125217.457500", "125217.917500", "125218.377500", "125218.837500", "125219.297500", "125219.757500", "125220.217500", "125220.677500", "125221.137500", "125221.597500", "125222.057500", "125222.517500", "125222.977500", "125223.437500", "125223.897500", "125224.357500", "125224.817500", "125225.277500", "125225.737500", "125226.197500", "125226.657500", "125227.117500", "125227.577500", "125228.037500", "125228.497500", "125228.957500", "125229.417500", "125229.877500", "125230.337500", "125230.797500", "125231.257500", "125231.717500", "125232.177500", "125232.637500", "125233.097500", "125233.557500", "125234.017500", "125234.477500", "125234.937500", "125235.397500", "125235.857500", "125236.317500", "125236.777500", "125237.237500", "125237.697500", "125238.157500", "125238.617500", "125239.077500", "125239.537500", "125239.997500", "125240.457500", "125240.917500", "125241.377500", "125241.837500", "125242.297500", "125242.757500", "125243.217500", "125243.677500", "125244.137500", "125244.597500", "125245.057500", "125245.517500", "125245.977500", "125246.437500", "125246.897500", "125247.357500", "125247.817500", "125248.277500", "125248.737500", "125249.197500", "125249.657500", "125250.117500", "125250.577500", "125251.037500", "125251.497500", "125251.957500", "125252.417500", "125252.877500", "125253.337500", "125253.797500", "125254.257500", "125254.717500", "125255.177500", "125255.637500", "125256.097500", "125256.557500", "125257.017500", "125257.477500", "125257.937500", "125258.397500", "125258.857500", "125259.317500", "125259.777500", "125300.237500", "125300.697500", "125301.157500", "125301.617500", "125302.077500", "125302.537500", "125302.997500", "125303.457500", "125303.917500", "125304.377500", "125304.837500", "125305.297500", "125305.757500", "125306.217500", "125306.677500", "125307.137500", "125307.597500", "125308.057500", "125308.517500", "125308.977500", "125309.437500", "125309.897500", "125310.357500", "125310.817500", "125311.277500", "125311.737500", "125312.197500", "125312.657500", "125313.117500", "125313.577500", "125314.037500", "125314.497500", "125314.957500", "125315.417500", "125315.877500", "125316.337500", "125316.797500", "125317.257500", "125317.717500", "125318.177500", "125318.637500", "125319.097500", "125319.557500", "125320.017500", "125320.477500", "125320.937500", "125321.397500", "125321.857500", "125322.317500", "125322.777500", "125323.237500", "125323.697500", "125324.157500", "125324.617500", "125325.077500", "125325.537500", "125325.997500", "125326.457500", "125326.917500", "125327.377500", "125327.837500", "125328.297500", "125328.757500", "125329.217500", "125329.677500", "125330.137500", "125330.597500", "125331.057500", "125331.517500", "125331.977500", "125332.437500", "125332.897500", "125333.357500", "125333.817500", "125334.277500", "125334.737500", "125335.197500", "125335.657500", "125336.117500", "125336.577500", "125337.037500", "125337.497500", "125337.957500", "125338.417500", "125338.877500", "125339.337500", "125339.797500", "125340.257500", "125340.717500", "125341.177500", "125341.637500", "125342.097500", "125342.557500", "125343.017500", "125343.477500", "125343.937500", "125344.397500", "125344.857500", "125345.317500", "125345.777500", "125346.237500", "125346.697500", "125347.157500", "125347.617500", "125348.077500", "125348.537500", "125348.997500", "125349.457500", "125349.917500", "125350.377500", "125350.837500", "125351.297500", "125351.757500", "125352.217500", "125352.677500", "125353.137500", "125353.597500", "125354.057500", "125354.517500", "125354.977500", "125355.437500", "125355.897500", "125356.357500", "125356.817500", "125357.277500", "125357.737500", "125358.197500", "125358.657500", "125359.117500", "125359.577500", "125400.037500", "125400.497500", "125400.957500", "125401.417500", "125401.877500", "125402.337500", "125402.797500", "125403.257500", "125403.717500", "125404.177500", "125404.637500", "125405.097500", "125405.557500", "125406.017500", "125406.477500", "125406.937500", "125407.397500", "125407.857500", "125408.317500", "125408.777500", "125409.237500", "125409.697500", "125410.157500", "125410.617500", "125411.077500", "125411.537500", "125411.997500", "125412.457500", "125412.917500", "125413.377500", "125413.837500", "125414.297500", "125414.757500", "125415.217500", "125415.677500", "125416.137500", "125416.597500", "125417.057500", "125417.517500", "125417.977500", "125418.437500", "125418.897500", "125419.357500", "125419.817500", "125420.277500", "125420.737500", "125421.197500", "125421.657500", "125422.117500", "125422.577500", "125423.037500", "125423.497500", "125423.957500", "125424.417500", "125424.877500", "125425.337500", "125425.797500", "125426.257500", "125426.717500", "125427.177500", "125427.637500", "125428.097500", "125428.557500", "125429.017500", "125429.477500", "125429.937500", "125430.397500", "125430.857500", "125431.317500", "125431.777500", "125432.237500", "125432.697500", "125433.157500", "125433.617500", "125434.077500", "125434.537500", "125434.997500", "125435.457500", "125435.917500", "125436.377500", "125436.837500", "125437.297500", "125437.757500", "125438.217500", "125438.677500", "125439.137500", "125439.597500", "125440.057500", "125440.517500", "125440.977500", "125441.437500", "125441.897500", "125442.357500", "125442.817500", "125443.277500", "125443.737500", "125444.197500", "125444.657500", "125445.117500", "125445.577500", "125446.037500", "125446.497500", "125446.957500", "125447.417500", "125447.877500", "125448.337500", "125448.797500", "125449.257500", "125449.717500", "125450.177500", "125450.637500", "125451.097500", "125451.557500", "125452.017500", "125452.477500", "125452.937500", "125453.397500", "125453.857500", "125454.317500", "125454.777500", "125455.237500", "125455.697500", "125456.157500", "125456.617500", "125457.077500", "125457.537500", "125457.997500", "125458.457500", "125458.917500", "125459.377500", "125459.837500", "125500.297500", "125500.757500", "125501.217500", "125501.677500", "125502.137500", "125502.597500", "125503.057500", "125503.517500", "125503.977500", "125504.437500", "125504.897500", "125505.357500", "125505.817500", "125506.277500", "125506.737500", "125507.197500", "125507.657500", "125508.117500", "125508.577500", "125509.037500", "125509.497500", "125509.957500", "125510.417500", "125510.877500", "125511.337500", "125511.797500", "125512.257500", "125512.717500", "125513.177500", "125513.637500", "125514.097500", "125514.557500", "125515.017500", "125515.477500", "125515.937500", "125516.397500", "125516.857500", "125517.317500", "125517.777500", "125518.237500", "125518.697500", "125519.157500", "125519.617500", "125520.077500", "125520.537500", "125520.997500", "125521.457500", "125521.917500", "125522.377500", "125522.837500", "125523.297500", "125523.757500", "125524.217500", "125524.677500", "125525.137500", "125525.597500", "125526.057500", "125526.517500", "125526.977500", "125527.437500", "125527.897500", "125528.357500", "125528.817500", "125529.277500", "125529.737500", "125530.197500", "125530.657500", "125531.117500", "125531.577500", "125532.037500", "125532.497500", "125532.957500", "125533.417500", "125533.877500", "125534.337500", "125534.797500", "125535.257500", "125535.717500", "125536.177500", "125536.637500", "125537.097500", "125537.557500", "125538.017500", "125538.477500", "125538.937500", "125539.397500", "125539.857500", "125540.317500", "125540.777500", "125541.237500", "125541.697500", "125542.157500", "125542.617500", "125543.077500", "125543.537500", "125543.997500", "125544.457500", "125544.917500", "125545.377500", "125545.837500", "125546.297500", "125546.757500", "125547.217500", "125547.677500", "125548.137500", "125548.597500", "125549.057500", "125549.517500", "125549.977500", "125550.437500", "125550.897500", "125551.357500", "125551.817500", "125552.277500", "125552.737500", "125553.197500", "125553.657500", "125554.117500", "125554.577500", "125555.037500", "125555.497500", "125555.957500", "125556.417500", "125556.877500", "125557.337500", "125557.797500", "125558.257500", "125558.717500", "125559.177500", "125559.637500", "125600.097500", "125600.557500", "125601.017500", "125601.477500", "125601.937500", "125602.397500", "125602.857500", "125603.317500", "125603.777500", "125604.237500", "125604.697500", "125605.157500", "125605.617500", "125606.077500", "125606.537500", "125606.997500", "125607.457500", "125607.917500", "125608.377500", "125608.837500", "125609.297500", "125609.757500", "125610.217500", "125610.677500", "125611.137500", "125611.597500", "125612.057500", "125612.517500", "125612.977500", "125613.437500", "125613.897500", "125614.357500", "125614.817500", "125615.277500", "125615.737500", "125616.197500", "125616.657500", "125617.117500", "125617.577500", "125618.037500", "125618.497500", "125618.957500", "125619.417500", "125619.877500", "125620.337500", "125620.797500", "125621.257500", "125621.717500", "125622.177500", "125622.637500", "125623.097500", "125623.557500", "125624.017500", "125624.477500", "125624.937500", "125625.397500", "125625.857500", "125626.317500", "125626.777500", "125627.237500", "125627.697500", "125628.157500", "125628.617500", "125629.077500", "125629.537500", "125629.997500", "125630.457500", "125630.917500", "125631.377500", "125631.837500", "125632.297500", "125632.757500", "125633.217500", "125633.677500", "125634.137500", "125634.597500", "125635.057500", "125635.517500", "125635.977500", "125636.437500", "125636.897500", "125637.357500", "125637.817500", "125638.277500", "125638.737500", "125639.197500", "125639.657500", "125640.117500", "125640.577500", "125641.037500", "125641.497500", "125641.957500", "125642.417500", "125642.877500", "125643.337500", "125643.797500", "125644.257500", "125644.717500", "125645.177500", "125645.637500", "125646.097500", "125646.557500", "125647.017500", "125647.477500", "125647.937500", "125648.397500", "125648.857500", "125649.317500", "125649.777500", "125650.237500", "125650.697500", "125651.157500", "125651.617500", "125652.077500", "125652.537500", "125652.997500", "125653.457500", "125653.917500", "125654.377500", "125654.837500", "125655.297500", "125655.757500", "125656.217500", "125656.677500", "125657.137500", "125657.597500", "125658.057500", "125658.517500", "125658.977500", "125659.437500", "125659.897500", "125700.357500", "125700.817500", "125701.277500", "125701.737500", "125702.197500", "125702.657500", "125703.117500", "125703.577500", "125704.037500", "125704.497500", "125704.957500", "125705.417500", "125705.877500", "125706.337500", "125706.797500", "125707.257500", "125707.717500", "125708.177500", "125708.637500", "125709.097500", "125709.557500", "125710.017500", "125710.477500", "125710.937500", "125711.397500", "125711.857500", "125712.317500", "125712.777500", "125713.237500", "125713.697500", "125714.157500", "125714.617500", "125715.077500", "125715.537500", "125715.997500", "125716.457500", "125716.917500", "125717.377500", "125717.837500", "125718.297500", "125718.757500", "125719.217500", "125719.677500", "125720.137500", "125720.597500", "125721.057500", "125721.517500", "125721.977500", "125722.437500", "125722.897500", "125723.357500", "125723.817500", "125724.277500", "125724.737500", "125725.197500", "125725.657500", "125726.117500", "125726.577500", "125727.037500", "125727.497500", "125727.957500", "125728.417500", "125728.877500", "125729.337500", "125729.797500", "125730.257500", "125730.717500", "125731.177500", "125731.637500", "125732.097500", "125732.557500", "125733.017500", "125733.477500", "125733.937500", "125734.397500", "125734.857500", "125735.317500", "125735.777500", "125736.237500", "125736.697500", "125737.157500", "125737.617500", "125738.077500", "125738.537500", "125738.997500", "125739.457500", "125739.917500", "125740.377500", "125740.837500", "125741.297500", "125741.757500", "125742.217500", "125742.677500", "125743.137500", "125743.597500", "125744.057500", "125744.517500", "125744.977500", "125745.437500", "125745.897500", "125746.357500", "125746.817500", "125747.277500", "125747.737500", "125748.197500", "125748.657500", "125749.117500", "125749.577500", "125750.037500", "125750.497500", "125750.957500", "125751.417500", "125751.877500", "125752.337500", "125752.797500", "125753.257500", "125753.717500", "125754.177500", "125754.637500", "125755.097500", "125755.557500", "125756.017500", "125756.477500", "125756.937500", "125757.397500", "125757.857500", "125758.317500", "125758.777500", "125759.237500", "125759.697500", "125800.157500", "125800.617500", "125801.077500", "125801.537500", "125801.997500", "125802.457500", "125802.917500", "125803.377500", "125803.837500", "125804.297500", "125804.757500", "125805.217500", "125805.677500", "125806.137500", "125806.597500", "125807.057500", "125807.517500", "125807.977500", "125808.437500", "125808.897500", "125809.357500", "125809.817500", "125810.277500", "125810.737500", "125811.197500", "125811.657500", "125812.117500", "125812.577500", "125813.037500", "125813.497500", "125813.957500", "125814.417500", "125814.877500", "125815.337500", "125815.797500", "125816.257500", "125816.717500", "125817.177500", "125817.637500", "125818.097500", "125818.557500", "125819.017500", "125819.477500", "125819.937500", "125820.397500", "125820.857500", "125821.317500", "125821.777500", "125822.237500", "125822.697500", "125823.157500", "125823.617500", "125824.077500", "125824.537500", "125824.997500", "125825.457500", "125825.917500", "125826.377500", "125826.837500", "125827.297500", "125827.757500", "125828.217500", "125828.677500", "125829.137500", "125829.597500", "125830.057500", "125830.517500", "125830.977500", "125831.437500", "125831.897500", "125832.357500", "125832.817500", "125833.277500", "125833.737500", "125834.197500", "125834.657500", "125835.117500", "125835.577500", "125836.037500", "125836.497500", "125836.957500", "125837.417500", "125837.877500"],
