{
  "AcquisitionMatrixPE": 82,
  "AcquisitionNumber": 1,
  "AcquisitionTime": "20:33:34.885000",
  "BandwidthPerPixelPhaseEncode": 24.888,
  "BaseResolution": 82,
  "BodyPartExamined": "BRAIN",
  "ConsistencyInfo": "N4_VE11E_LATEST_20181129",
  "ConversionSoftware": "dcm2niix",
  "ConversionSoftwareVersion": "v1.0.20201102",
  "DerivedVendorReportedEchoSpacing": 0.00049,
  "DeviceSerialNumber": "66112",
  "DwellTime": 2e-06,
  "EchoTime": 0.0272,
  "EchoTrainLength": 82,
  "EffectiveEchoSpacing": 0.00049,
  "FlipAngle": 44,
  "ImageComments": "Unaliased MB8/PE3",
  "ImageOrientationPatientDICOM": [0.999373, -0.034365, -0.00849876, 0.0348989, 0.996667, 0.0737295],
  "ImageType": [
    "ORIGINAL",
    "PRIMARY",
    "M",
    "MB",
    "ND",
    "NORM",
    "MOSAIC"
],
  "ImagingFrequency": 123.252,
  "InPlanePhaseEncodingDirectionDICOM": "COL",
  "InstitutionAddress": "Maynard 3,Hanover,NH,US,03755",
  "InstitutionName": "Dartmouth College - PBS",
  "InstitutionalDepartmentName": "Department",
  "MRAcquisitionType": "2D",
  "MagneticFieldStrength": 3,
  "Manufacturer": "Siemens",
  "ManufacturersModelName": "Prisma",
  "Modality": "MR",
  "MultibandAccelerationFactor": 8,
  "PartialFourier": 1,
  "PatientPosition": "HFS",
  "PercentPhaseFOV": 100,
  "PercentSampling": 100,
  "PhaseEncodingDirection": "j-",
  "PhaseEncodingSteps": 82,
  "PhaseResolution": 1,
  "PixelBandwidth": 3050,
  "ProcedureStepDescription": "Wager_Wager^1076_spacetop",
  "ProtocolName": "func_run-04_task-alignvideo_acq-ap-mb8",
  "PulseSequenceDetails": "%CustomerSeq%\\cmrr_mbep2d_bold",
  "ReceiveCoilActiveElements": "HEA;HEP",
  "ReceiveCoilName": "Head_32",
  "ReconMatrixPE": 82,
  "RepetitionTime": 0.46,
  "SAR": 0.094553,
  "ScanOptions": "FS",
  "ScanningSequence": "EP",
  "SequenceName": "epfid2d1_82",
  "SequenceVariant": "SK\\SS",
  "SeriesDescription": "func_run-04_task-alignvideo_acq-ap-mb8",
  "SeriesNumber": 34,
  "ShimSetting": [4152, -7756, -7246, 482, -85, -226, 33, 26],
  "SliceThickness": 2.7,
  "SliceTiming": [0, 0.25, 0.0625, 0.3125, 0.125, 0.375, 0.1875, 0, 0.25, 0.0625, 0.3125, 0.125, 0.375, 0.1875, 0, 0.25, 0.0625, 0.3125, 0.125, 0.375, 0.1875, 0, 0.25, 0.0625, 0.3125, 0.125, 0.375, 0.1875, 0, 0.25, 0.0625, 0.3125, 0.125, 0.375, 0.1875, 0, 0.25, 0.0625, 0.3125, 0.125, 0.375, 0.1875, 0, 0.25, 0.0625, 0.3125, 0.125, 0.375, 0.1875, 0, 0.25, 0.0625, 0.3125, 0.125, 0.375, 0.1875],
  "SoftwareVersions": "syngo MR E11",
  "SpacingBetweenSlices": 2.7,
  "StationName": "AWP66112",
  "TaskName": "alignvideo",
  "TotalReadoutTime": 0.03969,
  "TxRefAmp": 290.449,
  "WipMemBlock": "677a7704-0ba6-496c-9c57-7050e1ab285c||Sequence: R016 ve11e/master r/434b28f1; Aug  7 2019 18:53:46 by eja",
  "dcmmeta_affine": [
    [-2.6812453269958496, 0.09363126754760742, -0.01602916792035103, 105.91879272460938],
    [0.0921986922621727, 2.6739859580993652, 0.199745774269104, -103.05026245117188],
    [-0.022801563143730164, -0.19781093299388885, 2.6925535202026367, -56.97764205932617],
    [0.0, 0.0, 0.0, 1.0]
],
  "dcmmeta_reorient_transform": [
    [0.0, -1.0, 0.0, 81.0],
    [1.0, 0.0, 0.0, 0.0],
    [0.0, 0.0, 1.0, 0.0],
    [0.0, 0.0, 0.0, 1.0]
],
  "dcmmeta_shape": [82, 82, 56, 914],
  "dcmmeta_slice_dim": 2,
  "dcmmeta_version": 0.6,
  "global": {
    "const": {
      "AccessionNumber": "A003998",
      "AcquisitionMatrix": [82, 0, 0, 82],
      "AngioFlag": "N",
      "BitsAllocated": 16,
      "BitsStored": 16,
      "BodyPartExamined": "BRAIN",
      "Columns": 656,
      "EchoNumbers": 1,
      "EchoTime": 27.2,
      "EchoTrainLength": 82,
      "FlipAngle": 44.0,
      "HighBit": 15,
      "ImageOrientationPatient": [0.99937321363685, -0.0343649658407, -0.0084987639061, 0.03489892717682, 0.99666745775506, 0.07372952959285],
      "ImagePositionPatient": [-909.89249531457, -854.51553173149, -123.22801871542],
      "ImageType": [
        "ORIGINAL",
        "PRIMARY",
        "M",
        "MB",
        "ND",
        "NORM",
        "MOSAIC"
],
      "ImagedNucleus": "1H",
      "ImagingFrequency": 123.252159,
      "InPlanePhaseEncodingDirection": "COL",
      "MRAcquisitionType": "2D",
      "MagneticFieldStrength": 3.0,
      "Manufacturer": "SIEMENS",
      "ManufacturerModelName": "Prisma",
      "Modality": "MR",
      "NumberOfAverages": 1.0,
      "NumberOfPhaseEncodingSteps": 82,
      "PercentPhaseFieldOfView": 100.0,
      "PercentSampling": 100.0,
      "PerformedProcedureStepStartTime": "180522.777000",
      "PhotometricInterpretation": "MONOCHROME2",
      "PixelBandwidth": 3050.0,
      "PixelRepresentation": 0,
      "PixelSpacing": [2.6829268932343, 2.6829268932343],
      "ProtocolName": "func_run-04_task-alignvideo_acq-ap-mb8",
      "RepetitionTime": 460.0,
      "Rows": 656,
      "SAR": 0.09455298296785,
      "SamplesPerPixel": 1,
      "ScanOptions": "FS",
      "ScanningSequence": "EP",
      "SequenceName": "epfid2d1_82",
      "SequenceVariant": [
        "SK",
        "SS"
],
      "SeriesDescription": "func_run-04_task-alignvideo_acq-ap-mb8",
      "SeriesNumber": 34,
      "SeriesTime": "203349.561000",
      "SliceLocation": -65.072962032948,
      "SliceThickness": 2.7000000476837,
      "SmallestImagePixelValue": 0,
      "SoftwareVersions": "syngo MR E11",
      "SpacingBetweenSlices": 2.7000000096734,
      "SpecificCharacterSet": "ISO_IR 100",
      "StudyID": "2",
      "StudyTime": "180522.724000",
      "TransmitCoilName": "Body",
      "VariableFlipAngleFlag": "N",
      "WindowCenterWidthExplanation": "Algo1"
    },
    "slices": {}
  },
  "time": {
    "samples": {
      "AcquisitionNumber": [1, 2, 3, 4, 5, 6, 7, 8, 9, 10, 11, 12, 13, 14, 15, 16, 17, 18, 19, 20, 21, 22, 23, 24, 25, 26, 27, 28, 29, 30, 31, 32, 33, 34, 35, 36, 37, 38, 39, 40, 41, 42, 43, 44, 45, 46, 47, 48, 49, 50, 51, 52, 53, 54, 55, 56, 57, 58, 59, 60, 61, 62, 63, 64, 65, 66, 67, 68, 69, 70, 71, 72, 73, 74, 75, 76, 77, 78, 79, 80, 81, 82, 83, 84, 85, 86, 87, 88, 89, 90, 91, 92, 93, 94, 95, 96, 97, 98, 99, 100, 101, 102, 103, 104, 105, 106, 107, 108, 109, 110, 111, 112, 113, 114, 115, 116, 117, 118, 119, 120, 121, 122, 123, 124, 125, 126, 127, 128, 129, 130, 131, 132, 133, 134, 135, 136, 137, 138, 139, 140, 141, 142, 143, 144, 145, 146, 147, 148, 149, 150, 151, 152, 153, 154, 155, 156, 157, 158, 159, 160, 161, 162, 163, 164, 165, 166, 167, 168, 169, 170, 171, 172, 173, 174, 175, 176, 177, 178, 179, 180, 181, 182, 183, 184, 185, 186, 187, 188, 189, 190, 191, 192, 193, 194, 195, 196, 197, 198, 199, 200, 201, 202, 203, 204, 205, 206, 207, 208, 209, 210, 211, 212, 213, 214, 215, 216, 217, 218, 219, 220, 221, 222, 223, 224, 225, 226, 227, 228, 229, 230, 231, 232, 233, 234, 235, 236, 237, 238, 239, 240, 241, 242, 243, 244, 245, 246, 247, 248, 249, 250, 251, 252, 253, 254, 255, 256, 257, 258, 259, 260, 261, 262, 263, 264, 265, 266, 267, 268, 269, 270, 271, 272, 273, 274, 275, 276, 277, 278, 279, 280, 281, 282, 283, 284, 285, 286, 287, 288, 289, 290, 291, 292, 293, 294, 295, 296, 297, 298, 299, 300, 301, 302, 303, 304, 305, 306, 307, 308, 309, 310, 311, 312, 313, 314, 315, 316, 317, 318, 319, 320, 321, 322, 323, 324, 325, 326, 327, 328, 329, 330, 331, 332, 333, 334, 335, 336, 337, 338, 339, 340, 341, 342, 343, 344, 345, 346, 347, 348, 349, 350, 351, 352, 353, 354, 355, 356, 357, 358, 359, 360, 361, 362, 363, 364, 365, 366, 367, 368, 369, 370, 371, 372, 373, 374, 375, 376, 377, 378, 379, 380, 381, 382, 383, 384, 385, 386, 387, 388, 389, 390, 391, 392, 393, 394, 395, 396, 397, 398, 399, 400, 401, 402, 403, 404, 405, 406, 407, 408, 409, 410, 411, 412, 413, 414, 415, 416, 417, 418, 419, 420, 421, 422, 423, 424, 425, 426, 427, 428, 429, 430, 431, 432, 433, 434, 435, 436, 437, 438, 439, 440, 441, 442, 443, 444, 445, 446, 447, 448, 449, 450, 451, 452, 453, 454, 455, 456, 457, 458, 459, 460, 461, 462, 463, 464, 465, 466, 467, 468, 469, 470, 471, 472, 473, 474, 475, 476, 477, 478, 479, 480, 481, 482, 483, 484, 485, 486, 487, 488, 489, 490, 491, 492, 493, 494, 495, 496, 497, 498, 499, 500, 501, 502, 503, 504, 505, 506, 507, 508, 509, 510, 511, 512, 513, 514, 515, 516, 517, 518, 519, 520, 521, 522, 523, 524, 525, 526, 527, 528, 529, 530, 531, 532, 533, 534, 535, 536, 537, 538, 539, 540, 541, 542, 543, 544, 545, 546, 547, 548, 549, 550, 551, 552, 553, 554, 555, 556, 557, 558, 559, 560, 561, 562, 563, 564, 565, 566, 567, 568, 569, 570, 571, 572, 573, 574, 575, 576, 577, 578, 579, 580, 581, 582, 583, 584, 585, 586, 587, 588, 589, 590, 591, 592, 593, 594, 595, 596, 597, 598, 599, 600, 601, 602, 603, 604, 605, 606, 607, 608, 609, 610, 611, 612, 613, 614, 615, 616, 617, 618, 619, 620, 621, 622, 623, 624, 625, 626, 627, 628, 629, 630, 631, 632, 633, 634, 635, 636, 637, 638, 639, 640, 641, 642, 643, 644, 645, 646, 647, 648, 649, 650, 651, 652, 653, 654, 655, 656, 657, 658, 659, 660, 661, 662, 663, 664, 665, 666, 667, 668, 669, 670, 671, 672, 673, 674, 675, 676, 677, 678, 679, 680, 681, 682, 683, 684, 685, 686, 687, 688, 689, 690, 691, 692, 693, 694, 695, 696, 697, 698, 699, 700, 701, 702, 703, 704, 705, 706, 707, 708, 709, 710, 711, 712, 713, 714, 715, 716, 717, 718, 719, 720, 721, 722, 723, 724, 725, 726, 727, 728, 729, 730, 731, 732, 733, 734, 735, 736, 737, 738, 739, 740, 741, 742, 743, 744, 745, 746, 747, 748, 749, 750, 751, 752, 753, 754, 755, 756, 757, 758, 759, 760, 761, 762, 763, 764, 765, 766, 767, 768, 769, 770, 771, 772, 773, 774, 775, 776, 777, 778, 779, 780, 781, 782, 783, 784, 785, 786, 787, 788, 789, 790, 791, 792, 793, 794, 795, 796, 797, 798, 799, 800, 801, 802, 803, 804, 805, 806, 807, 808, 809, 810, 811, 812, 813, 814, 815, 816, 817, 818, 819, 820, 821, 822, 823, 824, 825, 826, 827, 828, 829, 830, 831, 832, 833, 834, 835, 836, 837, 838, 839, 840, 841, 842, 843, 844, 845, 846, 847, 848, 849, 850, 851, 852, 853, 854, 855, 856, 857, 858, 859, 860, 861, 862, 863, 864, 865, 866, 867, 868, 869, 870, 871, 872, 873, 874, 875, 876, 877, 878, 879, 880, 881, 882, 883, 884, 885, 886, 887, 888, 889, 890, 891, 892, 893, 894, 895, 896, 897, 898, 899, 900, 901, 902, 903, 904, 905, 906, 907, 908, 909, 910, 911, 912, 913, 914],
      "AcquisitionTime": ["203334.885000", "203335.345000", "203335.805000", "203336.265000", "203336.725000", "203337.185000", "203337.645000", "203338.105000", "203338.565000", "203339.025000", "203339.485000", "203339.945000", "203340.405000", "203340.865000", "203341.325000", "203341.785000", "203342.245000", "203342.705000", "203343.165000", "203343.625000", "203344.085000", "203344.545000", "203345.005000", "203345.465000", "203345.925000", "203346.385000", "203346.845000", "203347.305000", "203347.765000", "203348.225000", "203348.685000", "203349.145000", "203349.605000", "203350.065000", "203350.525000", "203350.985000", "203351.445000", "203351.905000", "203352.365000", "203352.825000", "203353.285000", "203353.745000", "203354.205000", "203354.665000", "203355.125000", "203355.585000", "203356.045000", "203356.505000", "203356.965000", "203357.425000", "203357.885000", "203358.345000", "203358.805000", "203359.265000", "203359.725000", "203400.185000", "203400.645000", "203401.105000", "203401.565000", "203402.025000", "203402.485000", "203402.945000", "203403.405000", "203403.865000", "203404.325000", "203404.785000", "203405.245000", "203405.705000", "203406.165000", "203406.625000", "203407.085000", "203407.545000", "203408.005000", "203408.465000", "203408.925000", "203409.385000", "203409.845000", "203410.305000", "203410.765000", "203411.225000", "203411.685000", "203412.145000", "203412.605000", "203413.065000", "203413.525000", "203413.985000", "203414.445000", "203414.905000", "203415.365000", "203415.825000", "203416.285000", "203416.745000", "203417.205000", "203417.665000", "203418.125000", "203418.585000", "203419.045000", "203419.505000", "203419.965000", "203420.425000", "203420.885000", "203421.345000", "203421.805000", "203422.265000", "203422.725000", "203423.185000", "203423.645000", "203424.105000", "203424.565000", "203425.025000", "203425.485000", "203425.945000", "203426.405000", "203426.865000", "203427.325000", "203427.785000", "203428.245000", "203428.705000", "203429.165000", "203429.625000", "203430.085000", "203430.545000", "203431.005000", "203431.465000", "203431.925000", "203432.385000", "203432.845000", "203433.305000", "203433.765000", "203434.225000", "203434.685000", "203435.145000", "203435.605000", "203436.065000", "203436.525000", "203436.985000", "203437.445000", "203437.905000", "203438.365000", "203438.825000", "203439.285000", "203439.745000", "203440.205000", "203440.665000", "203441.125000", "203441.585000", "203442.045000", "203442.505000", "203442.965000", "203443.425000", "203443.885000", "203444.345000", "203444.805000", "203445.265000", "203445.725000", "203446.185000", "203446.645000", "203447.105000", "203447.565000", "203448.025000", "203448.485000", "203448.945000", "203449.405000", "203449.865000", "203450.325000", "203450.785000", "203451.245000", "203451.705000", "203452.165000", "203452.625000", "203453.085000", "203453.545000", "203454.005000", "203454.465000", "203454.925000", "203455.385000", "203455.845000", "203456.305000", "203456.765000", "203457.225000", "203457.685000", "203458.145000", "203458.605000", "203459.065000", "203459.525000", "203459.985000", "203500.445000", "203500.905000", "203501.365000", "203501.825000", "203502.285000", "203502.745000", "203503.205000", "203503.665000", "203504.125000", "203504.585000", "203505.045000", "203505.505000", "203505.965000", "203506.425000", "203506.885000", "203507.345000", "203507.805000", "203508.265000", "203508.725000", "203509.185000", "203509.645000", "203510.105000", "203510.565000", "203511.025000", "203511.485000", "203511.945000", "203512.405000", "203512.865000", "203513.325000", "203513.785000", "203514.245000", "203514.705000", "203515.165000", "203515.625000", "203516.085000", "203516.545000", "203517.005000", "203517.465000", "203517.925000", "203518.385000", "203518.845000", "203519.305000", "203519.765000", "203520.225000", "203520.685000", "203521.145000", "203521.605000", "203522.065000", "203522.525000", "203522.985000", "203523.445000", "203523.905000", "203524.365000", "203524.825000", "203525.285000", "203525.745000", "203526.205000", "203526.665000", "203527.125000", "203527.585000", "203528.045000", "203528.505000", "203528.965000", "203529.425000", "203529.885000", "203530.345000", "203530.805000", "203531.265000", "203531.725000", "203532.185000", "203532.645000", "203533.105000", "203533.565000", "203534.025000", "203534.485000", "203534.945000", "203535.405000", "203535.865000", "203536.325000", "203536.785000", "203537.245000", "203537.705000", "203538.165000", "203538.625000", "203539.085000", "203539.545000", "203540.005000", "203540.465000", "203540.925000", "203541.385000", "203541.845000", "203542.305000", "203542.765000", "203543.225000", "203543.685000", "203544.145000", "203544.605000", "203545.065000", "203545.525000", "203545.985000", "203546.445000", "203546.905000", "203547.365000", "203547.825000", "203548.285000", "203548.745000", "203549.205000", "203549.665000", "203550.125000", "203550.585000", "203551.045000", "203551.505000", "203551.965000", "203552.425000", "203552.885000", "203553.345000", "203553.805000", "203554.265000", "203554.725000", "203555.185000", "203555.645000", "203556.105000", "203556.565000", "203557.025000", "203557.485000", "203557.945000", "203558.405000", "203558.865000", "203559.325000", "203559.785000", "203600.245000", "203600.705000", "203601.165000", "203601.625000", "203602.085000", "203602.545000", "203603.005000", "203603.465000", "203603.925000", "203604.385000", "203604.845000", "203605.305000", "203605.765000", "203606.225000", "203606.685000", "203607.145000", "203607.605000", "203608.065000", "203608.525000", "203608.985000", "203609.445000", "203609.905000", "203610.365000", "203610.825000", "203611.285000", "203611.745000", "203612.205000", "203612.665000", "203613.125000", "203613.585000", "203614.045000", "203614.505000", "203614.965000", "203615.425000", "203615.885000", "203616.345000", "203616.805000", "203617.265000", "203617.725000", "203618.185000", "203618.645000", "203619.105000", "203619.565000", "203620.025000", "203620.485000", "203620.945000", "203621.405000", "203621.865000", "203622.325000", "203622.785000", "203623.245000", "203623.705000", "203624.165000", "203624.625000", "203625.085000", "203625.545000", "203626.005000", "203626.465000", "203626.925000", "203627.385000", "203627.845000", "203628.305000", "203628.765000", "203629.225000", "203629.685000", "203630.145000", "203630.605000", "203631.065000", "203631.525000", "203631.985000", "203632.445000", "203632.905000", "203633.365000", "203633.825000", "203634.285000", "203634.745000", "203635.205000", "203635.665000", "203636.125000", "203636.585000", "203637.045000", "203637.505000", "203637.965000", "203638.425000", "203638.885000", "203639.345000", "203639.805000", "203640.265000", "203640.725000", "203641.185000", "203641.645000", "203642.105000", "203642.565000", "203643.025000", "203643.485000", "203643.945000", "203644.405000", "203644.865000", "203645.325000", "203645.785000", "203646.245000", "203646.705000", "203647.165000", "203647.625000", "203648.085000", "203648.545000", "203649.005000", "203649.465000", "203649.925000", "203650.385000", "203650.845000", "203651.305000", "203651.765000", "203652.225000", "203652.685000", "203653.145000", "203653.605000", "203654.065000", "203654.525000", "203654.985000", "203655.445000", "203655.905000", "203656.365000", "203656.825000", "203657.285000", "203657.745000", "203658.205000", "203658.665000", "203659.125000", "203659.585000", "203700.045000", "203700.505000", "203700.965000", "203701.425000", "203701.885000", "203702.345000", "203702.805000", "203703.265000", "203703.725000", "203704.185000", "203704.645000", "203705.105000", "203705.565000", "203706.025000", "203706.485000", "203706.945000", "203707.405000", "203707.865000", "203708.325000", "203708.785000", "203709.245000", "203709.705000", "203710.165000", "203710.625000", "203711.085000", "203711.545000", "203712.005000", "203712.465000", "203712.925000", "203713.385000", "203713.845000", "203714.305000", "203714.765000", "203715.225000", "203715.685000", "203716.145000", "203716.605000", "203717.065000", "203717.525000", "203717.985000", "203718.445000", "203718.905000", "203719.365000", "203719.825000", "203720.285000", "203720.745000", "203721.205000", "203721.665000", "203722.125000", "203722.585000", "203723.045000", "203723.505000", "203723.965000", "203724.425000", "203724.885000", "203725.345000", "203725.805000", "203726.265000", "203726.725000", "203727.185000", "203727.645000", "203728.105000", "203728.565000", "203729.025000", "203729.485000", "203729.945000", "203730.405000", "203730.865000", "203731.325000", "203731.785000", "203732.245000", "203732.705000", "203733.165000", "203733.625000", "203734.085000", "203734.545000", "203735.005000", "203735.465000", "203735.925000", "203736.385000", "203736.845000", "203737.305000", "203737.765000", "203738.225000", "203738.685000", "203739.145000", "203739.605000", "203740.065000", "203740.525000", "203740.985000", "203741.445000", "203741.905000", "203742.365000", "203742.825000", "203743.285000", "203743.745000", "203744.205000", "203744.665000", "203745.125000", "203745.585000", "203746.045000", "203746.505000", "203746.965000", "203747.425000", "203747.885000", "203748.345000", "203748.805000", "203749.265000", "203749.725000", "203750.185000", "203750.645000", "203751.105000", "203751.565000", "203752.025000", "203752.485000", "203752.945000", "203753.405000", "203753.865000", "203754.325000", "203754.785000", "203755.245000", "203755.705000", "203756.165000", "203756.625000", "203757.085000", "203757.545000", "203758.005000", "203758.465000", "203758.925000", "203759.385000", "203759.845000", "203800.305000", "203800.765000", "203801.225000", "203801.685000", "203802.145000", "203802.605000", "203803.065000", "203803.525000", "203803.985000", "203804.445000", "203804.905000", "203805.365000", "203805.825000", "203806.285000", "203806.745000", "203807.205000", "203807.665000", "203808.125000", "203808.585000", "203809.045000", "203809.505000", "203809.965000", "203810.425000", "203810.885000", "203811.345000", "203811.805000", "203812.265000", "203812.725000", "203813.185000", "203813.645000", "203814.105000", "203814.565000", "203815.025000", "203815.485000", "203815.945000", "203816.405000", "203816.865000", "203817.325000", "203817.785000", "203818.245000", "203818.705000", "203819.165000", "203819.625000", "203820.085000", "203820.545000", "203821.005000", "203821.465000", "203821.925000", "203822.385000", "203822.845000", "203823.305000", "203823.765000", "203824.225000", "203824.685000", "203825.145000", "203825.605000", "203826.065000", "203826.525000", "203826.985000", "203827.445000", "203827.905000", "203828.365000", "203828.825000", "203829.285000", "203829.745000", "203830.205000", "203830.665000", "203831.125000", "203831.585000", "203832.045000", "203832.505000", "203832.965000", "203833.425000", "203833.885000", "203834.345000", "203834.805000", "203835.265000", "203835.725000", "203836.185000", "203836.645000", "203837.105000", "203837.565000", "203838.025000", "203838.485000", "203838.945000", "203839.405000", "203839.865000", "203840.325000", "203840.785000", "203841.245000", "203841.705000", "203842.165000", "203842.625000", "203843.085000", "203843.545000", "203844.005000", "203844.465000", "203844.925000", "203845.385000", "203845.845000", "203846.305000", "203846.765000", "203847.225000", "203847.685000", "203848.145000", "203848.605000", "203849.065000", "203849.525000", "203849.985000", "203850.445000", "203850.905000", "203851.365000", "203851.825000", "203852.285000", "203852.745000", "203853.205000", "203853.665000", "203854.125000", "203854.585000", "203855.045000", "203855.505000", "203855.965000", "203856.425000", "203856.885000", "203857.345000", "203857.805000", "203858.265000", "203858.725000", "203859.185000", "203859.645000", "203900.105000", "203900.565000", "203901.025000", "203901.485000", "203901.945000", "203902.405000", "203902.865000", "203903.325000", "203903.785000", "203904.245000", "203904.705000", "203905.165000", "203905.625000", "203906.085000", "203906.545000", "203907.005000", "203907.465000", "203907.925000", "203908.385000", "203908.845000", "203909.305000", "203909.765000", "203910.225000", "203910.685000", "203911.145000", "203911.605000", "203912.065000", "203912.525000", "203912.985000", "203913.445000", "203913.905000", "203914.365000", "203914.825000", "203915.285000", "203915.745000", "203916.205000", "203916.665000", "203917.125000", "203917.585000", "203918.045000", "203918.505000", "203918.965000", "203919.425000", "203919.885000", "203920.345000", "203920.805000", "203921.265000", "203921.725000", "203922.185000", "203922.645000", "203923.105000", "203923.565000", "203924.025000", "203924.485000", "203924.945000", "203925.405000", "203925.865000", "203926.325000", "203926.785000", "203927.245000", "203927.705000", "203928.165000", "203928.625000", "203929.085000", "203929.545000", "203930.005000", "203930.465000", "203930.925000", "203931.385000", "203931.845000", "203932.305000", "203932.765000", "203933.225000", "203933.685000", "203934.145000", "203934.605000", "203935.065000", "203935.525000", "203935.985000", "203936.445000", "203936.905000", "203937.365000", "203937.825000", "203938.285000", "203938.745000", "203939.205000", "203939.665000", "203940.125000", "203940.585000", "203941.045000", "203941.505000", "203941.965000", "203942.425000", "203942.885000", "203943.345000", "203943.805000", "203944.265000", "203944.725000", "203945.185000", "203945.645000", "203946.105000", "203946.565000", "203947.025000", "203947.485000", "203947.945000", "203948.405000", "203948.865000", "203949.325000", "203949.785000", "203950.245000", "203950.705000", "203951.165000", "203951.625000", "203952.085000", "203952.545000", "203953.005000", "203953.465000", "203953.925000", "203954.385000", "203954.845000", "203955.305000", "203955.765000", "203956.225000", "203956.685000", "203957.145000", "203957.605000", "203958.065000", "203958.525000", "203958.985000", "203959.445000", "203959.905000", "204000.365000", "204000.825000", "204001.285000", "204001.745000", "204002.205000", "204002.665000", "204003.125000", "204003.585000", "204004.045000", "204004.505000", "204004.965000", "204005.425000", "204005.885000", "204006.345000", "204006.805000", "204007.265000", "204007.725000", "204008.185000", "204008.645000", "204009.105000", "204009.565000", "204010.025000", "204010.485000", "204010.945000", "204011.405000", "204011.865000", "204012.325000", "204012.785000", "204013.245000", "204013.705000", "204014.165000", "204014.625000", "204015.085000", "204015.545000", "204016.005000", "204016.465000", "204016.925000", "204017.385000", "204017.845000", "204018.305000", "204018.765000", "204019.225000", "204019.685000", "204020.145000", "204020.605000", "204021.065000", "204021.525000", "204021.985000", "204022.445000", "204022.905000", "204023.365000", "204023.825000", "204024.285000", "204024.745000", "204025.205000", "204025.665000", "204026.125000", "204026.585000", "204027.045000", "204027.505000", "204027.965000", "204028.425000", "204028.885000", "204029.345000", "204029.805000", "204030.265000", "204030.725000", "204031.185000", "204031.645000", "204032.105000", "204032.565000", "204033.025000", "204033.485000", "204033.945000", "204034.405000", "204034.865000"],
