{
  "AcquisitionMatrixPE": 140,
  "AcquisitionNumber": 1,
  "AcquisitionTime": "21:01:8.170000",
  "BandwidthPerPixelPhaseEncode": 10.352,
  "BaseResolution": 140,
  "BodyPartExamined": "BRAIN",
  "ConsistencyInfo": "N4_VE11E_LATEST_20181129",
  "ConversionSoftware": "dcm2niix",
  "ConversionSoftwareVersion": "v1.0.20201102",
  "DerivedVendorReportedEchoSpacing": 0.000689998,
  "DeviceSerialNumber": "66112",
  "DiffusionScheme": "Monopolar",
  "DwellTime": 2.1e-06,
  "EchoTime": 0.088,
  "EchoTrainLength": 105,
  "EffectiveEchoSpacing": 0.000689998,
  "FlipAngle": 90,
  "ImageComments": "Unaliased MB3/PE3",
  "ImageOrientationPatientDICOM": [0.995352, -0.07284, 0.0629948, 0.0641921, 0.989457, 0.129825],
  "ImageType": [
    "ORIGINAL",
    "PRIMARY",
    "DIFFUSION",
    "NONE",
    "MB",
    "ND"
],
  "ImagingFrequency": 123.252,
  "InPlanePhaseEncodingDirectionDICOM": "COL",
  "InstitutionAddress": "Maynard 3,Hanover,NH,US,03755",
  "InstitutionName": "Dartmouth College - PBS",
  "InstitutionalDepartmentName": "Department",
  "IntendedFor": [
    "ses-01/dwi/sub-0083_ses-01_acq-96dirX6b0Xmb_dwi.nii.gz"
],
  "MRAcquisitionType": "2D",
  "MagneticFieldStrength": 3,
  "Manufacturer": "Siemens",
  "ManufacturersModelName": "Prisma",
  "Modality": "MR",
  "MultibandAccelerationFactor": 3,
  "PartialFourier": 0.75,
  "PatientPosition": "HFS",
  "PercentPhaseFOV": 100,
  "PercentSampling": 100,
  "PhaseEncodingDirection": "j",
  "PhaseEncodingSteps": 105,
  "PhaseResolution": 1,
  "PixelBandwidth": 1700,
  "ProcedureStepDescription": "Wager_Wager^1076_spacetop",
  "ProtocolName": "dwi_acq-discorr-PA",
  "PulseSequenceDetails": "%CustomerSeq%\\cmrr_mbep2d_diff",
  "ReceiveCoilActiveElements": "HEP",
  "ReceiveCoilName": "Head_32",
  "ReconMatrixPE": 140,
  "RepetitionTime": 4.1,
  "SAR": 0.159427,
  "ScanOptions": "PFP\\FS",
  "ScanningSequence": "EP",
  "SequenceName": "ep_b0",
  "SequenceVariant": "SK\\SS",
  "SeriesDescription": "dwi_acq-discorr-PA",
  "SeriesNumber": 6,
  "ShimSetting": [4160, -7877, -7066, 956, -78, -166, 153, 65],
  "SliceThickness": 1.7,
  "SliceTiming": [0, 2.10938, 0.14062, 2.26562, 0.29688, 2.42188, 0.45312, 2.5625, 0.60938, 2.71875, 0.75, 2.875, 0.90625, 3.01562, 1.0625, 3.17188, 1.20312, 3.32812, 1.35938, 3.46875, 1.51562, 3.625, 1.65625, 3.78125, 1.8125, 3.92188, 1.96875, 0, 2.10938, 0.14062, 2.26562, 0.29688, 2.42188, 0.45312, 2.5625, 0.60938, 2.71875, 0.75, 2.875, 0.90625, 3.01562, 1.0625, 3.17188, 1.20312, 3.32812, 1.35938, 3.46875, 1.51562, 3.625, 1.65625, 3.78125, 1.8125, 3.92188, 1.96875, 0, 2.10938, 0.14062, 2.26562, 0.29688, 2.42188, 0.45312, 2.5625, 0.60938, 2.71875, 0.75, 2.875, 0.90625, 3.01562, 1.0625, 3.17188, 1.20312, 3.32812, 1.35938, 3.46875, 1.51562, 3.625, 1.65625, 3.78125, 1.8125, 3.92188, 1.96875],
  "SoftwareVersions": "syngo MR E11",
  "SpacingBetweenSlices": 1.7,
  "StationName": "AWP66112",
  "TotalReadoutTime": 0.0959097,
  "TxRefAmp": 232.014,
  "WipMemBlock": "0251f572-e267-43f1-8267-8c07f85d0e97||Sequence: R016 ve11e/master r/434b28f1; Aug  7 2019 19:06:17 by eja",
  "dcmmeta_affine": [
    [-1.7063180208206177, 0.11004361510276794, 0.12203836441040039, 109.23974609375],
    [0.12486862391233444, 1.6962116956710815, 0.21280288696289062, -116.17112731933594],
    [0.10799109190702438, -0.22255735099315643, 1.6822052001953125, -33.25676727294922],
    [0.0, 0.0, 0.0, 1.0]
],
  "dcmmeta_reorient_transform": [
    [0.0, -1.0, 0.0, 139.0],
    [1.0, 0.0, 0.0, 0.0],
    [0.0, 0.0, -1.0, 80.0],
    [0.0, 0.0, 0.0, 1.0]
],
  "dcmmeta_shape": [140, 140, 81],
  "dcmmeta_slice_dim": 2,
  "dcmmeta_version": 0.6,
  "global": {
    "const": {
      "AccessionNumber": "A004059",
      "AcquisitionMatrix": [140, 0, 0, 140],
      "AcquisitionNumber": 1,
      "AngioFlag": "N",
      "BitsAllocated": 16,
      "BitsStored": 16,
      "BodyPartExamined": "BRAIN",
      "Columns": 140,
      "EchoNumbers": 1,
      "EchoTime": 88.0,
      "EchoTrainLength": 105,
      "FlipAngle": 90.0,
      "HighBit": 15,
      "ImageOrientationPatient": [0.99535219127323, -0.0728400306764, 0.06299480342562, 0.06419211032913, 0.98945682635533, 0.12982511987412],
      "ImageType": [
        "ORIGINAL",
        "PRIMARY",
        "DIFFUSION",
        "NONE",
        "MB",
        "ND"
],
      "ImagedNucleus": "1H",
      "ImagingFrequency": 123.252147,
      "InPlanePhaseEncodingDirection": "COL",
      "MRAcquisitionType": "2D",
      "MagneticFieldStrength": 3.0,
      "Manufacturer": "SIEMENS",
      "ManufacturerModelName": "Prisma",
      "Modality": "MR",
      "NumberOfAverages": 1.0,
      "NumberOfPhaseEncodingSteps": 105,
      "PercentPhaseFieldOfView": 100.0,
      "PercentSampling": 100.0,
      "PerformedProcedureStepStartTime": "205320.988000",
      "PhotometricInterpretation": "MONOCHROME2",
      "PixelBandwidth": 1700.0,
      "PixelRepresentation": 0,
      "PixelSpacing": [1.7142857313156, 1.7142857313156],
      "ProtocolName": "dwi_acq-discorr-PA",
      "RepetitionTime": 4100.0,
      "Rows": 140,
      "SAR": 0.15942730622331,
      "SamplesPerPixel": 1,
      "ScanOptions": [
        "PFP",
        "FS"
],
      "ScanningSequence": "EP",
      "SequenceName": "ep_b0",
      "SequenceVariant": [
        "SK",
        "SS"
],
      "SeriesDescription": "dwi_acq-discorr-PA",
      "SeriesNumber": 6,
      "SeriesTime": "210112.937000",
      "SliceThickness": 1.7000000476837,
      "SmallestImagePixelValue": 0,
      "SoftwareVersions": "syngo MR E11",
      "SpacingBetweenSlices": 1.7,
      "SpecificCharacterSet": "ISO_IR 100",
      "StudyID": "1",
      "StudyTime": "205320.928000",
      "TransmitCoilName": "Body",
      "VariableFlipAngleFlag": "N",
      "WindowCenterWidthExplanation": "Algo1"
    },
    "slices": {
      "AcquisitionTime": ["210108.170000", "210110.285000", "210108.320000", "210110.437500", "210108.472500", "210110.587500", "210108.622500", "210110.740000", "210108.775000", "210110.890000", "210108.925000", "210111.040000", "210109.077500", "210111.192500", "210109.227500", "210111.342500", "210109.380000", "210111.495000", "210109.530000", "210111.645000", "210109.680000", "210111.797500", "210109.832500", "210111.947500", "210109.982500", "210112.100000", "210110.135000", "210108.170000", "210110.285000", "210108.320000", "210110.437500", "210108.472500", "210110.587500", "210108.622500", "210110.740000", "210108.775000", "210110.890000", "210108.925000", "210111.040000", "210109.077500", "210111.192500", "210109.227500", "210111.342500", "210109.380000", "210111.495000", "210109.530000", "210111.645000", "210109.680000", "210111.797500", "210109.832500", "210111.947500", "210109.982500", "210112.100000", "210110.135000", "210108.170000", "210110.285000", "210108.320000", "210110.437500", "210108.472500", "210110.587500", "210108.622500", "210110.740000", "210108.775000", "210110.890000", "210108.925000", "210111.040000", "210109.077500", "210111.192500", "210109.227500", "210111.342500", "210109.380000", "210111.495000", "210109.530000", "210111.645000", "210109.680000", "210111.797500", "210109.832500", "210111.947500", "210109.982500", "210112.100000", "210110.135000"],
      "ContentTime": ["210112.940000", "210113.032000", "210112.947000", "210113.038000", "210112.953000", "210113.044000", "210112.959000", "210113.056000", "210112.965000", "210113.062000", "210112.970000", "210113.068000", "210112.976000", "210113.074000", "210112.984000", "210113.080000", "210112.990000", "210113.087000", "210112.997000", "210113.093000", "210113.006000", "210113.099000", "210113.012000", "210113.106000", "210113.019000", "210113.112000", "210113.026000", "210112.943000", "210113.034000", "210112.949000", "210113.040000", "210112.955000", "210113.046000", "210112.961000", "210113.058000", "210112.967000", "210113.064000", "210112.972000", "210113.070000", "210112.979000", "210113.076000", "210112.986000", "210113.082000", "210112.992000", "210113.089000", "210113.000000", "210113.095000", "210113.008000", "210113.102000", "210113.014000", "210113.108000", "210113.021000", "210113.114000", "210113.028000", "210112.945000", "210113.036000", "210112.951000", "210113.042000", "210112.957000", "210113.054000", "210112.963000", "210113.060000", "210112.969000", "210113.066000", "210112.974000", "210113.072000", "210112.982000", "210113.078000", "210112.988000", "210113.085000", "210112.995000", "210113.091000", "210113.002000", "210113.097000", "210113.010000", "210113.104000", "210113.016000", "210113.110000", "210113.024000", "210113.116000", "210113.030000"],
      "CsaImage.GSWDDataType": [
        "predicted",
        "predicted",
        "predicted",
        "predicted",
        "predicted",
        "predicted",
        "predicted",
        "predicted",
        "predicted",
        "predicted",
        "predicted",
        "predicted",
        "predicted",
        "predicted",
        "predicted",
        "predicted",
        "predicted",
        "predicted",
        "predicted",
        "predicted",
        "predicted",
        "predicted",
        "predicted",
        "predicted",
        "predicted",
        "measured",
        "predicted",
        "predicted",
        "predicted",
        "predicted",
        "predicted",
        "predicted",
        "predicted",
        "predicted",
        "predicted",
        "predicted",
        "predicted",
        "predicted",
        "predicted",
        "predicted",
        "predicted",
        "predicted",
        "predicted",
        "predicted",
        "predicted",
        "predicted",
        "predicted",
        "predicted",
        "predicted",
        "predicted",
        "predicted",
        "predicted",
        "measured",
        "predicted",
        "predicted",
        "predicted",
        "predicted",
        "predicted",
        "predicted",
        "predicted",
        "predicted",
        "predicted",
        "predicted",
        "predicted",
        "predicted",
        "predicted",
        "predicted",
        "predicted",
        "predicted",
        "predicted",
        "predicted",
        "predicted",
        "predicted",
        "predicted",
        "predicted",
        "predicted",
        "predicted",
        "predicted",
        "predicted",
        "measured",
        "predicted"
],
      "CsaImage.ICE_Dims": [
        "X_1_1_1_1_1_1_1_1_1_1_1_165",
        "X_1_1_1_1_1_1_42_1_1_2_1_165",
        "X_1_1_1_1_1_1_2_1_1_3_1_165",
        "X_1_1_1_1_1_1_43_1_1_4_1_165",
        "X_1_1_1_1_1_1_3_1_1_5_1_165",
        "X_1_1_1_1_1_1_44_1_1_6_1_165",
        "X_1_1_1_1_1_1_4_1_1_7_1_165",
        "X_1_1_1_1_1_1_45_1_1_8_1_165",
        "X_1_1_1_1_1_1_5_1_1_9_1_165",
        "X_1_1_1_1_1_1_46_1_1_10_1_165",
        "X_1_1_1_1_1_1_6_1_1_11_1_165",
        "X_1_1_1_1_1_1_47_1_1_12_1_165",
        "X_1_1_1_1_1_1_7_1_1_13_1_165",
        "X_1_1_1_1_1_1_48_1_1_14_1_165",
        "X_1_1_1_1_1_1_8_1_1_15_1_165",
        "X_1_1_1_1_1_1_49_1_1_16_1_165",
        "X_1_1_1_1_1_1_9_1_1_17_1_165",
        "X_1_1_1_1_1_1_50_1_1_18_1_165",
        "X_1_1_1_1_1_1_10_1_1_19_1_165",
        "X_1_1_1_1_1_1_51_1_1_20_1_165",
        "X_1_1_1_1_1_1_11_1_1_21_1_165",
        "X_1_1_1_1_1_1_52_1_1_22_1_165",
        "X_1_1_1_1_1_1_12_1_1_23_1_165",
        "X_1_1_1_1_1_1_53_1_1_24_1_165",
        "X_1_1_1_1_1_1_13_1_1_25_1_165",
        "X_1_1_1_1_1_1_54_1_1_26_1_165",
        "X_1_1_1_1_1_1_14_1_1_27_1_165",
        "X_1_1_1_1_1_1_55_1_1_28_1_165",
        "X_1_1_1_1_1_1_15_1_1_29_1_165",
        "X_1_1_1_1_1_1_56_1_1_30_1_165",
        "X_1_1_1_1_1_1_16_1_1_31_1_165",
        "X_1_1_1_1_1_1_57_1_1_32_1_165",
        "X_1_1_1_1_1_1_17_1_1_33_1_165",
        "X_1_1_1_1_1_1_58_1_1_34_1_165",
        "X_1_1_1_1_1_1_18_1_1_35_1_165",
        "X_1_1_1_1_1_1_59_1_1_36_1_165",
        "X_1_1_1_1_1_1_19_1_1_37_1_165",
        "X_1_1_1_1_1_1_60_1_1_38_1_165",
        "X_1_1_1_1_1_1_20_1_1_39_1_165",
        "X_1_1_1_1_1_1_61_1_1_40_1_165",
        "X_1_1_1_1_1_1_21_1_1_41_1_165",
        "X_1_1_1_1_1_1_62_1_1_42_1_165",
        "X_1_1_1_1_1_1_22_1_1_43_1_165",
        "X_1_1_1_1_1_1_63_1_1_44_1_165",
        "X_1_1_1_1_1_1_23_1_1_45_1_165",
        "X_1_1_1_1_1_1_64_1_1_46_1_165",
        "X_1_1_1_1_1_1_24_1_1_47_1_165",
        "X_1_1_1_1_1_1_65_1_1_48_1_165",
        "X_1_1_1_1_1_1_25_1_1_49_1_165",
        "X_1_1_1_1_1_1_66_1_1_50_1_165",
        "X_1_1_1_1_1_1_26_1_1_51_1_165",
        "X_1_1_1_1_1_1_67_1_1_52_1_165",
        "X_1_1_1_1_1_1_27_1_1_53_1_165",
        "X_1_1_1_1_1_1_68_1_1_54_1_165",
        "X_1_1_1_1_1_1_28_1_1_55_1_165",
        "X_1_1_1_1_1_1_69_1_1_56_1_165",
        "X_1_1_1_1_1_1_29_1_1_57_1_165",
        "X_1_1_1_1_1_1_70_1_1_58_1_165",
        "X_1_1_1_1_1_1_30_1_1_59_1_165",
        "X_1_1_1_1_1_1_71_1_1_60_1_165",
        "X_1_1_1_1_1_1_31_1_1_61_1_165",
        "X_1_1_1_1_1_1_72_1_1_62_1_165",
        "X_1_1_1_1_1_1_32_1_1_63_1_165",
        "X_1_1_1_1_1_1_73_1_1_64_1_165",
        "X_1_1_1_1_1_1_33_1_1_65_1_165",
        "X_1_1_1_1_1_1_74_1_1_66_1_165",
        "X_1_1_1_1_1_1_34_1_1_67_1_165",
        "X_1_1_1_1_1_1_75_1_1_68_1_165",
        "X_1_1_1_1_1_1_35_1_1_69_1_165",
        "X_1_1_1_1_1_1_76_1_1_70_1_165",
        "X_1_1_1_1_1_1_36_1_1_71_1_165",
        "X_1_1_1_1_1_1_77_1_1_72_1_165",
        "X_1_1_1_1_1_1_37_1_1_73_1_165",
        "X_1_1_1_1_1_1_78_1_1_74_1_165",
        "X_1_1_1_1_1_1_38_1_1_75_1_165",
        "X_1_1_1_1_1_1_79_1_1_76_1_165",
        "X_1_1_1_1_1_1_39_1_1_77_1_165",
        "X_1_1_1_1_1_1_80_1_1_78_1_165",
        "X_1_1_1_1_1_1_40_1_1_79_1_165",
        "X_1_1_1_1_1_1_81_1_1_80_1_165",
        "X_1_1_1_1_1_1_41_1_1_81_1_165"
],
      "CsaImage.ProtocolSliceNumber": [0, 1, 2, 3, 4, 5, 6, 7, 8, 9, 10, 11, 12, 13, 14, 15, 16, 17, 18, 19, 20, 21, 22, 23, 24, 25, 26, 27, 28, 29, 30, 31, 32, 33, 34, 35, 36, 37, 38, 39, 40, 41, 42, 43, 44, 45, 46, 47, 48, 49, 50, 51, 52, 53, 54, 55, 56, 57, 58, 59, 60, 61, 62, 63, 64, 65, 66, 67, 68, 69, 70, 71, 72, 73, 74, 75, 76, 77, 78, 79, 80],
      "CsaImage.RFSWDDataType": [
        "predicted",
        "predicted",
        "predicted",
        "predicted",
        "predicted",
        "predicted",
        "predicted",
        "predicted",
        "predicted",
        "predicted",
        "predicted",
        "predicted",
        "predicted",
        "predicted",
        "predicted",
        "predicted",
        "predicted",
        "predicted",
        "predicted",
        "predicted",
        "predicted",
        "predicted",
        "predicted",
        "predicted",
        "predicted",
        "measured",
        "predicted",
        "predicted",
        "predicted",
        "predicted",
        "predicted",
        "predicted",
        "predicted",
        "predicted",
        "predicted",
        "predicted",
        "predicted",
        "predicted",
        "predicted",
        "predicted",
        "predicted",
        "predicted",
        "predicted",
        "predicted",
        "predicted",
        "predicted",
        "predicted",
        "predicted",
        "predicted",
        "predicted",
        "predicted",
        "predicted",
        "measured",
        "predicted",
        "predicted",
        "predicted",
        "predicted",
        "predicted",
        "predicted",
        "predicted",
        "predicted",
        "predicted",
        "predicted",
        "predicted",
        "predicted",
        "predicted",
        "predicted",
        "predicted",
        "predicted",
        "predicted",
        "predicted",
        "predicted",
        "predicted",
        "predicted",
        "predicted",
        "predicted",
        "predicted",
        "predicted",
        "predicted",
        "measured",
        "predicted"
],
      "CsaImage.SlicePosition_PCS": [
        [-124.53583302, -119.6023349, -64.19241858],
        [-124.65787091, -119.81513779, -62.51020957],
        [-124.77990903, -120.02793972, -60.82800055],
        [-124.90194716, -120.24074261, -59.14579535],
        [-125.02398529, -120.45354454, -57.46358634],
        [-125.14602329, -120.66634743, -55.78138114],
        [-125.26806142, -120.87915032, -54.09917212],
        [-125.39009943, -121.09195225, -52.41696502],
        [-125.51213755, -121.30475514, -50.73475791],
        [-125.63417556, -121.51755707, -49.0525508],
        [-125.75621369, -121.73035996, -47.37034369],
        [-125.87825181, -121.94316284, -45.68813468],
        [-126.00028982, -122.15596478, -44.00592757],
        [-126.12232794, -122.36876767, -42.32372046],
        [-126.24436601, -122.5815696, -40.64151336],
        [-126.36640408, -122.79437249, -38.95930529],
        [-126.48844214, -123.00717537, -37.27709819],
        [-126.61048021, -123.21997731, -35.59489108],
        [-126.73251828, -123.43278019, -33.91268302],
        [-126.85455634, -123.64558213, -32.23047591],
        [-126.97659442, -123.85838501, -30.5482688],
        [-127.0986325, -124.0711879, -28.86606122],
        [-127.22067058, -124.28398983, -27.18385363],
        [-127.34270865, -124.49679272, -25.50164629],
        [-127.46474673, -124.70959465, -23.81943888],
        [-127.5867848, -124.92239754, -22.13723148],
        [-127.70882287, -125.13520043, -20.45502401],
        [-127.83086093, -125.34800236, -18.77281667],
        [-127.952899, -125.56080525, -17.09060908],
        [-128.07493707, -125.77360718, -15.40840197],
        [-128.19697513, -125.98641007, -13.72619487],
        [-128.31901326, -126.19921295, -12.04398681],
        [-128.44105126, -126.41201584, -10.3617797],
        [-128.56308939, -126.62481682, -8.67957259],
        [-128.68512752, -126.83761971, -6.99736548],
        [-128.80716552, -127.0504226, -5.31515647],
        [-128.92920365, -127.26322548, -3.63294936],
        [-129.05124166, -127.47602837, -1.95074225],
        [-129.17327966, -127.68882935, -0.26853515],
        [-129.29531779, -127.90163224, 1.41367196],
        [-129.41735592, -128.11443512, 3.09587907],
        [-129.53939404, -128.32723801, 4.77808808],
        [-129.66143217, -128.5400409, 6.46029519],
        [-129.78347005, -128.75284188, 8.1425023],
        [-129.90550818, -128.96564476, 9.82470941],
        [-130.02754631, -129.17844765, 11.50691842],
        [-130.14958443, -129.39125054, 13.18912362],
        [-130.27162232, -129.60405342, 14.87133264],
        [-130.39366045, -129.8168544, 16.55353784],
        [-130.51569857, -130.02965729, 18.23574685],
        [-130.6377367, -130.24246018, 19.91795587],
        [-130.75977482, -130.45526306, 21.60016107],
        [-130.88181271, -130.66806595, 23.28237008],
        [-131.00385084, -130.88086693, 24.96457528],
        [-131.12588896, -131.09366982, 26.6467843],
        [-131.24792709, -131.30647271, 28.3289895],
        [-131.36996498, -131.51927559, 30.01119851],
        [-131.49200334, -131.73207848, 31.69340753],
        [-131.61404123, -131.94487946, 33.37561273],
        [-131.73607912, -132.15768235, 35.05782174],
        [-131.85811748, -132.37048523, 36.74002694],
        [-131.98015537, -132.58328812, 38.42223596],
        [-132.10219373, -132.79609101, 40.10444116],
        [-132.22423162, -133.00889199, 41.78665017],
        [-132.34626951, -133.22169487, 43.46885537],
        [-132.46830787, -133.43449776, 45.1510682],
        [-132.59034576, -133.64730065, 46.8332734],
        [-132.71238412, -133.86010353, 48.5154786],
        [-132.83442201, -134.07290451, 50.1976838],
        [-132.9564599, -134.2857074, 51.87989663],
        [-133.07849826, -134.49851029, 53.56210183],
        [-133.20053615, -134.71131317, 55.24430703],
        [-133.32257404, -134.92411606, 56.92651986],
        [-133.4446124, -135.13691704, 58.60872506],
        [-133.56665029, -135.34971993, 60.29093026],
        [-133.68868866, -135.56252282, 61.97314309],
        [-133.81072654, -135.7753257, 63.65534829],
        [-133.93276443, -135.98812859, 65.33755349],
        [-134.0548028, -136.20092957, 67.01975869],
        [-134.17684068, -136.41373246, 68.70197152],
        [-134.29887905, -136.62653534, 70.38417672]
],
      "CsaImage.TimeAfterStart": [16.4, 18.515, 16.55, 18.665, 16.7025, 18.8175, 16.8525, 18.9675, 17.005, 19.12, 17.155, 19.27, 17.305, 19.4225, 17.4575, 19.5725, 17.6075, 19.725, 17.76, 19.875, 17.91, 20.025, 18.0625, 20.1775, 18.2125, 20.3275, 18.365, 16.4, 18.515, 16.55, 18.665, 16.7025, 18.8175, 16.8525, 18.9675, 17.005, 19.12, 17.155, 19.27, 17.305, 19.4225, 17.4575, 19.5725, 17.6075, 19.725, 17.76, 19.875, 17.91, 20.025, 18.0625, 20.1775, 18.2125, 20.3275, 18.365, 16.4, 18.515, 16.55, 18.665, 16.7025, 18.8175, 16.8525, 18.9675, 17.005, 19.12, 17.155, 19.27, 17.305, 19.4225, 17.4575, 19.5725, 17.6075, 19.725, 17.76, 19.875, 17.91, 20.025, 18.0625, 20.1775, 18.2125, 20.3275, 18.365],
      "ImagePositionPatient": [
        [-124.53583302123, -119.60233490302, -64.192418583201],
        [-124.6578709088, -119.81513778998, -62.510209568308],
        [-124.7799090348, -120.02793972327, -60.828000553416],
        [-124.90194716079, -120.24074261023, -59.14579535322],
        [-125.02398528678, -120.45354454352, -57.463586338328],
        [-125.14602329356, -120.66634743048, -55.781381138132],
        [-125.26806141955, -120.87915031745, -54.09917212324],
        [-125.39009942634, -121.09195225073, -52.416965015696],
        [-125.51213755233, -121.3047551377, -50.734757908152],
        [-125.63417555911, -121.51755707099, -49.052550800608],
        [-125.7562136851, -121.73035995795, -47.370343693064],
        [-125.87825181109, -121.94316284491, -45.688134678171],
        [-126.00028981788, -122.1559647782, -44.005927570628],
        [-126.12232794387, -122.36876766516, -42.323720463084],
        [-126.24436601026, -122.58156959845, -40.64151335554],
        [-126.36640407664, -122.79437248542, -38.959305294321],
        [-126.48844214303, -123.00717537238, -37.277098186777],
        [-126.61048020942, -123.21997730567, -35.594891079233],
        [-126.7325182758, -123.43278019263, -33.912683018015],
        [-126.85455634219, -123.64558212592, -32.230475910471],
        [-126.97659442348, -123.85838501288, -30.548268802927],
        [-127.09863250104, -124.07118789984, -28.866061218546],
        [-127.22067057861, -124.28398983313, -27.183853634165],
        [-127.34270865244, -124.4967927201, -25.501646288203],
        [-127.46474673373, -124.70959465338, -23.819438882635],
        [-127.58678480012, -124.92239754035, -22.137231477068],
        [-127.70882286651, -125.13520042731, -20.455024011896],
        [-127.83086093289, -125.3480023606, -18.772816665934],
        [-127.95289899928, -125.56080524756, -17.090609081553],
        [-128.07493706567, -125.77360718085, -15.408401974009],
        [-128.19697513205, -125.98641006781, -13.726194866465],
        [-128.31901325805, -126.19921295478, -12.043986805247],
        [-128.44105126483, -126.41201584174, -10.361779697703],
        [-128.56308939082, -126.62481682135, -8.6795725901588],
        [-128.68512751681, -126.83761970832, -6.9973654826148],
        [-128.8071655236, -127.05042259528, -5.3151564677222],
        [-128.92920364959, -127.26322548224, -3.6329493601783],
        [-129.05124165637, -127.4760283692, -1.9507422526343],
        [-129.17327966315, -127.68882934882, -0.2685351450904],
        [-129.29531778914, -127.90163223578, 1.4136719624536],
        [-129.41735591514, -128.11443512274, 3.0958790699975],
        [-129.53939404113, -128.32723800971, 4.7780880848901],
        [-129.66143216712, -128.54004089667, 6.460295192434],
        [-129.78347005469, -128.75284187628, 8.142502299978],
        [-129.90550818068, -128.96564476325, 9.8247094075219],
        [-130.02754630668, -129.17844765021, 11.506918422414],
        [-130.14958443267, -129.39125053717, 13.18912362261],
        [-130.27162232024, -129.60405342414, 14.871332637502],
        [-130.39366044623, -129.81685440375, 16.553537837698],
        [-130.51569857223, -130.02965729071, 18.23574685259],
        [-130.63773669822, -130.24246017768, 19.917955867483],
        [-130.75977482421, -130.45526306464, 21.600161067678],
        [-130.88181271178, -130.6680659516, 23.282370082571],
        [-131.00385083777, -130.88086693122, 24.964575282766],
        [-131.12588896377, -131.09366981818, 26.646784297659],
        [-131.24792708976, -131.30647270514, 28.328989497854],
        [-131.36996497733, -131.5192755921, 30.011198512747],
        [-131.49200334174, -131.73207847907, 31.693407527639],
        [-131.61404122931, -131.94487945868, 33.375612727834],
        [-131.73607911689, -132.15768234564, 35.057821742727],
        [-131.8581174813, -132.37048523261, 36.740026942922],
        [-131.98015536887, -132.58328811957, 38.422235957815],
        [-132.10219373328, -132.79609100653, 40.10444115801],
        [-132.22423162085, -133.00889198615, 41.786650172903],
        [-132.34626950843, -133.22169487311, 43.468855373098],
        [-132.46830787284, -133.43449776007, 45.151068202688],
        [-132.59034576041, -133.64730064704, 46.833273402883],
        [-132.71238412482, -133.860103534, 48.515478603079],
        [-132.8344220124, -134.07290451361, 50.197683803274],
        [-132.95645989997, -134.28570740058, 51.879896632864],
        [-133.07849826438, -134.49851028754, 53.562101833059],
        [-133.20053615195, -134.7113131745, 55.244307033254],
        [-133.32257403953, -134.92411606146, 56.926519862844],
        [-133.44461240394, -135.13691704108, 58.608725063039],
        [-133.56665029151, -135.34971992804, 60.290930263235],
        [-133.68868865592, -135.562522815, 61.973143092825],
        [-133.81072654349, -135.77532570197, 63.65534829302],
        [-133.93276443107, -135.98812858893, 65.337553493215],
        [-134.05480279548, -136.20092956855, 67.019758693411],
        [-134.17684068305, -136.41373245551, 68.701971523],
        [-134.29887904746, -136.62653534247, 70.384176723196]
],
      "InstanceCreationTime": ["210112.940000", "210113.032000", "210112.947000", "210113.038000", "210112.953000", "210113.044000", "210112.959000", "210113.056000", "210112.965000", "210113.062000", "210112.970000", "210113.068000", "210112.976000", "210113.074000", "210112.984000", "210113.080000", "210112.990000", "210113.087000", "210112.997000", "210113.093000", "210113.006000", "210113.099000", "210113.012000", "210113.106000", "210113.019000", "210113.112000", "210113.026000", "210112.943000", "210113.034000", "210112.949000", "210113.040000", "210112.955000", "210113.046000", "210112.961000", "210113.058000", "210112.967000", "210113.064000", "210112.972000", "210113.070000", "210112.979000", "210113.076000", "210112.986000", "210113.082000", "210112.992000", "210113.089000", "210113.000000", "210113.095000", "210113.008000", "210113.102000", "210113.014000", "210113.108000", "210113.021000", "210113.114000", "210113.028000", "210112.945000", "210113.036000", "210112.951000", "210113.042000", "210112.957000", "210113.054000", "210112.963000", "210113.060000", "210112.969000", "210113.066000", "210112.974000", "210113.072000", "210112.982000", "210113.078000", "210112.988000", "210113.085000", "210112.995000", "210113.091000", "210113.002000", "210113.097000", "210113.010000", "210113.104000", "210113.016000", "210113.110000", "210113.024000", "210113.116000", "210113.030000"],
      "InstanceNumber": [1, 2, 3, 4, 5, 6, 7, 8, 9, 10, 11, 12, 13, 14, 15, 16, 17, 18, 19, 20, 21, 22, 23, 24, 25, 26, 27, 28, 29, 30, 31, 32, 33, 34, 35, 36, 37, 38, 39, 40, 41, 42, 43, 44, 45, 46, 47, 48, 49, 50, 51, 52, 53, 54, 55, 56, 57, 58, 59, 60, 61, 62, 63, 64, 65, 66, 67, 68, 69, 70, 71, 72, 73, 74, 75, 76, 77, 78, 79, 80, 81],
      "LargestImagePixelValue": [34478, 34135, 21369, 20730, 28553, 29633, 27517, 27551, 24219, 26790, 29739, 26326, 31643, 26057, 33968, 44410, 37093, 26184, 21468, 18887, 18618, 23344, 27996, 27062, 41579, 32587, 44566, 36371, 33908, 30868, 26002, 35632, 22028, 24168, 24388, 31435, 25882, 35901, 30167, 24072, 24904, 24695, 21687, 25124, 26237, 30045, 25016, 22398, 27544, 21393, 21668, 23937, 28584, 35627, 20925, 27417, 25674, 28929, 26446, 22193, 30251, 26648, 26625, 23614, 26853, 28255, 30050, 26558, 28781, 29309, 24058, 26480, 26569, 25040, 25489, 31413, 33943, 27203, 7233, 7852, 6710],
      "SliceLocation": [-39.608924647733, -37.908923034648, -36.208921523828, -34.5089236684, -32.80892215758, -31.108924310709, -29.40892268051, -27.708923065633, -26.008923322819, -24.308923707942, -22.608923965129, -20.908922334929, -19.208922720052, -17.508922977238, -15.808923358083, -14.108922675855, -12.40892293732, -10.708923318164, -9.0089226359364, -7.3089230167805, -5.608923277176, -3.9089230659924, -2.2089229741878, -0.5089229991949, 1.1910769159347, 2.8910769493735, 4.5910770417932, 6.2910768968723, 7.9910771072536, 9.6910767264094, 11.391076464944, 13.091077151451, 14.791076885707, 16.491076389762, 18.191076132576, 19.891077754218, 21.591077497032, 23.291077231288, 24.991076726786, 26.691076469599, 28.391076212413, 30.091077842613, 31.791077585426, 33.491077072366, 35.19107681518, 36.89107844538, 38.591076300807, 40.291077913892, 41.991075530561, 43.691077160761, 45.391078790961, 47.091076646388, 48.791078259473, 50.491075876142, 52.191077506342, 53.89107536177, 55.591076974854, 57.291078622169, 58.991076221723, 60.691077834807, 62.39107570735, 64.091077320435, 65.791075192978, 67.491076567304, 69.191074405616, 70.891079827703, 72.591077666016, 74.291075538559, 75.991073138113, 77.691078525969, 79.391076398512, 81.091074236825, 82.791079624681, 84.491077258466, 86.191075096778, 87.891080518865, 89.591078357177, 91.29107619549, 92.991073829275, 94.691079217131, 96.391077089674],
