{
  "AcquisitionMatrixPE": 82,
  "AcquisitionNumber": 1,
  "AcquisitionTime": "13:20:26.007500",
  "BandwidthPerPixelPhaseEncode": 24.888,
  "BaseResolution": 82,
  "BodyPartExamined": "BRAIN",
  "ConsistencyInfo": "N4_VE11C_LATEST_20160120",
  "ConversionSoftware": "dcm2niix",
  "ConversionSoftwareVersion": "v1.0.20201102",
  "DerivedVendorReportedEchoSpacing": 0.00049,
  "DeviceSerialNumber": "66112",
  "DwellTime": 2e-06,
  "EchoTime": 0.0272,
  "EchoTrainLength": 82,
  "EffectiveEchoSpacing": 0.00049,
  "FlipAngle": 44,
  "ImageComments": "Unaliased MB8/PE3",
  "ImageOrientationPatientDICOM": [0.999853, -0.00516441, 0.0163496, 0.00436266, 0.998804, 0.0486991],
  "ImageType": [
    "ORIGINAL",
    "PRIMARY",
    "M",
    "MB",
    "ND",
    "NORM",
    "MOSAIC"
],
  "ImagingFrequency": 123.252,
  "InPlanePhaseEncodingDirectionDICOM": "COL",
  "InstitutionAddress": "Maynard 3,Hanover,NH,US,03755",
  "InstitutionName": "Dartmouth College - PBS",
  "InstitutionalDepartmentName": "Department",
  "MRAcquisitionType": "2D",
  "MagneticFieldStrength": 3,
  "Manufacturer": "Siemens",
  "ManufacturersModelName": "Prisma",
  "Modality": "MR",
  "MultibandAccelerationFactor": 8,
  "PartialFourier": 1,
  "PatientPosition": "HFS",
  "PercentPhaseFOV": 100,
  "PercentSampling": 100,
  "PhaseEncodingDirection": "j-",
  "PhaseEncodingSteps": 82,
  "PhaseResolution": 1,
  "PixelBandwidth": 3050,
  "ProcedureStepDescription": "Wager_Wager^1076_spacetop",
  "ProtocolName": "func_run-06_task-social_acq-ap-mb8",
  "PulseSequenceDetails": "%CustomerSeq%\\cmrr_mbep2d_bold",
  "ReceiveCoilActiveElements": "HEA;HEP",
  "ReceiveCoilName": "Head_32",
  "ReconMatrixPE": 82,
  "RepetitionTime": 0.46,
  "SAR": 0.0782262,
  "ScanOptions": "FS",
  "ScanningSequence": "EP",
  "SequenceName": "epfid2d1_82",
  "SequenceVariant": "SK\\SS",
  "SeriesDescription": "func_run-06_task-social_acq-ap-mb8",
  "SeriesNumber": 20,
  "ShimSetting": [4143, -7721, -7323, 627, -126, -68, -82, 106],
  "SliceThickness": 2.7,
  "SliceTiming": [0, 0.2525, 0.0625, 0.315, 0.1275, 0.3775, 0.19, 0, 0.2525, 0.0625, 0.315, 0.1275, 0.3775, 0.19, 0, 0.2525, 0.0625, 0.315, 0.1275, 0.3775, 0.19, 0, 0.2525, 0.0625, 0.315, 0.1275, 0.3775, 0.19, 0, 0.2525, 0.0625, 0.315, 0.1275, 0.3775, 0.19, 0, 0.2525, 0.0625, 0.315, 0.1275, 0.3775, 0.19, 0, 0.2525, 0.0625, 0.315, 0.1275, 0.3775, 0.19, 0, 0.2525, 0.0625, 0.315, 0.1275, 0.3775, 0.19],
  "SoftwareVersions": "syngo MR E11",
  "SpacingBetweenSlices": 2.7,
  "StationName": "AWP66112",
  "TaskName": "social",
  "TotalReadoutTime": 0.03969,
  "TxRefAmp": 222.29,
  "WipMemBlock": "23a10f9f-4f45-4b63-b909-1e4bf5c8de96||Sequence: R016 ve11c/master r/e634e98; Dec 19 2017 11:00:25 by eja",
  "dcmmeta_affine": [
    [-2.682532548904419, 0.011704706586897373, 0.04477011412382126, 110.2308349609375],
    [0.01385573111474514, 2.679718017578125, 0.1312757432460785, -102.80046844482422],
    [0.043864719569683075, -0.13065621256828308, 2.6964352130889893, -67.72127532958984],
    [0.0, 0.0, 0.0, 1.0]
],
  "dcmmeta_reorient_transform": [
    [0.0, -1.0, 0.0, 81.0],
    [1.0, 0.0, 0.0, 0.0],
    [0.0, 0.0, 1.0, 0.0],
    [0.0, 0.0, 0.0, 1.0]
],
  "dcmmeta_shape": [82, 82, 56, 872],
  "dcmmeta_slice_dim": 2,
  "dcmmeta_version": 0.6,
  "global": {
    "const": {
      "AccessionNumber": "A003479",
      "AcquisitionMatrix": [82, 0, 0, 82],
      "AngioFlag": "N",
      "BitsAllocated": 16,
      "BitsStored": 16,
      "BodyPartExamined": "BRAIN",
      "Columns": 656,
      "EchoNumbers": 1,
      "EchoTime": 27.2,
      "EchoTrainLength": 82,
      "FlipAngle": 44.0,
      "HighBit": 15,
      "ImageOrientationPatient": [0.99985299931379, -0.0051644088681, 0.01634957627148, 0.00436266318739, 0.99880396557295, 0.0486991326992],
      "ImagePositionPatient": [-884.4249978784, -879.35916915324, -128.39193599872],
      "ImageType": [
        "ORIGINAL",
        "PRIMARY",
        "M",
        "MB",
        "ND",
        "NORM",
        "MOSAIC"
],
      "ImagedNucleus": "1H",
      "ImagingFrequency": 123.252195,
      "InPlanePhaseEncodingDirection": "COL",
      "MRAcquisitionType": "2D",
      "MagneticFieldStrength": 3.0,
      "Manufacturer": "SIEMENS",
      "ManufacturerModelName": "Prisma",
      "Modality": "MR",
      "NumberOfAverages": 1.0,
      "NumberOfPhaseEncodingSteps": 82,
      "PercentPhaseFieldOfView": 100.0,
      "PercentSampling": 100.0,
      "PerformedProcedureStepStartTime": "120331.434000",
      "PhotometricInterpretation": "MONOCHROME2",
      "PixelBandwidth": 3050.0,
      "PixelRepresentation": 0,
      "PixelSpacing": [2.6829268932343, 2.6829268932343],
      "ProtocolName": "func_run-06_task-social_acq-ap-mb8",
      "RepetitionTime": 460.0,
      "Rows": 656,
      "SAR": 0.07822621261952,
      "SamplesPerPixel": 1,
      "ScanOptions": "FS",
      "ScanningSequence": "EP",
      "SequenceName": "epfid2d1_82",
      "SequenceVariant": [
        "SK",
        "SS"
],
      "SeriesDescription": "func_run-06_task-social_acq-ap-mb8",
      "SeriesNumber": 20,
      "SeriesTime": "132044.072000",
      "SliceLocation": -70.802291199079,
      "SliceThickness": 2.7000000476837,
      "SmallestImagePixelValue": 0,
      "SoftwareVersions": "syngo MR E11",
      "SpacingBetweenSlices": 2.7000000181042,
      "SpecificCharacterSet": "ISO_IR 100",
      "StudyID": "1",
      "StudyTime": "120331.309000",
      "TransmitCoilName": "Body",
      "VariableFlipAngleFlag": "N",
      "WindowCenterWidthExplanation": "Algo1",
      "dBdt": 0.0},
    "slices": {}
  },
  "time": {
    "samples": {
      "AcquisitionNumber": [1, 2, 3, 4, 5, 6, 7, 8, 9, 10, 11, 12, 13, 14, 15, 16, 17, 18, 19, 20, 21, 22, 23, 24, 25, 26, 27, 28, 29, 30, 31, 32, 33, 34, 35, 36, 37, 38, 39, 40, 41, 42, 43, 44, 45, 46, 47, 48, 49, 50, 51, 52, 53, 54, 55, 56, 57, 58, 59, 60, 61, 62, 63, 64, 65, 66, 67, 68, 69, 70, 71, 72, 73, 74, 75, 76, 77, 78, 79, 80, 81, 82, 83, 84, 85, 86, 87, 88, 89, 90, 91, 92, 93, 94, 95, 96, 97, 98, 99, 100, 101, 102, 103, 104, 105, 106, 107, 108, 109, 110, 111, 112, 113, 114, 115, 116, 117, 118, 119, 120, 121, 122, 123, 124, 125, 126, 127, 128, 129, 130, 131, 132, 133, 134, 135, 136, 137, 138, 139, 140, 141, 142, 143, 144, 145, 146, 147, 148, 149, 150, 151, 152, 153, 154, 155, 156, 157, 158, 159, 160, 161, 162, 163, 164, 165, 166, 167, 168, 169, 170, 171, 172, 173, 174, 175, 176, 177, 178, 179, 180, 181, 182, 183, 184, 185, 186, 187, 188, 189, 190, 191, 192, 193, 194, 195, 196, 197, 198, 199, 200, 201, 202, 203, 204, 205, 206, 207, 208, 209, 210, 211, 212, 213, 214, 215, 216, 217, 218, 219, 220, 221, 222, 223, 224, 225, 226, 227, 228, 229, 230, 231, 232, 233, 234, 235, 236, 237, 238, 239, 240, 241, 242, 243, 244, 245, 246, 247, 248, 249, 250, 251, 252, 253, 254, 255, 256, 257, 258, 259, 260, 261, 262, 263, 264, 265, 266, 267, 268, 269, 270, 271, 272, 273, 274, 275, 276, 277, 278, 279, 280, 281, 282, 283, 284, 285, 286, 287, 288, 289, 290, 291, 292, 293, 294, 295, 296, 297, 298, 299, 300, 301, 302, 303, 304, 305, 306, 307, 308, 309, 310, 311, 312, 313, 314, 315, 316, 317, 318, 319, 320, 321, 322, 323, 324, 325, 326, 327, 328, 329, 330, 331, 332, 333, 334, 335, 336, 337, 338, 339, 340, 341, 342, 343, 344, 345, 346, 347, 348, 349, 350, 351, 352, 353, 354, 355, 356, 357, 358, 359, 360, 361, 362, 363, 364, 365, 366, 367, 368, 369, 370, 371, 372, 373, 374, 375, 376, 377, 378, 379, 380, 381, 382, 383, 384, 385, 386, 387, 388, 389, 390, 391, 392, 393, 394, 395, 396, 397, 398, 399, 400, 401, 402, 403, 404, 405, 406, 407, 408, 409, 410, 411, 412, 413, 414, 415, 416, 417, 418, 419, 420, 421, 422, 423, 424, 425, 426, 427, 428, 429, 430, 431, 432, 433, 434, 435, 436, 437, 438, 439, 440, 441, 442, 443, 444, 445, 446, 447, 448, 449, 450, 451, 452, 453, 454, 455, 456, 457, 458, 459, 460, 461, 462, 463, 464, 465, 466, 467, 468, 469, 470, 471, 472, 473, 474, 475, 476, 477, 478, 479, 480, 481, 482, 483, 484, 485, 486, 487, 488, 489, 490, 491, 492, 493, 494, 495, 496, 497, 498, 499, 500, 501, 502, 503, 504, 505, 506, 507, 508, 509, 510, 511, 512, 513, 514, 515, 516, 517, 518, 519, 520, 521, 522, 523, 524, 525, 526, 527, 528, 529, 530, 531, 532, 533, 534, 535, 536, 537, 538, 539, 540, 541, 542, 543, 544, 545, 546, 547, 548, 549, 550, 551, 552, 553, 554, 555, 556, 557, 558, 559, 560, 561, 562, 563, 564, 565, 566, 567, 568, 569, 570, 571, 572, 573, 574, 575, 576, 577, 578, 579, 580, 581, 582, 583, 584, 585, 586, 587, 588, 589, 590, 591, 592, 593, 594, 595, 596, 597, 598, 599, 600, 601, 602, 603, 604, 605, 606, 607, 608, 609, 610, 611, 612, 613, 614, 615, 616, 617, 618, 619, 620, 621, 622, 623, 624, 625, 626, 627, 628, 629, 630, 631, 632, 633, 634, 635, 636, 637, 638, 639, 640, 641, 642, 643, 644, 645, 646, 647, 648, 649, 650, 651, 652, 653, 654, 655, 656, 657, 658, 659, 660, 661, 662, 663, 664, 665, 666, 667, 668, 669, 670, 671, 672, 673, 674, 675, 676, 677, 678, 679, 680, 681, 682, 683, 684, 685, 686, 687, 688, 689, 690, 691, 692, 693, 694, 695, 696, 697, 698, 699, 700, 701, 702, 703, 704, 705, 706, 707, 708, 709, 710, 711, 712, 713, 714, 715, 716, 717, 718, 719, 720, 721, 722, 723, 724, 725, 726, 727, 728, 729, 730, 731, 732, 733, 734, 735, 736, 737, 738, 739, 740, 741, 742, 743, 744, 745, 746, 747, 748, 749, 750, 751, 752, 753, 754, 755, 756, 757, 758, 759, 760, 761, 762, 763, 764, 765, 766, 767, 768, 769, 770, 771, 772, 773, 774, 775, 776, 777, 778, 779, 780, 781, 782, 783, 784, 785, 786, 787, 788, 789, 790, 791, 792, 793, 794, 795, 796, 797, 798, 799, 800, 801, 802, 803, 804, 805, 806, 807, 808, 809, 810, 811, 812, 813, 814, 815, 816, 817, 818, 819, 820, 821, 822, 823, 824, 825, 826, 827, 828, 829, 830, 831, 832, 833, 834, 835, 836, 837, 838, 839, 840, 841, 842, 843, 844, 845, 846, 847, 848, 849, 850, 851, 852, 853, 854, 855, 856, 857, 858, 859, 860, 861, 862, 863, 864, 865, 866, 867, 868, 869, 870, 871, 872],
      "AcquisitionTime": ["132026.007500", "132026.467500", "132026.927500", "132027.387500", "132027.847500", "132028.307500", "132028.767500", "132029.227500", "132029.687500", "132030.147500", "132030.607500", "132031.067500", "132031.527500", "132031.987500", "132032.447500", "132032.907500", "132033.367500", "132033.827500", "132034.287500", "132034.747500", "132035.207500", "132035.667500", "132036.127500", "132036.587500", "132037.047500", "132037.507500", "132037.967500", "132038.427500", "132038.887500", "132039.347500", "132039.807500", "132040.267500", "132040.727500", "132041.187500", "132041.647500", "132042.107500", "132042.567500", "132043.027500", "132043.487500", "132043.947500", "132044.407500", "132044.867500", "132045.327500", "132045.787500", "132046.247500", "132046.707500", "132047.167500", "132047.627500", "132048.087500", "132048.547500", "132049.007500", "132049.467500", "132049.927500", "132050.387500", "132050.847500", "132051.307500", "132051.767500", "132052.227500", "132052.687500", "132053.147500", "132053.607500", "132054.067500", "132054.527500", "132054.987500", "132055.447500", "132055.907500", "132056.367500", "132056.827500", "132057.287500", "132057.747500", "132058.207500", "132058.667500", "132059.127500", "132059.587500", "132100.047500", "132100.507500", "132100.967500", "132101.427500", "132101.887500", "132102.347500", "132102.807500", "132103.267500", "132103.727500", "132104.187500", "132104.647500", "132105.107500", "132105.567500", "132106.027500", "132106.487500", "132106.947500", "132107.407500", "132107.867500", "132108.327500", "132108.787500", "132109.247500", "132109.707500", "132110.167500", "132110.627500", "132111.087500", "132111.547500", "132112.007500", "132112.467500", "132112.927500", "132113.387500", "132113.847500", "132114.307500", "132114.767500", "132115.227500", "132115.687500", "132116.147500", "132116.607500", "132117.067500", "132117.527500", "132117.987500", "132118.447500", "132118.907500", "132119.367500", "132119.827500", "132120.287500", "132120.747500", "132121.207500", "132121.667500", "132122.127500", "132122.587500", "132123.047500", "132123.507500", "132123.967500", "132124.427500", "132124.887500", "132125.347500", "132125.807500", "132126.267500", "132126.727500", "132127.187500", "132127.647500", "132128.107500", "132128.567500", "132129.027500", "132129.487500", "132129.947500", "132130.407500", "132130.867500", "132131.327500", "132131.787500", "132132.247500", "132132.707500", "132133.167500", "132133.627500", "132134.087500", "132134.547500", "132135.007500", "132135.467500", "132135.927500", "132136.387500", "132136.847500", "132137.307500", "132137.767500", "132138.227500", "132138.687500", "132139.147500", "132139.607500", "132140.067500", "132140.527500", "132140.987500", "132141.447500", "132141.907500", "132142.367500", "132142.827500", "132143.287500", "132143.747500", "132144.207500", "132144.667500", "132145.127500", "132145.587500", "132146.047500", "132146.507500", "132146.967500", "132147.427500", "132147.887500", "132148.347500", "132148.807500", "132149.267500", "132149.727500", "132150.187500", "132150.647500", "132151.107500", "132151.567500", "132152.027500", "132152.487500", "132152.947500", "132153.407500", "132153.867500", "132154.327500", "132154.787500", "132155.247500", "132155.707500", "132156.167500", "132156.627500", "132157.087500", "132157.547500", "132158.007500", "132158.467500", "132158.927500", "132159.387500", "132159.847500", "132200.307500", "132200.767500", "132201.227500", "132201.687500", "132202.147500", "132202.607500", "132203.067500", "132203.527500", "132203.987500", "132204.447500", "132204.907500", "132205.367500", "132205.827500", "132206.287500", "132206.747500", "132207.207500", "132207.667500", "132208.127500", "132208.587500", "132209.047500", "132209.507500", "132209.967500", "132210.427500", "132210.887500", "132211.347500", "132211.807500", "132212.267500", "132212.727500", "132213.187500", "132213.647500", "132214.107500", "132214.567500", "132215.027500", "132215.487500", "132215.947500", "132216.407500", "132216.867500", "132217.327500", "132217.787500", "132218.247500", "132218.707500", "132219.167500", "132219.627500", "132220.087500", "132220.547500", "132221.007500", "132221.467500", "132221.927500", "132222.387500", "132222.847500", "132223.307500", "132223.767500", "132224.227500", "132224.687500", "132225.147500", "132225.607500", "132226.067500", "132226.527500", "132226.987500", "132227.447500", "132227.907500", "132228.367500", "132228.827500", "132229.287500", "132229.747500", "132230.207500", "132230.667500", "132231.127500", "132231.587500", "132232.047500", "132232.507500", "132232.967500", "132233.427500", "132233.887500", "132234.347500", "132234.807500", "132235.267500", "132235.727500", "132236.187500", "132236.647500", "132237.107500", "132237.567500", "132238.027500", "132238.487500", "132238.947500", "132239.407500", "132239.867500", "132240.327500", "132240.787500", "132241.247500", "132241.707500", "132242.167500", "132242.627500", "132243.087500", "132243.547500", "132244.007500", "132244.467500", "132244.927500", "132245.387500", "132245.847500", "132246.307500", "132246.767500", "132247.227500", "132247.687500", "132248.147500", "132248.607500", "132249.067500", "132249.527500", "132249.987500", "132250.447500", "132250.907500", "132251.367500", "132251.827500", "132252.287500", "132252.747500", "132253.207500", "132253.667500", "132254.127500", "132254.587500", "132255.047500", "132255.507500", "132255.967500", "132256.427500", "132256.887500", "132257.347500", "132257.807500", "132258.267500", "132258.727500", "132259.187500", "132259.647500", "132300.107500", "132300.567500", "132301.027500", "132301.487500", "132301.947500", "132302.407500", "132302.867500", "132303.327500", "132303.787500", "132304.247500", "132304.707500", "132305.167500", "132305.627500", "132306.087500", "132306.547500", "132307.007500", "132307.467500", "132307.927500", "132308.387500", "132308.847500", "132309.307500", "132309.767500", "132310.227500", "132310.687500", "132311.147500", "132311.607500", "132312.067500", "132312.527500", "132312.987500", "132313.447500", "132313.907500", "132314.367500", "132314.827500", "132315.287500", "132315.747500", "132316.207500", "132316.667500", "132317.127500", "132317.587500", "132318.047500", "132318.507500", "132318.967500", "132319.427500", "132319.887500", "132320.347500", "132320.807500", "132321.267500", "132321.727500", "132322.187500", "132322.647500", "132323.107500", "132323.567500", "132324.027500", "132324.487500", "132324.947500", "132325.407500", "132325.867500", "132326.327500", "132326.787500", "132327.247500", "132327.707500", "132328.167500", "132328.627500", "132329.087500", "132329.547500", "132330.007500", "132330.467500", "132330.927500", "132331.387500", "132331.847500", "132332.307500", "132332.767500", "132333.227500", "132333.687500", "132334.147500", "132334.607500", "132335.067500", "132335.527500", "132335.987500", "132336.447500", "132336.907500", "132337.367500", "132337.827500", "132338.287500", "132338.747500", "132339.207500", "132339.667500", "132340.127500", "132340.587500", "132341.047500", "132341.507500", "132341.967500", "132342.427500", "132342.887500", "132343.347500", "132343.807500", "132344.267500", "132344.727500", "132345.187500", "132345.647500", "132346.107500", "132346.567500", "132347.027500", "132347.487500", "132347.947500", "132348.407500", "132348.867500", "132349.327500", "132349.787500", "132350.247500", "132350.707500", "132351.167500", "132351.627500", "132352.087500", "132352.547500", "132353.007500", "132353.467500", "132353.927500", "132354.387500", "132354.847500", "132355.307500", "132355.767500", "132356.227500", "132356.687500", "132357.147500", "132357.607500", "132358.067500", "132358.527500", "132358.987500", "132359.447500", "132359.907500", "132400.367500", "132400.827500", "132401.287500", "132401.747500", "132402.207500", "132402.667500", "132403.127500", "132403.587500", "132404.047500", "132404.507500", "132404.967500", "132405.427500", "132405.887500", "132406.347500", "132406.807500", "132407.267500", "132407.727500", "132408.187500", "132408.647500", "132409.107500", "132409.567500", "132410.027500", "132410.487500", "132410.947500", "132411.407500", "132411.867500", "132412.327500", "132412.787500", "132413.247500", "132413.707500", "132414.167500", "132414.627500", "132415.087500", "132415.547500", "132416.007500", "132416.467500", "132416.927500", "132417.387500", "132417.847500", "132418.307500", "132418.767500", "132419.227500", "132419.687500", "132420.147500", "132420.607500", "132421.067500", "132421.527500", "132421.987500", "132422.447500", "132422.907500", "132423.367500", "132423.827500", "132424.287500", "132424.747500", "132425.207500", "132425.667500", "132426.127500", "132426.587500", "132427.047500", "132427.507500", "132427.967500", "132428.427500", "132428.887500", "132429.347500", "132429.807500", "132430.267500", "132430.727500", "132431.187500", "132431.647500", "132432.107500", "132432.567500", "132433.027500", "132433.487500", "132433.947500", "132434.407500", "132434.867500", "132435.327500", "132435.787500", "132436.247500", "132436.707500", "132437.167500", "132437.627500", "132438.087500", "132438.547500", "132439.007500", "132439.467500", "132439.927500", "132440.387500", "132440.847500", "132441.307500", "132441.767500", "132442.227500", "132442.687500", "132443.147500", "132443.607500", "132444.067500", "132444.527500", "132444.987500", "132445.447500", "132445.907500", "132446.367500", "132446.827500", "132447.287500", "132447.747500", "132448.207500", "132448.667500", "132449.127500", "132449.587500", "132450.047500", "132450.507500", "132450.967500", "132451.427500", "132451.887500", "132452.347500", "132452.807500", "132453.267500", "132453.727500", "132454.187500", "132454.647500", "132455.107500", "132455.567500", "132456.027500", "132456.487500", "132456.947500", "132457.407500", "132457.867500", "132458.327500", "132458.787500", "132459.247500", "132459.707500", "132500.167500", "132500.627500", "132501.087500", "132501.547500", "132502.007500", "132502.467500", "132502.927500", "132503.387500", "132503.847500", "132504.307500", "132504.767500", "132505.227500", "132505.687500", "132506.147500", "132506.607500", "132507.067500", "132507.527500", "132507.987500", "132508.447500", "132508.907500", "132509.367500", "132509.827500", "132510.287500", "132510.747500", "132511.207500", "132511.667500", "132512.127500", "132512.587500", "132513.047500", "132513.507500", "132513.967500", "132514.427500", "132514.887500", "132515.347500", "132515.807500", "132516.267500", "132516.727500", "132517.187500", "132517.647500", "132518.107500", "132518.567500", "132519.027500", "132519.487500", "132519.947500", "132520.407500", "132520.867500", "132521.327500", "132521.787500", "132522.247500", "132522.707500", "132523.167500", "132523.627500", "132524.087500", "132524.547500", "132525.007500", "132525.467500", "132525.927500", "132526.387500", "132526.847500", "132527.307500", "132527.767500", "132528.227500", "132528.687500", "132529.147500", "132529.607500", "132530.067500", "132530.527500", "132530.987500", "132531.447500", "132531.907500", "132532.367500", "132532.827500", "132533.287500", "132533.747500", "132534.207500", "132534.667500", "132535.127500", "132535.587500", "132536.047500", "132536.507500", "132536.967500", "132537.427500", "132537.887500", "132538.347500", "132538.807500", "132539.267500", "132539.727500", "132540.187500", "132540.647500", "132541.107500", "132541.567500", "132542.027500", "132542.487500", "132542.947500", "132543.407500", "132543.867500", "132544.327500", "132544.787500", "132545.247500", "132545.707500", "132546.167500", "132546.627500", "132547.087500", "132547.547500", "132548.007500", "132548.467500", "132548.927500", "132549.387500", "132549.847500", "132550.307500", "132550.767500", "132551.227500", "132551.687500", "132552.147500", "132552.607500", "132553.067500", "132553.527500", "132553.987500", "132554.447500", "132554.907500", "132555.367500", "132555.827500", "132556.287500", "132556.747500", "132557.207500", "132557.667500", "132558.127500", "132558.587500", "132559.047500", "132559.507500", "132559.967500", "132600.427500", "132600.887500", "132601.347500", "132601.807500", "132602.267500", "132602.727500", "132603.187500", "132603.647500", "132604.107500", "132604.567500", "132605.027500", "132605.487500", "132605.947500", "132606.407500", "132606.867500", "132607.327500", "132607.787500", "132608.247500", "132608.707500", "132609.167500", "132609.627500", "132610.087500", "132610.547500", "132611.007500", "132611.467500", "132611.927500", "132612.387500", "132612.847500", "132613.307500", "132613.767500", "132614.227500", "132614.687500", "132615.147500", "132615.607500", "132616.067500", "132616.527500", "132616.987500", "132617.447500", "132617.907500", "132618.367500", "132618.827500", "132619.287500", "132619.747500", "132620.207500", "132620.667500", "132621.127500", "132621.587500", "132622.047500", "132622.507500", "132622.967500", "132623.427500", "132623.887500", "132624.347500", "132624.807500", "132625.267500", "132625.727500", "132626.187500", "132626.647500", "132627.107500", "132627.567500", "132628.027500", "132628.487500", "132628.947500", "132629.407500", "132629.867500", "132630.327500", "132630.787500", "132631.247500", "132631.707500", "132632.167500", "132632.627500", "132633.087500", "132633.547500", "132634.007500", "132634.467500", "132634.927500", "132635.387500", "132635.847500", "132636.307500", "132636.767500", "132637.227500", "132637.687500", "132638.147500", "132638.607500", "132639.067500", "132639.527500", "132639.987500", "132640.447500", "132640.907500", "132641.367500", "132641.827500", "132642.287500", "132642.747500", "132643.207500", "132643.667500", "132644.127500", "132644.587500", "132645.047500", "132645.507500", "132645.967500", "132646.427500", "132646.887500", "132647.347500", "132647.807500", "132648.267500", "132648.727500", "132649.187500", "132649.647500", "132650.107500", "132650.567500", "132651.027500", "132651.487500", "132651.947500", "132652.407500", "132652.867500", "132653.327500", "132653.787500", "132654.247500", "132654.707500", "132655.167500", "132655.627500", "132656.087500", "132656.547500", "132657.007500", "132657.467500", "132657.927500", "132658.387500", "132658.847500", "132659.307500", "132659.767500", "132700.227500", "132700.687500", "132701.147500", "132701.607500", "132702.067500", "132702.527500", "132702.987500", "132703.447500", "132703.907500", "132704.367500", "132704.827500", "132705.287500", "132705.747500", "132706.207500", "132706.667500"],
