{
  "AcquisitionMatrixPE": 82,
  "AcquisitionNumber": 1,
  "AcquisitionTime": "12:00:0.652500",
  "BandwidthPerPixelPhaseEncode": 24.888,
  "BaseResolution": 82,
  "BodyPartExamined": "BRAIN",
  "ConsistencyInfo": "N4_VE11C_LATEST_20160120",
  "ConversionSoftware": "dcm2niix",
  "ConversionSoftwareVersion": "v1.0.20201102",
  "DerivedVendorReportedEchoSpacing": 0.00049,
  "DeviceSerialNumber": "66112",
  "DwellTime": 2e-06,
  "EchoTime": 0.0272,
  "EchoTrainLength": 82,
  "EffectiveEchoSpacing": 0.00049,
  "FlipAngle": 44,
  "ImageComments": "Unaliased MB8/PE3",
  "ImageOrientationPatientDICOM": [0.999581, 0.0237873, 0.0164756, -0.0237311, 0.999712, -0.00360201],
  "ImageType": [
    "ORIGINAL",
    "PRIMARY",
    "M",
    "MB",
    "ND",
    "NORM",
    "MOSAIC"
],
  "ImagingFrequency": 123.252,
  "InPlanePhaseEncodingDirectionDICOM": "COL",
  "InstitutionAddress": "Maynard 3,Hanover,NH,US,03755",
  "InstitutionName": "Dartmouth College - PBS",
  "InstitutionalDepartmentName": "Department",
  "MRAcquisitionType": "2D",
  "MagneticFieldStrength": 3,
  "Manufacturer": "Siemens",
  "ManufacturersModelName": "Prisma",
  "Modality": "MR",
  "MultibandAccelerationFactor": 8,
  "PartialFourier": 1,
  "PatientPosition": "HFS",
  "PercentPhaseFOV": 100,
  "PercentSampling": 100,
  "PhaseEncodingDirection": "j-",
  "PhaseEncodingSteps": 82,
  "PhaseResolution": 1,
  "PixelBandwidth": 3050,
  "ProcedureStepDescription": "Wager_Wager^1076_spacetop",
  "ProtocolName": "func_run-03_task-social_acq-ap-mb8_51",
  "PulseSequenceDetails": "%CustomerSeq%\\cmrr_mbep2d_bold",
  "ReceiveCoilActiveElements": "HEA;HEP",
  "ReceiveCoilName": "Head_32",
  "ReconMatrixPE": 82,
  "RepetitionTime": 0.46,
  "SAR": 0.0927202,
  "ScanOptions": "FS",
  "ScanningSequence": "EP",
  "SequenceName": "epfid2d1_82",
  "SequenceVariant": "SK\\SS",
  "SeriesDescription": "func_run-03_task-social_acq-ap-mb8_51",
  "SeriesNumber": 14,
  "ShimSetting": [4140, -7712, -7222, 600, -56, -11, -122, 73],
  "SliceThickness": 2.7,
  "SliceTiming": [0, 0.2525, 0.065, 0.315, 0.1275, 0.3775, 0.19, 0, 0.2525, 0.065, 0.315, 0.1275, 0.3775, 0.19, 0, 0.2525, 0.065, 0.315, 0.1275, 0.3775, 0.19, 0, 0.2525, 0.065, 0.315, 0.1275, 0.3775, 0.19, 0, 0.2525, 0.065, 0.315, 0.1275, 0.3775, 0.19, 0, 0.2525, 0.065, 0.315, 0.1275, 0.3775, 0.19, 0, 0.2525, 0.065, 0.315, 0.1275, 0.3775, 0.19, 0, 0.2525, 0.065, 0.315, 0.1275, 0.3775, 0.19],
  "SoftwareVersions": "syngo MR E11",
  "SpacingBetweenSlices": 2.7,
  "StationName": "AWP66112",
  "TaskName": "social",
  "TotalReadoutTime": 0.03969,
  "TxRefAmp": 288.042,
  "WipMemBlock": "12f250be-3d1a-4289-8cf4-91254c7b8001||Sequence: R016 ve11c/master r/e634e98; Dec 19 2017 11:00:25 by eja",
  "dcmmeta_affine": [
    [-2.6818034648895264, -0.06366871297359467, 0.04470270499587059, 113.54895782470703],
    [-0.06381966173648834, 2.6821539402008057, -0.008665688335895538, -94.49252319335938],
    [0.04420289024710655, 0.009663919918239117, 2.699615955352783, -64.56947326660156],
    [0.0, 0.0, 0.0, 1.0]
],
  "dcmmeta_reorient_transform": [
    [0.0, -1.0, 0.0, 81.0],
    [1.0, 0.0, 0.0, 0.0],
    [0.0, 0.0, 1.0, 0.0],
    [0.0, 0.0, 0.0, 1.0]
],
  "dcmmeta_shape": [82, 82, 56, 872],
  "dcmmeta_slice_dim": 2,
  "dcmmeta_version": 0.6,
  "global": {
    "const": {
      "AccessionNumber": "A003639",
      "AcquisitionMatrix": [82, 0, 0, 82],
      "AngioFlag": "N",
      "BitsAllocated": 16,
      "BitsStored": 16,
      "BodyPartExamined": "BRAIN",
      "Columns": 656,
      "EchoNumbers": 1,
      "EchoTime": 27.2,
      "EchoTrainLength": 82,
      "FlipAngle": 44.0,
      "HighBit": 15,
      "ImageOrientationPatient": [0.99958127078322, 0.02378732782278, 0.01647562243002, -0.0237310660344, 0.99971188952284, -0.0036020065998],
      "ImagePositionPatient": [-859.79646849447, -910.85636139402, -73.699383854714],
      "ImageType": [
        "ORIGINAL",
        "PRIMARY",
        "M",
        "MB",
        "ND",
        "NORM",
        "MOSAIC"
],
      "ImagedNucleus": "1H",
      "ImagingFrequency": 123.252148,
      "InPlanePhaseEncodingDirection": "COL",
      "MRAcquisitionType": "2D",
      "MagneticFieldStrength": 3.0,
      "Manufacturer": "SIEMENS",
      "ManufacturerModelName": "Prisma",
      "Modality": "MR",
      "NumberOfAverages": 1.0,
      "NumberOfPhaseEncodingSteps": 82,
      "PercentPhaseFieldOfView": 100.0,
      "PercentSampling": 100.0,
      "PerformedProcedureStepStartTime": "113113.917000",
      "PhotometricInterpretation": "MONOCHROME2",
      "PixelBandwidth": 3050.0,
      "PixelRepresentation": 0,
      "PixelSpacing": [2.6829268932343, 2.6829268932343],
      "ProtocolName": "func_run-03_task-social_acq-ap-mb8_51",
      "RepetitionTime": 460.0,
      "Rows": 656,
      "SAR": 0.09272025075896,
      "SamplesPerPixel": 1,
      "ScanOptions": "FS",
      "ScanningSequence": "EP",
      "SequenceName": "epfid2d1_82",
      "SequenceVariant": [
        "SK",
        "SS"
],
      "SeriesDescription": "func_run-03_task-social_acq-ap-mb8_51",
      "SeriesNumber": 14,
      "SeriesTime": "120023.879000",
      "SliceLocation": -62.377038893198,
      "SliceThickness": 2.7000000476837,
      "SmallestImagePixelValue": 0,
      "SoftwareVersions": "syngo MR E11",
      "SpacingBetweenSlices": 2.6999999591645,
      "SpecificCharacterSet": "ISO_IR 100",
      "StudyID": "3",
      "StudyTime": "113113.871000",
      "TransmitCoilName": "Body",
      "VariableFlipAngleFlag": "N",
      "WindowCenterWidthExplanation": "Algo1",
      "dBdt": 0.0},
    "slices": {}
  },
  "time": {
    "samples": {
      "AcquisitionNumber": [1, 2, 3, 4, 5, 6, 7, 8, 9, 10, 11, 12, 13, 14, 15, 16, 17, 18, 19, 20, 21, 22, 23, 24, 25, 26, 27, 28, 29, 30, 31, 32, 33, 34, 35, 36, 37, 38, 39, 40, 41, 42, 43, 44, 45, 46, 47, 48, 49, 50, 51, 52, 53, 54, 55, 56, 57, 58, 59, 60, 61, 62, 63, 64, 65, 66, 67, 68, 69, 70, 71, 72, 73, 74, 75, 76, 77, 78, 79, 80, 81, 82, 83, 84, 85, 86, 87, 88, 89, 90, 91, 92, 93, 94, 95, 96, 97, 98, 99, 100, 101, 102, 103, 104, 105, 106, 107, 108, 109, 110, 111, 112, 113, 114, 115, 116, 117, 118, 119, 120, 121, 122, 123, 124, 125, 126, 127, 128, 129, 130, 131, 132, 133, 134, 135, 136, 137, 138, 139, 140, 141, 142, 143, 144, 145, 146, 147, 148, 149, 150, 151, 152, 153, 154, 155, 156, 157, 158, 159, 160, 161, 162, 163, 164, 165, 166, 167, 168, 169, 170, 171, 172, 173, 174, 175, 176, 177, 178, 179, 180, 181, 182, 183, 184, 185, 186, 187, 188, 189, 190, 191, 192, 193, 194, 195, 196, 197, 198, 199, 200, 201, 202, 203, 204, 205, 206, 207, 208, 209, 210, 211, 212, 213, 214, 215, 216, 217, 218, 219, 220, 221, 222, 223, 224, 225, 226, 227, 228, 229, 230, 231, 232, 233, 234, 235, 236, 237, 238, 239, 240, 241, 242, 243, 244, 245, 246, 247, 248, 249, 250, 251, 252, 253, 254, 255, 256, 257, 258, 259, 260, 261, 262, 263, 264, 265, 266, 267, 268, 269, 270, 271, 272, 273, 274, 275, 276, 277, 278, 279, 280, 281, 282, 283, 284, 285, 286, 287, 288, 289, 290, 291, 292, 293, 294, 295, 296, 297, 298, 299, 300, 301, 302, 303, 304, 305, 306, 307, 308, 309, 310, 311, 312, 313, 314, 315, 316, 317, 318, 319, 320, 321, 322, 323, 324, 325, 326, 327, 328, 329, 330, 331, 332, 333, 334, 335, 336, 337, 338, 339, 340, 341, 342, 343, 344, 345, 346, 347, 348, 349, 350, 351, 352, 353, 354, 355, 356, 357, 358, 359, 360, 361, 362, 363, 364, 365, 366, 367, 368, 369, 370, 371, 372, 373, 374, 375, 376, 377, 378, 379, 380, 381, 382, 383, 384, 385, 386, 387, 388, 389, 390, 391, 392, 393, 394, 395, 396, 397, 398, 399, 400, 401, 402, 403, 404, 405, 406, 407, 408, 409, 410, 411, 412, 413, 414, 415, 416, 417, 418, 419, 420, 421, 422, 423, 424, 425, 426, 427, 428, 429, 430, 431, 432, 433, 434, 435, 436, 437, 438, 439, 440, 441, 442, 443, 444, 445, 446, 447, 448, 449, 450, 451, 452, 453, 454, 455, 456, 457, 458, 459, 460, 461, 462, 463, 464, 465, 466, 467, 468, 469, 470, 471, 472, 473, 474, 475, 476, 477, 478, 479, 480, 481, 482, 483, 484, 485, 486, 487, 488, 489, 490, 491, 492, 493, 494, 495, 496, 497, 498, 499, 500, 501, 502, 503, 504, 505, 506, 507, 508, 509, 510, 511, 512, 513, 514, 515, 516, 517, 518, 519, 520, 521, 522, 523, 524, 525, 526, 527, 528, 529, 530, 531, 532, 533, 534, 535, 536, 537, 538, 539, 540, 541, 542, 543, 544, 545, 546, 547, 548, 549, 550, 551, 552, 553, 554, 555, 556, 557, 558, 559, 560, 561, 562, 563, 564, 565, 566, 567, 568, 569, 570, 571, 572, 573, 574, 575, 576, 577, 578, 579, 580, 581, 582, 583, 584, 585, 586, 587, 588, 589, 590, 591, 592, 593, 594, 595, 596, 597, 598, 599, 600, 601, 602, 603, 604, 605, 606, 607, 608, 609, 610, 611, 612, 613, 614, 615, 616, 617, 618, 619, 620, 621, 622, 623, 624, 625, 626, 627, 628, 629, 630, 631, 632, 633, 634, 635, 636, 637, 638, 639, 640, 641, 642, 643, 644, 645, 646, 647, 648, 649, 650, 651, 652, 653, 654, 655, 656, 657, 658, 659, 660, 661, 662, 663, 664, 665, 666, 667, 668, 669, 670, 671, 672, 673, 674, 675, 676, 677, 678, 679, 680, 681, 682, 683, 684, 685, 686, 687, 688, 689, 690, 691, 692, 693, 694, 695, 696, 697, 698, 699, 700, 701, 702, 703, 704, 705, 706, 707, 708, 709, 710, 711, 712, 713, 714, 715, 716, 717, 718, 719, 720, 721, 722, 723, 724, 725, 726, 727, 728, 729, 730, 731, 732, 733, 734, 735, 736, 737, 738, 739, 740, 741, 742, 743, 744, 745, 746, 747, 748, 749, 750, 751, 752, 753, 754, 755, 756, 757, 758, 759, 760, 761, 762, 763, 764, 765, 766, 767, 768, 769, 770, 771, 772, 773, 774, 775, 776, 777, 778, 779, 780, 781, 782, 783, 784, 785, 786, 787, 788, 789, 790, 791, 792, 793, 794, 795, 796, 797, 798, 799, 800, 801, 802, 803, 804, 805, 806, 807, 808, 809, 810, 811, 812, 813, 814, 815, 816, 817, 818, 819, 820, 821, 822, 823, 824, 825, 826, 827, 828, 829, 830, 831, 832, 833, 834, 835, 836, 837, 838, 839, 840, 841, 842, 843, 844, 845, 846, 847, 848, 849, 850, 851, 852, 853, 854, 855, 856, 857, 858, 859, 860, 861, 862, 863, 864, 865, 866, 867, 868, 869, 870, 871, 872],
      "AcquisitionTime": ["120000.652500", "120001.112500", "120001.572500", "120002.032500", "120002.492500", "120002.952500", "120003.412500", "120003.872500", "120004.332500", "120004.792500", "120005.252500", "120005.712500", "120006.172500", "120006.632500", "120007.092500", "120007.552500", "120008.012500", "120008.472500", "120008.932500", "120009.392500", "120009.852500", "120010.312500", "120010.772500", "120011.232500", "120011.692500", "120012.152500", "120012.612500", "120013.072500", "120013.532500", "120013.992500", "120014.452500", "120014.912500", "120015.372500", "120015.832500", "120016.292500", "120016.752500", "120017.212500", "120017.672500", "120018.132500", "120018.592500", "120019.052500", "120019.512500", "120019.972500", "120020.432500", "120020.892500", "120021.352500", "120021.812500", "120022.272500", "120022.732500", "120023.192500", "120023.652500", "120024.112500", "120024.572500", "120025.032500", "120025.492500", "120025.952500", "120026.412500", "120026.872500", "120027.332500", "120027.792500", "120028.252500", "120028.712500", "120029.172500", "120029.632500", "120030.092500", "120030.552500", "120031.012500", "120031.472500", "120031.932500", "120032.392500", "120032.852500", "120033.312500", "120033.772500", "120034.232500", "120034.692500", "120035.152500", "120035.612500", "120036.072500", "120036.532500", "120036.992500", "120037.452500", "120037.912500", "120038.372500", "120038.832500", "120039.292500", "120039.752500", "120040.212500", "120040.672500", "120041.132500", "120041.592500", "120042.052500", "120042.512500", "120042.972500", "120043.432500", "120043.892500", "120044.352500", "120044.812500", "120045.272500", "120045.732500", "120046.192500", "120046.652500", "120047.112500", "120047.572500", "120048.032500", "120048.492500", "120048.952500", "120049.412500", "120049.872500", "120050.332500", "120050.792500", "120051.252500", "120051.712500", "120052.172500", "120052.632500", "120053.092500", "120053.552500", "120054.012500", "120054.472500", "120054.932500", "120055.392500", "120055.852500", "120056.312500", "120056.772500", "120057.232500", "120057.692500", "120058.152500", "120058.612500", "120059.072500", "120059.532500", "120059.992500", "120100.452500", "120100.912500", "120101.372500", "120101.832500", "120102.292500", "120102.752500", "120103.212500", "120103.672500", "120104.132500", "120104.592500", "120105.052500", "120105.512500", "120105.972500", "120106.432500", "120106.892500", "120107.352500", "120107.812500", "120108.272500", "120108.732500", "120109.192500", "120109.652500", "120110.112500", "120110.572500", "120111.032500", "120111.492500", "120111.952500", "120112.412500", "120112.872500", "120113.332500", "120113.792500", "120114.252500", "120114.712500", "120115.172500", "120115.632500", "120116.092500", "120116.552500", "120117.012500", "120117.472500", "120117.932500", "120118.392500", "120118.852500", "120119.312500", "120119.772500", "120120.232500", "120120.692500", "120121.152500", "120121.612500", "120122.072500", "120122.532500", "120122.992500", "120123.452500", "120123.912500", "120124.372500", "120124.832500", "120125.292500", "120125.752500", "120126.212500", "120126.672500", "120127.132500", "120127.592500", "120128.052500", "120128.512500", "120128.972500", "120129.432500", "120129.892500", "120130.352500", "120130.812500", "120131.272500", "120131.732500", "120132.192500", "120132.652500", "120133.112500", "120133.572500", "120134.032500", "120134.492500", "120134.952500", "120135.412500", "120135.872500", "120136.332500", "120136.792500", "120137.252500", "120137.712500", "120138.172500", "120138.632500", "120139.092500", "120139.552500", "120140.012500", "120140.472500", "120140.932500", "120141.392500", "120141.852500", "120142.312500", "120142.772500", "120143.232500", "120143.692500", "120144.152500", "120144.612500", "120145.072500", "120145.532500", "120145.992500", "120146.452500", "120146.912500", "120147.372500", "120147.832500", "120148.292500", "120148.752500", "120149.212500", "120149.672500", "120150.132500", "120150.592500", "120151.052500", "120151.512500", "120151.972500", "120152.432500", "120152.892500", "120153.352500", "120153.812500", "120154.272500", "120154.732500", "120155.192500", "120155.652500", "120156.112500", "120156.572500", "120157.032500", "120157.492500", "120157.952500", "120158.412500", "120158.872500", "120159.332500", "120159.792500", "120200.252500", "120200.712500", "120201.172500", "120201.632500", "120202.092500", "120202.552500", "120203.012500", "120203.472500", "120203.932500", "120204.392500", "120204.852500", "120205.312500", "120205.772500", "120206.232500", "120206.692500", "120207.152500", "120207.612500", "120208.072500", "120208.532500", "120208.992500", "120209.452500", "120209.912500", "120210.372500", "120210.832500", "120211.292500", "120211.752500", "120212.212500", "120212.672500", "120213.132500", "120213.592500", "120214.052500", "120214.512500", "120214.972500", "120215.432500", "120215.892500", "120216.352500", "120216.812500", "120217.272500", "120217.732500", "120218.192500", "120218.652500", "120219.112500", "120219.572500", "120220.032500", "120220.492500", "120220.952500", "120221.412500", "120221.872500", "120222.332500", "120222.792500", "120223.252500", "120223.712500", "120224.172500", "120224.632500", "120225.092500", "120225.552500", "120226.012500", "120226.472500", "120226.932500", "120227.392500", "120227.852500", "120228.312500", "120228.772500", "120229.232500", "120229.692500", "120230.152500", "120230.612500", "120231.072500", "120231.532500", "120231.992500", "120232.452500", "120232.912500", "120233.372500", "120233.832500", "120234.292500", "120234.752500", "120235.212500", "120235.672500", "120236.132500", "120236.592500", "120237.052500", "120237.512500", "120237.972500", "120238.432500", "120238.892500", "120239.352500", "120239.812500", "120240.272500", "120240.732500", "120241.192500", "120241.652500", "120242.112500", "120242.572500", "120243.032500", "120243.492500", "120243.952500", "120244.412500", "120244.872500", "120245.332500", "120245.792500", "120246.252500", "120246.712500", "120247.172500", "120247.632500", "120248.092500", "120248.552500", "120249.012500", "120249.472500", "120249.932500", "120250.392500", "120250.852500", "120251.312500", "120251.772500", "120252.232500", "120252.692500", "120253.152500", "120253.612500", "120254.072500", "120254.532500", "120254.992500", "120255.452500", "120255.912500", "120256.372500", "120256.832500", "120257.292500", "120257.752500", "120258.212500", "120258.672500", "120259.132500", "120259.592500", "120300.052500", "120300.512500", "120300.972500", "120301.432500", "120301.892500", "120302.352500", "120302.812500", "120303.272500", "120303.732500", "120304.192500", "120304.652500", "120305.112500", "120305.572500", "120306.032500", "120306.492500", "120306.952500", "120307.412500", "120307.872500", "120308.332500", "120308.792500", "120309.252500", "120309.712500", "120310.172500", "120310.632500", "120311.092500", "120311.552500", "120312.012500", "120312.472500", "120312.932500", "120313.392500", "120313.852500", "120314.312500", "120314.772500", "120315.232500", "120315.692500", "120316.152500", "120316.612500", "120317.072500", "120317.532500", "120317.992500", "120318.452500", "120318.912500", "120319.372500", "120319.832500", "120320.292500", "120320.752500", "120321.212500", "120321.672500", "120322.132500", "120322.592500", "120323.052500", "120323.512500", "120323.972500", "120324.432500", "120324.892500", "120325.352500", "120325.812500", "120326.272500", "120326.732500", "120327.192500", "120327.652500", "120328.112500", "120328.572500", "120329.032500", "120329.492500", "120329.952500", "120330.412500", "120330.872500", "120331.332500", "120331.792500", "120332.252500", "120332.712500", "120333.172500", "120333.632500", "120334.092500", "120334.552500", "120335.012500", "120335.472500", "120335.932500", "120336.392500", "120336.852500", "120337.312500", "120337.772500", "120338.232500", "120338.692500", "120339.152500", "120339.612500", "120340.072500", "120340.532500", "120340.992500", "120341.452500", "120341.912500", "120342.372500", "120342.832500", "120343.292500", "120343.752500", "120344.212500", "120344.672500", "120345.132500", "120345.592500", "120346.052500", "120346.512500", "120346.972500", "120347.432500", "120347.892500", "120348.352500", "120348.812500", "120349.272500", "120349.732500", "120350.192500", "120350.652500", "120351.112500", "120351.572500", "120352.032500", "120352.492500", "120352.952500", "120353.412500", "120353.872500", "120354.332500", "120354.792500", "120355.252500", "120355.712500", "120356.172500", "120356.632500", "120357.092500", "120357.552500", "120358.012500", "120358.472500", "120358.932500", "120359.392500", "120359.852500", "120400.312500", "120400.772500", "120401.232500", "120401.692500", "120402.152500", "120402.612500", "120403.072500", "120403.532500", "120403.992500", "120404.452500", "120404.912500", "120405.372500", "120405.832500", "120406.292500", "120406.752500", "120407.212500", "120407.672500", "120408.132500", "120408.592500", "120409.052500", "120409.512500", "120409.972500", "120410.432500", "120410.892500", "120411.352500", "120411.812500", "120412.272500", "120412.732500", "120413.192500", "120413.652500", "120414.112500", "120414.572500", "120415.032500", "120415.492500", "120415.952500", "120416.412500", "120416.872500", "120417.332500", "120417.792500", "120418.252500", "120418.712500", "120419.172500", "120419.632500", "120420.092500", "120420.552500", "120421.012500", "120421.472500", "120421.932500", "120422.392500", "120422.852500", "120423.312500", "120423.772500", "120424.232500", "120424.692500", "120425.152500", "120425.612500", "120426.072500", "120426.532500", "120426.992500", "120427.452500", "120427.912500", "120428.372500", "120428.832500", "120429.292500", "120429.752500", "120430.212500", "120430.672500", "120431.132500", "120431.592500", "120432.052500", "120432.512500", "120432.972500", "120433.432500", "120433.892500", "120434.352500", "120434.812500", "120435.272500", "120435.732500", "120436.192500", "120436.652500", "120437.112500", "120437.572500", "120438.032500", "120438.492500", "120438.952500", "120439.412500", "120439.872500", "120440.332500", "120440.792500", "120441.252500", "120441.712500", "120442.172500", "120442.632500", "120443.092500", "120443.552500", "120444.012500", "120444.472500", "120444.932500", "120445.392500", "120445.852500", "120446.312500", "120446.772500", "120447.232500", "120447.692500", "120448.152500", "120448.612500", "120449.072500", "120449.532500", "120449.992500", "120450.452500", "120450.912500", "120451.372500", "120451.832500", "120452.292500", "120452.752500", "120453.212500", "120453.672500", "120454.132500", "120454.592500", "120455.052500", "120455.512500", "120455.972500", "120456.432500", "120456.892500", "120457.352500", "120457.812500", "120458.272500", "120458.732500", "120459.192500", "120459.652500", "120500.112500", "120500.572500", "120501.032500", "120501.492500", "120501.952500", "120502.412500", "120502.872500", "120503.332500", "120503.792500", "120504.252500", "120504.712500", "120505.172500", "120505.632500", "120506.092500", "120506.552500", "120507.012500", "120507.472500", "120507.932500", "120508.392500", "120508.852500", "120509.312500", "120509.772500", "120510.232500", "120510.692500", "120511.152500", "120511.612500", "120512.072500", "120512.532500", "120512.992500", "120513.452500", "120513.912500", "120514.372500", "120514.832500", "120515.292500", "120515.752500", "120516.212500", "120516.672500", "120517.132500", "120517.592500", "120518.052500", "120518.512500", "120518.972500", "120519.432500", "120519.892500", "120520.352500", "120520.812500", "120521.272500", "120521.732500", "120522.192500", "120522.652500", "120523.112500", "120523.572500", "120524.032500", "120524.492500", "120524.952500", "120525.412500", "120525.872500", "120526.332500", "120526.792500", "120527.252500", "120527.712500", "120528.172500", "120528.632500", "120529.092500", "120529.552500", "120530.012500", "120530.472500", "120530.932500", "120531.392500", "120531.852500", "120532.312500", "120532.772500", "120533.232500", "120533.692500", "120534.152500", "120534.612500", "120535.072500", "120535.532500", "120535.992500", "120536.452500", "120536.912500", "120537.372500", "120537.832500", "120538.292500", "120538.752500", "120539.212500", "120539.672500", "120540.132500", "120540.592500", "120541.052500", "120541.512500", "120541.972500", "120542.432500", "120542.892500", "120543.352500", "120543.812500", "120544.272500", "120544.732500", "120545.192500", "120545.652500", "120546.112500", "120546.572500", "120547.032500", "120547.492500", "120547.952500", "120548.412500", "120548.872500", "120549.332500", "120549.792500", "120550.252500", "120550.712500", "120551.172500", "120551.632500", "120552.092500", "120552.552500", "120553.012500", "120553.472500", "120553.932500", "120554.392500", "120554.852500", "120555.312500", "120555.772500", "120556.232500", "120556.692500", "120557.152500", "120557.612500", "120558.072500", "120558.532500", "120558.992500", "120559.452500", "120559.912500", "120600.372500", "120600.832500", "120601.292500", "120601.752500", "120602.212500", "120602.672500", "120603.132500", "120603.592500", "120604.052500", "120604.512500", "120604.972500", "120605.432500", "120605.892500", "120606.352500", "120606.812500", "120607.272500", "120607.732500", "120608.192500", "120608.652500", "120609.112500", "120609.572500", "120610.032500", "120610.492500", "120610.952500", "120611.412500", "120611.872500", "120612.332500", "120612.792500", "120613.252500", "120613.712500", "120614.172500", "120614.632500", "120615.092500", "120615.552500", "120616.012500", "120616.472500", "120616.932500", "120617.392500", "120617.852500", "120618.312500", "120618.772500", "120619.232500", "120619.692500", "120620.152500", "120620.612500", "120621.072500", "120621.532500", "120621.992500", "120622.452500", "120622.912500", "120623.372500", "120623.832500", "120624.292500", "120624.752500", "120625.212500", "120625.672500", "120626.132500", "120626.592500", "120627.052500", "120627.512500", "120627.972500", "120628.432500", "120628.892500", "120629.352500", "120629.812500", "120630.272500", "120630.732500", "120631.192500", "120631.652500", "120632.112500", "120632.572500", "120633.032500", "120633.492500", "120633.952500", "120634.412500", "120634.872500", "120635.332500", "120635.792500", "120636.252500", "120636.712500", "120637.172500", "120637.632500", "120638.092500", "120638.552500", "120639.012500", "120639.472500", "120639.932500", "120640.392500", "120640.852500", "120641.312500"],
