{
  "AcquisitionMatrixPE": 82,
  "AcquisitionNumber": 1,
  "AcquisitionTime": "08:59:55.132500",
  "BandwidthPerPixelPhaseEncode": 24.888,
  "BaseResolution": 82,
  "BodyPartExamined": "BRAIN",
  "ConsistencyInfo": "N4_VE11C_LATEST_20160120",
  "ConversionSoftware": "dcm2niix",
  "ConversionSoftwareVersion": "v1.0.20201102",
  "DerivedVendorReportedEchoSpacing": 0.00049,
  "DeviceSerialNumber": "66112",
  "DwellTime": 2e-06,
  "EchoTime": 0.0272,
  "EchoTrainLength": 82,
  "EffectiveEchoSpacing": 0.00049,
  "FlipAngle": 44,
  "ImageComments": "Unaliased MB8/PE3",
  "ImageOrientationPatientDICOM": [0.998988, -0.0274021, 0.0356674, 0.0280787, 0.999433, -0.0186091],
  "ImageType": [
    "ORIGINAL",
    "PRIMARY",
    "M",
    "MB",
    "ND",
    "NORM",
    "MOSAIC"
],
  "ImagingFrequency": 123.252,
  "InPlanePhaseEncodingDirectionDICOM": "COL",
  "InstitutionAddress": "Maynard 3,Hanover,NH,US,03755",
  "InstitutionName": "Dartmouth College - PBS",
  "InstitutionalDepartmentName": "Department",
  "MRAcquisitionType": "2D",
  "MagneticFieldStrength": 3,
  "Manufacturer": "Siemens",
  "ManufacturersModelName": "Prisma",
  "Modality": "MR",
  "MultibandAccelerationFactor": 8,
  "PartialFourier": 1,
  "PatientPosition": "HFS",
  "PercentPhaseFOV": 100,
  "PercentSampling": 100,
  "PhaseEncodingDirection": "j-",
  "PhaseEncodingSteps": 82,
  "PhaseResolution": 1,
  "PixelBandwidth": 3050,
  "ProcedureStepDescription": "Wager_Wager^1076_spacetop",
  "ProtocolName": "func_run-01_task-narratives_acq-ap-mb8",
  "PulseSequenceDetails": "%CustomerSeq%\\cmrr_mbep2d_bold",
  "ReceiveCoilActiveElements": "HEA;HEP",
  "ReceiveCoilName": "Head_32",
  "ReconMatrixPE": 82,
  "RepetitionTime": 0.46,
  "SAR": 0.103894,
  "ScanOptions": "FS",
  "ScanningSequence": "EP",
  "SequenceName": "epfid2d1_82",
  "SequenceVariant": "SK\\SS",
  "SeriesDescription": "func_run-01_task-narratives_acq-ap-mb8",
  "SeriesNumber": 12,
  "ShimSetting": [4164, -7708, -7284, 598, -39, -85, 71, 78],
  "SliceThickness": 2.7,
  "SliceTiming": [0, 0.2525, 0.0625, 0.315, 0.1275, 0.3775, 0.19, 0, 0.2525, 0.0625, 0.315, 0.1275, 0.3775, 0.19, 0, 0.2525, 0.0625, 0.315, 0.1275, 0.3775, 0.19, 0, 0.2525, 0.0625, 0.315, 0.1275, 0.3775, 0.19, 0, 0.2525, 0.0625, 0.315, 0.1275, 0.3775, 0.19, 0, 0.2525, 0.0625, 0.315, 0.1275, 0.3775, 0.19, 0, 0.2525, 0.0625, 0.315, 0.1275, 0.3775, 0.19, 0, 0.2525, 0.0625, 0.315, 0.1275, 0.3775, 0.19],
  "SoftwareVersions": "syngo MR E11",
  "SpacingBetweenSlices": 2.7,
  "StationName": "AWP66112",
  "TaskName": "narratives",
  "TotalReadoutTime": 0.03969,
  "TxRefAmp": 284.406,
  "WipMemBlock": "ff12fb23-5be4-4af0-bcfa-4295e9ba6d3d||Sequence: R016 ve11c/master r/e634e98; Dec 19 2017 11:00:25 by eja",
  "dcmmeta_affine": [
    [-2.6802117824554443, 0.07533321529626846, 0.09487057477235794, 105.37657928466797],
    [0.07351792603731155, 2.6814043521881104, -0.052897870540618896, -90.77581024169922],
    [0.09569308906793594, 0.049926962703466415, 2.6978142261505127, -75.6954345703125],
    [0.0, 0.0, 0.0, 1.0]
],
  "dcmmeta_reorient_transform": [
    [0.0, -1.0, 0.0, 81.0],
    [1.0, 0.0, 0.0, 0.0],
    [0.0, 0.0, 1.0, 0.0],
    [0.0, 0.0, 0.0, 1.0]
],
  "dcmmeta_shape": [82, 82, 56, 967],
  "dcmmeta_slice_dim": 2,
  "dcmmeta_version": 0.6,
  "global": {
    "const": {
      "AccessionNumber": "A003832",
      "AcquisitionMatrix": [82, 0, 0, 82],
      "AngioFlag": "N",
      "BitsAllocated": 16,
      "BitsStored": 16,
      "BodyPartExamined": "BRAIN",
      "Columns": 656,
      "EchoNumbers": 1,
      "EchoTime": 27.2,
      "EchoTrainLength": 82,
      "FlipAngle": 44.0,
      "HighBit": 15,
      "ImageOrientationPatient": [0.99898796678958, -0.0274021363557, 0.03566742397153, 0.02807874185692, 0.99943248102857, -0.0186091407865],
      "ImagePositionPatient": [-902.31995563592, -874.88131637275, -84.786230051473],
      "ImageType": [
        "ORIGINAL",
        "PRIMARY",
        "M",
        "MB",
        "ND",
        "NORM",
        "MOSAIC"
],
      "ImagedNucleus": "1H",
      "ImagingFrequency": 123.252204,
      "InPlanePhaseEncodingDirection": "COL",
      "MRAcquisitionType": "2D",
      "MagneticFieldStrength": 3.0,
      "Manufacturer": "SIEMENS",
      "ManufacturerModelName": "Prisma",
      "Modality": "MR",
      "NumberOfAverages": 1.0,
      "NumberOfPhaseEncodingSteps": 82,
      "PercentPhaseFieldOfView": 100.0,
      "PercentSampling": 100.0,
      "PerformedProcedureStepStartTime": "083239.589000",
      "PhotometricInterpretation": "MONOCHROME2",
      "PixelBandwidth": 3050.0,
      "PixelRepresentation": 0,
      "PixelSpacing": [2.6829268932343, 2.6829268932343],
      "ProtocolName": "func_run-01_task-narratives_acq-ap-mb8",
      "RepetitionTime": 460.0,
      "Rows": 656,
      "SAR": 0.10389398137109,
      "SamplesPerPixel": 1,
      "ScanOptions": "FS",
      "ScanningSequence": "EP",
      "SequenceName": "epfid2d1_82",
      "SequenceVariant": [
        "SK",
        "SS"
],
      "SeriesDescription": "func_run-01_task-narratives_acq-ap-mb8",
      "SeriesNumber": 12,
      "SeriesTime": "090007.343000",
      "SliceLocation": -70.153050350318,
      "SliceThickness": 2.7000000476837,
      "SmallestImagePixelValue": 0,
      "SoftwareVersions": "syngo MR E11",
      "SpacingBetweenSlices": 2.6999999223601,
      "SpecificCharacterSet": "ISO_IR 100",
      "StudyID": "1",
      "StudyTime": "083239.441000",
      "TransmitCoilName": "Body",
      "VariableFlipAngleFlag": "N",
      "WindowCenterWidthExplanation": "Algo1",
      "dBdt": 0.0},
    "slices": {}
  },
  "time": {
    "samples": {
      "AcquisitionNumber": [1, 2, 3, 4, 5, 6, 7, 8, 9, 10, 11, 12, 13, 14, 15, 16, 17, 18, 19, 20, 21, 22, 23, 24, 25, 26, 27, 28, 29, 30, 31, 32, 33, 34, 35, 36, 37, 38, 39, 40, 41, 42, 43, 44, 45, 46, 47, 48, 49, 50, 51, 52, 53, 54, 55, 56, 57, 58, 59, 60, 61, 62, 63, 64, 65, 66, 67, 68, 69, 70, 71, 72, 73, 74, 75, 76, 77, 78, 79, 80, 81, 82, 83, 84, 85, 86, 87, 88, 89, 90, 91, 92, 93, 94, 95, 96, 97, 98, 99, 100, 101, 102, 103, 104, 105, 106, 107, 108, 109, 110, 111, 112, 113, 114, 115, 116, 117, 118, 119, 120, 121, 122, 123, 124, 125, 126, 127, 128, 129, 130, 131, 132, 133, 134, 135, 136, 137, 138, 139, 140, 141, 142, 143, 144, 145, 146, 147, 148, 149, 150, 151, 152, 153, 154, 155, 156, 157, 158, 159, 160, 161, 162, 163, 164, 165, 166, 167, 168, 169, 170, 171, 172, 173, 174, 175, 176, 177, 178, 179, 180, 181, 182, 183, 184, 185, 186, 187, 188, 189, 190, 191, 192, 193, 194, 195, 196, 197, 198, 199, 200, 201, 202, 203, 204, 205, 206, 207, 208, 209, 210, 211, 212, 213, 214, 215, 216, 217, 218, 219, 220, 221, 222, 223, 224, 225, 226, 227, 228, 229, 230, 231, 232, 233, 234, 235, 236, 237, 238, 239, 240, 241, 242, 243, 244, 245, 246, 247, 248, 249, 250, 251, 252, 253, 254, 255, 256, 257, 258, 259, 260, 261, 262, 263, 264, 265, 266, 267, 268, 269, 270, 271, 272, 273, 274, 275, 276, 277, 278, 279, 280, 281, 282, 283, 284, 285, 286, 287, 288, 289, 290, 291, 292, 293, 294, 295, 296, 297, 298, 299, 300, 301, 302, 303, 304, 305, 306, 307, 308, 309, 310, 311, 312, 313, 314, 315, 316, 317, 318, 319, 320, 321, 322, 323, 324, 325, 326, 327, 328, 329, 330, 331, 332, 333, 334, 335, 336, 337, 338, 339, 340, 341, 342, 343, 344, 345, 346, 347, 348, 349, 350, 351, 352, 353, 354, 355, 356, 357, 358, 359, 360, 361, 362, 363, 364, 365, 366, 367, 368, 369, 370, 371, 372, 373, 374, 375, 376, 377, 378, 379, 380, 381, 382, 383, 384, 385, 386, 387, 388, 389, 390, 391, 392, 393, 394, 395, 396, 397, 398, 399, 400, 401, 402, 403, 404, 405, 406, 407, 408, 409, 410, 411, 412, 413, 414, 415, 416, 417, 418, 419, 420, 421, 422, 423, 424, 425, 426, 427, 428, 429, 430, 431, 432, 433, 434, 435, 436, 437, 438, 439, 440, 441, 442, 443, 444, 445, 446, 447, 448, 449, 450, 451, 452, 453, 454, 455, 456, 457, 458, 459, 460, 461, 462, 463, 464, 465, 466, 467, 468, 469, 470, 471, 472, 473, 474, 475, 476, 477, 478, 479, 480, 481, 482, 483, 484, 485, 486, 487, 488, 489, 490, 491, 492, 493, 494, 495, 496, 497, 498, 499, 500, 501, 502, 503, 504, 505, 506, 507, 508, 509, 510, 511, 512, 513, 514, 515, 516, 517, 518, 519, 520, 521, 522, 523, 524, 525, 526, 527, 528, 529, 530, 531, 532, 533, 534, 535, 536, 537, 538, 539, 540, 541, 542, 543, 544, 545, 546, 547, 548, 549, 550, 551, 552, 553, 554, 555, 556, 557, 558, 559, 560, 561, 562, 563, 564, 565, 566, 567, 568, 569, 570, 571, 572, 573, 574, 575, 576, 577, 578, 579, 580, 581, 582, 583, 584, 585, 586, 587, 588, 589, 590, 591, 592, 593, 594, 595, 596, 597, 598, 599, 600, 601, 602, 603, 604, 605, 606, 607, 608, 609, 610, 611, 612, 613, 614, 615, 616, 617, 618, 619, 620, 621, 622, 623, 624, 625, 626, 627, 628, 629, 630, 631, 632, 633, 634, 635, 636, 637, 638, 639, 640, 641, 642, 643, 644, 645, 646, 647, 648, 649, 650, 651, 652, 653, 654, 655, 656, 657, 658, 659, 660, 661, 662, 663, 664, 665, 666, 667, 668, 669, 670, 671, 672, 673, 674, 675, 676, 677, 678, 679, 680, 681, 682, 683, 684, 685, 686, 687, 688, 689, 690, 691, 692, 693, 694, 695, 696, 697, 698, 699, 700, 701, 702, 703, 704, 705, 706, 707, 708, 709, 710, 711, 712, 713, 714, 715, 716, 717, 718, 719, 720, 721, 722, 723, 724, 725, 726, 727, 728, 729, 730, 731, 732, 733, 734, 735, 736, 737, 738, 739, 740, 741, 742, 743, 744, 745, 746, 747, 748, 749, 750, 751, 752, 753, 754, 755, 756, 757, 758, 759, 760, 761, 762, 763, 764, 765, 766, 767, 768, 769, 770, 771, 772, 773, 774, 775, 776, 777, 778, 779, 780, 781, 782, 783, 784, 785, 786, 787, 788, 789, 790, 791, 792, 793, 794, 795, 796, 797, 798, 799, 800, 801, 802, 803, 804, 805, 806, 807, 808, 809, 810, 811, 812, 813, 814, 815, 816, 817, 818, 819, 820, 821, 822, 823, 824, 825, 826, 827, 828, 829, 830, 831, 832, 833, 834, 835, 836, 837, 838, 839, 840, 841, 842, 843, 844, 845, 846, 847, 848, 849, 850, 851, 852, 853, 854, 855, 856, 857, 858, 859, 860, 861, 862, 863, 864, 865, 866, 867, 868, 869, 870, 871, 872, 873, 874, 875, 876, 877, 878, 879, 880, 881, 882, 883, 884, 885, 886, 887, 888, 889, 890, 891, 892, 893, 894, 895, 896, 897, 898, 899, 900, 901, 902, 903, 904, 905, 906, 907, 908, 909, 910, 911, 912, 913, 914, 915, 916, 917, 918, 919, 920, 921, 922, 923, 924, 925, 926, 927, 928, 929, 930, 931, 932, 933, 934, 935, 936, 937, 938, 939, 940, 941, 942, 943, 944, 945, 946, 947, 948, 949, 950, 951, 952, 953, 954, 955, 956, 957, 958, 959, 960, 961, 962, 963, 964, 965, 966, 967],
      "AcquisitionTime": ["085955.132500", "085955.592500", "085956.052500", "085956.512500", "085956.972500", "085957.432500", "085957.892500", "085958.352500", "085958.812500", "085959.272500", "085959.732500", "090000.192500", "090000.652500", "090001.112500", "090001.572500", "090002.032500", "090002.492500", "090002.952500", "090003.412500", "090003.872500", "090004.332500", "090004.792500", "090005.252500", "090005.712500", "090006.172500", "090006.632500", "090007.092500", "090007.552500", "090008.012500", "090008.472500", "090008.932500", "090009.392500", "090009.852500", "090010.312500", "090010.772500", "090011.232500", "090011.692500", "090012.152500", "090012.612500", "090013.072500", "090013.532500", "090013.992500", "090014.452500", "090014.912500", "090015.372500", "090015.832500", "090016.292500", "090016.752500", "090017.212500", "090017.672500", "090018.132500", "090018.592500", "090019.052500", "090019.512500", "090019.972500", "090020.432500", "090020.892500", "090021.352500", "090021.812500", "090022.272500", "090022.732500", "090023.192500", "090023.652500", "090024.112500", "090024.572500", "090025.032500", "090025.492500", "090025.952500", "090026.412500", "090026.872500", "090027.332500", "090027.792500", "090028.252500", "090028.712500", "090029.172500", "090029.632500", "090030.092500", "090030.552500", "090031.012500", "090031.472500", "090031.932500", "090032.392500", "090032.852500", "090033.312500", "090033.772500", "090034.232500", "090034.692500", "090035.152500", "090035.612500", "090036.072500", "090036.532500", "090036.992500", "090037.452500", "090037.912500", "090038.372500", "090038.832500", "090039.292500", "090039.752500", "090040.212500", "090040.672500", "090041.132500", "090041.592500", "090042.052500", "090042.512500", "090042.972500", "090043.432500", "090043.892500", "090044.352500", "090044.812500", "090045.272500", "090045.732500", "090046.192500", "090046.652500", "090047.112500", "090047.572500", "090048.032500", "090048.492500", "090048.952500", "090049.412500", "090049.872500", "090050.332500", "090050.792500", "090051.252500", "090051.712500", "090052.172500", "090052.632500", "090053.092500", "090053.552500", "090054.012500", "090054.472500", "090054.932500", "090055.392500", "090055.852500", "090056.312500", "090056.772500", "090057.232500", "090057.692500", "090058.152500", "090058.612500", "090059.072500", "090059.532500", "090059.992500", "090100.452500", "090100.912500", "090101.372500", "090101.832500", "090102.292500", "090102.752500", "090103.212500", "090103.672500", "090104.132500", "090104.592500", "090105.052500", "090105.512500", "090105.972500", "090106.432500", "090106.892500", "090107.352500", "090107.812500", "090108.272500", "090108.732500", "090109.192500", "090109.652500", "090110.112500", "090110.572500", "090111.032500", "090111.492500", "090111.952500", "090112.412500", "090112.872500", "090113.332500", "090113.792500", "090114.252500", "090114.712500", "090115.172500", "090115.632500", "090116.092500", "090116.552500", "090117.012500", "090117.472500", "090117.932500", "090118.392500", "090118.852500", "090119.312500", "090119.772500", "090120.232500", "090120.692500", "090121.152500", "090121.612500", "090122.072500", "090122.532500", "090122.992500", "090123.452500", "090123.912500", "090124.372500", "090124.832500", "090125.292500", "090125.752500", "090126.212500", "090126.672500", "090127.132500", "090127.592500", "090128.052500", "090128.512500", "090128.972500", "090129.432500", "090129.892500", "090130.352500", "090130.812500", "090131.272500", "090131.732500", "090132.192500", "090132.652500", "090133.112500", "090133.572500", "090134.032500", "090134.492500", "090134.952500", "090135.412500", "090135.872500", "090136.332500", "090136.792500", "090137.252500", "090137.712500", "090138.172500", "090138.632500", "090139.092500", "090139.552500", "090140.012500", "090140.472500", "090140.932500", "090141.392500", "090141.852500", "090142.312500", "090142.772500", "090143.232500", "090143.692500", "090144.152500", "090144.612500", "090145.072500", "090145.532500", "090145.992500", "090146.452500", "090146.912500", "090147.372500", "090147.832500", "090148.292500", "090148.752500", "090149.212500", "090149.672500", "090150.132500", "090150.592500", "090151.052500", "090151.512500", "090151.972500", "090152.432500", "090152.892500", "090153.352500", "090153.812500", "090154.272500", "090154.732500", "090155.192500", "090155.652500", "090156.112500", "090156.572500", "090157.032500", "090157.492500", "090157.952500", "090158.412500", "090158.872500", "090159.332500", "090159.792500", "090200.252500", "090200.712500", "090201.172500", "090201.632500", "090202.092500", "090202.552500", "090203.012500", "090203.472500", "090203.932500", "090204.392500", "090204.852500", "090205.312500", "090205.772500", "090206.232500", "090206.692500", "090207.152500", "090207.612500", "090208.072500", "090208.532500", "090208.992500", "090209.452500", "090209.912500", "090210.372500", "090210.832500", "090211.292500", "090211.752500", "090212.212500", "090212.672500", "090213.132500", "090213.592500", "090214.052500", "090214.512500", "090214.972500", "090215.432500", "090215.892500", "090216.352500", "090216.812500", "090217.272500", "090217.732500", "090218.192500", "090218.652500", "090219.112500", "090219.572500", "090220.032500", "090220.492500", "090220.952500", "090221.412500", "090221.872500", "090222.332500", "090222.792500", "090223.252500", "090223.712500", "090224.172500", "090224.632500", "090225.092500", "090225.552500", "090226.012500", "090226.472500", "090226.932500", "090227.392500", "090227.852500", "090228.312500", "090228.772500", "090229.232500", "090229.692500", "090230.152500", "090230.612500", "090231.072500", "090231.532500", "090231.992500", "090232.452500", "090232.912500", "090233.372500", "090233.832500", "090234.292500", "090234.752500", "090235.212500", "090235.672500", "090236.132500", "090236.592500", "090237.052500", "090237.512500", "090237.972500", "090238.432500", "090238.892500", "090239.352500", "090239.812500", "090240.272500", "090240.732500", "090241.192500", "090241.652500", "090242.112500", "090242.572500", "090243.032500", "090243.492500", "090243.952500", "090244.412500", "090244.872500", "090245.332500", "090245.792500", "090246.252500", "090246.712500", "090247.172500", "090247.632500", "090248.092500", "090248.552500", "090249.012500", "090249.472500", "090249.932500", "090250.392500", "090250.852500", "090251.312500", "090251.772500", "090252.232500", "090252.692500", "090253.152500", "090253.612500", "090254.072500", "090254.532500", "090254.992500", "090255.452500", "090255.912500", "090256.372500", "090256.832500", "090257.292500", "090257.752500", "090258.212500", "090258.672500", "090259.132500", "090259.592500", "090300.052500", "090300.512500", "090300.972500", "090301.432500", "090301.892500", "090302.352500", "090302.812500", "090303.272500", "090303.732500", "090304.192500", "090304.652500", "090305.112500", "090305.572500", "090306.032500", "090306.492500", "090306.952500", "090307.412500", "090307.872500", "090308.332500", "090308.792500", "090309.252500", "090309.712500", "090310.172500", "090310.632500", "090311.092500", "090311.552500", "090312.012500", "090312.472500", "090312.932500", "090313.392500", "090313.852500", "090314.312500", "090314.772500", "090315.232500", "090315.692500", "090316.152500", "090316.612500", "090317.072500", "090317.532500", "090317.992500", "090318.452500", "090318.912500", "090319.372500", "090319.832500", "090320.292500", "090320.752500", "090321.212500", "090321.672500", "090322.132500", "090322.592500", "090323.052500", "090323.512500", "090323.972500", "090324.432500", "090324.892500", "090325.352500", "090325.812500", "090326.272500", "090326.732500", "090327.192500", "090327.652500", "090328.112500", "090328.572500", "090329.032500", "090329.492500", "090329.952500", "090330.412500", "090330.872500", "090331.332500", "090331.792500", "090332.252500", "090332.712500", "090333.172500", "090333.632500", "090334.092500", "090334.552500", "090335.012500", "090335.472500", "090335.932500", "090336.392500", "090336.852500", "090337.312500", "090337.772500", "090338.232500", "090338.692500", "090339.152500", "090339.612500", "090340.072500", "090340.532500", "090340.992500", "090341.452500", "090341.912500", "090342.372500", "090342.832500", "090343.292500", "090343.752500", "090344.212500", "090344.672500", "090345.132500", "090345.592500", "090346.052500", "090346.512500", "090346.972500", "090347.432500", "090347.892500", "090348.352500", "090348.812500", "090349.272500", "090349.732500", "090350.192500", "090350.652500", "090351.112500", "090351.572500", "090352.032500", "090352.492500", "090352.952500", "090353.412500", "090353.872500", "090354.332500", "090354.792500", "090355.252500", "090355.712500", "090356.172500", "090356.632500", "090357.092500", "090357.552500", "090358.012500", "090358.472500", "090358.932500", "090359.392500", "090359.852500", "090400.312500", "090400.772500", "090401.232500", "090401.692500", "090402.152500", "090402.612500", "090403.072500", "090403.532500", "090403.992500", "090404.452500", "090404.912500", "090405.372500", "090405.832500", "090406.292500", "090406.752500", "090407.212500", "090407.672500", "090408.132500", "090408.592500", "090409.052500", "090409.512500", "090409.972500", "090410.432500", "090410.892500", "090411.352500", "090411.812500", "090412.272500", "090412.732500", "090413.192500", "090413.652500", "090414.112500", "090414.572500", "090415.032500", "090415.492500", "090415.952500", "090416.412500", "090416.872500", "090417.332500", "090417.792500", "090418.252500", "090418.712500", "090419.172500", "090419.632500", "090420.092500", "090420.552500", "090421.012500", "090421.472500", "090421.932500", "090422.392500", "090422.852500", "090423.312500", "090423.772500", "090424.232500", "090424.692500", "090425.152500", "090425.612500", "090426.072500", "090426.532500", "090426.992500", "090427.452500", "090427.912500", "090428.372500", "090428.832500", "090429.292500", "090429.752500", "090430.212500", "090430.672500", "090431.132500", "090431.592500", "090432.052500", "090432.512500", "090432.972500", "090433.432500", "090433.892500", "090434.352500", "090434.812500", "090435.272500", "090435.732500", "090436.192500", "090436.652500", "090437.112500", "090437.572500", "090438.032500", "090438.492500", "090438.952500", "090439.412500", "090439.872500", "090440.332500", "090440.792500", "090441.252500", "090441.712500", "090442.172500", "090442.632500", "090443.092500", "090443.552500", "090444.012500", "090444.472500", "090444.932500", "090445.392500", "090445.852500", "090446.312500", "090446.772500", "090447.232500", "090447.692500", "090448.152500", "090448.612500", "090449.072500", "090449.532500", "090449.992500", "090450.452500", "090450.912500", "090451.372500", "090451.832500", "090452.292500", "090452.752500", "090453.212500", "090453.672500", "090454.132500", "090454.592500", "090455.052500", "090455.512500", "090455.972500", "090456.432500", "090456.892500", "090457.352500", "090457.812500", "090458.272500", "090458.732500", "090459.192500", "090459.652500", "090500.112500", "090500.572500", "090501.032500", "090501.492500", "090501.952500", "090502.412500", "090502.872500", "090503.332500", "090503.792500", "090504.252500", "090504.712500", "090505.172500", "090505.632500", "090506.092500", "090506.552500", "090507.012500", "090507.472500", "090507.932500", "090508.392500", "090508.852500", "090509.312500", "090509.772500", "090510.232500", "090510.692500", "090511.152500", "090511.612500", "090512.072500", "090512.532500", "090512.992500", "090513.452500", "090513.912500", "090514.372500", "090514.832500", "090515.292500", "090515.752500", "090516.212500", "090516.672500", "090517.132500", "090517.592500", "090518.052500", "090518.512500", "090518.972500", "090519.432500", "090519.892500", "090520.352500", "090520.812500", "090521.272500", "090521.732500", "090522.192500", "090522.652500", "090523.112500", "090523.572500", "090524.032500", "090524.492500", "090524.952500", "090525.412500", "090525.872500", "090526.332500", "090526.792500", "090527.252500", "090527.712500", "090528.172500", "090528.632500", "090529.092500", "090529.552500", "090530.012500", "090530.472500", "090530.932500", "090531.392500", "090531.852500", "090532.312500", "090532.772500", "090533.232500", "090533.692500", "090534.152500", "090534.612500", "090535.072500", "090535.532500", "090535.992500", "090536.452500", "090536.912500", "090537.372500", "090537.832500", "090538.292500", "090538.752500", "090539.212500", "090539.672500", "090540.132500", "090540.592500", "090541.052500", "090541.512500", "090541.972500", "090542.432500", "090542.892500", "090543.352500", "090543.812500", "090544.272500", "090544.732500", "090545.192500", "090545.652500", "090546.112500", "090546.572500", "090547.032500", "090547.492500", "090547.952500", "090548.412500", "090548.872500", "090549.332500", "090549.792500", "090550.252500", "090550.712500", "090551.172500", "090551.632500", "090552.092500", "090552.552500", "090553.012500", "090553.472500", "090553.932500", "090554.392500", "090554.852500", "090555.312500", "090555.772500", "090556.232500", "090556.692500", "090557.152500", "090557.612500", "090558.072500", "090558.532500", "090558.992500", "090559.452500", "090559.912500", "090600.372500", "090600.832500", "090601.292500", "090601.752500", "090602.212500", "090602.672500", "090603.132500", "090603.592500", "090604.052500", "090604.512500", "090604.972500", "090605.432500", "090605.892500", "090606.352500", "090606.812500", "090607.272500", "090607.732500", "090608.192500", "090608.652500", "090609.112500", "090609.572500", "090610.032500", "090610.492500", "090610.952500", "090611.412500", "090611.872500", "090612.332500", "090612.792500", "090613.252500", "090613.712500", "090614.172500", "090614.632500", "090615.092500", "090615.552500", "090616.012500", "090616.472500", "090616.932500", "090617.392500", "090617.852500", "090618.312500", "090618.772500", "090619.232500", "090619.692500", "090620.152500", "090620.612500", "090621.072500", "090621.532500", "090621.992500", "090622.452500", "090622.912500", "090623.372500", "090623.832500", "090624.292500", "090624.752500", "090625.212500", "090625.672500", "090626.132500", "090626.592500", "090627.052500", "090627.512500", "090627.972500", "090628.432500", "090628.892500", "090629.352500", "090629.812500", "090630.272500", "090630.732500", "090631.192500", "090631.652500", "090632.112500", "090632.572500", "090633.032500", "090633.492500", "090633.952500", "090634.412500", "090634.872500", "090635.332500", "090635.792500", "090636.252500", "090636.712500", "090637.172500", "090637.632500", "090638.092500", "090638.552500", "090639.012500", "090639.472500", "090639.932500", "090640.392500", "090640.852500", "090641.312500", "090641.772500", "090642.232500", "090642.692500", "090643.152500", "090643.612500", "090644.072500", "090644.532500", "090644.992500", "090645.452500", "090645.912500", "090646.372500", "090646.832500", "090647.292500", "090647.752500", "090648.212500", "090648.672500", "090649.132500", "090649.592500", "090650.052500", "090650.512500", "090650.972500", "090651.432500", "090651.892500", "090652.352500", "090652.812500", "090653.272500", "090653.732500", "090654.192500", "090654.652500", "090655.112500", "090655.572500", "090656.032500", "090656.492500", "090656.952500", "090657.412500", "090657.872500", "090658.332500", "090658.792500", "090659.252500", "090659.712500", "090700.172500", "090700.632500", "090701.092500", "090701.552500", "090702.012500", "090702.472500", "090702.932500", "090703.392500", "090703.852500", "090704.312500", "090704.772500", "090705.232500", "090705.692500", "090706.152500", "090706.612500", "090707.072500", "090707.532500", "090707.992500", "090708.452500", "090708.912500", "090709.372500", "090709.832500", "090710.292500", "090710.752500", "090711.212500", "090711.672500", "090712.132500", "090712.592500", "090713.052500", "090713.512500", "090713.972500", "090714.432500", "090714.892500", "090715.352500", "090715.812500", "090716.272500", "090716.732500", "090717.192500", "090717.652500", "090718.112500", "090718.572500", "090719.032500", "090719.492500"],
