{
  "AcquisitionMatrixPE": 82,
  "AcquisitionNumber": 1,
  "AcquisitionTime": "09:52:15.130000",
  "BandwidthPerPixelPhaseEncode": 24.888,
  "BaseResolution": 82,
  "BodyPartExamined": "BRAIN",
  "ConsistencyInfo": "N4_VE11C_LATEST_20160120",
  "ConversionSoftware": "dcm2niix",
  "ConversionSoftwareVersion": "v1.0.20201102",
  "DerivedVendorReportedEchoSpacing": 0.00049,
  "DeviceSerialNumber": "66112",
  "DwellTime": 2e-06,
  "EchoTime": 0.0272,
  "EchoTrainLength": 82,
  "EffectiveEchoSpacing": 0.00049,
  "FlipAngle": 44,
  "ImageComments": "Unaliased MB8/PE3",
  "ImageOrientationPatientDICOM": [0.998988, -0.0274021, 0.0356674, 0.0280787, 0.999433, -0.0186091],
  "ImageType": [
    "ORIGINAL",
    "PRIMARY",
    "M",
    "MB",
    "ND",
    "NORM",
    "MOSAIC"
],
  "ImagingFrequency": 123.252,
  "InPlanePhaseEncodingDirectionDICOM": "COL",
  "InstitutionAddress": "Maynard 3,Hanover,NH,US,03755",
  "InstitutionName": "Dartmouth College - PBS",
  "InstitutionalDepartmentName": "Department",
  "MRAcquisitionType": "2D",
  "MagneticFieldStrength": 3,
  "Manufacturer": "Siemens",
  "ManufacturersModelName": "Prisma",
  "Modality": "MR",
  "MultibandAccelerationFactor": 8,
  "PartialFourier": 1,
  "PatientPosition": "HFS",
  "PercentPhaseFOV": 100,
  "PercentSampling": 100,
  "PhaseEncodingDirection": "j-",
  "PhaseEncodingSteps": 82,
  "PhaseResolution": 1,
  "PixelBandwidth": 3050,
  "ProcedureStepDescription": "Wager_Wager^1076_spacetop",
  "ProtocolName": "func_run-03_task-faces_acq-ap-mb8",
  "PulseSequenceDetails": "%CustomerSeq%\\cmrr_mbep2d_bold",
  "ReceiveCoilActiveElements": "HEA;HEP",
  "ReceiveCoilName": "Head_32",
  "ReconMatrixPE": 82,
  "RepetitionTime": 0.46,
  "SAR": 0.10386,
  "ScanOptions": "FS",
  "ScanningSequence": "EP",
  "SequenceName": "epfid2d1_82",
  "SequenceVariant": "SK\\SS",
  "SeriesDescription": "func_run-03_task-faces_acq-ap-mb8",
  "SeriesNumber": 24,
  "ShimSetting": [4164, -7708, -7284, 598, -39, -85, 71, 78],
  "SliceThickness": 2.7,
  "SliceTiming": [0, 0.2525, 0.065, 0.315, 0.1275, 0.3775, 0.19, 0, 0.2525, 0.065, 0.315, 0.1275, 0.3775, 0.19, 0, 0.2525, 0.065, 0.315, 0.1275, 0.3775, 0.19, 0, 0.2525, 0.065, 0.315, 0.1275, 0.3775, 0.19, 0, 0.2525, 0.065, 0.315, 0.1275, 0.3775, 0.19, 0, 0.2525, 0.065, 0.315, 0.1275, 0.3775, 0.19, 0, 0.2525, 0.065, 0.315, 0.1275, 0.3775, 0.19, 0, 0.2525, 0.065, 0.315, 0.1275, 0.3775, 0.19],
  "SoftwareVersions": "syngo MR E11",
  "SpacingBetweenSlices": 2.7,
  "StationName": "AWP66112",
  "TaskName": "faces",
  "TotalReadoutTime": 0.03969,
  "TxRefAmp": 284.406,
  "WipMemBlock": "53c85970-8d88-4a9c-a9aa-1a4bf65ea2de||Sequence: R016 ve11c/master r/e634e98; Dec 19 2017 11:00:25 by eja",
  "dcmmeta_affine": [
    [-2.6802117824554443, 0.07533321529626846, 0.09487057477235794, 105.37657928466797],
    [0.07351792603731155, 2.6814043521881104, -0.052897870540618896, -90.77581024169922],
    [0.09569308906793594, 0.049926962703466415, 2.6978142261505127, -75.6954345703125],
    [0.0, 0.0, 0.0, 1.0]
],
  "dcmmeta_reorient_transform": [
    [0.0, -1.0, 0.0, 81.0],
    [1.0, 0.0, 0.0, 0.0],
    [0.0, 0.0, 1.0, 0.0],
    [0.0, 0.0, 0.0, 1.0]
],
  "dcmmeta_shape": [82, 82, 56, 914],
  "dcmmeta_slice_dim": 2,
  "dcmmeta_version": 0.6,
  "global": {
    "const": {
      "AccessionNumber": "A003832",
      "AcquisitionMatrix": [82, 0, 0, 82],
      "AngioFlag": "N",
      "BitsAllocated": 16,
      "BitsStored": 16,
      "BodyPartExamined": "BRAIN",
      "Columns": 656,
      "EchoNumbers": 1,
      "EchoTime": 27.2,
      "EchoTrainLength": 82,
      "FlipAngle": 44.0,
      "HighBit": 15,
      "ImageOrientationPatient": [0.99898796678958, -0.0274021363557, 0.03566742397153, 0.02807874185692, 0.99943248102857, -0.0186091407865],
      "ImagePositionPatient": [-902.31995563592, -874.88131637275, -84.786230051473],
      "ImageType": [
        "ORIGINAL",
        "PRIMARY",
        "M",
        "MB",
        "ND",
        "NORM",
        "MOSAIC"
],
      "ImagedNucleus": "1H",
      "ImagingFrequency": 123.252221,
      "InPlanePhaseEncodingDirection": "COL",
      "MRAcquisitionType": "2D",
      "MagneticFieldStrength": 3.0,
      "Manufacturer": "SIEMENS",
      "ManufacturerModelName": "Prisma",
      "Modality": "MR",
      "NumberOfAverages": 1.0,
      "NumberOfPhaseEncodingSteps": 82,
      "PercentPhaseFieldOfView": 100.0,
      "PercentSampling": 100.0,
      "PerformedProcedureStepStartTime": "083239.589000",
      "PhotometricInterpretation": "MONOCHROME2",
      "PixelBandwidth": 3050.0,
      "PixelRepresentation": 0,
      "PixelSpacing": [2.6829268932343, 2.6829268932343],
      "ProtocolName": "func_run-03_task-faces_acq-ap-mb8",
      "RepetitionTime": 460.0,
      "Rows": 656,
      "SAR": 0.10386020950192,
      "SamplesPerPixel": 1,
      "ScanOptions": "FS",
      "ScanningSequence": "EP",
      "SequenceName": "epfid2d1_82",
      "SequenceVariant": [
        "SK",
        "SS"
],
      "SeriesDescription": "func_run-03_task-faces_acq-ap-mb8",
      "SeriesNumber": 24,
      "SeriesTime": "095227.352000",
      "SliceLocation": -70.153050350318,
      "SliceThickness": 2.7000000476837,
      "SmallestImagePixelValue": 0,
      "SoftwareVersions": "syngo MR E11",
      "SpacingBetweenSlices": 2.6999999223601,
      "SpecificCharacterSet": "ISO_IR 100",
      "StudyID": "1",
      "StudyTime": "083239.441000",
      "TransmitCoilName": "Body",
      "VariableFlipAngleFlag": "N",
      "WindowCenterWidthExplanation": "Algo1",
      "dBdt": 0.0},
    "slices": {}
  },
  "time": {
    "samples": {
      "AcquisitionNumber": [1, 2, 3, 4, 5, 6, 7, 8, 9, 10, 11, 12, 13, 14, 15, 16, 17, 18, 19, 20, 21, 22, 23, 24, 25, 26, 27, 28, 29, 30, 31, 32, 33, 34, 35, 36, 37, 38, 39, 40, 41, 42, 43, 44, 45, 46, 47, 48, 49, 50, 51, 52, 53, 54, 55, 56, 57, 58, 59, 60, 61, 62, 63, 64, 65, 66, 67, 68, 69, 70, 71, 72, 73, 74, 75, 76, 77, 78, 79, 80, 81, 82, 83, 84, 85, 86, 87, 88, 89, 90, 91, 92, 93, 94, 95, 96, 97, 98, 99, 100, 101, 102, 103, 104, 105, 106, 107, 108, 109, 110, 111, 112, 113, 114, 115, 116, 117, 118, 119, 120, 121, 122, 123, 124, 125, 126, 127, 128, 129, 130, 131, 132, 133, 134, 135, 136, 137, 138, 139, 140, 141, 142, 143, 144, 145, 146, 147, 148, 149, 150, 151, 152, 153, 154, 155, 156, 157, 158, 159, 160, 161, 162, 163, 164, 165, 166, 167, 168, 169, 170, 171, 172, 173, 174, 175, 176, 177, 178, 179, 180, 181, 182, 183, 184, 185, 186, 187, 188, 189, 190, 191, 192, 193, 194, 195, 196, 197, 198, 199, 200, 201, 202, 203, 204, 205, 206, 207, 208, 209, 210, 211, 212, 213, 214, 215, 216, 217, 218, 219, 220, 221, 222, 223, 224, 225, 226, 227, 228, 229, 230, 231, 232, 233, 234, 235, 236, 237, 238, 239, 240, 241, 242, 243, 244, 245, 246, 247, 248, 249, 250, 251, 252, 253, 254, 255, 256, 257, 258, 259, 260, 261, 262, 263, 264, 265, 266, 267, 268, 269, 270, 271, 272, 273, 274, 275, 276, 277, 278, 279, 280, 281, 282, 283, 284, 285, 286, 287, 288, 289, 290, 291, 292, 293, 294, 295, 296, 297, 298, 299, 300, 301, 302, 303, 304, 305, 306, 307, 308, 309, 310, 311, 312, 313, 314, 315, 316, 317, 318, 319, 320, 321, 322, 323, 324, 325, 326, 327, 328, 329, 330, 331, 332, 333, 334, 335, 336, 337, 338, 339, 340, 341, 342, 343, 344, 345, 346, 347, 348, 349, 350, 351, 352, 353, 354, 355, 356, 357, 358, 359, 360, 361, 362, 363, 364, 365, 366, 367, 368, 369, 370, 371, 372, 373, 374, 375, 376, 377, 378, 379, 380, 381, 382, 383, 384, 385, 386, 387, 388, 389, 390, 391, 392, 393, 394, 395, 396, 397, 398, 399, 400, 401, 402, 403, 404, 405, 406, 407, 408, 409, 410, 411, 412, 413, 414, 415, 416, 417, 418, 419, 420, 421, 422, 423, 424, 425, 426, 427, 428, 429, 430, 431, 432, 433, 434, 435, 436, 437, 438, 439, 440, 441, 442, 443, 444, 445, 446, 447, 448, 449, 450, 451, 452, 453, 454, 455, 456, 457, 458, 459, 460, 461, 462, 463, 464, 465, 466, 467, 468, 469, 470, 471, 472, 473, 474, 475, 476, 477, 478, 479, 480, 481, 482, 483, 484, 485, 486, 487, 488, 489, 490, 491, 492, 493, 494, 495, 496, 497, 498, 499, 500, 501, 502, 503, 504, 505, 506, 507, 508, 509, 510, 511, 512, 513, 514, 515, 516, 517, 518, 519, 520, 521, 522, 523, 524, 525, 526, 527, 528, 529, 530, 531, 532, 533, 534, 535, 536, 537, 538, 539, 540, 541, 542, 543, 544, 545, 546, 547, 548, 549, 550, 551, 552, 553, 554, 555, 556, 557, 558, 559, 560, 561, 562, 563, 564, 565, 566, 567, 568, 569, 570, 571, 572, 573, 574, 575, 576, 577, 578, 579, 580, 581, 582, 583, 584, 585, 586, 587, 588, 589, 590, 591, 592, 593, 594, 595, 596, 597, 598, 599, 600, 601, 602, 603, 604, 605, 606, 607, 608, 609, 610, 611, 612, 613, 614, 615, 616, 617, 618, 619, 620, 621, 622, 623, 624, 625, 626, 627, 628, 629, 630, 631, 632, 633, 634, 635, 636, 637, 638, 639, 640, 641, 642, 643, 644, 645, 646, 647, 648, 649, 650, 651, 652, 653, 654, 655, 656, 657, 658, 659, 660, 661, 662, 663, 664, 665, 666, 667, 668, 669, 670, 671, 672, 673, 674, 675, 676, 677, 678, 679, 680, 681, 682, 683, 684, 685, 686, 687, 688, 689, 690, 691, 692, 693, 694, 695, 696, 697, 698, 699, 700, 701, 702, 703, 704, 705, 706, 707, 708, 709, 710, 711, 712, 713, 714, 715, 716, 717, 718, 719, 720, 721, 722, 723, 724, 725, 726, 727, 728, 729, 730, 731, 732, 733, 734, 735, 736, 737, 738, 739, 740, 741, 742, 743, 744, 745, 746, 747, 748, 749, 750, 751, 752, 753, 754, 755, 756, 757, 758, 759, 760, 761, 762, 763, 764, 765, 766, 767, 768, 769, 770, 771, 772, 773, 774, 775, 776, 777, 778, 779, 780, 781, 782, 783, 784, 785, 786, 787, 788, 789, 790, 791, 792, 793, 794, 795, 796, 797, 798, 799, 800, 801, 802, 803, 804, 805, 806, 807, 808, 809, 810, 811, 812, 813, 814, 815, 816, 817, 818, 819, 820, 821, 822, 823, 824, 825, 826, 827, 828, 829, 830, 831, 832, 833, 834, 835, 836, 837, 838, 839, 840, 841, 842, 843, 844, 845, 846, 847, 848, 849, 850, 851, 852, 853, 854, 855, 856, 857, 858, 859, 860, 861, 862, 863, 864, 865, 866, 867, 868, 869, 870, 871, 872, 873, 874, 875, 876, 877, 878, 879, 880, 881, 882, 883, 884, 885, 886, 887, 888, 889, 890, 891, 892, 893, 894, 895, 896, 897, 898, 899, 900, 901, 902, 903, 904, 905, 906, 907, 908, 909, 910, 911, 912, 913, 914],
      "AcquisitionTime": ["095215.130000", "095215.590000", "095216.050000", "095216.510000", "095216.970000", "095217.430000", "095217.890000", "095218.350000", "095218.810000", "095219.270000", "095219.730000", "095220.190000", "095220.650000", "095221.110000", "095221.570000", "095222.030000", "095222.490000", "095222.950000", "095223.410000", "095223.870000", "095224.330000", "095224.790000", "095225.250000", "095225.710000", "095226.170000", "095226.630000", "095227.090000", "095227.550000", "095228.010000", "095228.470000", "095228.930000", "095229.390000", "095229.850000", "095230.310000", "095230.770000", "095231.230000", "095231.690000", "095232.150000", "095232.610000", "095233.070000", "095233.530000", "095233.990000", "095234.450000", "095234.910000", "095235.370000", "095235.830000", "095236.290000", "095236.750000", "095237.210000", "095237.670000", "095238.130000", "095238.590000", "095239.050000", "095239.510000", "095239.970000", "095240.430000", "095240.890000", "095241.350000", "095241.810000", "095242.270000", "095242.730000", "095243.190000", "095243.650000", "095244.110000", "095244.570000", "095245.030000", "095245.490000", "095245.950000", "095246.410000", "095246.870000", "095247.330000", "095247.790000", "095248.250000", "095248.710000", "095249.170000", "095249.630000", "095250.090000", "095250.550000", "095251.010000", "095251.470000", "095251.930000", "095252.390000", "095252.850000", "095253.310000", "095253.770000", "095254.230000", "095254.690000", "095255.150000", "095255.610000", "095256.070000", "095256.530000", "095256.990000", "095257.450000", "095257.910000", "095258.370000", "095258.830000", "095259.290000", "095259.750000", "095300.210000", "095300.670000", "095301.130000", "095301.590000", "095302.050000", "095302.510000", "095302.970000", "095303.430000", "095303.890000", "095304.350000", "095304.810000", "095305.270000", "095305.730000", "095306.190000", "095306.650000", "095307.110000", "095307.570000", "095308.030000", "095308.490000", "095308.950000", "095309.410000", "095309.870000", "095310.330000", "095310.790000", "095311.250000", "095311.710000", "095312.170000", "095312.630000", "095313.090000", "095313.550000", "095314.010000", "095314.470000", "095314.930000", "095315.390000", "095315.850000", "095316.310000", "095316.770000", "095317.230000", "095317.690000", "095318.150000", "095318.610000", "095319.070000", "095319.530000", "095319.990000", "095320.450000", "095320.910000", "095321.370000", "095321.830000", "095322.290000", "095322.750000", "095323.210000", "095323.670000", "095324.130000", "095324.590000", "095325.050000", "095325.510000", "095325.970000", "095326.430000", "095326.890000", "095327.350000", "095327.810000", "095328.270000", "095328.730000", "095329.190000", "095329.650000", "095330.110000", "095330.570000", "095331.030000", "095331.490000", "095331.950000", "095332.410000", "095332.870000", "095333.330000", "095333.790000", "095334.250000", "095334.710000", "095335.170000", "095335.630000", "095336.090000", "095336.550000", "095337.010000", "095337.470000", "095337.930000", "095338.390000", "095338.850000", "095339.310000", "095339.770000", "095340.230000", "095340.690000", "095341.150000", "095341.610000", "095342.070000", "095342.530000", "095342.990000", "095343.450000", "095343.910000", "095344.370000", "095344.830000", "095345.290000", "095345.750000", "095346.210000", "095346.670000", "095347.130000", "095347.590000", "095348.050000", "095348.510000", "095348.970000", "095349.430000", "095349.890000", "095350.350000", "095350.810000", "095351.270000", "095351.730000", "095352.190000", "095352.650000", "095353.110000", "095353.570000", "095354.030000", "095354.490000", "095354.950000", "095355.410000", "095355.870000", "095356.330000", "095356.790000", "095357.250000", "095357.710000", "095358.170000", "095358.630000", "095359.090000", "095359.550000", "095400.010000", "095400.470000", "095400.930000", "095401.390000", "095401.850000", "095402.310000", "095402.770000", "095403.230000", "095403.690000", "095404.150000", "095404.610000", "095405.070000", "095405.530000", "095405.990000", "095406.450000", "095406.910000", "095407.370000", "095407.830000", "095408.290000", "095408.750000", "095409.210000", "095409.670000", "095410.130000", "095410.590000", "095411.050000", "095411.510000", "095411.970000", "095412.430000", "095412.890000", "095413.350000", "095413.810000", "095414.270000", "095414.730000", "095415.190000", "095415.650000", "095416.110000", "095416.570000", "095417.030000", "095417.490000", "095417.950000", "095418.410000", "095418.870000", "095419.330000", "095419.790000", "095420.250000", "095420.710000", "095421.170000", "095421.630000", "095422.090000", "095422.550000", "095423.010000", "095423.470000", "095423.930000", "095424.390000", "095424.850000", "095425.310000", "095425.770000", "095426.230000", "095426.690000", "095427.150000", "095427.610000", "095428.070000", "095428.530000", "095428.990000", "095429.450000", "095429.910000", "095430.370000", "095430.830000", "095431.290000", "095431.750000", "095432.210000", "095432.670000", "095433.130000", "095433.590000", "095434.050000", "095434.510000", "095434.970000", "095435.430000", "095435.890000", "095436.350000", "095436.810000", "095437.270000", "095437.730000", "095438.190000", "095438.650000", "095439.110000", "095439.570000", "095440.030000", "095440.490000", "095440.950000", "095441.410000", "095441.870000", "095442.330000", "095442.790000", "095443.250000", "095443.710000", "095444.170000", "095444.630000", "095445.090000", "095445.550000", "095446.010000", "095446.470000", "095446.930000", "095447.390000", "095447.850000", "095448.310000", "095448.770000", "095449.230000", "095449.690000", "095450.150000", "095450.610000", "095451.070000", "095451.530000", "095451.990000", "095452.450000", "095452.910000", "095453.370000", "095453.830000", "095454.290000", "095454.750000", "095455.210000", "095455.670000", "095456.130000", "095456.590000", "095457.050000", "095457.510000", "095457.970000", "095458.430000", "095458.890000", "095459.350000", "095459.810000", "095500.270000", "095500.730000", "095501.190000", "095501.650000", "095502.110000", "095502.570000", "095503.030000", "095503.490000", "095503.950000", "095504.410000", "095504.870000", "095505.330000", "095505.790000", "095506.250000", "095506.710000", "095507.170000", "095507.630000", "095508.090000", "095508.550000", "095509.010000", "095509.470000", "095509.930000", "095510.390000", "095510.850000", "095511.310000", "095511.770000", "095512.230000", "095512.690000", "095513.150000", "095513.610000", "095514.070000", "095514.530000", "095514.990000", "095515.450000", "095515.910000", "095516.370000", "095516.830000", "095517.290000", "095517.750000", "095518.210000", "095518.670000", "095519.130000", "095519.590000", "095520.050000", "095520.510000", "095520.970000", "095521.430000", "095521.890000", "095522.350000", "095522.810000", "095523.270000", "095523.730000", "095524.190000", "095524.650000", "095525.110000", "095525.570000", "095526.030000", "095526.490000", "095526.950000", "095527.410000", "095527.870000", "095528.330000", "095528.790000", "095529.250000", "095529.710000", "095530.170000", "095530.630000", "095531.090000", "095531.550000", "095532.010000", "095532.470000", "095532.930000", "095533.390000", "095533.850000", "095534.310000", "095534.770000", "095535.230000", "095535.690000", "095536.150000", "095536.610000", "095537.070000", "095537.530000", "095537.990000", "095538.450000", "095538.910000", "095539.370000", "095539.830000", "095540.290000", "095540.750000", "095541.210000", "095541.670000", "095542.130000", "095542.590000", "095543.050000", "095543.510000", "095543.970000", "095544.430000", "095544.890000", "095545.350000", "095545.810000", "095546.270000", "095546.730000", "095547.190000", "095547.650000", "095548.110000", "095548.570000", "095549.030000", "095549.490000", "095549.950000", "095550.410000", "095550.870000", "095551.330000", "095551.790000", "095552.250000", "095552.710000", "095553.170000", "095553.630000", "095554.090000", "095554.550000", "095555.010000", "095555.470000", "095555.930000", "095556.390000", "095556.850000", "095557.310000", "095557.770000", "095558.230000", "095558.690000", "095559.150000", "095559.610000", "095600.070000", "095600.530000", "095600.990000", "095601.450000", "095601.910000", "095602.370000", "095602.830000", "095603.290000", "095603.750000", "095604.210000", "095604.670000", "095605.130000", "095605.590000", "095606.050000", "095606.510000", "095606.970000", "095607.430000", "095607.890000", "095608.350000", "095608.810000", "095609.270000", "095609.730000", "095610.190000", "095610.650000", "095611.110000", "095611.570000", "095612.030000", "095612.490000", "095612.950000", "095613.410000", "095613.870000", "095614.330000", "095614.790000", "095615.250000", "095615.710000", "095616.170000", "095616.630000", "095617.090000", "095617.550000", "095618.010000", "095618.470000", "095618.930000", "095619.390000", "095619.850000", "095620.310000", "095620.770000", "095621.230000", "095621.690000", "095622.150000", "095622.610000", "095623.070000", "095623.530000", "095623.990000", "095624.450000", "095624.910000", "095625.370000", "095625.830000", "095626.290000", "095626.750000", "095627.210000", "095627.670000", "095628.130000", "095628.590000", "095629.050000", "095629.510000", "095629.970000", "095630.430000", "095630.890000", "095631.350000", "095631.810000", "095632.270000", "095632.730000", "095633.190000", "095633.650000", "095634.110000", "095634.570000", "095635.030000", "095635.490000", "095635.950000", "095636.410000", "095636.870000", "095637.330000", "095637.790000", "095638.250000", "095638.710000", "095639.170000", "095639.630000", "095640.090000", "095640.550000", "095641.010000", "095641.470000", "095641.930000", "095642.390000", "095642.850000", "095643.310000", "095643.770000", "095644.230000", "095644.690000", "095645.150000", "095645.610000", "095646.070000", "095646.530000", "095646.990000", "095647.450000", "095647.910000", "095648.370000", "095648.830000", "095649.290000", "095649.750000", "095650.210000", "095650.670000", "095651.130000", "095651.590000", "095652.050000", "095652.510000", "095652.970000", "095653.430000", "095653.890000", "095654.350000", "095654.810000", "095655.270000", "095655.730000", "095656.190000", "095656.650000", "095657.110000", "095657.570000", "095658.030000", "095658.490000", "095658.950000", "095659.410000", "095659.870000", "095700.330000", "095700.790000", "095701.250000", "095701.710000", "095702.170000", "095702.630000", "095703.090000", "095703.550000", "095704.010000", "095704.470000", "095704.930000", "095705.390000", "095705.850000", "095706.310000", "095706.770000", "095707.230000", "095707.690000", "095708.150000", "095708.610000", "095709.070000", "095709.530000", "095709.990000", "095710.450000", "095710.910000", "095711.370000", "095711.830000", "095712.290000", "095712.750000", "095713.210000", "095713.670000", "095714.130000", "095714.590000", "095715.050000", "095715.510000", "095715.970000", "095716.430000", "095716.890000", "095717.350000", "095717.810000", "095718.270000", "095718.730000", "095719.190000", "095719.650000", "095720.110000", "095720.570000", "095721.030000", "095721.490000", "095721.950000", "095722.410000", "095722.870000", "095723.330000", "095723.790000", "095724.250000", "095724.710000", "095725.170000", "095725.630000", "095726.090000", "095726.550000", "095727.010000", "095727.470000", "095727.930000", "095728.390000", "095728.850000", "095729.310000", "095729.770000", "095730.230000", "095730.690000", "095731.150000", "095731.610000", "095732.070000", "095732.530000", "095732.990000", "095733.450000", "095733.910000", "095734.370000", "095734.830000", "095735.290000", "095735.750000", "095736.210000", "095736.670000", "095737.130000", "095737.590000", "095738.050000", "095738.510000", "095738.970000", "095739.430000", "095739.890000", "095740.350000", "095740.810000", "095741.270000", "095741.730000", "095742.190000", "095742.650000", "095743.110000", "095743.570000", "095744.030000", "095744.490000", "095744.950000", "095745.410000", "095745.870000", "095746.330000", "095746.790000", "095747.250000", "095747.710000", "095748.170000", "095748.630000", "095749.090000", "095749.550000", "095750.010000", "095750.470000", "095750.930000", "095751.390000", "095751.850000", "095752.310000", "095752.770000", "095753.230000", "095753.690000", "095754.150000", "095754.610000", "095755.070000", "095755.530000", "095755.990000", "095756.450000", "095756.910000", "095757.370000", "095757.830000", "095758.290000", "095758.750000", "095759.210000", "095759.670000", "095800.130000", "095800.590000", "095801.050000", "095801.510000", "095801.970000", "095802.430000", "095802.890000", "095803.350000", "095803.810000", "095804.270000", "095804.730000", "095805.190000", "095805.650000", "095806.110000", "095806.570000", "095807.030000", "095807.490000", "095807.950000", "095808.410000", "095808.870000", "095809.330000", "095809.790000", "095810.250000", "095810.710000", "095811.170000", "095811.630000", "095812.090000", "095812.550000", "095813.010000", "095813.470000", "095813.930000", "095814.390000", "095814.850000", "095815.310000", "095815.770000", "095816.230000", "095816.690000", "095817.150000", "095817.610000", "095818.070000", "095818.530000", "095818.990000", "095819.450000", "095819.910000", "095820.370000", "095820.830000", "095821.290000", "095821.750000", "095822.210000", "095822.670000", "095823.130000", "095823.590000", "095824.050000", "095824.510000", "095824.970000", "095825.430000", "095825.890000", "095826.350000", "095826.810000", "095827.270000", "095827.730000", "095828.190000", "095828.650000", "095829.110000", "095829.570000", "095830.030000", "095830.490000", "095830.950000", "095831.410000", "095831.870000", "095832.330000", "095832.790000", "095833.250000", "095833.710000", "095834.170000", "095834.630000", "095835.090000", "095835.550000", "095836.010000", "095836.470000", "095836.930000", "095837.390000", "095837.850000", "095838.310000", "095838.770000", "095839.230000", "095839.690000", "095840.150000", "095840.610000", "095841.070000", "095841.530000", "095841.990000", "095842.450000", "095842.910000", "095843.370000", "095843.830000", "095844.290000", "095844.750000", "095845.210000", "095845.670000", "095846.130000", "095846.590000", "095847.050000", "095847.510000", "095847.970000", "095848.430000", "095848.890000", "095849.350000", "095849.810000", "095850.270000", "095850.730000", "095851.190000", "095851.650000", "095852.110000", "095852.570000", "095853.030000", "095853.490000", "095853.950000", "095854.410000", "095854.870000", "095855.330000", "095855.790000", "095856.250000", "095856.710000", "095857.170000", "095857.630000", "095858.090000", "095858.550000", "095859.010000", "095859.470000", "095859.930000", "095900.390000", "095900.850000", "095901.310000", "095901.770000", "095902.230000", "095902.690000", "095903.150000", "095903.610000", "095904.070000", "095904.530000", "095904.990000", "095905.450000", "095905.910000", "095906.370000", "095906.830000", "095907.290000", "095907.750000", "095908.210000", "095908.670000", "095909.130000", "095909.590000", "095910.050000", "095910.510000", "095910.970000", "095911.430000", "095911.890000", "095912.350000", "095912.810000", "095913.270000", "095913.730000", "095914.190000", "095914.650000", "095915.110000"],
