{
  "AcquisitionMatrixPE": 82,
  "AcquisitionNumber": 1,
  "AcquisitionTime": "09:07:47.755000",
  "BandwidthPerPixelPhaseEncode": 24.888,
  "BaseResolution": 82,
  "BodyPartExamined": "BRAIN",
  "ConsistencyInfo": "N4_VE11C_LATEST_20160120",
  "ConversionSoftware": "dcm2niix",
  "ConversionSoftwareVersion": "v1.0.20201102",
  "DerivedVendorReportedEchoSpacing": 0.00049,
  "DeviceSerialNumber": "66112",
  "DwellTime": 2e-06,
  "EchoTime": 0.0272,
  "EchoTrainLength": 82,
  "EffectiveEchoSpacing": 0.00049,
  "FlipAngle": 44,
  "ImageComments": "Unaliased MB8/PE3",
  "ImageOrientationPatientDICOM": [0.998988, -0.0274021, 0.0356674, 0.0280787, 0.999433, -0.0186091],
  "ImageType": [
    "ORIGINAL",
    "PRIMARY",
    "M",
    "MB",
    "ND",
    "NORM",
    "MOSAIC"
],
  "ImagingFrequency": 123.252,
  "InPlanePhaseEncodingDirectionDICOM": "COL",
  "InstitutionAddress": "Maynard 3,Hanover,NH,US,03755",
  "InstitutionName": "Dartmouth College - PBS",
  "InstitutionalDepartmentName": "Department",
  "MRAcquisitionType": "2D",
  "MagneticFieldStrength": 3,
  "Manufacturer": "Siemens",
  "ManufacturersModelName": "Prisma",
  "Modality": "MR",
  "MultibandAccelerationFactor": 8,
  "PartialFourier": 1,
  "PatientPosition": "HFS",
  "PercentPhaseFOV": 100,
  "PercentSampling": 100,
  "PhaseEncodingDirection": "j-",
  "PhaseEncodingSteps": 82,
  "PhaseResolution": 1,
  "PixelBandwidth": 3050,
  "ProcedureStepDescription": "Wager_Wager^1076_spacetop",
  "ProtocolName": "func_run-02_task-narratives_acq-ap-mb8",
  "PulseSequenceDetails": "%CustomerSeq%\\cmrr_mbep2d_bold",
  "ReceiveCoilActiveElements": "HEA;HEP",
  "ReceiveCoilName": "Head_32",
  "ReconMatrixPE": 82,
  "RepetitionTime": 0.46,
  "SAR": 0.103964,
  "ScanOptions": "FS",
  "ScanningSequence": "EP",
  "SequenceName": "epfid2d1_82",
  "SequenceVariant": "SK\\SS",
  "SeriesDescription": "func_run-02_task-narratives_acq-ap-mb8",
  "SeriesNumber": 14,
  "ShimSetting": [4164, -7708, -7284, 598, -39, -85, 71, 78],
  "SliceThickness": 2.7,
  "SliceTiming": [0, 0.2525, 0.0625, 0.315, 0.1275, 0.3775, 0.19, 0, 0.2525, 0.0625, 0.315, 0.1275, 0.3775, 0.19, 0, 0.2525, 0.0625, 0.315, 0.1275, 0.3775, 0.19, 0, 0.2525, 0.0625, 0.315, 0.1275, 0.3775, 0.19, 0, 0.2525, 0.0625, 0.315, 0.1275, 0.3775, 0.19, 0, 0.2525, 0.0625, 0.315, 0.1275, 0.3775, 0.19, 0, 0.2525, 0.0625, 0.315, 0.1275, 0.3775, 0.19, 0, 0.2525, 0.0625, 0.315, 0.1275, 0.3775, 0.19],
  "SoftwareVersions": "syngo MR E11",
  "SpacingBetweenSlices": 2.7,
  "StationName": "AWP66112",
  "TaskName": "narratives",
  "TotalReadoutTime": 0.03969,
  "TxRefAmp": 284.406,
  "WipMemBlock": "d8f9fa2f-ffd7-4715-941f-998eda7bd74f||Sequence: R016 ve11c/master r/e634e98; Dec 19 2017 11:00:25 by eja",
  "dcmmeta_affine": [
    [-2.6802117824554443, 0.07533321529626846, 0.09487057477235794, 105.37657928466797],
    [0.07351792603731155, 2.6814043521881104, -0.052897870540618896, -90.77581024169922],
    [0.09569308906793594, 0.049926962703466415, 2.6978142261505127, -75.6954345703125],
    [0.0, 0.0, 0.0, 1.0]
],
  "dcmmeta_reorient_transform": [
    [0.0, -1.0, 0.0, 81.0],
    [1.0, 0.0, 0.0, 0.0],
    [0.0, 0.0, 1.0, 0.0],
    [0.0, 0.0, 0.0, 1.0]
],
  "dcmmeta_shape": [82, 82, 56, 1098],
  "dcmmeta_slice_dim": 2,
  "dcmmeta_version": 0.6,
  "global": {
    "const": {
      "AccessionNumber": "A003832",
      "AcquisitionMatrix": [82, 0, 0, 82],
      "AngioFlag": "N",
      "BitsAllocated": 16,
      "BitsStored": 16,
      "BodyPartExamined": "BRAIN",
      "Columns": 656,
      "EchoNumbers": 1,
      "EchoTime": 27.2,
      "EchoTrainLength": 82,
      "FlipAngle": 44.0,
      "HighBit": 15,
      "ImageOrientationPatient": [0.99898796678958, -0.0274021363557, 0.03566742397153, 0.02807874185692, 0.99943248102857, -0.0186091407865],
      "ImagePositionPatient": [-902.31995563592, -874.88131637275, -84.786230051473],
      "ImageType": [
        "ORIGINAL",
        "PRIMARY",
        "M",
        "MB",
        "ND",
        "NORM",
        "MOSAIC"
],
      "ImagedNucleus": "1H",
      "ImagingFrequency": 123.252209,
      "InPlanePhaseEncodingDirection": "COL",
      "MRAcquisitionType": "2D",
      "MagneticFieldStrength": 3.0,
      "Manufacturer": "SIEMENS",
      "ManufacturerModelName": "Prisma",
      "Modality": "MR",
      "NumberOfAverages": 1.0,
      "NumberOfPhaseEncodingSteps": 82,
      "PercentPhaseFieldOfView": 100.0,
      "PercentSampling": 100.0,
      "PerformedProcedureStepStartTime": "083239.589000",
      "PhotometricInterpretation": "MONOCHROME2",
      "PixelBandwidth": 3050.0,
      "PixelRepresentation": 0,
      "PixelSpacing": [2.6829268932343, 2.6829268932343],
      "ProtocolName": "func_run-02_task-narratives_acq-ap-mb8",
      "RepetitionTime": 460.0,
      "Rows": 656,
      "SAR": 0.10396366470095,
      "SamplesPerPixel": 1,
      "ScanOptions": "FS",
      "ScanningSequence": "EP",
      "SequenceName": "epfid2d1_82",
      "SequenceVariant": [
        "SK",
        "SS"
],
      "SeriesDescription": "func_run-02_task-narratives_acq-ap-mb8",
      "SeriesNumber": 14,
      "SeriesTime": "090807.414000",
      "SliceLocation": -70.153050350318,
      "SliceThickness": 2.7000000476837,
      "SmallestImagePixelValue": 0,
      "SoftwareVersions": "syngo MR E11",
      "SpacingBetweenSlices": 2.6999999223601,
      "SpecificCharacterSet": "ISO_IR 100",
      "StudyID": "1",
      "StudyTime": "083239.441000",
      "TransmitCoilName": "Body",
      "VariableFlipAngleFlag": "N",
      "WindowCenterWidthExplanation": "Algo1",
      "dBdt": 0.0},
    "slices": {}
  },
  "time": {
    "samples": {
      "AcquisitionNumber": [1, 2, 3, 4, 5, 6, 7, 8, 9, 10, 11, 12, 13, 14, 15, 16, 17, 18, 19, 20, 21, 22, 23, 24, 25, 26, 27, 28, 29, 30, 31, 32, 33, 34, 35, 36, 37, 38, 39, 40, 41, 42, 43, 44, 45, 46, 47, 48, 49, 50, 51, 52, 53, 54, 55, 56, 57, 58, 59, 60, 61, 62, 63, 64, 65, 66, 67, 68, 69, 70, 71, 72, 73, 74, 75, 76, 77, 78, 79, 80, 81, 82, 83, 84, 85, 86, 87, 88, 89, 90, 91, 92, 93, 94, 95, 96, 97, 98, 99, 100, 101, 102, 103, 104, 105, 106, 107, 108, 109, 110, 111, 112, 113, 114, 115, 116, 117, 118, 119, 120, 121, 122, 123, 124, 125, 126, 127, 128, 129, 130, 131, 132, 133, 134, 135, 136, 137, 138, 139, 140, 141, 142, 143, 144, 145, 146, 147, 148, 149, 150, 151, 152, 153, 154, 155, 156, 157, 158, 159, 160, 161, 162, 163, 164, 165, 166, 167, 168, 169, 170, 171, 172, 173, 174, 175, 176, 177, 178, 179, 180, 181, 182, 183, 184, 185, 186, 187, 188, 189, 190, 191, 192, 193, 194, 195, 196, 197, 198, 199, 200, 201, 202, 203, 204, 205, 206, 207, 208, 209, 210, 211, 212, 213, 214, 215, 216, 217, 218, 219, 220, 221, 222, 223, 224, 225, 226, 227, 228, 229, 230, 231, 232, 233, 234, 235, 236, 237, 238, 239, 240, 241, 242, 243, 244, 245, 246, 247, 248, 249, 250, 251, 252, 253, 254, 255, 256, 257, 258, 259, 260, 261, 262, 263, 264, 265, 266, 267, 268, 269, 270, 271, 272, 273, 274, 275, 276, 277, 278, 279, 280, 281, 282, 283, 284, 285, 286, 287, 288, 289, 290, 291, 292, 293, 294, 295, 296, 297, 298, 299, 300, 301, 302, 303, 304, 305, 306, 307, 308, 309, 310, 311, 312, 313, 314, 315, 316, 317, 318, 319, 320, 321, 322, 323, 324, 325, 326, 327, 328, 329, 330, 331, 332, 333, 334, 335, 336, 337, 338, 339, 340, 341, 342, 343, 344, 345, 346, 347, 348, 349, 350, 351, 352, 353, 354, 355, 356, 357, 358, 359, 360, 361, 362, 363, 364, 365, 366, 367, 368, 369, 370, 371, 372, 373, 374, 375, 376, 377, 378, 379, 380, 381, 382, 383, 384, 385, 386, 387, 388, 389, 390, 391, 392, 393, 394, 395, 396, 397, 398, 399, 400, 401, 402, 403, 404, 405, 406, 407, 408, 409, 410, 411, 412, 413, 414, 415, 416, 417, 418, 419, 420, 421, 422, 423, 424, 425, 426, 427, 428, 429, 430, 431, 432, 433, 434, 435, 436, 437, 438, 439, 440, 441, 442, 443, 444, 445, 446, 447, 448, 449, 450, 451, 452, 453, 454, 455, 456, 457, 458, 459, 460, 461, 462, 463, 464, 465, 466, 467, 468, 469, 470, 471, 472, 473, 474, 475, 476, 477, 478, 479, 480, 481, 482, 483, 484, 485, 486, 487, 488, 489, 490, 491, 492, 493, 494, 495, 496, 497, 498, 499, 500, 501, 502, 503, 504, 505, 506, 507, 508, 509, 510, 511, 512, 513, 514, 515, 516, 517, 518, 519, 520, 521, 522, 523, 524, 525, 526, 527, 528, 529, 530, 531, 532, 533, 534, 535, 536, 537, 538, 539, 540, 541, 542, 543, 544, 545, 546, 547, 548, 549, 550, 551, 552, 553, 554, 555, 556, 557, 558, 559, 560, 561, 562, 563, 564, 565, 566, 567, 568, 569, 570, 571, 572, 573, 574, 575, 576, 577, 578, 579, 580, 581, 582, 583, 584, 585, 586, 587, 588, 589, 590, 591, 592, 593, 594, 595, 596, 597, 598, 599, 600, 601, 602, 603, 604, 605, 606, 607, 608, 609, 610, 611, 612, 613, 614, 615, 616, 617, 618, 619, 620, 621, 622, 623, 624, 625, 626, 627, 628, 629, 630, 631, 632, 633, 634, 635, 636, 637, 638, 639, 640, 641, 642, 643, 644, 645, 646, 647, 648, 649, 650, 651, 652, 653, 654, 655, 656, 657, 658, 659, 660, 661, 662, 663, 664, 665, 666, 667, 668, 669, 670, 671, 672, 673, 674, 675, 676, 677, 678, 679, 680, 681, 682, 683, 684, 685, 686, 687, 688, 689, 690, 691, 692, 693, 694, 695, 696, 697, 698, 699, 700, 701, 702, 703, 704, 705, 706, 707, 708, 709, 710, 711, 712, 713, 714, 715, 716, 717, 718, 719, 720, 721, 722, 723, 724, 725, 726, 727, 728, 729, 730, 731, 732, 733, 734, 735, 736, 737, 738, 739, 740, 741, 742, 743, 744, 745, 746, 747, 748, 749, 750, 751, 752, 753, 754, 755, 756, 757, 758, 759, 760, 761, 762, 763, 764, 765, 766, 767, 768, 769, 770, 771, 772, 773, 774, 775, 776, 777, 778, 779, 780, 781, 782, 783, 784, 785, 786, 787, 788, 789, 790, 791, 792, 793, 794, 795, 796, 797, 798, 799, 800, 801, 802, 803, 804, 805, 806, 807, 808, 809, 810, 811, 812, 813, 814, 815, 816, 817, 818, 819, 820, 821, 822, 823, 824, 825, 826, 827, 828, 829, 830, 831, 832, 833, 834, 835, 836, 837, 838, 839, 840, 841, 842, 843, 844, 845, 846, 847, 848, 849, 850, 851, 852, 853, 854, 855, 856, 857, 858, 859, 860, 861, 862, 863, 864, 865, 866, 867, 868, 869, 870, 871, 872, 873, 874, 875, 876, 877, 878, 879, 880, 881, 882, 883, 884, 885, 886, 887, 888, 889, 890, 891, 892, 893, 894, 895, 896, 897, 898, 899, 900, 901, 902, 903, 904, 905, 906, 907, 908, 909, 910, 911, 912, 913, 914, 915, 916, 917, 918, 919, 920, 921, 922, 923, 924, 925, 926, 927, 928, 929, 930, 931, 932, 933, 934, 935, 936, 937, 938, 939, 940, 941, 942, 943, 944, 945, 946, 947, 948, 949, 950, 951, 952, 953, 954, 955, 956, 957, 958, 959, 960, 961, 962, 963, 964, 965, 966, 967, 968, 969, 970, 971, 972, 973, 974, 975, 976, 977, 978, 979, 980, 981, 982, 983, 984, 985, 986, 987, 988, 989, 990, 991, 992, 993, 994, 995, 996, 997, 998, 999, 1000, 1001, 1002, 1003, 1004, 1005, 1006, 1007, 1008, 1009, 1010, 1011, 1012, 1013, 1014, 1015, 1016, 1017, 1018, 1019, 1020, 1021, 1022, 1023, 1024, 1025, 1026, 1027, 1028, 1029, 1030, 1031, 1032, 1033, 1034, 1035, 1036, 1037, 1038, 1039, 1040, 1041, 1042, 1043, 1044, 1045, 1046, 1047, 1048, 1049, 1050, 1051, 1052, 1053, 1054, 1055, 1056, 1057, 1058, 1059, 1060, 1061, 1062, 1063, 1064, 1065, 1066, 1067, 1068, 1069, 1070, 1071, 1072, 1073, 1074, 1075, 1076, 1077, 1078, 1079, 1080, 1081, 1082, 1083, 1084, 1085, 1086, 1087, 1088, 1089, 1090, 1091, 1092, 1093, 1094, 1095, 1096, 1097, 1098],
      "AcquisitionTime": ["090747.755000", "090748.215000", "090748.675000", "090749.135000", "090749.595000", "090750.055000", "090750.515000", "090750.975000", "090751.435000", "090751.895000", "090752.355000", "090752.815000", "090753.275000", "090753.735000", "090754.195000", "090754.655000", "090755.115000", "090755.575000", "090756.035000", "090756.495000", "090756.955000", "090757.415000", "090757.875000", "090758.335000", "090758.795000", "090759.255000", "090759.715000", "090800.175000", "090800.635000", "090801.095000", "090801.555000", "090802.015000", "090802.475000", "090802.935000", "090803.395000", "090803.855000", "090804.315000", "090804.775000", "090805.235000", "090805.695000", "090806.155000", "090806.615000", "090807.075000", "090807.535000", "090807.995000", "090808.455000", "090808.915000", "090809.375000", "090809.835000", "090810.295000", "090810.755000", "090811.215000", "090811.675000", "090812.135000", "090812.595000", "090813.055000", "090813.515000", "090813.975000", "090814.435000", "090814.895000", "090815.355000", "090815.815000", "090816.275000", "090816.735000", "090817.195000", "090817.655000", "090818.115000", "090818.575000", "090819.035000", "090819.495000", "090819.955000", "090820.415000", "090820.875000", "090821.335000", "090821.795000", "090822.255000", "090822.715000", "090823.175000", "090823.635000", "090824.095000", "090824.555000", "090825.015000", "090825.475000", "090825.935000", "090826.395000", "090826.855000", "090827.315000", "090827.775000", "090828.235000", "090828.695000", "090829.155000", "090829.615000", "090830.075000", "090830.535000", "090830.995000", "090831.455000", "090831.915000", "090832.375000", "090832.835000", "090833.295000", "090833.755000", "090834.215000", "090834.675000", "090835.135000", "090835.595000", "090836.055000", "090836.515000", "090836.975000", "090837.435000", "090837.895000", "090838.355000", "090838.815000", "090839.275000", "090839.735000", "090840.195000", "090840.655000", "090841.115000", "090841.575000", "090842.035000", "090842.495000", "090842.955000", "090843.415000", "090843.875000", "090844.335000", "090844.795000", "090845.255000", "090845.715000", "090846.175000", "090846.635000", "090847.095000", "090847.555000", "090848.015000", "090848.475000", "090848.935000", "090849.395000", "090849.855000", "090850.315000", "090850.775000", "090851.235000", "090851.695000", "090852.155000", "090852.615000", "090853.075000", "090853.535000", "090853.995000", "090854.455000", "090854.915000", "090855.375000", "090855.835000", "090856.295000", "090856.755000", "090857.215000", "090857.675000", "090858.135000", "090858.595000", "090859.055000", "090859.515000", "090859.975000", "090900.435000", "090900.895000", "090901.355000", "090901.815000", "090902.275000", "090902.735000", "090903.195000", "090903.655000", "090904.115000", "090904.575000", "090905.035000", "090905.495000", "090905.955000", "090906.415000", "090906.875000", "090907.335000", "090907.795000", "090908.255000", "090908.715000", "090909.175000", "090909.635000", "090910.095000", "090910.555000", "090911.015000", "090911.475000", "090911.935000", "090912.395000", "090912.855000", "090913.315000", "090913.775000", "090914.235000", "090914.695000", "090915.155000", "090915.615000", "090916.075000", "090916.535000", "090916.995000", "090917.455000", "090917.915000", "090918.375000", "090918.835000", "090919.295000", "090919.755000", "090920.215000", "090920.675000", "090921.135000", "090921.595000", "090922.055000", "090922.515000", "090922.975000", "090923.435000", "090923.895000", "090924.355000", "090924.815000", "090925.275000", "090925.735000", "090926.195000", "090926.655000", "090927.115000", "090927.575000", "090928.035000", "090928.495000", "090928.955000", "090929.415000", "090929.875000", "090930.335000", "090930.795000", "090931.255000", "090931.715000", "090932.175000", "090932.635000", "090933.095000", "090933.555000", "090934.015000", "090934.475000", "090934.935000", "090935.395000", "090935.855000", "090936.315000", "090936.775000", "090937.235000", "090937.695000", "090938.155000", "090938.615000", "090939.075000", "090939.535000", "090939.995000", "090940.455000", "090940.915000", "090941.375000", "090941.835000", "090942.295000", "090942.755000", "090943.215000", "090943.675000", "090944.135000", "090944.595000", "090945.055000", "090945.515000", "090945.975000", "090946.435000", "090946.895000", "090947.355000", "090947.815000", "090948.275000", "090948.735000", "090949.195000", "090949.655000", "090950.115000", "090950.575000", "090951.035000", "090951.495000", "090951.955000", "090952.415000", "090952.875000", "090953.335000", "090953.795000", "090954.255000", "090954.715000", "090955.175000", "090955.635000", "090956.095000", "090956.555000", "090957.015000", "090957.475000", "090957.935000", "090958.395000", "090958.855000", "090959.315000", "090959.775000", "091000.235000", "091000.695000", "091001.155000", "091001.615000", "091002.075000", "091002.535000", "091002.995000", "091003.455000", "091003.915000", "091004.375000", "091004.835000", "091005.295000", "091005.755000", "091006.215000", "091006.675000", "091007.135000", "091007.595000", "091008.055000", "091008.515000", "091008.975000", "091009.435000", "091009.895000", "091010.355000", "091010.815000", "091011.275000", "091011.735000", "091012.195000", "091012.655000", "091013.115000", "091013.575000", "091014.035000", "091014.495000", "091014.955000", "091015.415000", "091015.875000", "091016.335000", "091016.795000", "091017.255000", "091017.715000", "091018.175000", "091018.635000", "091019.095000", "091019.555000", "091020.015000", "091020.475000", "091020.935000", "091021.395000", "091021.855000", "091022.315000", "091022.775000", "091023.235000", "091023.695000", "091024.155000", "091024.615000", "091025.075000", "091025.535000", "091025.995000", "091026.455000", "091026.915000", "091027.375000", "091027.835000", "091028.295000", "091028.755000", "091029.215000", "091029.675000", "091030.135000", "091030.595000", "091031.055000", "091031.515000", "091031.975000", "091032.435000", "091032.895000", "091033.355000", "091033.815000", "091034.275000", "091034.735000", "091035.195000", "091035.655000", "091036.115000", "091036.575000", "091037.035000", "091037.495000", "091037.955000", "091038.415000", "091038.875000", "091039.335000", "091039.795000", "091040.255000", "091040.715000", "091041.175000", "091041.635000", "091042.095000", "091042.555000", "091043.015000", "091043.475000", "091043.935000", "091044.395000", "091044.855000", "091045.315000", "091045.775000", "091046.235000", "091046.695000", "091047.155000", "091047.615000", "091048.075000", "091048.535000", "091048.995000", "091049.455000", "091049.915000", "091050.375000", "091050.835000", "091051.295000", "091051.755000", "091052.215000", "091052.675000", "091053.135000", "091053.595000", "091054.055000", "091054.515000", "091054.975000", "091055.435000", "091055.895000", "091056.355000", "091056.815000", "091057.275000", "091057.735000", "091058.195000", "091058.655000", "091059.115000", "091059.575000", "091100.035000", "091100.495000", "091100.955000", "091101.415000", "091101.875000", "091102.335000", "091102.795000", "091103.255000", "091103.715000", "091104.175000", "091104.635000", "091105.095000", "091105.555000", "091106.015000", "091106.475000", "091106.935000", "091107.395000", "091107.855000", "091108.315000", "091108.775000", "091109.235000", "091109.695000", "091110.155000", "091110.615000", "091111.075000", "091111.535000", "091111.995000", "091112.455000", "091112.915000", "091113.375000", "091113.835000", "091114.295000", "091114.755000", "091115.215000", "091115.675000", "091116.135000", "091116.595000", "091117.055000", "091117.515000", "091117.975000", "091118.435000", "091118.895000", "091119.355000", "091119.815000", "091120.275000", "091120.735000", "091121.195000", "091121.655000", "091122.115000", "091122.575000", "091123.035000", "091123.495000", "091123.955000", "091124.415000", "091124.875000", "091125.335000", "091125.795000", "091126.255000", "091126.715000", "091127.175000", "091127.635000", "091128.095000", "091128.555000", "091129.015000", "091129.475000", "091129.935000", "091130.395000", "091130.855000", "091131.315000", "091131.775000", "091132.235000", "091132.695000", "091133.155000", "091133.615000", "091134.075000", "091134.535000", "091134.995000", "091135.455000", "091135.915000", "091136.375000", "091136.835000", "091137.295000", "091137.755000", "091138.215000", "091138.675000", "091139.135000", "091139.595000", "091140.055000", "091140.515000", "091140.975000", "091141.435000", "091141.895000", "091142.355000", "091142.815000", "091143.275000", "091143.735000", "091144.195000", "091144.655000", "091145.115000", "091145.575000", "091146.035000", "091146.495000", "091146.955000", "091147.415000", "091147.875000", "091148.335000", "091148.795000", "091149.255000", "091149.715000", "091150.175000", "091150.635000", "091151.095000", "091151.555000", "091152.015000", "091152.475000", "091152.935000", "091153.395000", "091153.855000", "091154.315000", "091154.775000", "091155.235000", "091155.695000", "091156.155000", "091156.615000", "091157.075000", "091157.535000", "091157.995000", "091158.455000", "091158.915000", "091159.375000", "091159.835000", "091200.295000", "091200.755000", "091201.215000", "091201.675000", "091202.135000", "091202.595000", "091203.055000", "091203.515000", "091203.975000", "091204.435000", "091204.895000", "091205.355000", "091205.815000", "091206.275000", "091206.735000", "091207.195000", "091207.655000", "091208.115000", "091208.575000", "091209.035000", "091209.495000", "091209.955000", "091210.415000", "091210.875000", "091211.335000", "091211.795000", "091212.255000", "091212.715000", "091213.175000", "091213.635000", "091214.095000", "091214.555000", "091215.015000", "091215.475000", "091215.935000", "091216.395000", "091216.855000", "091217.315000", "091217.775000", "091218.235000", "091218.695000", "091219.155000", "091219.615000", "091220.075000", "091220.535000", "091220.995000", "091221.455000", "091221.915000", "091222.375000", "091222.835000", "091223.295000", "091223.755000", "091224.215000", "091224.675000", "091225.135000", "091225.595000", "091226.055000", "091226.515000", "091226.975000", "091227.435000", "091227.895000", "091228.355000", "091228.815000", "091229.275000", "091229.735000", "091230.195000", "091230.655000", "091231.115000", "091231.575000", "091232.035000", "091232.495000", "091232.955000", "091233.415000", "091233.875000", "091234.335000", "091234.795000", "091235.255000", "091235.715000", "091236.175000", "091236.635000", "091237.095000", "091237.555000", "091238.015000", "091238.475000", "091238.935000", "091239.395000", "091239.855000", "091240.315000", "091240.775000", "091241.235000", "091241.695000", "091242.155000", "091242.615000", "091243.075000", "091243.535000", "091243.995000", "091244.455000", "091244.915000", "091245.375000", "091245.835000", "091246.295000", "091246.755000", "091247.215000", "091247.675000", "091248.135000", "091248.595000", "091249.055000", "091249.515000", "091249.975000", "091250.435000", "091250.895000", "091251.355000", "091251.815000", "091252.275000", "091252.735000", "091253.195000", "091253.655000", "091254.115000", "091254.575000", "091255.035000", "091255.495000", "091255.955000", "091256.415000", "091256.875000", "091257.335000", "091257.795000", "091258.255000", "091258.715000", "091259.175000", "091259.635000", "091300.095000", "091300.555000", "091301.015000", "091301.475000", "091301.935000", "091302.395000", "091302.855000", "091303.315000", "091303.775000", "091304.235000", "091304.695000", "091305.155000", "091305.615000", "091306.075000", "091306.535000", "091306.995000", "091307.455000", "091307.915000", "091308.375000", "091308.835000", "091309.295000", "091309.755000", "091310.215000", "091310.675000", "091311.135000", "091311.595000", "091312.055000", "091312.515000", "091312.975000", "091313.435000", "091313.895000", "091314.355000", "091314.815000", "091315.275000", "091315.735000", "091316.195000", "091316.655000", "091317.115000", "091317.575000", "091318.035000", "091318.495000", "091318.955000", "091319.415000", "091319.875000", "091320.335000", "091320.795000", "091321.255000", "091321.715000", "091322.175000", "091322.635000", "091323.095000", "091323.555000", "091324.015000", "091324.475000", "091324.935000", "091325.395000", "091325.855000", "091326.315000", "091326.775000", "091327.235000", "091327.695000", "091328.155000", "091328.615000", "091329.075000", "091329.535000", "091329.995000", "091330.455000", "091330.915000", "091331.375000", "091331.835000", "091332.295000", "091332.755000", "091333.215000", "091333.675000", "091334.135000", "091334.595000", "091335.055000", "091335.515000", "091335.975000", "091336.435000", "091336.895000", "091337.355000", "091337.815000", "091338.275000", "091338.735000", "091339.195000", "091339.655000", "091340.115000", "091340.575000", "091341.035000", "091341.495000", "091341.955000", "091342.415000", "091342.875000", "091343.335000", "091343.795000", "091344.255000", "091344.715000", "091345.175000", "091345.635000", "091346.095000", "091346.555000", "091347.015000", "091347.475000", "091347.935000", "091348.395000", "091348.855000", "091349.315000", "091349.775000", "091350.235000", "091350.695000", "091351.155000", "091351.615000", "091352.075000", "091352.535000", "091352.995000", "091353.455000", "091353.915000", "091354.375000", "091354.835000", "091355.295000", "091355.755000", "091356.215000", "091356.675000", "091357.135000", "091357.595000", "091358.055000", "091358.515000", "091358.975000", "091359.435000", "091359.895000", "091400.355000", "091400.815000", "091401.275000", "091401.735000", "091402.195000", "091402.655000", "091403.115000", "091403.575000", "091404.035000", "091404.495000", "091404.955000", "091405.415000", "091405.875000", "091406.335000", "091406.795000", "091407.255000", "091407.715000", "091408.175000", "091408.635000", "091409.095000", "091409.555000", "091410.015000", "091410.475000", "091410.935000", "091411.395000", "091411.855000", "091412.315000", "091412.775000", "091413.235000", "091413.695000", "091414.155000", "091414.615000", "091415.075000", "091415.535000", "091415.995000", "091416.455000", "091416.915000", "091417.375000", "091417.835000", "091418.295000", "091418.755000", "091419.215000", "091419.675000", "091420.135000", "091420.595000", "091421.055000", "091421.515000", "091421.975000", "091422.435000", "091422.895000", "091423.355000", "091423.815000", "091424.275000", "091424.735000", "091425.195000", "091425.655000", "091426.115000", "091426.575000", "091427.035000", "091427.495000", "091427.955000", "091428.415000", "091428.875000", "091429.335000", "091429.795000", "091430.255000", "091430.715000", "091431.175000", "091431.635000", "091432.095000", "091432.555000", "091433.015000", "091433.475000", "091433.935000", "091434.395000", "091434.855000", "091435.315000", "091435.775000", "091436.235000", "091436.695000", "091437.155000", "091437.615000", "091438.075000", "091438.535000", "091438.995000", "091439.455000", "091439.915000", "091440.375000", "091440.835000", "091441.295000", "091441.755000", "091442.215000", "091442.675000", "091443.135000", "091443.595000", "091444.055000", "091444.515000", "091444.975000", "091445.435000", "091445.895000", "091446.355000", "091446.815000", "091447.275000", "091447.735000", "091448.195000", "091448.655000", "091449.115000", "091449.575000", "091450.035000", "091450.495000", "091450.955000", "091451.415000", "091451.875000", "091452.335000", "091452.795000", "091453.255000", "091453.715000", "091454.175000", "091454.635000", "091455.095000", "091455.555000", "091456.015000", "091456.475000", "091456.935000", "091457.395000", "091457.855000", "091458.315000", "091458.775000", "091459.235000", "091459.695000", "091500.155000", "091500.615000", "091501.075000", "091501.535000", "091501.995000", "091502.455000", "091502.915000", "091503.375000", "091503.835000", "091504.295000", "091504.755000", "091505.215000", "091505.675000", "091506.135000", "091506.595000", "091507.055000", "091507.515000", "091507.975000", "091508.435000", "091508.895000", "091509.355000", "091509.815000", "091510.275000", "091510.735000", "091511.195000", "091511.655000", "091512.115000", "091512.575000", "091513.035000", "091513.495000", "091513.955000", "091514.415000", "091514.875000", "091515.335000", "091515.795000", "091516.255000", "091516.715000", "091517.175000", "091517.635000", "091518.095000", "091518.555000", "091519.015000", "091519.475000", "091519.935000", "091520.395000", "091520.855000", "091521.315000", "091521.775000", "091522.235000", "091522.695000", "091523.155000", "091523.615000", "091524.075000", "091524.535000", "091524.995000", "091525.455000", "091525.915000", "091526.375000", "091526.835000", "091527.295000", "091527.755000", "091528.215000", "091528.675000", "091529.135000", "091529.595000", "091530.055000", "091530.515000", "091530.975000", "091531.435000", "091531.895000", "091532.355000", "091532.815000", "091533.275000", "091533.735000", "091534.195000", "091534.655000", "091535.115000", "091535.575000", "091536.035000", "091536.495000", "091536.955000", "091537.415000", "091537.875000", "091538.335000", "091538.795000", "091539.255000", "091539.715000", "091540.175000", "091540.635000", "091541.095000", "091541.555000", "091542.015000", "091542.475000", "091542.935000", "091543.395000", "091543.855000", "091544.315000", "091544.775000", "091545.235000", "091545.695000", "091546.155000", "091546.615000", "091547.075000", "091547.535000", "091547.995000", "091548.455000", "091548.915000", "091549.375000", "091549.835000", "091550.295000", "091550.755000", "091551.215000", "091551.675000", "091552.135000", "091552.595000", "091553.055000", "091553.515000", "091553.975000", "091554.435000", "091554.895000", "091555.355000", "091555.815000", "091556.275000", "091556.735000", "091557.195000", "091557.655000", "091558.115000", "091558.575000", "091559.035000", "091559.495000", "091559.955000", "091600.415000", "091600.875000", "091601.335000", "091601.795000", "091602.255000", "091602.715000", "091603.175000", "091603.635000", "091604.095000", "091604.555000", "091605.015000", "091605.475000", "091605.935000", "091606.395000", "091606.855000", "091607.315000", "091607.775000", "091608.235000", "091608.695000", "091609.155000", "091609.615000", "091610.075000", "091610.535000", "091610.995000", "091611.455000", "091611.915000", "091612.375000"],
