{
  "AcquisitionMatrixPE": 82,
  "AcquisitionNumber": 1,
  "AcquisitionTime": "11:13:6.110000",
  "BandwidthPerPixelPhaseEncode": 24.888,
  "BaseResolution": 82,
  "BodyPartExamined": "BRAIN",
  "ConsistencyInfo": "N4_VE11C_LATEST_20160120",
  "ConversionSoftware": "dcm2niix",
  "ConversionSoftwareVersion": "v1.0.20201102",
  "DerivedVendorReportedEchoSpacing": 0.00049,
  "DeviceSerialNumber": "66112",
  "DwellTime": 2e-06,
  "EchoTime": 0.0272,
  "EchoTrainLength": 82,
  "EffectiveEchoSpacing": 0.00049,
  "FlipAngle": 44,
  "ImageComments": "Unaliased MB8/PE3",
  "ImageOrientationPatientDICOM": [0.999972, 0.00744084, -0.000103926, -0.0073303, 0.987331, 0.158506],
  "ImageType": [
    "ORIGINAL",
    "PRIMARY",
    "M",
    "MB",
    "ND",
    "NORM",
    "MOSAIC"
],
  "ImagingFrequency": 123.252,
  "InPlanePhaseEncodingDirectionDICOM": "COL",
  "InstitutionAddress": "Maynard 3,Hanover,NH,US,03755",
  "InstitutionName": "Dartmouth College - PBS",
  "InstitutionalDepartmentName": "Department",
  "MRAcquisitionType": "2D",
  "MagneticFieldStrength": 3,
  "Manufacturer": "Siemens",
  "ManufacturersModelName": "Prisma",
  "Modality": "MR",
  "MultibandAccelerationFactor": 8,
  "PartialFourier": 1,
  "PatientPosition": "HFS",
  "PercentPhaseFOV": 100,
  "PercentSampling": 100,
  "PhaseEncodingDirection": "j-",
  "PhaseEncodingSteps": 82,
  "PhaseResolution": 1,
  "PixelBandwidth": 3050,
  "ProcedureStepDescription": "Wager_Wager^1076_spacetop",
  "ProtocolName": "func_run-03_task-alignvideo_acq-ap-mb8",
  "PulseSequenceDetails": "%CustomerSeq%\\cmrr_mbep2d_bold",
  "ReceiveCoilActiveElements": "HEA;HEP",
  "ReceiveCoilName": "Head_32",
  "ReconMatrixPE": 82,
  "RepetitionTime": 0.46,
  "SAR": 0.0981077,
  "ScanOptions": "FS",
  "ScanningSequence": "EP",
  "SequenceName": "epfid2d1_82",
  "SequenceVariant": "SK\\SS",
  "SeriesDescription": "func_run-03_task-alignvideo_acq-ap-mb8",
  "SeriesNumber": 36,
  "ShimSetting": [4132, -7775, -7257, 554, -62, -251, 49, 122],
  "SliceThickness": 2.7,
  "SliceTiming": [0, 0.25, 0.0625, 0.3125, 0.125, 0.375, 0.1875, 0, 0.25, 0.0625, 0.3125, 0.125, 0.375, 0.1875, 0, 0.25, 0.0625, 0.3125, 0.125, 0.375, 0.1875, 0, 0.25, 0.0625, 0.3125, 0.125, 0.375, 0.1875, 0, 0.25, 0.0625, 0.3125, 0.125, 0.375, 0.1875, 0, 0.25, 0.0625, 0.3125, 0.125, 0.375, 0.1875, 0, 0.25, 0.0625, 0.3125, 0.125, 0.375, 0.1875, 0, 0.25, 0.0625, 0.3125, 0.125, 0.375, 0.1875],
  "SoftwareVersions": "syngo MR E11",
  "SpacingBetweenSlices": 2.7,
  "StationName": "AWP66112",
  "TaskName": "alignvideo",
  "TotalReadoutTime": 0.03969,
  "TxRefAmp": 230.35,
  "WipMemBlock": "d0224c65-d95a-4c14-8555-d7ff52b5fe3c||Sequence: R016 ve11c/master r/e634e98; Dec 19 2017 11:00:25 by eja",
  "dcmmeta_affine": [
    [-2.6828525066375732, -0.019666673615574837, -0.003461467335000634, 113.60771179199219],
    [-0.01996324025094509, 2.6489365100860596, 0.4279513657093048, -101.89276123046875],
    [-0.00027882499853149056, -0.4252590835094452, 2.6658668518066406, -33.74354553222656],
    [0.0, 0.0, 0.0, 1.0]
],
  "dcmmeta_reorient_transform": [
    [0.0, -1.0, 0.0, 81.0],
    [1.0, 0.0, 0.0, 0.0],
    [0.0, 0.0, 1.0, 0.0],
    [0.0, 0.0, 0.0, 1.0]
],
  "dcmmeta_shape": [82, 82, 56, 1016],
  "dcmmeta_slice_dim": 2,
  "dcmmeta_version": 0.6,
  "global": {
    "const": {
      "AccessionNumber": "A003444",
      "AcquisitionMatrix": [82, 0, 0, 82],
      "AngioFlag": "N",
      "BitsAllocated": 16,
      "BitsStored": 16,
      "BodyPartExamined": "BRAIN",
      "Columns": 656,
      "EchoNumbers": 1,
      "EchoTime": 27.2,
      "EchoTrainLength": 82,
      "FlipAngle": 44.0,
      "HighBit": 15,
      "ImageOrientationPatient": [0.99997231113584, 0.00744084411189, -0.0001039256785, -0.0073303051594, 0.98733085779966, 0.15850565877238],
      "ImagePositionPatient": [-876.34907203655, -878.64532865157, -190.15887115839],
      "ImageType": [
        "ORIGINAL",
        "PRIMARY",
        "M",
        "MB",
        "ND",
        "NORM",
        "MOSAIC"
],
      "ImagedNucleus": "1H",
      "ImagingFrequency": 123.252155,
      "InPlanePhaseEncodingDirection": "COL",
      "MRAcquisitionType": "2D",
      "MagneticFieldStrength": 3.0,
      "Manufacturer": "SIEMENS",
      "ManufacturerModelName": "Prisma",
      "Modality": "MR",
      "NumberOfAverages": 1.0,
      "NumberOfPhaseEncodingSteps": 82,
      "PercentPhaseFieldOfView": 100.0,
      "PercentSampling": 100.0,
      "PerformedProcedureStepStartTime": "093846.417000",
      "PhotometricInterpretation": "MONOCHROME2",
      "PixelBandwidth": 3050.0,
      "PixelRepresentation": 0,
      "PixelSpacing": [2.6829268932343, 2.6829268932343],
      "ProtocolName": "func_run-03_task-alignvideo_acq-ap-mb8",
      "RepetitionTime": 460.0,
      "Rows": 656,
      "SAR": 0.098107736358,
      "SamplesPerPixel": 1,
      "ScanOptions": "FS",
      "ScanningSequence": "EP",
      "SequenceName": "epfid2d1_82",
      "SequenceVariant": [
        "SK",
        "SS"
],
      "SeriesDescription": "func_run-03_task-alignvideo_acq-ap-mb8",
      "SeriesNumber": 36,
      "SeriesTime": "111331.780000",
      "SliceLocation": -49.612665066261,
      "SliceThickness": 2.7000000476837,
      "SmallestImagePixelValue": 0,
      "SoftwareVersions": "syngo MR E11",
      "SpacingBetweenSlices": 2.7000000095571,
      "SpecificCharacterSet": "ISO_IR 100",
      "StudyID": "2",
      "StudyTime": "093846.365000",
      "TransmitCoilName": "Body",
      "VariableFlipAngleFlag": "N",
      "WindowCenterWidthExplanation": "Algo1",
      "dBdt": 0.0},
    "slices": {}
  },
  "time": {
    "samples": {
      "AcquisitionNumber": [1, 2, 3, 4, 5, 6, 7, 8, 9, 10, 11, 12, 13, 14, 15, 16, 17, 18, 19, 20, 21, 22, 23, 24, 25, 26, 27, 28, 29, 30, 31, 32, 33, 34, 35, 36, 37, 38, 39, 40, 41, 42, 43, 44, 45, 46, 47, 48, 49, 50, 51, 52, 53, 54, 55, 56, 57, 58, 59, 60, 61, 62, 63, 64, 65, 66, 67, 68, 69, 70, 71, 72, 73, 74, 75, 76, 77, 78, 79, 80, 81, 82, 83, 84, 85, 86, 87, 88, 89, 90, 91, 92, 93, 94, 95, 96, 97, 98, 99, 100, 101, 102, 103, 104, 105, 106, 107, 108, 109, 110, 111, 112, 113, 114, 115, 116, 117, 118, 119, 120, 121, 122, 123, 124, 125, 126, 127, 128, 129, 130, 131, 132, 133, 134, 135, 136, 137, 138, 139, 140, 141, 142, 143, 144, 145, 146, 147, 148, 149, 150, 151, 152, 153, 154, 155, 156, 157, 158, 159, 160, 161, 162, 163, 164, 165, 166, 167, 168, 169, 170, 171, 172, 173, 174, 175, 176, 177, 178, 179, 180, 181, 182, 183, 184, 185, 186, 187, 188, 189, 190, 191, 192, 193, 194, 195, 196, 197, 198, 199, 200, 201, 202, 203, 204, 205, 206, 207, 208, 209, 210, 211, 212, 213, 214, 215, 216, 217, 218, 219, 220, 221, 222, 223, 224, 225, 226, 227, 228, 229, 230, 231, 232, 233, 234, 235, 236, 237, 238, 239, 240, 241, 242, 243, 244, 245, 246, 247, 248, 249, 250, 251, 252, 253, 254, 255, 256, 257, 258, 259, 260, 261, 262, 263, 264, 265, 266, 267, 268, 269, 270, 271, 272, 273, 274, 275, 276, 277, 278, 279, 280, 281, 282, 283, 284, 285, 286, 287, 288, 289, 290, 291, 292, 293, 294, 295, 296, 297, 298, 299, 300, 301, 302, 303, 304, 305, 306, 307, 308, 309, 310, 311, 312, 313, 314, 315, 316, 317, 318, 319, 320, 321, 322, 323, 324, 325, 326, 327, 328, 329, 330, 331, 332, 333, 334, 335, 336, 337, 338, 339, 340, 341, 342, 343, 344, 345, 346, 347, 348, 349, 350, 351, 352, 353, 354, 355, 356, 357, 358, 359, 360, 361, 362, 363, 364, 365, 366, 367, 368, 369, 370, 371, 372, 373, 374, 375, 376, 377, 378, 379, 380, 381, 382, 383, 384, 385, 386, 387, 388, 389, 390, 391, 392, 393, 394, 395, 396, 397, 398, 399, 400, 401, 402, 403, 404, 405, 406, 407, 408, 409, 410, 411, 412, 413, 414, 415, 416, 417, 418, 419, 420, 421, 422, 423, 424, 425, 426, 427, 428, 429, 430, 431, 432, 433, 434, 435, 436, 437, 438, 439, 440, 441, 442, 443, 444, 445, 446, 447, 448, 449, 450, 451, 452, 453, 454, 455, 456, 457, 458, 459, 460, 461, 462, 463, 464, 465, 466, 467, 468, 469, 470, 471, 472, 473, 474, 475, 476, 477, 478, 479, 480, 481, 482, 483, 484, 485, 486, 487, 488, 489, 490, 491, 492, 493, 494, 495, 496, 497, 498, 499, 500, 501, 502, 503, 504, 505, 506, 507, 508, 509, 510, 511, 512, 513, 514, 515, 516, 517, 518, 519, 520, 521, 522, 523, 524, 525, 526, 527, 528, 529, 530, 531, 532, 533, 534, 535, 536, 537, 538, 539, 540, 541, 542, 543, 544, 545, 546, 547, 548, 549, 550, 551, 552, 553, 554, 555, 556, 557, 558, 559, 560, 561, 562, 563, 564, 565, 566, 567, 568, 569, 570, 571, 572, 573, 574, 575, 576, 577, 578, 579, 580, 581, 582, 583, 584, 585, 586, 587, 588, 589, 590, 591, 592, 593, 594, 595, 596, 597, 598, 599, 600, 601, 602, 603, 604, 605, 606, 607, 608, 609, 610, 611, 612, 613, 614, 615, 616, 617, 618, 619, 620, 621, 622, 623, 624, 625, 626, 627, 628, 629, 630, 631, 632, 633, 634, 635, 636, 637, 638, 639, 640, 641, 642, 643, 644, 645, 646, 647, 648, 649, 650, 651, 652, 653, 654, 655, 656, 657, 658, 659, 660, 661, 662, 663, 664, 665, 666, 667, 668, 669, 670, 671, 672, 673, 674, 675, 676, 677, 678, 679, 680, 681, 682, 683, 684, 685, 686, 687, 688, 689, 690, 691, 692, 693, 694, 695, 696, 697, 698, 699, 700, 701, 702, 703, 704, 705, 706, 707, 708, 709, 710, 711, 712, 713, 714, 715, 716, 717, 718, 719, 720, 721, 722, 723, 724, 725, 726, 727, 728, 729, 730, 731, 732, 733, 734, 735, 736, 737, 738, 739, 740, 741, 742, 743, 744, 745, 746, 747, 748, 749, 750, 751, 752, 753, 754, 755, 756, 757, 758, 759, 760, 761, 762, 763, 764, 765, 766, 767, 768, 769, 770, 771, 772, 773, 774, 775, 776, 777, 778, 779, 780, 781, 782, 783, 784, 785, 786, 787, 788, 789, 790, 791, 792, 793, 794, 795, 796, 797, 798, 799, 800, 801, 802, 803, 804, 805, 806, 807, 808, 809, 810, 811, 812, 813, 814, 815, 816, 817, 818, 819, 820, 821, 822, 823, 824, 825, 826, 827, 828, 829, 830, 831, 832, 833, 834, 835, 836, 837, 838, 839, 840, 841, 842, 843, 844, 845, 846, 847, 848, 849, 850, 851, 852, 853, 854, 855, 856, 857, 858, 859, 860, 861, 862, 863, 864, 865, 866, 867, 868, 869, 870, 871, 872, 873, 874, 875, 876, 877, 878, 879, 880, 881, 882, 883, 884, 885, 886, 887, 888, 889, 890, 891, 892, 893, 894, 895, 896, 897, 898, 899, 900, 901, 902, 903, 904, 905, 906, 907, 908, 909, 910, 911, 912, 913, 914, 915, 916, 917, 918, 919, 920, 921, 922, 923, 924, 925, 926, 927, 928, 929, 930, 931, 932, 933, 934, 935, 936, 937, 938, 939, 940, 941, 942, 943, 944, 945, 946, 947, 948, 949, 950, 951, 952, 953, 954, 955, 956, 957, 958, 959, 960, 961, 962, 963, 964, 965, 966, 967, 968, 969, 970, 971, 972, 973, 974, 975, 976, 977, 978, 979, 980, 981, 982, 983, 984, 985, 986, 987, 988, 989, 990, 991, 992, 993, 994, 995, 996, 997, 998, 999, 1000, 1001, 1002, 1003, 1004, 1005, 1006, 1007, 1008, 1009, 1010, 1011, 1012, 1013, 1014, 1015, 1016],
      "AcquisitionTime": ["111306.110000", "111306.570000", "111307.030000", "111307.490000", "111307.950000", "111308.410000", "111308.870000", "111309.330000", "111309.790000", "111310.250000", "111310.710000", "111311.170000", "111311.630000", "111312.090000", "111312.550000", "111313.010000", "111313.470000", "111313.930000", "111314.390000", "111314.850000", "111315.310000", "111315.770000", "111316.230000", "111316.690000", "111317.150000", "111317.610000", "111318.070000", "111318.530000", "111318.990000", "111319.450000", "111319.910000", "111320.370000", "111320.830000", "111321.290000", "111321.750000", "111322.210000", "111322.670000", "111323.130000", "111323.590000", "111324.050000", "111324.510000", "111324.970000", "111325.430000", "111325.890000", "111326.350000", "111326.810000", "111327.270000", "111327.730000", "111328.190000", "111328.650000", "111329.110000", "111329.570000", "111330.030000", "111330.490000", "111330.950000", "111331.410000", "111331.870000", "111332.330000", "111332.790000", "111333.250000", "111333.710000", "111334.170000", "111334.630000", "111335.090000", "111335.550000", "111336.010000", "111336.470000", "111336.930000", "111337.390000", "111337.850000", "111338.310000", "111338.770000", "111339.230000", "111339.690000", "111340.150000", "111340.610000", "111341.070000", "111341.530000", "111341.990000", "111342.450000", "111342.910000", "111343.370000", "111343.830000", "111344.290000", "111344.750000", "111345.210000", "111345.670000", "111346.130000", "111346.590000", "111347.050000", "111347.510000", "111347.970000", "111348.430000", "111348.890000", "111349.350000", "111349.810000", "111350.270000", "111350.730000", "111351.190000", "111351.650000", "111352.110000", "111352.570000", "111353.030000", "111353.490000", "111353.950000", "111354.410000", "111354.870000", "111355.330000", "111355.790000", "111356.250000", "111356.710000", "111357.170000", "111357.630000", "111358.090000", "111358.550000", "111359.010000", "111359.470000", "111359.930000", "111400.390000", "111400.850000", "111401.310000", "111401.770000", "111402.230000", "111402.690000", "111403.150000", "111403.610000", "111404.070000", "111404.530000", "111404.990000", "111405.450000", "111405.910000", "111406.370000", "111406.830000", "111407.290000", "111407.750000", "111408.210000", "111408.670000", "111409.130000", "111409.590000", "111410.050000", "111410.510000", "111410.970000", "111411.430000", "111411.890000", "111412.350000", "111412.810000", "111413.270000", "111413.730000", "111414.190000", "111414.650000", "111415.110000", "111415.570000", "111416.030000", "111416.490000", "111416.950000", "111417.410000", "111417.870000", "111418.330000", "111418.790000", "111419.250000", "111419.710000", "111420.170000", "111420.630000", "111421.090000", "111421.550000", "111422.010000", "111422.470000", "111422.930000", "111423.390000", "111423.850000", "111424.310000", "111424.770000", "111425.230000", "111425.690000", "111426.150000", "111426.610000", "111427.070000", "111427.530000", "111427.990000", "111428.450000", "111428.910000", "111429.370000", "111429.830000", "111430.290000", "111430.750000", "111431.210000", "111431.670000", "111432.130000", "111432.590000", "111433.050000", "111433.510000", "111433.970000", "111434.430000", "111434.890000", "111435.350000", "111435.810000", "111436.270000", "111436.730000", "111437.190000", "111437.650000", "111438.110000", "111438.570000", "111439.030000", "111439.490000", "111439.950000", "111440.410000", "111440.870000", "111441.330000", "111441.790000", "111442.250000", "111442.710000", "111443.170000", "111443.630000", "111444.090000", "111444.550000", "111445.010000", "111445.470000", "111445.930000", "111446.390000", "111446.850000", "111447.310000", "111447.770000", "111448.230000", "111448.690000", "111449.150000", "111449.610000", "111450.070000", "111450.530000", "111450.990000", "111451.450000", "111451.910000", "111452.370000", "111452.830000", "111453.290000", "111453.750000", "111454.210000", "111454.670000", "111455.130000", "111455.590000", "111456.050000", "111456.510000", "111456.970000", "111457.430000", "111457.890000", "111458.350000", "111458.810000", "111459.270000", "111459.730000", "111500.190000", "111500.650000", "111501.110000", "111501.570000", "111502.030000", "111502.490000", "111502.950000", "111503.410000", "111503.870000", "111504.330000", "111504.790000", "111505.250000", "111505.710000", "111506.170000", "111506.630000", "111507.090000", "111507.550000", "111508.010000", "111508.470000", "111508.930000", "111509.390000", "111509.850000", "111510.310000", "111510.770000", "111511.230000", "111511.690000", "111512.150000", "111512.610000", "111513.070000", "111513.530000", "111513.990000", "111514.450000", "111514.910000", "111515.370000", "111515.830000", "111516.290000", "111516.750000", "111517.210000", "111517.670000", "111518.130000", "111518.590000", "111519.050000", "111519.510000", "111519.970000", "111520.430000", "111520.890000", "111521.350000", "111521.810000", "111522.270000", "111522.730000", "111523.190000", "111523.650000", "111524.110000", "111524.570000", "111525.030000", "111525.490000", "111525.950000", "111526.410000", "111526.870000", "111527.330000", "111527.790000", "111528.250000", "111528.710000", "111529.170000", "111529.630000", "111530.090000", "111530.550000", "111531.010000", "111531.470000", "111531.930000", "111532.390000", "111532.850000", "111533.310000", "111533.770000", "111534.230000", "111534.690000", "111535.150000", "111535.610000", "111536.070000", "111536.530000", "111536.990000", "111537.450000", "111537.910000", "111538.370000", "111538.830000", "111539.290000", "111539.750000", "111540.210000", "111540.670000", "111541.130000", "111541.590000", "111542.050000", "111542.510000", "111542.970000", "111543.430000", "111543.890000", "111544.350000", "111544.810000", "111545.270000", "111545.730000", "111546.190000", "111546.650000", "111547.110000", "111547.570000", "111548.030000", "111548.490000", "111548.950000", "111549.410000", "111549.870000", "111550.330000", "111550.790000", "111551.250000", "111551.710000", "111552.170000", "111552.630000", "111553.090000", "111553.550000", "111554.010000", "111554.470000", "111554.930000", "111555.390000", "111555.850000", "111556.310000", "111556.770000", "111557.230000", "111557.690000", "111558.150000", "111558.610000", "111559.070000", "111559.530000", "111559.990000", "111600.450000", "111600.910000", "111601.370000", "111601.830000", "111602.290000", "111602.750000", "111603.210000", "111603.670000", "111604.130000", "111604.590000", "111605.050000", "111605.510000", "111605.970000", "111606.430000", "111606.890000", "111607.350000", "111607.810000", "111608.270000", "111608.730000", "111609.190000", "111609.650000", "111610.110000", "111610.570000", "111611.030000", "111611.490000", "111611.950000", "111612.410000", "111612.870000", "111613.330000", "111613.790000", "111614.250000", "111614.710000", "111615.170000", "111615.630000", "111616.090000", "111616.550000", "111617.010000", "111617.470000", "111617.930000", "111618.390000", "111618.850000", "111619.310000", "111619.770000", "111620.230000", "111620.690000", "111621.150000", "111621.610000", "111622.070000", "111622.530000", "111622.990000", "111623.450000", "111623.910000", "111624.370000", "111624.830000", "111625.290000", "111625.750000", "111626.210000", "111626.670000", "111627.130000", "111627.590000", "111628.050000", "111628.510000", "111628.970000", "111629.430000", "111629.890000", "111630.350000", "111630.810000", "111631.270000", "111631.730000", "111632.190000", "111632.650000", "111633.110000", "111633.570000", "111634.030000", "111634.490000", "111634.950000", "111635.410000", "111635.870000", "111636.330000", "111636.790000", "111637.250000", "111637.710000", "111638.170000", "111638.630000", "111639.090000", "111639.550000", "111640.010000", "111640.470000", "111640.930000", "111641.390000", "111641.850000", "111642.310000", "111642.770000", "111643.230000", "111643.690000", "111644.150000", "111644.610000", "111645.070000", "111645.530000", "111645.990000", "111646.450000", "111646.910000", "111647.370000", "111647.830000", "111648.290000", "111648.750000", "111649.210000", "111649.670000", "111650.130000", "111650.590000", "111651.050000", "111651.510000", "111651.970000", "111652.430000", "111652.890000", "111653.350000", "111653.810000", "111654.270000", "111654.730000", "111655.190000", "111655.650000", "111656.110000", "111656.570000", "111657.030000", "111657.490000", "111657.950000", "111658.410000", "111658.870000", "111659.330000", "111659.790000", "111700.250000", "111700.710000", "111701.170000", "111701.630000", "111702.090000", "111702.550000", "111703.010000", "111703.470000", "111703.930000", "111704.390000", "111704.850000", "111705.310000", "111705.770000", "111706.230000", "111706.690000", "111707.150000", "111707.610000", "111708.070000", "111708.530000", "111708.990000", "111709.450000", "111709.910000", "111710.370000", "111710.830000", "111711.290000", "111711.750000", "111712.210000", "111712.670000", "111713.130000", "111713.590000", "111714.050000", "111714.510000", "111714.970000", "111715.430000", "111715.890000", "111716.350000", "111716.810000", "111717.270000", "111717.730000", "111718.190000", "111718.650000", "111719.110000", "111719.570000", "111720.030000", "111720.490000", "111720.950000", "111721.410000", "111721.870000", "111722.330000", "111722.790000", "111723.250000", "111723.710000", "111724.170000", "111724.630000", "111725.090000", "111725.550000", "111726.010000", "111726.470000", "111726.930000", "111727.390000", "111727.850000", "111728.310000", "111728.770000", "111729.230000", "111729.690000", "111730.150000", "111730.610000", "111731.070000", "111731.530000", "111731.990000", "111732.450000", "111732.910000", "111733.370000", "111733.830000", "111734.290000", "111734.750000", "111735.210000", "111735.670000", "111736.130000", "111736.590000", "111737.050000", "111737.510000", "111737.970000", "111738.430000", "111738.890000", "111739.350000", "111739.810000", "111740.270000", "111740.730000", "111741.190000", "111741.650000", "111742.110000", "111742.570000", "111743.030000", "111743.490000", "111743.950000", "111744.410000", "111744.870000", "111745.330000", "111745.790000", "111746.250000", "111746.710000", "111747.170000", "111747.630000", "111748.090000", "111748.550000", "111749.010000", "111749.470000", "111749.930000", "111750.390000", "111750.850000", "111751.310000", "111751.770000", "111752.230000", "111752.690000", "111753.150000", "111753.610000", "111754.070000", "111754.530000", "111754.990000", "111755.450000", "111755.910000", "111756.370000", "111756.830000", "111757.290000", "111757.750000", "111758.210000", "111758.670000", "111759.130000", "111759.590000", "111800.050000", "111800.510000", "111800.970000", "111801.430000", "111801.890000", "111802.350000", "111802.810000", "111803.270000", "111803.730000", "111804.190000", "111804.650000", "111805.110000", "111805.570000", "111806.030000", "111806.490000", "111806.950000", "111807.410000", "111807.870000", "111808.330000", "111808.790000", "111809.250000", "111809.710000", "111810.170000", "111810.630000", "111811.090000", "111811.550000", "111812.010000", "111812.470000", "111812.930000", "111813.390000", "111813.850000", "111814.310000", "111814.770000", "111815.230000", "111815.690000", "111816.150000", "111816.610000", "111817.070000", "111817.530000", "111817.990000", "111818.450000", "111818.910000", "111819.370000", "111819.830000", "111820.290000", "111820.750000", "111821.210000", "111821.670000", "111822.130000", "111822.590000", "111823.050000", "111823.510000", "111823.970000", "111824.430000", "111824.890000", "111825.350000", "111825.810000", "111826.270000", "111826.730000", "111827.190000", "111827.650000", "111828.110000", "111828.570000", "111829.030000", "111829.490000", "111829.950000", "111830.410000", "111830.870000", "111831.330000", "111831.790000", "111832.250000", "111832.710000", "111833.170000", "111833.630000", "111834.090000", "111834.550000", "111835.010000", "111835.470000", "111835.930000", "111836.390000", "111836.850000", "111837.310000", "111837.770000", "111838.230000", "111838.690000", "111839.150000", "111839.610000", "111840.070000", "111840.530000", "111840.990000", "111841.450000", "111841.910000", "111842.370000", "111842.830000", "111843.290000", "111843.750000", "111844.210000", "111844.670000", "111845.130000", "111845.590000", "111846.050000", "111846.510000", "111846.970000", "111847.430000", "111847.890000", "111848.350000", "111848.810000", "111849.270000", "111849.730000", "111850.190000", "111850.650000", "111851.110000", "111851.570000", "111852.030000", "111852.490000", "111852.950000", "111853.410000", "111853.870000", "111854.330000", "111854.790000", "111855.250000", "111855.710000", "111856.170000", "111856.630000", "111857.090000", "111857.550000", "111858.010000", "111858.470000", "111858.930000", "111859.390000", "111859.850000", "111900.310000", "111900.770000", "111901.230000", "111901.690000", "111902.150000", "111902.610000", "111903.070000", "111903.530000", "111903.990000", "111904.450000", "111904.910000", "111905.370000", "111905.830000", "111906.290000", "111906.750000", "111907.210000", "111907.670000", "111908.130000", "111908.590000", "111909.050000", "111909.510000", "111909.970000", "111910.430000", "111910.890000", "111911.350000", "111911.810000", "111912.270000", "111912.730000", "111913.190000", "111913.650000", "111914.110000", "111914.570000", "111915.030000", "111915.490000", "111915.950000", "111916.410000", "111916.870000", "111917.330000", "111917.790000", "111918.250000", "111918.710000", "111919.170000", "111919.630000", "111920.090000", "111920.550000", "111921.010000", "111921.470000", "111921.930000", "111922.390000", "111922.850000", "111923.310000", "111923.770000", "111924.230000", "111924.690000", "111925.150000", "111925.610000", "111926.070000", "111926.530000", "111926.990000", "111927.450000", "111927.910000", "111928.370000", "111928.830000", "111929.290000", "111929.750000", "111930.210000", "111930.670000", "111931.130000", "111931.590000", "111932.050000", "111932.510000", "111932.970000", "111933.430000", "111933.890000", "111934.350000", "111934.810000", "111935.270000", "111935.730000", "111936.190000", "111936.650000", "111937.110000", "111937.570000", "111938.030000", "111938.490000", "111938.950000", "111939.410000", "111939.870000", "111940.330000", "111940.790000", "111941.250000", "111941.710000", "111942.170000", "111942.630000", "111943.090000", "111943.550000", "111944.010000", "111944.470000", "111944.930000", "111945.390000", "111945.850000", "111946.310000", "111946.770000", "111947.230000", "111947.690000", "111948.150000", "111948.610000", "111949.070000", "111949.530000", "111949.990000", "111950.450000", "111950.910000", "111951.370000", "111951.830000", "111952.290000", "111952.750000", "111953.210000", "111953.670000", "111954.130000", "111954.590000", "111955.050000", "111955.510000", "111955.970000", "111956.430000", "111956.890000", "111957.350000", "111957.810000", "111958.270000", "111958.730000", "111959.190000", "111959.650000", "112000.110000", "112000.570000", "112001.030000", "112001.490000", "112001.950000", "112002.410000", "112002.870000", "112003.330000", "112003.790000", "112004.250000", "112004.710000", "112005.170000", "112005.630000", "112006.090000", "112006.550000", "112007.010000", "112007.470000", "112007.930000", "112008.390000", "112008.850000", "112009.310000", "112009.770000", "112010.230000", "112010.690000", "112011.150000", "112011.610000", "112012.070000", "112012.530000", "112012.990000", "112013.450000", "112013.910000", "112014.370000", "112014.830000", "112015.290000", "112015.750000", "112016.210000", "112016.670000", "112017.130000", "112017.590000", "112018.050000", "112018.510000", "112018.970000", "112019.430000", "112019.890000", "112020.350000", "112020.810000", "112021.270000", "112021.730000", "112022.190000", "112022.650000", "112023.110000", "112023.570000", "112024.030000", "112024.490000", "112024.950000", "112025.410000", "112025.870000", "112026.330000", "112026.790000", "112027.250000", "112027.710000", "112028.170000", "112028.630000", "112029.090000", "112029.550000", "112030.010000", "112030.470000", "112030.930000", "112031.390000", "112031.850000", "112032.310000", "112032.770000", "112033.230000", "112033.690000", "112034.150000", "112034.610000", "112035.070000", "112035.530000", "112035.990000", "112036.450000", "112036.910000", "112037.370000", "112037.830000", "112038.290000", "112038.750000", "112039.210000", "112039.670000", "112040.130000", "112040.590000", "112041.050000", "112041.510000", "112041.970000", "112042.430000", "112042.890000", "112043.350000", "112043.810000", "112044.270000", "112044.730000", "112045.190000", "112045.650000", "112046.110000", "112046.570000", "112047.030000", "112047.490000", "112047.950000", "112048.410000", "112048.870000", "112049.330000", "112049.790000", "112050.250000", "112050.710000", "112051.170000", "112051.630000", "112052.090000", "112052.550000", "112053.010000"],
