{
  "AcquisitionMatrixPE": 82,
  "AcquisitionNumber": 1,
  "AcquisitionTime": "09:59:5.307500",
  "BandwidthPerPixelPhaseEncode": 24.888,
  "BaseResolution": 82,
  "BodyPartExamined": "BRAIN",
  "ConsistencyInfo": "N4_VE11C_LATEST_20160120",
  "ConversionSoftware": "dcm2niix",
  "ConversionSoftwareVersion": "v1.0.20201102",
  "DerivedVendorReportedEchoSpacing": 0.00049,
  "DeviceSerialNumber": "66112",
  "DwellTime": 2e-06,
  "EchoTime": 0.0272,
  "EchoTrainLength": 82,
  "EffectiveEchoSpacing": 0.00049,
  "FlipAngle": 44,
  "ImageComments": "Unaliased MB8/PE3",
  "ImageOrientationPatientDICOM": [0.999495, 0.0149046, -0.028062, -0.00959473, 0.983504, 0.18063],
  "ImageType": [
    "ORIGINAL",
    "PRIMARY",
    "M",
    "MB",
    "ND",
    "NORM",
    "MOSAIC"
],
  "ImagingFrequency": 123.252,
  "InPlanePhaseEncodingDirectionDICOM": "COL",
  "InstitutionAddress": "Maynard 3,Hanover,NH,US,03755",
  "InstitutionName": "Dartmouth College - PBS",
  "InstitutionalDepartmentName": "Department",
  "MRAcquisitionType": "2D",
  "MagneticFieldStrength": 3,
  "Manufacturer": "Siemens",
  "ManufacturersModelName": "Prisma",
  "Modality": "MR",
  "MultibandAccelerationFactor": 8,
  "PartialFourier": 1,
  "PatientPosition": "HFS",
  "PercentPhaseFOV": 100,
  "PercentSampling": 100,
  "PhaseEncodingDirection": "j-",
  "PhaseEncodingSteps": 82,
  "PhaseResolution": 1,
  "PixelBandwidth": 3050,
  "ProcedureStepDescription": "Wager_Wager^1076_spacetop",
  "ProtocolName": "func_run-01_task-social_acq-ap-mb8",
  "PulseSequenceDetails": "%CustomerSeq%\\cmrr_mbep2d_bold",
  "ReceiveCoilActiveElements": "HEA;HEP",
  "ReceiveCoilName": "Head_32",
  "ReconMatrixPE": 82,
  "RepetitionTime": 0.46,
  "SAR": 0.0980213,
  "ScanOptions": "FS",
  "ScanningSequence": "EP",
  "SequenceName": "epfid2d1_82",
  "SequenceVariant": "SK\\SS",
  "SeriesDescription": "func_run-01_task-social_acq-ap-mb8",
  "SeriesNumber": 12,
  "ShimSetting": [4132, -7773, -7257, 553, -67, -238, 52, 121],
  "SliceThickness": 2.7,
  "SliceTiming": [0, 0.2525, 0.0625, 0.315, 0.1275, 0.3775, 0.19, 0, 0.2525, 0.0625, 0.315, 0.1275, 0.3775, 0.19, 0, 0.2525, 0.0625, 0.315, 0.1275, 0.3775, 0.19, 0, 0.2525, 0.0625, 0.315, 0.1275, 0.3775, 0.19, 0, 0.2525, 0.0625, 0.315, 0.1275, 0.3775, 0.19, 0, 0.2525, 0.0625, 0.315, 0.1275, 0.3775, 0.19, 0, 0.2525, 0.0625, 0.315, 0.1275, 0.3775, 0.19, 0, 0.2525, 0.0625, 0.315, 0.1275, 0.3775, 0.19],
  "SoftwareVersions": "syngo MR E11",
  "SpacingBetweenSlices": 2.7,
  "StationName": "AWP66112",
  "TaskName": "social",
  "TotalReadoutTime": 0.03969,
  "TxRefAmp": 230.35,
  "WipMemBlock": "0700b71e-9383-41a4-b26d-edf10886a14a||Sequence: R016 ve11c/master r/e634e98; Dec 19 2017 11:00:25 by eja",
  "dcmmeta_affine": [
    [-2.681572198867798, -0.025741970166563988, -0.08178658038377762, 115.00567626953125],
    [-0.03998791426420212, 2.6386702060699463, 0.4867272675037384, -100.88549041748047],
    [-0.0752883329987526, -0.48461657762527466, 2.6545069217681885, -26.169879913330078],
    [0.0, 0.0, 0.0, 1.0]
],
  "dcmmeta_reorient_transform": [
    [0.0, -1.0, 0.0, 81.0],
    [1.0, 0.0, 0.0, 0.0],
    [0.0, 0.0, 1.0, 0.0],
    [0.0, 0.0, 0.0, 1.0]
],
  "dcmmeta_shape": [82, 82, 56, 872],
  "dcmmeta_slice_dim": 2,
  "dcmmeta_version": 0.6,
  "global": {
    "const": {
      "AccessionNumber": "A003444",
      "AcquisitionMatrix": [82, 0, 0, 82],
      "AngioFlag": "N",
      "BitsAllocated": 16,
      "BitsStored": 16,
      "BodyPartExamined": "BRAIN",
      "Columns": 656,
      "EchoNumbers": 1,
      "EchoTime": 27.2,
      "EchoTrainLength": 82,
      "FlipAngle": 44.0,
      "HighBit": 15,
      "ImageOrientationPatient": [0.99949506088242, 0.0149045860856, -0.0280620132076, -0.0095947339328, 0.98350435318113, 0.18062981025989],
      "ImagePositionPatient": [-875.14384792472, -881.62170232532, -182.90102965831],
      "ImageType": [
        "ORIGINAL",
        "PRIMARY",
        "M",
        "MB",
        "ND",
        "NORM",
        "MOSAIC"
],
      "ImagedNucleus": "1H",
      "ImagingFrequency": 123.252128,
      "InPlanePhaseEncodingDirection": "COL",
      "MRAcquisitionType": "2D",
      "MagneticFieldStrength": 3.0,
      "Manufacturer": "SIEMENS",
      "ManufacturerModelName": "Prisma",
      "Modality": "MR",
      "NumberOfAverages": 1.0,
      "NumberOfPhaseEncodingSteps": 82,
      "PercentPhaseFieldOfView": 100.0,
      "PercentSampling": 100.0,
      "PerformedProcedureStepStartTime": "093846.417000",
      "PhotometricInterpretation": "MONOCHROME2",
      "PixelBandwidth": 3050.0,
      "PixelRepresentation": 0,
      "PixelSpacing": [2.6829268932343, 2.6829268932343],
      "ProtocolName": "func_run-01_task-social_acq-ap-mb8",
      "RepetitionTime": 460.0,
      "Rows": 656,
      "SAR": 0.09802131134208,
      "SamplesPerPixel": 1,
      "ScanOptions": "FS",
      "ScanningSequence": "EP",
      "SequenceName": "epfid2d1_82",
      "SequenceVariant": [
        "SK",
        "SS"
],
      "SeriesDescription": "func_run-01_task-social_acq-ap-mb8",
      "SeriesNumber": 12,
      "SeriesTime": "095931.774000",
      "SliceLocation": -47.399174536788,
      "SliceThickness": 2.7000000476837,
      "SmallestImagePixelValue": 0,
      "SoftwareVersions": "syngo MR E11",
      "SpacingBetweenSlices": 2.7000000036644,
      "SpecificCharacterSet": "ISO_IR 100",
      "StudyID": "2",
      "StudyTime": "093846.365000",
      "TransmitCoilName": "Body",
      "VariableFlipAngleFlag": "N",
      "WindowCenterWidthExplanation": "Algo1",
      "dBdt": 0.0},
    "slices": {}
  },
  "time": {
    "samples": {
      "AcquisitionNumber": [1, 2, 3, 4, 5, 6, 7, 8, 9, 10, 11, 12, 13, 14, 15, 16, 17, 18, 19, 20, 21, 22, 23, 24, 25, 26, 27, 28, 29, 30, 31, 32, 33, 34, 35, 36, 37, 38, 39, 40, 41, 42, 43, 44, 45, 46, 47, 48, 49, 50, 51, 52, 53, 54, 55, 56, 57, 58, 59, 60, 61, 62, 63, 64, 65, 66, 67, 68, 69, 70, 71, 72, 73, 74, 75, 76, 77, 78, 79, 80, 81, 82, 83, 84, 85, 86, 87, 88, 89, 90, 91, 92, 93, 94, 95, 96, 97, 98, 99, 100, 101, 102, 103, 104, 105, 106, 107, 108, 109, 110, 111, 112, 113, 114, 115, 116, 117, 118, 119, 120, 121, 122, 123, 124, 125, 126, 127, 128, 129, 130, 131, 132, 133, 134, 135, 136, 137, 138, 139, 140, 141, 142, 143, 144, 145, 146, 147, 148, 149, 150, 151, 152, 153, 154, 155, 156, 157, 158, 159, 160, 161, 162, 163, 164, 165, 166, 167, 168, 169, 170, 171, 172, 173, 174, 175, 176, 177, 178, 179, 180, 181, 182, 183, 184, 185, 186, 187, 188, 189, 190, 191, 192, 193, 194, 195, 196, 197, 198, 199, 200, 201, 202, 203, 204, 205, 206, 207, 208, 209, 210, 211, 212, 213, 214, 215, 216, 217, 218, 219, 220, 221, 222, 223, 224, 225, 226, 227, 228, 229, 230, 231, 232, 233, 234, 235, 236, 237, 238, 239, 240, 241, 242, 243, 244, 245, 246, 247, 248, 249, 250, 251, 252, 253, 254, 255, 256, 257, 258, 259, 260, 261, 262, 263, 264, 265, 266, 267, 268, 269, 270, 271, 272, 273, 274, 275, 276, 277, 278, 279, 280, 281, 282, 283, 284, 285, 286, 287, 288, 289, 290, 291, 292, 293, 294, 295, 296, 297, 298, 299, 300, 301, 302, 303, 304, 305, 306, 307, 308, 309, 310, 311, 312, 313, 314, 315, 316, 317, 318, 319, 320, 321, 322, 323, 324, 325, 326, 327, 328, 329, 330, 331, 332, 333, 334, 335, 336, 337, 338, 339, 340, 341, 342, 343, 344, 345, 346, 347, 348, 349, 350, 351, 352, 353, 354, 355, 356, 357, 358, 359, 360, 361, 362, 363, 364, 365, 366, 367, 368, 369, 370, 371, 372, 373, 374, 375, 376, 377, 378, 379, 380, 381, 382, 383, 384, 385, 386, 387, 388, 389, 390, 391, 392, 393, 394, 395, 396, 397, 398, 399, 400, 401, 402, 403, 404, 405, 406, 407, 408, 409, 410, 411, 412, 413, 414, 415, 416, 417, 418, 419, 420, 421, 422, 423, 424, 425, 426, 427, 428, 429, 430, 431, 432, 433, 434, 435, 436, 437, 438, 439, 440, 441, 442, 443, 444, 445, 446, 447, 448, 449, 450, 451, 452, 453, 454, 455, 456, 457, 458, 459, 460, 461, 462, 463, 464, 465, 466, 467, 468, 469, 470, 471, 472, 473, 474, 475, 476, 477, 478, 479, 480, 481, 482, 483, 484, 485, 486, 487, 488, 489, 490, 491, 492, 493, 494, 495, 496, 497, 498, 499, 500, 501, 502, 503, 504, 505, 506, 507, 508, 509, 510, 511, 512, 513, 514, 515, 516, 517, 518, 519, 520, 521, 522, 523, 524, 525, 526, 527, 528, 529, 530, 531, 532, 533, 534, 535, 536, 537, 538, 539, 540, 541, 542, 543, 544, 545, 546, 547, 548, 549, 550, 551, 552, 553, 554, 555, 556, 557, 558, 559, 560, 561, 562, 563, 564, 565, 566, 567, 568, 569, 570, 571, 572, 573, 574, 575, 576, 577, 578, 579, 580, 581, 582, 583, 584, 585, 586, 587, 588, 589, 590, 591, 592, 593, 594, 595, 596, 597, 598, 599, 600, 601, 602, 603, 604, 605, 606, 607, 608, 609, 610, 611, 612, 613, 614, 615, 616, 617, 618, 619, 620, 621, 622, 623, 624, 625, 626, 627, 628, 629, 630, 631, 632, 633, 634, 635, 636, 637, 638, 639, 640, 641, 642, 643, 644, 645, 646, 647, 648, 649, 650, 651, 652, 653, 654, 655, 656, 657, 658, 659, 660, 661, 662, 663, 664, 665, 666, 667, 668, 669, 670, 671, 672, 673, 674, 675, 676, 677, 678, 679, 680, 681, 682, 683, 684, 685, 686, 687, 688, 689, 690, 691, 692, 693, 694, 695, 696, 697, 698, 699, 700, 701, 702, 703, 704, 705, 706, 707, 708, 709, 710, 711, 712, 713, 714, 715, 716, 717, 718, 719, 720, 721, 722, 723, 724, 725, 726, 727, 728, 729, 730, 731, 732, 733, 734, 735, 736, 737, 738, 739, 740, 741, 742, 743, 744, 745, 746, 747, 748, 749, 750, 751, 752, 753, 754, 755, 756, 757, 758, 759, 760, 761, 762, 763, 764, 765, 766, 767, 768, 769, 770, 771, 772, 773, 774, 775, 776, 777, 778, 779, 780, 781, 782, 783, 784, 785, 786, 787, 788, 789, 790, 791, 792, 793, 794, 795, 796, 797, 798, 799, 800, 801, 802, 803, 804, 805, 806, 807, 808, 809, 810, 811, 812, 813, 814, 815, 816, 817, 818, 819, 820, 821, 822, 823, 824, 825, 826, 827, 828, 829, 830, 831, 832, 833, 834, 835, 836, 837, 838, 839, 840, 841, 842, 843, 844, 845, 846, 847, 848, 849, 850, 851, 852, 853, 854, 855, 856, 857, 858, 859, 860, 861, 862, 863, 864, 865, 866, 867, 868, 869, 870, 871, 872],
      "AcquisitionTime": ["095905.307500", "095905.767500", "095906.227500", "095906.687500", "095907.147500", "095907.607500", "095908.067500", "095908.527500", "095908.987500", "095909.447500", "095909.907500", "095910.367500", "095910.827500", "095911.287500", "095911.747500", "095912.207500", "095912.667500", "095913.127500", "095913.587500", "095914.047500", "095914.507500", "095914.967500", "095915.427500", "095915.887500", "095916.347500", "095916.807500", "095917.267500", "095917.727500", "095918.187500", "095918.647500", "095919.107500", "095919.567500", "095920.027500", "095920.487500", "095920.947500", "095921.407500", "095921.867500", "095922.327500", "095922.787500", "095923.247500", "095923.707500", "095924.167500", "095924.627500", "095925.087500", "095925.547500", "095926.007500", "095926.467500", "095926.927500", "095927.387500", "095927.847500", "095928.307500", "095928.767500", "095929.227500", "095929.687500", "095930.147500", "095930.607500", "095931.067500", "095931.527500", "095931.987500", "095932.447500", "095932.907500", "095933.367500", "095933.827500", "095934.287500", "095934.747500", "095935.207500", "095935.667500", "095936.127500", "095936.587500", "095937.047500", "095937.507500", "095937.967500", "095938.427500", "095938.887500", "095939.347500", "095939.807500", "095940.267500", "095940.727500", "095941.187500", "095941.647500", "095942.107500", "095942.567500", "095943.027500", "095943.487500", "095943.947500", "095944.407500", "095944.867500", "095945.327500", "095945.787500", "095946.247500", "095946.707500", "095947.167500", "095947.627500", "095948.087500", "095948.547500", "095949.007500", "095949.467500", "095949.927500", "095950.387500", "095950.847500", "095951.307500", "095951.767500", "095952.227500", "095952.687500", "095953.147500", "095953.607500", "095954.067500", "095954.527500", "095954.987500", "095955.447500", "095955.907500", "095956.367500", "095956.827500", "095957.287500", "095957.747500", "095958.207500", "095958.667500", "095959.127500", "095959.587500", "100000.047500", "100000.507500", "100000.967500", "100001.427500", "100001.887500", "100002.347500", "100002.807500", "100003.267500", "100003.727500", "100004.187500", "100004.647500", "100005.107500", "100005.567500", "100006.027500", "100006.487500", "100006.947500", "100007.407500", "100007.867500", "100008.327500", "100008.787500", "100009.247500", "100009.707500", "100010.167500", "100010.627500", "100011.087500", "100011.547500", "100012.007500", "100012.467500", "100012.927500", "100013.387500", "100013.847500", "100014.307500", "100014.767500", "100015.227500", "100015.687500", "100016.147500", "100016.607500", "100017.067500", "100017.527500", "100017.987500", "100018.447500", "100018.907500", "100019.367500", "100019.827500", "100020.287500", "100020.747500", "100021.207500", "100021.667500", "100022.127500", "100022.587500", "100023.047500", "100023.507500", "100023.967500", "100024.427500", "100024.887500", "100025.347500", "100025.807500", "100026.267500", "100026.727500", "100027.187500", "100027.647500", "100028.107500", "100028.567500", "100029.027500", "100029.487500", "100029.947500", "100030.407500", "100030.867500", "100031.327500", "100031.787500", "100032.247500", "100032.707500", "100033.167500", "100033.627500", "100034.087500", "100034.547500", "100035.007500", "100035.467500", "100035.927500", "100036.387500", "100036.847500", "100037.307500", "100037.767500", "100038.227500", "100038.687500", "100039.147500", "100039.607500", "100040.067500", "100040.527500", "100040.987500", "100041.447500", "100041.907500", "100042.367500", "100042.827500", "100043.287500", "100043.747500", "100044.207500", "100044.667500", "100045.127500", "100045.587500", "100046.047500", "100046.507500", "100046.967500", "100047.427500", "100047.887500", "100048.347500", "100048.807500", "100049.267500", "100049.727500", "100050.187500", "100050.647500", "100051.107500", "100051.567500", "100052.027500", "100052.487500", "100052.947500", "100053.407500", "100053.867500", "100054.327500", "100054.787500", "100055.247500", "100055.707500", "100056.167500", "100056.627500", "100057.087500", "100057.547500", "100058.007500", "100058.467500", "100058.927500", "100059.387500", "100059.847500", "100100.307500", "100100.767500", "100101.227500", "100101.687500", "100102.147500", "100102.607500", "100103.067500", "100103.527500", "100103.987500", "100104.447500", "100104.907500", "100105.367500", "100105.827500", "100106.287500", "100106.747500", "100107.207500", "100107.667500", "100108.127500", "100108.587500", "100109.047500", "100109.507500", "100109.967500", "100110.427500", "100110.887500", "100111.347500", "100111.807500", "100112.267500", "100112.727500", "100113.187500", "100113.647500", "100114.107500", "100114.567500", "100115.027500", "100115.487500", "100115.947500", "100116.407500", "100116.867500", "100117.327500", "100117.787500", "100118.247500", "100118.707500", "100119.167500", "100119.627500", "100120.087500", "100120.547500", "100121.007500", "100121.467500", "100121.927500", "100122.387500", "100122.847500", "100123.307500", "100123.767500", "100124.227500", "100124.687500", "100125.147500", "100125.607500", "100126.067500", "100126.527500", "100126.987500", "100127.447500", "100127.907500", "100128.367500", "100128.827500", "100129.287500", "100129.747500", "100130.207500", "100130.667500", "100131.127500", "100131.587500", "100132.047500", "100132.507500", "100132.967500", "100133.427500", "100133.887500", "100134.347500", "100134.807500", "100135.267500", "100135.727500", "100136.187500", "100136.647500", "100137.107500", "100137.567500", "100138.027500", "100138.487500", "100138.947500", "100139.407500", "100139.867500", "100140.327500", "100140.787500", "100141.247500", "100141.707500", "100142.167500", "100142.627500", "100143.087500", "100143.547500", "100144.007500", "100144.467500", "100144.927500", "100145.387500", "100145.847500", "100146.307500", "100146.767500", "100147.227500", "100147.687500", "100148.147500", "100148.607500", "100149.067500", "100149.527500", "100149.987500", "100150.447500", "100150.907500", "100151.367500", "100151.827500", "100152.287500", "100152.747500", "100153.207500", "100153.667500", "100154.127500", "100154.587500", "100155.047500", "100155.507500", "100155.967500", "100156.427500", "100156.887500", "100157.347500", "100157.807500", "100158.267500", "100158.727500", "100159.187500", "100159.647500", "100200.107500", "100200.567500", "100201.027500", "100201.487500", "100201.947500", "100202.407500", "100202.867500", "100203.327500", "100203.787500", "100204.247500", "100204.707500", "100205.167500", "100205.627500", "100206.087500", "100206.547500", "100207.007500", "100207.467500", "100207.927500", "100208.387500", "100208.847500", "100209.307500", "100209.767500", "100210.227500", "100210.687500", "100211.147500", "100211.607500", "100212.067500", "100212.527500", "100212.987500", "100213.447500", "100213.907500", "100214.367500", "100214.827500", "100215.287500", "100215.747500", "100216.207500", "100216.667500", "100217.127500", "100217.587500", "100218.047500", "100218.507500", "100218.967500", "100219.427500", "100219.887500", "100220.347500", "100220.807500", "100221.267500", "100221.727500", "100222.187500", "100222.647500", "100223.107500", "100223.567500", "100224.027500", "100224.487500", "100224.947500", "100225.407500", "100225.867500", "100226.327500", "100226.787500", "100227.247500", "100227.707500", "100228.167500", "100228.627500", "100229.087500", "100229.547500", "100230.007500", "100230.467500", "100230.927500", "100231.387500", "100231.847500", "100232.307500", "100232.767500", "100233.227500", "100233.687500", "100234.147500", "100234.607500", "100235.067500", "100235.527500", "100235.987500", "100236.447500", "100236.907500", "100237.367500", "100237.827500", "100238.287500", "100238.747500", "100239.207500", "100239.667500", "100240.127500", "100240.587500", "100241.047500", "100241.507500", "100241.967500", "100242.427500", "100242.887500", "100243.347500", "100243.807500", "100244.267500", "100244.727500", "100245.187500", "100245.647500", "100246.107500", "100246.567500", "100247.027500", "100247.487500", "100247.947500", "100248.407500", "100248.867500", "100249.327500", "100249.787500", "100250.247500", "100250.707500", "100251.167500", "100251.627500", "100252.087500", "100252.547500", "100253.007500", "100253.467500", "100253.927500", "100254.387500", "100254.847500", "100255.307500", "100255.767500", "100256.227500", "100256.687500", "100257.147500", "100257.607500", "100258.067500", "100258.527500", "100258.987500", "100259.447500", "100259.907500", "100300.367500", "100300.827500", "100301.287500", "100301.747500", "100302.207500", "100302.667500", "100303.127500", "100303.587500", "100304.047500", "100304.507500", "100304.967500", "100305.427500", "100305.887500", "100306.347500", "100306.807500", "100307.267500", "100307.727500", "100308.187500", "100308.647500", "100309.107500", "100309.567500", "100310.027500", "100310.487500", "100310.947500", "100311.407500", "100311.867500", "100312.327500", "100312.787500", "100313.247500", "100313.707500", "100314.167500", "100314.627500", "100315.087500", "100315.547500", "100316.007500", "100316.467500", "100316.927500", "100317.387500", "100317.847500", "100318.307500", "100318.767500", "100319.227500", "100319.687500", "100320.147500", "100320.607500", "100321.067500", "100321.527500", "100321.987500", "100322.447500", "100322.907500", "100323.367500", "100323.827500", "100324.287500", "100324.747500", "100325.207500", "100325.667500", "100326.127500", "100326.587500", "100327.047500", "100327.507500", "100327.967500", "100328.427500", "100328.887500", "100329.347500", "100329.807500", "100330.267500", "100330.727500", "100331.187500", "100331.647500", "100332.107500", "100332.567500", "100333.027500", "100333.487500", "100333.947500", "100334.407500", "100334.867500", "100335.327500", "100335.787500", "100336.247500", "100336.707500", "100337.167500", "100337.627500", "100338.087500", "100338.547500", "100339.007500", "100339.467500", "100339.927500", "100340.387500", "100340.847500", "100341.307500", "100341.767500", "100342.227500", "100342.687500", "100343.147500", "100343.607500", "100344.067500", "100344.527500", "100344.987500", "100345.447500", "100345.907500", "100346.367500", "100346.827500", "100347.287500", "100347.747500", "100348.207500", "100348.667500", "100349.127500", "100349.587500", "100350.047500", "100350.507500", "100350.967500", "100351.427500", "100351.887500", "100352.347500", "100352.807500", "100353.267500", "100353.727500", "100354.187500", "100354.647500", "100355.107500", "100355.567500", "100356.027500", "100356.487500", "100356.947500", "100357.407500", "100357.867500", "100358.327500", "100358.787500", "100359.247500", "100359.707500", "100400.167500", "100400.627500", "100401.087500", "100401.547500", "100402.007500", "100402.467500", "100402.927500", "100403.387500", "100403.847500", "100404.307500", "100404.767500", "100405.227500", "100405.687500", "100406.147500", "100406.607500", "100407.067500", "100407.527500", "100407.987500", "100408.447500", "100408.907500", "100409.367500", "100409.827500", "100410.287500", "100410.747500", "100411.207500", "100411.667500", "100412.127500", "100412.587500", "100413.047500", "100413.507500", "100413.967500", "100414.427500", "100414.887500", "100415.347500", "100415.807500", "100416.267500", "100416.727500", "100417.187500", "100417.647500", "100418.107500", "100418.567500", "100419.027500", "100419.487500", "100419.947500", "100420.407500", "100420.867500", "100421.327500", "100421.787500", "100422.247500", "100422.707500", "100423.167500", "100423.627500", "100424.087500", "100424.547500", "100425.007500", "100425.467500", "100425.927500", "100426.387500", "100426.847500", "100427.307500", "100427.767500", "100428.227500", "100428.687500", "100429.147500", "100429.607500", "100430.067500", "100430.527500", "100430.987500", "100431.447500", "100431.907500", "100432.367500", "100432.827500", "100433.287500", "100433.747500", "100434.207500", "100434.667500", "100435.127500", "100435.587500", "100436.047500", "100436.507500", "100436.967500", "100437.427500", "100437.887500", "100438.347500", "100438.807500", "100439.267500", "100439.727500", "100440.187500", "100440.647500", "100441.107500", "100441.567500", "100442.027500", "100442.487500", "100442.947500", "100443.407500", "100443.867500", "100444.327500", "100444.787500", "100445.247500", "100445.707500", "100446.167500", "100446.627500", "100447.087500", "100447.547500", "100448.007500", "100448.467500", "100448.927500", "100449.387500", "100449.847500", "100450.307500", "100450.767500", "100451.227500", "100451.687500", "100452.147500", "100452.607500", "100453.067500", "100453.527500", "100453.987500", "100454.447500", "100454.907500", "100455.367500", "100455.827500", "100456.287500", "100456.747500", "100457.207500", "100457.667500", "100458.127500", "100458.587500", "100459.047500", "100459.507500", "100459.967500", "100500.427500", "100500.887500", "100501.347500", "100501.807500", "100502.267500", "100502.727500", "100503.187500", "100503.647500", "100504.107500", "100504.567500", "100505.027500", "100505.487500", "100505.947500", "100506.407500", "100506.867500", "100507.327500", "100507.787500", "100508.247500", "100508.707500", "100509.167500", "100509.627500", "100510.087500", "100510.547500", "100511.007500", "100511.467500", "100511.927500", "100512.387500", "100512.847500", "100513.307500", "100513.767500", "100514.227500", "100514.687500", "100515.147500", "100515.607500", "100516.067500", "100516.527500", "100516.987500", "100517.447500", "100517.907500", "100518.367500", "100518.827500", "100519.287500", "100519.747500", "100520.207500", "100520.667500", "100521.127500", "100521.587500", "100522.047500", "100522.507500", "100522.967500", "100523.427500", "100523.887500", "100524.347500", "100524.807500", "100525.267500", "100525.727500", "100526.187500", "100526.647500", "100527.107500", "100527.567500", "100528.027500", "100528.487500", "100528.947500", "100529.407500", "100529.867500", "100530.327500", "100530.787500", "100531.247500", "100531.707500", "100532.167500", "100532.627500", "100533.087500", "100533.547500", "100534.007500", "100534.467500", "100534.927500", "100535.387500", "100535.847500", "100536.307500", "100536.767500", "100537.227500", "100537.687500", "100538.147500", "100538.607500", "100539.067500", "100539.527500", "100539.987500", "100540.447500", "100540.907500", "100541.367500", "100541.827500", "100542.287500", "100542.747500", "100543.207500", "100543.667500", "100544.127500", "100544.587500", "100545.047500", "100545.507500", "100545.967500"],
