{
  "AcquisitionMatrixPE": 82,
  "AcquisitionNumber": 1,
  "AcquisitionTime": "17:22:6.610000",
  "BandwidthPerPixelPhaseEncode": 24.888,
  "BaseResolution": 82,
  "BodyPartExamined": "BRAIN",
  "ConsistencyInfo": "N4_VE11E_LATEST_20181129",
  "ConversionSoftware": "dcm2niix",
  "ConversionSoftwareVersion": "v1.0.20201102",
  "DerivedVendorReportedEchoSpacing": 0.00049,
  "DeviceSerialNumber": "66112",
  "DwellTime": 2e-06,
  "EchoTime": 0.0272,
  "EchoTrainLength": 82,
  "EffectiveEchoSpacing": 0.00049,
  "FlipAngle": 44,
  "ImageComments": "Unaliased MB8/PE3",
  "ImageOrientationPatientDICOM": [0.997973, 0.0324374, -0.0547584, -0.0322344, 0.99947, 0.00458703],
  "ImageType": [
    "ORIGINAL",
    "PRIMARY",
    "M",
    "MB",
    "ND",
    "NORM",
    "MOSAIC"
],
  "ImagingFrequency": 123.252,
  "InPlanePhaseEncodingDirectionDICOM": "COL",
  "InstitutionAddress": "Maynard 3,Hanover,NH,US,03755",
  "InstitutionName": "Dartmouth College - PBS",
  "InstitutionalDepartmentName": "Department",
  "MRAcquisitionType": "2D",
  "MagneticFieldStrength": 3,
  "Manufacturer": "Siemens",
  "ManufacturersModelName": "Prisma",
  "Modality": "MR",
  "MultibandAccelerationFactor": 8,
  "PartialFourier": 1,
  "PatientPosition": "HFS",
  "PercentPhaseFOV": 100,
  "PercentSampling": 100,
  "PhaseEncodingDirection": "j-",
  "PhaseEncodingSteps": 82,
  "PhaseResolution": 1,
  "PixelBandwidth": 3050,
  "ProcedureStepDescription": "Wager_Wager^1076_spacetop",
  "ProtocolName": "func_run-02_task-alignvideo_acq-ap-mb8",
  "PulseSequenceDetails": "%CustomerSeq%\\cmrr_mbep2d_bold",
  "ReceiveCoilActiveElements": "HEA;HEP",
  "ReceiveCoilName": "Head_32",
  "ReconMatrixPE": 82,
  "RepetitionTime": 0.46,
  "SAR": 0.0909172,
  "ScanOptions": "FS",
  "ScanningSequence": "EP",
  "SequenceName": "epfid2d1_82",
  "SequenceVariant": "SK\\SS",
  "SeriesDescription": "func_run-02_task-alignvideo_acq-ap-mb8",
  "SeriesNumber": 32,
  "ShimSetting": [4135, -7724, -7257, 529, -5, 11, -14, 88],
  "SliceThickness": 2.7,
  "SliceTiming": [0, 0.2525, 0.0625, 0.315, 0.1275, 0.3775, 0.19, 0, 0.2525, 0.0625, 0.315, 0.1275, 0.3775, 0.19, 0, 0.2525, 0.0625, 0.315, 0.1275, 0.3775, 0.19, 0, 0.2525, 0.0625, 0.315, 0.1275, 0.3775, 0.19, 0, 0.2525, 0.0625, 0.315, 0.1275, 0.3775, 0.19, 0, 0.2525, 0.0625, 0.315, 0.1275, 0.3775, 0.19, 0, 0.2525, 0.0625, 0.315, 0.1275, 0.3775, 0.19, 0, 0.2525, 0.0625, 0.315, 0.1275, 0.3775, 0.19],
  "SoftwareVersions": "syngo MR E11",
  "SpacingBetweenSlices": 2.7,
  "StationName": "AWP66112",
  "TaskName": "alignvideo",
  "TotalReadoutTime": 0.03969,
  "TxRefAmp": 252.486,
  "WipMemBlock": "54ec7458-6c00-47f9-9027-d6f240fa1644||Sequence: R016 ve11e/master r/434b28f1; Aug  7 2019 18:53:46 by eja",
  "dcmmeta_affine": [
    [-2.67748761177063, -0.0864824652671814, -0.148171067237854, 119.20677185058594],
    [-0.0870271623134613, 2.681504487991333, 0.0075940899550914764, -82.81146240234375],
    [-0.1469128280878067, -0.012306662276387215, 2.695920467376709, -48.58913040161133],
    [0.0, 0.0, 0.0, 1.0]
],
  "dcmmeta_reorient_transform": [
    [0.0, -1.0, 0.0, 81.0],
    [1.0, 0.0, 0.0, 0.0],
    [0.0, 0.0, 1.0, 0.0],
    [0.0, 0.0, 0.0, 1.0]
],
  "dcmmeta_shape": [82, 82, 56, 926],
  "dcmmeta_slice_dim": 2,
  "dcmmeta_version": 0.6,
  "global": {
    "const": {
      "AccessionNumber": "A003958",
      "AcquisitionMatrix": [82, 0, 0, 82],
      "AngioFlag": "N",
      "BitsAllocated": 16,
      "BitsStored": 16,
      "BodyPartExamined": "BRAIN",
      "Columns": 656,
      "EchoNumbers": 1,
      "EchoTime": 27.2,
      "EchoTrainLength": 82,
      "FlipAngle": 44.0,
      "HighBit": 15,
      "ImageOrientationPatient": [0.99797261045647, 0.0324373973758, -0.0547584151541, -0.0322343726543, 0.99946981164386, 0.00458702868695],
      "ImagePositionPatient": [-855.82015616883, -928.95896747051, -10.954002922455],
      "ImageType": [
        "ORIGINAL",
        "PRIMARY",
        "M",
        "MB",
        "ND",
        "NORM",
        "MOSAIC"
],
      "ImagedNucleus": "1H",
      "ImagingFrequency": 123.252207,
      "InPlanePhaseEncodingDirection": "COL",
      "MRAcquisitionType": "2D",
      "MagneticFieldStrength": 3.0,
      "Manufacturer": "SIEMENS",
      "ManufacturerModelName": "Prisma",
      "Modality": "MR",
      "NumberOfAverages": 1.0,
      "NumberOfPhaseEncodingSteps": 82,
      "PercentPhaseFieldOfView": 100.0,
      "PercentSampling": 100.0,
      "PerformedProcedureStepStartTime": "155352.276000",
      "PhotometricInterpretation": "MONOCHROME2",
      "PixelBandwidth": 3050.0,
      "PixelRepresentation": 0,
      "PixelSpacing": [2.6829268932343, 2.6829268932343],
      "ProtocolName": "func_run-02_task-alignvideo_acq-ap-mb8",
      "RepetitionTime": 460.0,
      "Rows": 656,
      "SAR": 0.09091715980246,
      "SamplesPerPixel": 1,
      "ScanOptions": "FS",
      "ScanningSequence": "EP",
      "SequenceName": "epfid2d1_82",
      "SequenceVariant": [
        "SK",
        "SS"
],
      "SeriesDescription": "func_run-02_task-alignvideo_acq-ap-mb8",
      "SeriesNumber": 32,
      "SeriesTime": "172230.893000",
      "SliceLocation": -55.290486060917,
      "SliceThickness": 2.7000000476837,
      "SmallestImagePixelValue": 0,
      "SoftwareVersions": "syngo MR E11",
      "SpacingBetweenSlices": 2.7000000030847,
      "SpecificCharacterSet": "ISO_IR 100",
      "StudyID": "2",
      "StudyTime": "155352.227000",
      "TransmitCoilName": "Body",
      "VariableFlipAngleFlag": "N",
      "WindowCenterWidthExplanation": "Algo1"
    },
    "slices": {}
  },
  "time": {
    "samples": {
      "AcquisitionNumber": [1, 2, 3, 4, 5, 6, 7, 8, 9, 10, 11, 12, 13, 14, 15, 16, 17, 18, 19, 20, 21, 22, 23, 24, 25, 26, 27, 28, 29, 30, 31, 32, 33, 34, 35, 36, 37, 38, 39, 40, 41, 42, 43, 44, 45, 46, 47, 48, 49, 50, 51, 52, 53, 54, 55, 56, 57, 58, 59, 60, 61, 62, 63, 64, 65, 66, 67, 68, 69, 70, 71, 72, 73, 74, 75, 76, 77, 78, 79, 80, 81, 82, 83, 84, 85, 86, 87, 88, 89, 90, 91, 92, 93, 94, 95, 96, 97, 98, 99, 100, 101, 102, 103, 104, 105, 106, 107, 108, 109, 110, 111, 112, 113, 114, 115, 116, 117, 118, 119, 120, 121, 122, 123, 124, 125, 126, 127, 128, 129, 130, 131, 132, 133, 134, 135, 136, 137, 138, 139, 140, 141, 142, 143, 144, 145, 146, 147, 148, 149, 150, 151, 152, 153, 154, 155, 156, 157, 158, 159, 160, 161, 162, 163, 164, 165, 166, 167, 168, 169, 170, 171, 172, 173, 174, 175, 176, 177, 178, 179, 180, 181, 182, 183, 184, 185, 186, 187, 188, 189, 190, 191, 192, 193, 194, 195, 196, 197, 198, 199, 200, 201, 202, 203, 204, 205, 206, 207, 208, 209, 210, 211, 212, 213, 214, 215, 216, 217, 218, 219, 220, 221, 222, 223, 224, 225, 226, 227, 228, 229, 230, 231, 232, 233, 234, 235, 236, 237, 238, 239, 240, 241, 242, 243, 244, 245, 246, 247, 248, 249, 250, 251, 252, 253, 254, 255, 256, 257, 258, 259, 260, 261, 262, 263, 264, 265, 266, 267, 268, 269, 270, 271, 272, 273, 274, 275, 276, 277, 278, 279, 280, 281, 282, 283, 284, 285, 286, 287, 288, 289, 290, 291, 292, 293, 294, 295, 296, 297, 298, 299, 300, 301, 302, 303, 304, 305, 306, 307, 308, 309, 310, 311, 312, 313, 314, 315, 316, 317, 318, 319, 320, 321, 322, 323, 324, 325, 326, 327, 328, 329, 330, 331, 332, 333, 334, 335, 336, 337, 338, 339, 340, 341, 342, 343, 344, 345, 346, 347, 348, 349, 350, 351, 352, 353, 354, 355, 356, 357, 358, 359, 360, 361, 362, 363, 364, 365, 366, 367, 368, 369, 370, 371, 372, 373, 374, 375, 376, 377, 378, 379, 380, 381, 382, 383, 384, 385, 386, 387, 388, 389, 390, 391, 392, 393, 394, 395, 396, 397, 398, 399, 400, 401, 402, 403, 404, 405, 406, 407, 408, 409, 410, 411, 412, 413, 414, 415, 416, 417, 418, 419, 420, 421, 422, 423, 424, 425, 426, 427, 428, 429, 430, 431, 432, 433, 434, 435, 436, 437, 438, 439, 440, 441, 442, 443, 444, 445, 446, 447, 448, 449, 450, 451, 452, 453, 454, 455, 456, 457, 458, 459, 460, 461, 462, 463, 464, 465, 466, 467, 468, 469, 470, 471, 472, 473, 474, 475, 476, 477, 478, 479, 480, 481, 482, 483, 484, 485, 486, 487, 488, 489, 490, 491, 492, 493, 494, 495, 496, 497, 498, 499, 500, 501, 502, 503, 504, 505, 506, 507, 508, 509, 510, 511, 512, 513, 514, 515, 516, 517, 518, 519, 520, 521, 522, 523, 524, 525, 526, 527, 528, 529, 530, 531, 532, 533, 534, 535, 536, 537, 538, 539, 540, 541, 542, 543, 544, 545, 546, 547, 548, 549, 550, 551, 552, 553, 554, 555, 556, 557, 558, 559, 560, 561, 562, 563, 564, 565, 566, 567, 568, 569, 570, 571, 572, 573, 574, 575, 576, 577, 578, 579, 580, 581, 582, 583, 584, 585, 586, 587, 588, 589, 590, 591, 592, 593, 594, 595, 596, 597, 598, 599, 600, 601, 602, 603, 604, 605, 606, 607, 608, 609, 610, 611, 612, 613, 614, 615, 616, 617, 618, 619, 620, 621, 622, 623, 624, 625, 626, 627, 628, 629, 630, 631, 632, 633, 634, 635, 636, 637, 638, 639, 640, 641, 642, 643, 644, 645, 646, 647, 648, 649, 650, 651, 652, 653, 654, 655, 656, 657, 658, 659, 660, 661, 662, 663, 664, 665, 666, 667, 668, 669, 670, 671, 672, 673, 674, 675, 676, 677, 678, 679, 680, 681, 682, 683, 684, 685, 686, 687, 688, 689, 690, 691, 692, 693, 694, 695, 696, 697, 698, 699, 700, 701, 702, 703, 704, 705, 706, 707, 708, 709, 710, 711, 712, 713, 714, 715, 716, 717, 718, 719, 720, 721, 722, 723, 724, 725, 726, 727, 728, 729, 730, 731, 732, 733, 734, 735, 736, 737, 738, 739, 740, 741, 742, 743, 744, 745, 746, 747, 748, 749, 750, 751, 752, 753, 754, 755, 756, 757, 758, 759, 760, 761, 762, 763, 764, 765, 766, 767, 768, 769, 770, 771, 772, 773, 774, 775, 776, 777, 778, 779, 780, 781, 782, 783, 784, 785, 786, 787, 788, 789, 790, 791, 792, 793, 794, 795, 796, 797, 798, 799, 800, 801, 802, 803, 804, 805, 806, 807, 808, 809, 810, 811, 812, 813, 814, 815, 816, 817, 818, 819, 820, 821, 822, 823, 824, 825, 826, 827, 828, 829, 830, 831, 832, 833, 834, 835, 836, 837, 838, 839, 840, 841, 842, 843, 844, 845, 846, 847, 848, 849, 850, 851, 852, 853, 854, 855, 856, 857, 858, 859, 860, 861, 862, 863, 864, 865, 866, 867, 868, 869, 870, 871, 872, 873, 874, 875, 876, 877, 878, 879, 880, 881, 882, 883, 884, 885, 886, 887, 888, 889, 890, 891, 892, 893, 894, 895, 896, 897, 898, 899, 900, 901, 902, 903, 904, 905, 906, 907, 908, 909, 910, 911, 912, 913, 914, 915, 916, 917, 918, 919, 920, 921, 922, 923, 924, 925, 926],
      "AcquisitionTime": ["172206.610000", "172207.070000", "172207.530000", "172207.990000", "172208.450000", "172208.910000", "172209.370000", "172209.830000", "172210.290000", "172210.750000", "172211.210000", "172211.670000", "172212.130000", "172212.590000", "172213.050000", "172213.510000", "172213.970000", "172214.430000", "172214.890000", "172215.350000", "172215.810000", "172216.270000", "172216.730000", "172217.190000", "172217.650000", "172218.110000", "172218.570000", "172219.030000", "172219.490000", "172219.950000", "172220.410000", "172220.870000", "172221.330000", "172221.790000", "172222.250000", "172222.710000", "172223.170000", "172223.630000", "172224.090000", "172224.550000", "172225.010000", "172225.470000", "172225.930000", "172226.390000", "172226.850000", "172227.310000", "172227.770000", "172228.230000", "172228.690000", "172229.150000", "172229.610000", "172230.070000", "172230.530000", "172230.990000", "172231.450000", "172231.910000", "172232.370000", "172232.830000", "172233.290000", "172233.750000", "172234.210000", "172234.670000", "172235.130000", "172235.590000", "172236.050000", "172236.510000", "172236.970000", "172237.430000", "172237.890000", "172238.350000", "172238.810000", "172239.270000", "172239.730000", "172240.190000", "172240.650000", "172241.110000", "172241.570000", "172242.030000", "172242.490000", "172242.950000", "172243.410000", "172243.870000", "172244.330000", "172244.790000", "172245.250000", "172245.710000", "172246.170000", "172246.630000", "172247.090000", "172247.550000", "172248.010000", "172248.470000", "172248.930000", "172249.390000", "172249.850000", "172250.310000", "172250.770000", "172251.230000", "172251.690000", "172252.150000", "172252.610000", "172253.070000", "172253.530000", "172253.990000", "172254.450000", "172254.910000", "172255.370000", "172255.830000", "172256.290000", "172256.750000", "172257.210000", "172257.670000", "172258.130000", "172258.590000", "172259.050000", "172259.510000", "172259.970000", "172300.430000", "172300.890000", "172301.350000", "172301.810000", "172302.270000", "172302.730000", "172303.190000", "172303.650000", "172304.110000", "172304.570000", "172305.030000", "172305.490000", "172305.950000", "172306.410000", "172306.870000", "172307.330000", "172307.790000", "172308.250000", "172308.710000", "172309.170000", "172309.630000", "172310.090000", "172310.550000", "172311.010000", "172311.470000", "172311.930000", "172312.390000", "172312.850000", "172313.310000", "172313.770000", "172314.230000", "172314.690000", "172315.150000", "172315.610000", "172316.070000", "172316.530000", "172316.990000", "172317.450000", "172317.910000", "172318.370000", "172318.830000", "172319.290000", "172319.750000", "172320.210000", "172320.670000", "172321.130000", "172321.590000", "172322.050000", "172322.510000", "172322.970000", "172323.430000", "172323.890000", "172324.350000", "172324.810000", "172325.270000", "172325.730000", "172326.190000", "172326.650000", "172327.110000", "172327.570000", "172328.030000", "172328.490000", "172328.950000", "172329.410000", "172329.870000", "172330.330000", "172330.790000", "172331.250000", "172331.710000", "172332.170000", "172332.630000", "172333.090000", "172333.550000", "172334.010000", "172334.470000", "172334.930000", "172335.390000", "172335.850000", "172336.310000", "172336.770000", "172337.230000", "172337.690000", "172338.150000", "172338.610000", "172339.070000", "172339.530000", "172339.990000", "172340.450000", "172340.910000", "172341.370000", "172341.830000", "172342.290000", "172342.750000", "172343.210000", "172343.670000", "172344.130000", "172344.590000", "172345.050000", "172345.510000", "172345.970000", "172346.430000", "172346.890000", "172347.350000", "172347.810000", "172348.270000", "172348.730000", "172349.190000", "172349.650000", "172350.110000", "172350.570000", "172351.030000", "172351.490000", "172351.950000", "172352.410000", "172352.870000", "172353.330000", "172353.790000", "172354.250000", "172354.710000", "172355.170000", "172355.630000", "172356.090000", "172356.550000", "172357.010000", "172357.470000", "172357.930000", "172358.390000", "172358.850000", "172359.310000", "172359.770000", "172400.230000", "172400.690000", "172401.150000", "172401.610000", "172402.070000", "172402.530000", "172402.990000", "172403.450000", "172403.910000", "172404.370000", "172404.830000", "172405.290000", "172405.750000", "172406.210000", "172406.670000", "172407.130000", "172407.590000", "172408.050000", "172408.510000", "172408.970000", "172409.430000", "172409.890000", "172410.350000", "172410.810000", "172411.270000", "172411.730000", "172412.190000", "172412.650000", "172413.110000", "172413.570000", "172414.030000", "172414.490000", "172414.950000", "172415.410000", "172415.870000", "172416.330000", "172416.790000", "172417.250000", "172417.710000", "172418.170000", "172418.630000", "172419.090000", "172419.550000", "172420.010000", "172420.470000", "172420.930000", "172421.390000", "172421.850000", "172422.310000", "172422.770000", "172423.230000", "172423.690000", "172424.150000", "172424.610000", "172425.070000", "172425.530000", "172425.990000", "172426.450000", "172426.910000", "172427.370000", "172427.830000", "172428.290000", "172428.750000", "172429.210000", "172429.670000", "172430.130000", "172430.590000", "172431.050000", "172431.510000", "172431.970000", "172432.430000", "172432.890000", "172433.350000", "172433.810000", "172434.270000", "172434.730000", "172435.190000", "172435.650000", "172436.110000", "172436.570000", "172437.030000", "172437.490000", "172437.950000", "172438.410000", "172438.870000", "172439.330000", "172439.790000", "172440.250000", "172440.710000", "172441.170000", "172441.630000", "172442.090000", "172442.550000", "172443.010000", "172443.470000", "172443.930000", "172444.390000", "172444.850000", "172445.310000", "172445.770000", "172446.230000", "172446.690000", "172447.150000", "172447.610000", "172448.070000", "172448.530000", "172448.990000", "172449.450000", "172449.910000", "172450.370000", "172450.830000", "172451.290000", "172451.750000", "172452.210000", "172452.670000", "172453.130000", "172453.590000", "172454.050000", "172454.510000", "172454.970000", "172455.430000", "172455.890000", "172456.350000", "172456.810000", "172457.270000", "172457.730000", "172458.190000", "172458.650000", "172459.110000", "172459.570000", "172500.030000", "172500.490000", "172500.950000", "172501.410000", "172501.870000", "172502.330000", "172502.790000", "172503.250000", "172503.710000", "172504.170000", "172504.630000", "172505.090000", "172505.550000", "172506.010000", "172506.470000", "172506.930000", "172507.390000", "172507.850000", "172508.310000", "172508.770000", "172509.230000", "172509.690000", "172510.150000", "172510.610000", "172511.070000", "172511.530000", "172511.990000", "172512.450000", "172512.910000", "172513.370000", "172513.830000", "172514.290000", "172514.750000", "172515.210000", "172515.670000", "172516.130000", "172516.590000", "172517.050000", "172517.510000", "172517.970000", "172518.430000", "172518.890000", "172519.350000", "172519.810000", "172520.270000", "172520.730000", "172521.190000", "172521.650000", "172522.110000", "172522.570000", "172523.030000", "172523.490000", "172523.950000", "172524.410000", "172524.870000", "172525.330000", "172525.790000", "172526.250000", "172526.710000", "172527.170000", "172527.630000", "172528.090000", "172528.550000", "172529.010000", "172529.470000", "172529.930000", "172530.390000", "172530.850000", "172531.310000", "172531.770000", "172532.230000", "172532.690000", "172533.150000", "172533.610000", "172534.070000", "172534.530000", "172534.990000", "172535.450000", "172535.910000", "172536.370000", "172536.830000", "172537.290000", "172537.750000", "172538.210000", "172538.670000", "172539.130000", "172539.590000", "172540.050000", "172540.510000", "172540.970000", "172541.430000", "172541.890000", "172542.350000", "172542.810000", "172543.270000", "172543.730000", "172544.190000", "172544.650000", "172545.110000", "172545.570000", "172546.030000", "172546.490000", "172546.950000", "172547.410000", "172547.870000", "172548.330000", "172548.790000", "172549.250000", "172549.710000", "172550.170000", "172550.630000", "172551.090000", "172551.550000", "172552.010000", "172552.470000", "172552.930000", "172553.390000", "172553.850000", "172554.310000", "172554.770000", "172555.230000", "172555.690000", "172556.150000", "172556.610000", "172557.070000", "172557.530000", "172557.990000", "172558.450000", "172558.910000", "172559.370000", "172559.830000", "172600.290000", "172600.750000", "172601.210000", "172601.670000", "172602.130000", "172602.590000", "172603.050000", "172603.510000", "172603.970000", "172604.430000", "172604.890000", "172605.350000", "172605.810000", "172606.270000", "172606.730000", "172607.190000", "172607.650000", "172608.110000", "172608.570000", "172609.030000", "172609.490000", "172609.950000", "172610.410000", "172610.870000", "172611.330000", "172611.790000", "172612.250000", "172612.710000", "172613.170000", "172613.630000", "172614.090000", "172614.550000", "172615.010000", "172615.470000", "172615.930000", "172616.390000", "172616.850000", "172617.310000", "172617.770000", "172618.230000", "172618.690000", "172619.150000", "172619.610000", "172620.070000", "172620.530000", "172620.990000", "172621.450000", "172621.910000", "172622.370000", "172622.830000", "172623.290000", "172623.750000", "172624.210000", "172624.670000", "172625.130000", "172625.590000", "172626.050000", "172626.510000", "172626.970000", "172627.430000", "172627.890000", "172628.350000", "172628.810000", "172629.270000", "172629.730000", "172630.190000", "172630.650000", "172631.110000", "172631.570000", "172632.030000", "172632.490000", "172632.950000", "172633.410000", "172633.870000", "172634.330000", "172634.790000", "172635.250000", "172635.710000", "172636.170000", "172636.630000", "172637.090000", "172637.550000", "172638.010000", "172638.470000", "172638.930000", "172639.390000", "172639.850000", "172640.310000", "172640.770000", "172641.230000", "172641.690000", "172642.150000", "172642.610000", "172643.070000", "172643.530000", "172643.990000", "172644.450000", "172644.910000", "172645.370000", "172645.830000", "172646.290000", "172646.750000", "172647.210000", "172647.670000", "172648.130000", "172648.590000", "172649.050000", "172649.510000", "172649.970000", "172650.430000", "172650.890000", "172651.350000", "172651.810000", "172652.270000", "172652.730000", "172653.190000", "172653.650000", "172654.110000", "172654.570000", "172655.030000", "172655.490000", "172655.950000", "172656.410000", "172656.870000", "172657.330000", "172657.790000", "172658.250000", "172658.710000", "172659.170000", "172659.630000", "172700.090000", "172700.550000", "172701.010000", "172701.470000", "172701.930000", "172702.390000", "172702.850000", "172703.310000", "172703.770000", "172704.230000", "172704.690000", "172705.150000", "172705.610000", "172706.070000", "172706.530000", "172706.990000", "172707.450000", "172707.910000", "172708.370000", "172708.830000", "172709.290000", "172709.750000", "172710.210000", "172710.670000", "172711.130000", "172711.590000", "172712.050000", "172712.510000", "172712.970000", "172713.430000", "172713.890000", "172714.350000", "172714.810000", "172715.270000", "172715.730000", "172716.190000", "172716.650000", "172717.110000", "172717.570000", "172718.030000", "172718.490000", "172718.950000", "172719.410000", "172719.870000", "172720.330000", "172720.790000", "172721.250000", "172721.710000", "172722.170000", "172722.630000", "172723.090000", "172723.550000", "172724.010000", "172724.470000", "172724.930000", "172725.390000", "172725.850000", "172726.310000", "172726.770000", "172727.230000", "172727.690000", "172728.150000", "172728.610000", "172729.070000", "172729.530000", "172729.990000", "172730.450000", "172730.910000", "172731.370000", "172731.830000", "172732.290000", "172732.750000", "172733.210000", "172733.670000", "172734.130000", "172734.590000", "172735.050000", "172735.510000", "172735.970000", "172736.430000", "172736.890000", "172737.350000", "172737.810000", "172738.270000", "172738.730000", "172739.190000", "172739.650000", "172740.110000", "172740.570000", "172741.030000", "172741.490000", "172741.950000", "172742.410000", "172742.870000", "172743.330000", "172743.790000", "172744.250000", "172744.710000", "172745.170000", "172745.630000", "172746.090000", "172746.550000", "172747.010000", "172747.470000", "172747.930000", "172748.390000", "172748.850000", "172749.310000", "172749.770000", "172750.230000", "172750.690000", "172751.150000", "172751.610000", "172752.070000", "172752.530000", "172752.990000", "172753.450000", "172753.910000", "172754.370000", "172754.830000", "172755.290000", "172755.750000", "172756.210000", "172756.670000", "172757.130000", "172757.590000", "172758.050000", "172758.510000", "172758.970000", "172759.430000", "172759.890000", "172800.350000", "172800.810000", "172801.270000", "172801.730000", "172802.190000", "172802.650000", "172803.110000", "172803.570000", "172804.030000", "172804.490000", "172804.950000", "172805.410000", "172805.870000", "172806.330000", "172806.790000", "172807.250000", "172807.710000", "172808.170000", "172808.630000", "172809.090000", "172809.550000", "172810.010000", "172810.470000", "172810.930000", "172811.390000", "172811.850000", "172812.310000", "172812.770000", "172813.230000", "172813.690000", "172814.150000", "172814.610000", "172815.070000", "172815.530000", "172815.990000", "172816.450000", "172816.910000", "172817.370000", "172817.830000", "172818.290000", "172818.750000", "172819.210000", "172819.670000", "172820.130000", "172820.590000", "172821.050000", "172821.510000", "172821.970000", "172822.430000", "172822.890000", "172823.350000", "172823.810000", "172824.270000", "172824.730000", "172825.190000", "172825.650000", "172826.110000", "172826.570000", "172827.030000", "172827.490000", "172827.950000", "172828.410000", "172828.870000", "172829.330000", "172829.790000", "172830.250000", "172830.710000", "172831.170000", "172831.630000", "172832.090000", "172832.550000", "172833.010000", "172833.470000", "172833.930000", "172834.390000", "172834.850000", "172835.310000", "172835.770000", "172836.230000", "172836.690000", "172837.150000", "172837.610000", "172838.070000", "172838.530000", "172838.990000", "172839.450000", "172839.910000", "172840.370000", "172840.830000", "172841.290000", "172841.750000", "172842.210000", "172842.670000", "172843.130000", "172843.590000", "172844.050000", "172844.510000", "172844.970000", "172845.430000", "172845.890000", "172846.350000", "172846.810000", "172847.270000", "172847.730000", "172848.190000", "172848.650000", "172849.110000", "172849.570000", "172850.030000", "172850.490000", "172850.950000", "172851.410000", "172851.870000", "172852.330000", "172852.790000", "172853.250000", "172853.710000", "172854.170000", "172854.630000", "172855.090000", "172855.550000", "172856.010000", "172856.470000", "172856.930000", "172857.390000", "172857.850000", "172858.310000", "172858.770000", "172859.230000", "172859.690000", "172900.150000", "172900.610000", "172901.070000", "172901.530000", "172901.990000", "172902.450000", "172902.910000", "172903.370000", "172903.830000", "172904.290000", "172904.750000", "172905.210000", "172905.670000", "172906.130000", "172906.590000", "172907.050000", "172907.510000", "172907.970000", "172908.430000", "172908.890000", "172909.350000", "172909.810000", "172910.270000", "172910.730000", "172911.190000", "172911.650000", "172912.110000"],
