{
  "AcquisitionMatrixPE": 82,
  "AcquisitionNumber": 1,
  "AcquisitionTime": "11:25:0.557500",
  "BandwidthPerPixelPhaseEncode": 24.888,
  "BaseResolution": 82,
  "BodyPartExamined": "BRAIN",
  "ConsistencyInfo": "N4_VE11E_LATEST_20181129",
  "ConversionSoftware": "dcm2niix",
  "ConversionSoftwareVersion": "v1.0.20201102",
  "DerivedVendorReportedEchoSpacing": 0.00049,
  "DeviceSerialNumber": "66112",
  "DwellTime": 2e-06,
  "EchoTime": 0.0272,
  "EchoTrainLength": 82,
  "EffectiveEchoSpacing": 0.00049,
  "FlipAngle": 44,
  "ImageComments": "Unaliased MB8/PE3",
  "ImageOrientationPatientDICOM": [0.989829, -0.0344856, 0.138019, 0.0286858, 0.998629, 0.0437932],
  "ImageType": [
    "ORIGINAL",
    "PRIMARY",
    "M",
    "MB",
    "ND",
    "NORM",
    "MOSAIC"
],
  "ImagingFrequency": 123.252,
  "InPlanePhaseEncodingDirectionDICOM": "COL",
  "InstitutionAddress": "Maynard 3,Hanover,NH,US,03755",
  "InstitutionName": "Dartmouth College - PBS",
  "InstitutionalDepartmentName": "Department",
  "MRAcquisitionType": "2D",
  "MagneticFieldStrength": 3,
  "Manufacturer": "Siemens",
  "ManufacturersModelName": "Prisma",
  "Modality": "MR",
  "MultibandAccelerationFactor": 8,
  "PartialFourier": 1,
  "PatientPosition": "HFS",
  "PercentPhaseFOV": 100,
  "PercentSampling": 100,
  "PhaseEncodingDirection": "j-",
  "PhaseEncodingSteps": 82,
  "PhaseResolution": 1,
  "PixelBandwidth": 3050,
  "ProcedureStepDescription": "Wager_Wager^1076_spacetop",
  "ProtocolName": "func_run-06_task-social_acq-ap-mb8",
  "PulseSequenceDetails": "%CustomerSeq%\\cmrr_mbep2d_bold",
  "ReceiveCoilActiveElements": "HEA;HEP",
  "ReceiveCoilName": "Head_32",
  "ReconMatrixPE": 82,
  "RepetitionTime": 0.46,
  "SAR": 0.0893289,
  "ScanOptions": "FS",
  "ScanningSequence": "EP",
  "SequenceName": "epfid2d1_82",
  "SequenceVariant": "SK\\SS",
  "SeriesDescription": "func_run-06_task-social_acq-ap-mb8",
  "SeriesNumber": 22,
  "ShimSetting": [4193, -7762, -7262, 593, -37, -285, 59, 17],
  "SliceThickness": 2.7,
  "SliceTiming": [0, 0.2525, 0.0625, 0.315, 0.125, 0.3775, 0.1875, 0, 0.2525, 0.0625, 0.315, 0.125, 0.3775, 0.1875, 0, 0.2525, 0.0625, 0.315, 0.125, 0.3775, 0.1875, 0, 0.2525, 0.0625, 0.315, 0.125, 0.3775, 0.1875, 0, 0.2525, 0.0625, 0.315, 0.125, 0.3775, 0.1875, 0, 0.2525, 0.0625, 0.315, 0.125, 0.3775, 0.1875, 0, 0.2525, 0.0625, 0.315, 0.125, 0.3775, 0.1875, 0, 0.2525, 0.0625, 0.315, 0.125, 0.3775, 0.1875],
  "SoftwareVersions": "syngo MR E11",
  "SpacingBetweenSlices": 2.7,
  "StationName": "AWP66112",
  "TaskName": "social",
  "TotalReadoutTime": 0.03969,
  "TxRefAmp": 249.225,
  "WipMemBlock": "9d7a99c5-553f-4ce1-83f4-a1f480073896||Sequence: R016 ve11e/master r/434b28f1; Aug  7 2019 18:53:46 by eja",
  "dcmmeta_affine": [
    [-2.6556389331817627, 0.07696196436882019, 0.3762173652648926, 104.00782012939453],
    [0.09252243489027023, 2.6792478561401367, 0.10634917765855789, -94.47172546386719],
    [0.37029433250427246, -0.11749391257762909, 2.6715445518493652, -76.29450988769531],
    [0.0, 0.0, 0.0, 1.0]
],
  "dcmmeta_reorient_transform": [
    [0.0, -1.0, 0.0, 81.0],
    [1.0, 0.0, 0.0, 0.0],
    [0.0, 0.0, 1.0, 0.0],
    [0.0, 0.0, 0.0, 1.0]
],
  "dcmmeta_shape": [82, 82, 56, 872],
  "dcmmeta_slice_dim": 2,
  "dcmmeta_version": 0.6,
  "global": {
    "const": {
      "AccessionNumber": "A004036",
      "AcquisitionMatrix": [82, 0, 0, 82],
      "AngioFlag": "N",
      "BitsAllocated": 16,
      "BitsStored": 16,
      "BodyPartExamined": "BRAIN",
      "Columns": 656,
      "EchoNumbers": 1,
      "EchoTime": 27.2,
      "EchoTrainLength": 82,
      "FlipAngle": 44.0,
      "HighBit": 15,
      "ImageOrientationPatient": [0.989829052446, -0.034485632927, 0.13801879602241, 0.02868582200899, 0.99862870002003, 0.04379318567963],
      "ImagePositionPatient": [-894.49821333338, -864.93752312169, -225.80674253658],
      "ImageType": [
        "ORIGINAL",
        "PRIMARY",
        "M",
        "MB",
        "ND",
        "NORM",
        "MOSAIC"
],
      "ImagedNucleus": "1H",
      "ImagingFrequency": 123.252188,
      "InPlanePhaseEncodingDirection": "COL",
      "MRAcquisitionType": "2D",
      "MagneticFieldStrength": 3.0,
      "Manufacturer": "SIEMENS",
      "ManufacturerModelName": "Prisma",
      "Modality": "MR",
      "NumberOfAverages": 1.0,
      "NumberOfPhaseEncodingSteps": 82,
      "PercentPhaseFieldOfView": 100.0,
      "PercentSampling": 100.0,
      "PerformedProcedureStepStartTime": "100627.909000",
      "PhotometricInterpretation": "MONOCHROME2",
      "PixelBandwidth": 3050.0,
      "PixelRepresentation": 0,
      "PixelSpacing": [2.6829268932343, 2.6829268932343],
      "ProtocolName": "func_run-06_task-social_acq-ap-mb8",
      "RepetitionTime": 460.0,
      "Rows": 656,
      "SAR": 0.0893288910136,
      "SamplesPerPixel": 1,
      "ScanOptions": "FS",
      "ScanningSequence": "EP",
      "SequenceName": "epfid2d1_82",
      "SequenceVariant": [
        "SK",
        "SS"
],
      "SeriesDescription": "func_run-06_task-social_acq-ap-mb8",
      "SeriesNumber": 22,
      "SeriesTime": "112516.510000",
      "SliceLocation": -64.719116389768,
      "SliceThickness": 2.7000000476837,
      "SmallestImagePixelValue": 0,
      "SoftwareVersions": "syngo MR E11",
      "SpacingBetweenSlices": 2.7000000183332,
      "SpecificCharacterSet": "ISO_IR 100",
      "StudyID": "1",
      "StudyTime": "100627.679000",
      "TransmitCoilName": "Body",
      "VariableFlipAngleFlag": "N",
      "WindowCenterWidthExplanation": "Algo1"
    },
    "slices": {}
  },
  "time": {
    "samples": {
      "AcquisitionNumber": [1, 2, 3, 4, 5, 6, 7, 8, 9, 10, 11, 12, 13, 14, 15, 16, 17, 18, 19, 20, 21, 22, 23, 24, 25, 26, 27, 28, 29, 30, 31, 32, 33, 34, 35, 36, 37, 38, 39, 40, 41, 42, 43, 44, 45, 46, 47, 48, 49, 50, 51, 52, 53, 54, 55, 56, 57, 58, 59, 60, 61, 62, 63, 64, 65, 66, 67, 68, 69, 70, 71, 72, 73, 74, 75, 76, 77, 78, 79, 80, 81, 82, 83, 84, 85, 86, 87, 88, 89, 90, 91, 92, 93, 94, 95, 96, 97, 98, 99, 100, 101, 102, 103, 104, 105, 106, 107, 108, 109, 110, 111, 112, 113, 114, 115, 116, 117, 118, 119, 120, 121, 122, 123, 124, 125, 126, 127, 128, 129, 130, 131, 132, 133, 134, 135, 136, 137, 138, 139, 140, 141, 142, 143, 144, 145, 146, 147, 148, 149, 150, 151, 152, 153, 154, 155, 156, 157, 158, 159, 160, 161, 162, 163, 164, 165, 166, 167, 168, 169, 170, 171, 172, 173, 174, 175, 176, 177, 178, 179, 180, 181, 182, 183, 184, 185, 186, 187, 188, 189, 190, 191, 192, 193, 194, 195, 196, 197, 198, 199, 200, 201, 202, 203, 204, 205, 206, 207, 208, 209, 210, 211, 212, 213, 214, 215, 216, 217, 218, 219, 220, 221, 222, 223, 224, 225, 226, 227, 228, 229, 230, 231, 232, 233, 234, 235, 236, 237, 238, 239, 240, 241, 242, 243, 244, 245, 246, 247, 248, 249, 250, 251, 252, 253, 254, 255, 256, 257, 258, 259, 260, 261, 262, 263, 264, 265, 266, 267, 268, 269, 270, 271, 272, 273, 274, 275, 276, 277, 278, 279, 280, 281, 282, 283, 284, 285, 286, 287, 288, 289, 290, 291, 292, 293, 294, 295, 296, 297, 298, 299, 300, 301, 302, 303, 304, 305, 306, 307, 308, 309, 310, 311, 312, 313, 314, 315, 316, 317, 318, 319, 320, 321, 322, 323, 324, 325, 326, 327, 328, 329, 330, 331, 332, 333, 334, 335, 336, 337, 338, 339, 340, 341, 342, 343, 344, 345, 346, 347, 348, 349, 350, 351, 352, 353, 354, 355, 356, 357, 358, 359, 360, 361, 362, 363, 364, 365, 366, 367, 368, 369, 370, 371, 372, 373, 374, 375, 376, 377, 378, 379, 380, 381, 382, 383, 384, 385, 386, 387, 388, 389, 390, 391, 392, 393, 394, 395, 396, 397, 398, 399, 400, 401, 402, 403, 404, 405, 406, 407, 408, 409, 410, 411, 412, 413, 414, 415, 416, 417, 418, 419, 420, 421, 422, 423, 424, 425, 426, 427, 428, 429, 430, 431, 432, 433, 434, 435, 436, 437, 438, 439, 440, 441, 442, 443, 444, 445, 446, 447, 448, 449, 450, 451, 452, 453, 454, 455, 456, 457, 458, 459, 460, 461, 462, 463, 464, 465, 466, 467, 468, 469, 470, 471, 472, 473, 474, 475, 476, 477, 478, 479, 480, 481, 482, 483, 484, 485, 486, 487, 488, 489, 490, 491, 492, 493, 494, 495, 496, 497, 498, 499, 500, 501, 502, 503, 504, 505, 506, 507, 508, 509, 510, 511, 512, 513, 514, 515, 516, 517, 518, 519, 520, 521, 522, 523, 524, 525, 526, 527, 528, 529, 530, 531, 532, 533, 534, 535, 536, 537, 538, 539, 540, 541, 542, 543, 544, 545, 546, 547, 548, 549, 550, 551, 552, 553, 554, 555, 556, 557, 558, 559, 560, 561, 562, 563, 564, 565, 566, 567, 568, 569, 570, 571, 572, 573, 574, 575, 576, 577, 578, 579, 580, 581, 582, 583, 584, 585, 586, 587, 588, 589, 590, 591, 592, 593, 594, 595, 596, 597, 598, 599, 600, 601, 602, 603, 604, 605, 606, 607, 608, 609, 610, 611, 612, 613, 614, 615, 616, 617, 618, 619, 620, 621, 622, 623, 624, 625, 626, 627, 628, 629, 630, 631, 632, 633, 634, 635, 636, 637, 638, 639, 640, 641, 642, 643, 644, 645, 646, 647, 648, 649, 650, 651, 652, 653, 654, 655, 656, 657, 658, 659, 660, 661, 662, 663, 664, 665, 666, 667, 668, 669, 670, 671, 672, 673, 674, 675, 676, 677, 678, 679, 680, 681, 682, 683, 684, 685, 686, 687, 688, 689, 690, 691, 692, 693, 694, 695, 696, 697, 698, 699, 700, 701, 702, 703, 704, 705, 706, 707, 708, 709, 710, 711, 712, 713, 714, 715, 716, 717, 718, 719, 720, 721, 722, 723, 724, 725, 726, 727, 728, 729, 730, 731, 732, 733, 734, 735, 736, 737, 738, 739, 740, 741, 742, 743, 744, 745, 746, 747, 748, 749, 750, 751, 752, 753, 754, 755, 756, 757, 758, 759, 760, 761, 762, 763, 764, 765, 766, 767, 768, 769, 770, 771, 772, 773, 774, 775, 776, 777, 778, 779, 780, 781, 782, 783, 784, 785, 786, 787, 788, 789, 790, 791, 792, 793, 794, 795, 796, 797, 798, 799, 800, 801, 802, 803, 804, 805, 806, 807, 808, 809, 810, 811, 812, 813, 814, 815, 816, 817, 818, 819, 820, 821, 822, 823, 824, 825, 826, 827, 828, 829, 830, 831, 832, 833, 834, 835, 836, 837, 838, 839, 840, 841, 842, 843, 844, 845, 846, 847, 848, 849, 850, 851, 852, 853, 854, 855, 856, 857, 858, 859, 860, 861, 862, 863, 864, 865, 866, 867, 868, 869, 870, 871, 872],
      "AcquisitionTime": ["112500.557500", "112501.017500", "112501.477500", "112501.937500", "112502.397500", "112502.857500", "112503.317500", "112503.777500", "112504.237500", "112504.697500", "112505.157500", "112505.617500", "112506.077500", "112506.537500", "112506.997500", "112507.457500", "112507.917500", "112508.377500", "112508.837500", "112509.297500", "112509.757500", "112510.217500", "112510.677500", "112511.137500", "112511.597500", "112512.057500", "112512.517500", "112512.977500", "112513.437500", "112513.897500", "112514.357500", "112514.817500", "112515.277500", "112515.737500", "112516.197500", "112516.657500", "112517.117500", "112517.577500", "112518.037500", "112518.497500", "112518.957500", "112519.417500", "112519.877500", "112520.337500", "112520.797500", "112521.257500", "112521.717500", "112522.177500", "112522.637500", "112523.097500", "112523.557500", "112524.017500", "112524.477500", "112524.937500", "112525.397500", "112525.857500", "112526.317500", "112526.777500", "112527.237500", "112527.697500", "112528.157500", "112528.617500", "112529.077500", "112529.537500", "112529.997500", "112530.457500", "112530.917500", "112531.377500", "112531.837500", "112532.297500", "112532.757500", "112533.217500", "112533.677500", "112534.137500", "112534.597500", "112535.057500", "112535.517500", "112535.977500", "112536.437500", "112536.897500", "112537.357500", "112537.817500", "112538.277500", "112538.737500", "112539.197500", "112539.657500", "112540.117500", "112540.577500", "112541.037500", "112541.497500", "112541.957500", "112542.417500", "112542.877500", "112543.337500", "112543.797500", "112544.257500", "112544.717500", "112545.177500", "112545.637500", "112546.097500", "112546.557500", "112547.017500", "112547.477500", "112547.937500", "112548.397500", "112548.857500", "112549.317500", "112549.777500", "112550.237500", "112550.697500", "112551.157500", "112551.617500", "112552.077500", "112552.537500", "112552.997500", "112553.457500", "112553.917500", "112554.377500", "112554.837500", "112555.297500", "112555.757500", "112556.217500", "112556.677500", "112557.137500", "112557.597500", "112558.057500", "112558.517500", "112558.977500", "112559.437500", "112559.897500", "112600.357500", "112600.817500", "112601.277500", "112601.737500", "112602.197500", "112602.657500", "112603.117500", "112603.577500", "112604.037500", "112604.497500", "112604.957500", "112605.417500", "112605.877500", "112606.337500", "112606.797500", "112607.257500", "112607.717500", "112608.177500", "112608.637500", "112609.097500", "112609.557500", "112610.017500", "112610.477500", "112610.937500", "112611.397500", "112611.857500", "112612.317500", "112612.777500", "112613.237500", "112613.697500", "112614.157500", "112614.617500", "112615.077500", "112615.537500", "112615.997500", "112616.457500", "112616.917500", "112617.377500", "112617.837500", "112618.297500", "112618.757500", "112619.217500", "112619.677500", "112620.137500", "112620.597500", "112621.057500", "112621.517500", "112621.977500", "112622.437500", "112622.897500", "112623.357500", "112623.817500", "112624.277500", "112624.737500", "112625.197500", "112625.657500", "112626.117500", "112626.577500", "112627.037500", "112627.497500", "112627.957500", "112628.417500", "112628.877500", "112629.337500", "112629.797500", "112630.257500", "112630.717500", "112631.177500", "112631.637500", "112632.097500", "112632.557500", "112633.017500", "112633.477500", "112633.937500", "112634.397500", "112634.857500", "112635.317500", "112635.777500", "112636.237500", "112636.697500", "112637.157500", "112637.617500", "112638.077500", "112638.537500", "112638.997500", "112639.457500", "112639.917500", "112640.377500", "112640.837500", "112641.297500", "112641.757500", "112642.217500", "112642.677500", "112643.137500", "112643.597500", "112644.057500", "112644.517500", "112644.977500", "112645.437500", "112645.897500", "112646.357500", "112646.817500", "112647.277500", "112647.737500", "112648.197500", "112648.657500", "112649.117500", "112649.577500", "112650.037500", "112650.497500", "112650.957500", "112651.417500", "112651.877500", "112652.337500", "112652.797500", "112653.257500", "112653.717500", "112654.177500", "112654.637500", "112655.097500", "112655.557500", "112656.017500", "112656.477500", "112656.937500", "112657.397500", "112657.857500", "112658.317500", "112658.777500", "112659.237500", "112659.697500", "112700.157500", "112700.617500", "112701.077500", "112701.537500", "112701.997500", "112702.457500", "112702.917500", "112703.377500", "112703.837500", "112704.297500", "112704.757500", "112705.217500", "112705.677500", "112706.137500", "112706.597500", "112707.057500", "112707.517500", "112707.977500", "112708.437500", "112708.897500", "112709.357500", "112709.817500", "112710.277500", "112710.737500", "112711.197500", "112711.657500", "112712.117500", "112712.577500", "112713.037500", "112713.497500", "112713.957500", "112714.417500", "112714.877500", "112715.337500", "112715.797500", "112716.257500", "112716.717500", "112717.177500", "112717.637500", "112718.097500", "112718.557500", "112719.017500", "112719.477500", "112719.937500", "112720.397500", "112720.857500", "112721.317500", "112721.777500", "112722.237500", "112722.697500", "112723.157500", "112723.617500", "112724.077500", "112724.537500", "112724.997500", "112725.457500", "112725.917500", "112726.377500", "112726.837500", "112727.297500", "112727.757500", "112728.217500", "112728.677500", "112729.137500", "112729.597500", "112730.057500", "112730.517500", "112730.977500", "112731.437500", "112731.897500", "112732.357500", "112732.817500", "112733.277500", "112733.737500", "112734.197500", "112734.657500", "112735.117500", "112735.577500", "112736.037500", "112736.497500", "112736.957500", "112737.417500", "112737.877500", "112738.337500", "112738.797500", "112739.257500", "112739.717500", "112740.177500", "112740.637500", "112741.097500", "112741.557500", "112742.017500", "112742.477500", "112742.937500", "112743.397500", "112743.857500", "112744.317500", "112744.777500", "112745.237500", "112745.697500", "112746.157500", "112746.617500", "112747.077500", "112747.537500", "112747.997500", "112748.457500", "112748.917500", "112749.377500", "112749.837500", "112750.297500", "112750.757500", "112751.217500", "112751.677500", "112752.137500", "112752.597500", "112753.057500", "112753.517500", "112753.977500", "112754.437500", "112754.897500", "112755.357500", "112755.817500", "112756.277500", "112756.737500", "112757.197500", "112757.657500", "112758.117500", "112758.577500", "112759.037500", "112759.497500", "112759.957500", "112800.417500", "112800.877500", "112801.337500", "112801.797500", "112802.257500", "112802.717500", "112803.177500", "112803.637500", "112804.097500", "112804.557500", "112805.017500", "112805.477500", "112805.937500", "112806.397500", "112806.857500", "112807.317500", "112807.777500", "112808.237500", "112808.697500", "112809.157500", "112809.617500", "112810.077500", "112810.537500", "112810.997500", "112811.457500", "112811.917500", "112812.377500", "112812.837500", "112813.297500", "112813.757500", "112814.217500", "112814.677500", "112815.137500", "112815.597500", "112816.057500", "112816.517500", "112816.977500", "112817.437500", "112817.897500", "112818.357500", "112818.817500", "112819.277500", "112819.737500", "112820.197500", "112820.657500", "112821.117500", "112821.577500", "112822.037500", "112822.497500", "112822.957500", "112823.417500", "112823.877500", "112824.337500", "112824.797500", "112825.257500", "112825.717500", "112826.177500", "112826.637500", "112827.097500", "112827.557500", "112828.017500", "112828.477500", "112828.937500", "112829.397500", "112829.857500", "112830.317500", "112830.777500", "112831.237500", "112831.697500", "112832.157500", "112832.617500", "112833.077500", "112833.537500", "112833.997500", "112834.457500", "112834.917500", "112835.377500", "112835.837500", "112836.297500", "112836.757500", "112837.217500", "112837.677500", "112838.137500", "112838.597500", "112839.057500", "112839.517500", "112839.977500", "112840.437500", "112840.897500", "112841.357500", "112841.817500", "112842.277500", "112842.737500", "112843.197500", "112843.657500", "112844.117500", "112844.577500", "112845.037500", "112845.497500", "112845.957500", "112846.417500", "112846.877500", "112847.337500", "112847.797500", "112848.257500", "112848.717500", "112849.177500", "112849.637500", "112850.097500", "112850.557500", "112851.017500", "112851.477500", "112851.937500", "112852.397500", "112852.857500", "112853.317500", "112853.777500", "112854.237500", "112854.697500", "112855.157500", "112855.617500", "112856.077500", "112856.537500", "112856.997500", "112857.457500", "112857.917500", "112858.377500", "112858.837500", "112859.297500", "112859.757500", "112900.217500", "112900.677500", "112901.137500", "112901.597500", "112902.057500", "112902.517500", "112902.977500", "112903.437500", "112903.897500", "112904.357500", "112904.817500", "112905.277500", "112905.737500", "112906.197500", "112906.657500", "112907.117500", "112907.577500", "112908.037500", "112908.497500", "112908.957500", "112909.417500", "112909.877500", "112910.337500", "112910.797500", "112911.257500", "112911.717500", "112912.177500", "112912.637500", "112913.097500", "112913.557500", "112914.017500", "112914.477500", "112914.937500", "112915.397500", "112915.857500", "112916.317500", "112916.777500", "112917.237500", "112917.697500", "112918.157500", "112918.617500", "112919.077500", "112919.537500", "112919.997500", "112920.457500", "112920.917500", "112921.377500", "112921.837500", "112922.297500", "112922.757500", "112923.217500", "112923.677500", "112924.137500", "112924.597500", "112925.057500", "112925.517500", "112925.977500", "112926.437500", "112926.897500", "112927.357500", "112927.817500", "112928.277500", "112928.737500", "112929.197500", "112929.657500", "112930.117500", "112930.577500", "112931.037500", "112931.497500", "112931.957500", "112932.417500", "112932.877500", "112933.337500", "112933.797500", "112934.257500", "112934.717500", "112935.177500", "112935.637500", "112936.097500", "112936.557500", "112937.017500", "112937.477500", "112937.937500", "112938.397500", "112938.857500", "112939.317500", "112939.777500", "112940.237500", "112940.697500", "112941.157500", "112941.617500", "112942.077500", "112942.537500", "112942.997500", "112943.457500", "112943.917500", "112944.377500", "112944.837500", "112945.297500", "112945.757500", "112946.217500", "112946.677500", "112947.137500", "112947.597500", "112948.057500", "112948.517500", "112948.977500", "112949.437500", "112949.897500", "112950.357500", "112950.817500", "112951.277500", "112951.737500", "112952.197500", "112952.657500", "112953.117500", "112953.577500", "112954.037500", "112954.497500", "112954.957500", "112955.417500", "112955.877500", "112956.337500", "112956.797500", "112957.257500", "112957.717500", "112958.177500", "112958.637500", "112959.097500", "112959.557500", "113000.017500", "113000.477500", "113000.937500", "113001.397500", "113001.857500", "113002.317500", "113002.777500", "113003.237500", "113003.697500", "113004.157500", "113004.617500", "113005.077500", "113005.537500", "113005.997500", "113006.457500", "113006.917500", "113007.377500", "113007.837500", "113008.297500", "113008.757500", "113009.217500", "113009.677500", "113010.137500", "113010.597500", "113011.057500", "113011.517500", "113011.977500", "113012.437500", "113012.897500", "113013.357500", "113013.817500", "113014.277500", "113014.737500", "113015.197500", "113015.657500", "113016.117500", "113016.577500", "113017.037500", "113017.497500", "113017.957500", "113018.417500", "113018.877500", "113019.337500", "113019.797500", "113020.257500", "113020.717500", "113021.177500", "113021.637500", "113022.097500", "113022.557500", "113023.017500", "113023.477500", "113023.937500", "113024.397500", "113024.857500", "113025.317500", "113025.777500", "113026.237500", "113026.697500", "113027.157500", "113027.617500", "113028.077500", "113028.537500", "113028.997500", "113029.457500", "113029.917500", "113030.377500", "113030.837500", "113031.297500", "113031.757500", "113032.217500", "113032.677500", "113033.137500", "113033.597500", "113034.057500", "113034.517500", "113034.977500", "113035.437500", "113035.897500", "113036.357500", "113036.817500", "113037.277500", "113037.737500", "113038.197500", "113038.657500", "113039.117500", "113039.577500", "113040.037500", "113040.497500", "113040.957500", "113041.417500", "113041.877500", "113042.337500", "113042.797500", "113043.257500", "113043.717500", "113044.177500", "113044.637500", "113045.097500", "113045.557500", "113046.017500", "113046.477500", "113046.937500", "113047.397500", "113047.857500", "113048.317500", "113048.777500", "113049.237500", "113049.697500", "113050.157500", "113050.617500", "113051.077500", "113051.537500", "113051.997500", "113052.457500", "113052.917500", "113053.377500", "113053.837500", "113054.297500", "113054.757500", "113055.217500", "113055.677500", "113056.137500", "113056.597500", "113057.057500", "113057.517500", "113057.977500", "113058.437500", "113058.897500", "113059.357500", "113059.817500", "113100.277500", "113100.737500", "113101.197500", "113101.657500", "113102.117500", "113102.577500", "113103.037500", "113103.497500", "113103.957500", "113104.417500", "113104.877500", "113105.337500", "113105.797500", "113106.257500", "113106.717500", "113107.177500", "113107.637500", "113108.097500", "113108.557500", "113109.017500", "113109.477500", "113109.937500", "113110.397500", "113110.857500", "113111.317500", "113111.777500", "113112.237500", "113112.697500", "113113.157500", "113113.617500", "113114.077500", "113114.537500", "113114.997500", "113115.457500", "113115.917500", "113116.377500", "113116.837500", "113117.297500", "113117.757500", "113118.217500", "113118.677500", "113119.137500", "113119.597500", "113120.057500", "113120.517500", "113120.977500", "113121.437500", "113121.897500", "113122.357500", "113122.817500", "113123.277500", "113123.737500", "113124.197500", "113124.657500", "113125.117500", "113125.577500", "113126.037500", "113126.497500", "113126.957500", "113127.417500", "113127.877500", "113128.337500", "113128.797500", "113129.257500", "113129.717500", "113130.177500", "113130.637500", "113131.097500", "113131.557500", "113132.017500", "113132.477500", "113132.937500", "113133.397500", "113133.857500", "113134.317500", "113134.777500", "113135.237500", "113135.697500", "113136.157500", "113136.617500", "113137.077500", "113137.537500", "113137.997500", "113138.457500", "113138.917500", "113139.377500", "113139.837500", "113140.297500", "113140.757500", "113141.217500"],
