{
  "AcquisitionMatrixPE": 82,
  "AcquisitionNumber": 1,
  "AcquisitionTime": "17:11:14.447500",
  "BandwidthPerPixelPhaseEncode": 24.888,
  "BaseResolution": 82,
  "BodyPartExamined": "BRAIN",
  "ConsistencyInfo": "N4_VE11C_LATEST_20160120",
  "ConversionSoftware": "dcm2niix",
  "ConversionSoftwareVersion": "v1.0.20201102",
  "DerivedVendorReportedEchoSpacing": 0.00049,
  "DeviceSerialNumber": "66112",
  "DwellTime": 2e-06,
  "EchoTime": 0.0272,
  "EchoTrainLength": 82,
  "EffectiveEchoSpacing": 0.00049,
  "FlipAngle": 44,
  "ImageComments": "Unaliased MB8/PE3",
  "ImageOrientationPatientDICOM": [0.992535, -0.0377726, 0.115967, 0.027724, 0.995816, 0.0870721],
  "ImageType": [
    "ORIGINAL",
    "PRIMARY",
    "M",
    "MB",
    "ND",
    "NORM",
    "MOSAIC"
],
  "ImagingFrequency": 123.252,
  "InPlanePhaseEncodingDirectionDICOM": "COL",
  "InstitutionAddress": "Maynard 3,Hanover,NH,US,03755",
  "InstitutionName": "Dartmouth College - PBS",
  "InstitutionalDepartmentName": "Department",
  "MRAcquisitionType": "2D",
  "MagneticFieldStrength": 3,
  "Manufacturer": "Siemens",
  "ManufacturersModelName": "Prisma",
  "Modality": "MR",
  "MultibandAccelerationFactor": 8,
  "PartialFourier": 1,
  "PatientPosition": "HFS",
  "PercentPhaseFOV": 100,
  "PercentSampling": 100,
  "PhaseEncodingDirection": "j-",
  "PhaseEncodingSteps": 82,
  "PhaseResolution": 1,
  "PixelBandwidth": 3050,
  "ProcedureStepDescription": "Wager_Wager^1076_spacetop",
  "ProtocolName": "func_run-01_task-social_acq-ap-mb8",
  "PulseSequenceDetails": "%CustomerSeq%\\cmrr_mbep2d_bold",
  "ReceiveCoilActiveElements": "HEA;HEP",
  "ReceiveCoilName": "Head_32",
  "ReconMatrixPE": 82,
  "RepetitionTime": 0.46,
  "SAR": 0.116963,
  "ScanOptions": "FS",
  "ScanningSequence": "EP",
  "SequenceName": "epfid2d1_82",
  "SequenceVariant": "SK\\SS",
  "SeriesDescription": "func_run-01_task-social_acq-ap-mb8",
  "SeriesNumber": 12,
  "ShimSetting": [4178, -7726, -7182, 524, -26, -87, 41, 24],
  "SliceThickness": 2.7,
  "SliceTiming": [0, 0.2525, 0.065, 0.315, 0.1275, 0.3775, 0.19, 0, 0.2525, 0.065, 0.315, 0.1275, 0.3775, 0.19, 0, 0.2525, 0.065, 0.315, 0.1275, 0.3775, 0.19, 0, 0.2525, 0.065, 0.315, 0.1275, 0.3775, 0.19, 0, 0.2525, 0.065, 0.315, 0.1275, 0.3775, 0.19, 0, 0.2525, 0.065, 0.315, 0.1275, 0.3775, 0.19, 0, 0.2525, 0.065, 0.315, 0.1275, 0.3775, 0.19, 0, 0.2525, 0.065, 0.315, 0.1275, 0.3775, 0.19],
  "SoftwareVersions": "syngo MR E11",
  "SpacingBetweenSlices": 2.7,
  "StationName": "AWP66112",
  "TaskName": "social",
  "TotalReadoutTime": 0.03969,
  "TxRefAmp": 267.7,
  "WipMemBlock": "ed2b5c2c-6ed8-4095-8b74-900dd2d20e32||Sequence: R016 ve11c/master r/e634e98; Dec 19 2017 11:00:25 by eja",
  "dcmmeta_affine": [
    [-2.662897825241089, 0.07438157498836517, 0.3206802308559418, 102.71904754638672],
    [0.10134104639291763, 2.6717019081115723, 0.2246589958667755, -94.86126708984375],
    [0.311130166053772, -0.2336081564426422, 2.6714589595794678, -36.80232620239258],
    [0.0, 0.0, 0.0, 1.0]
],
  "dcmmeta_reorient_transform": [
    [0.0, -1.0, 0.0, 81.0],
    [1.0, 0.0, 0.0, 0.0],
    [0.0, 0.0, 1.0, 0.0],
    [0.0, 0.0, 0.0, 1.0]
],
  "dcmmeta_shape": [82, 82, 56, 872],
  "dcmmeta_slice_dim": 2,
  "dcmmeta_version": 0.6,
  "global": {
    "const": {
      "AccessionNumber": "A003799",
      "AcquisitionMatrix": [82, 0, 0, 82],
      "AngioFlag": "N",
      "BitsAllocated": 16,
      "BitsStored": 16,
      "BodyPartExamined": "BRAIN",
      "Columns": 656,
      "EchoNumbers": 1,
      "EchoTime": 27.2,
      "EchoTrainLength": 82,
      "FlipAngle": 44.0,
      "HighBit": 15,
      "ImageOrientationPatient": [0.99253461281447, -0.0377725706708, 0.11596669897069, 0.02772403957102, 0.99581615874372, 0.08707212880579],
      "ImagePositionPatient": [-894.34313676586, -859.24017226724, -212.06448871275],
      "ImageType": [
        "ORIGINAL",
        "PRIMARY",
        "M",
        "MB",
        "ND",
        "NORM",
        "MOSAIC"
],
      "ImagedNucleus": "1H",
      "ImagingFrequency": 123.252137,
      "InPlanePhaseEncodingDirection": "COL",
      "MRAcquisitionType": "2D",
      "MagneticFieldStrength": 3.0,
      "Manufacturer": "SIEMENS",
      "ManufacturerModelName": "Prisma",
      "Modality": "MR",
      "NumberOfAverages": 1.0,
      "NumberOfPhaseEncodingSteps": 82,
      "PercentPhaseFieldOfView": 100.0,
      "PercentSampling": 100.0,
      "PerformedProcedureStepStartTime": "164116.521000",
      "PhotometricInterpretation": "MONOCHROME2",
      "PixelBandwidth": 3050.0,
      "PixelRepresentation": 0,
      "PixelSpacing": [2.6829268932343, 2.6829268932343],
      "ProtocolName": "func_run-01_task-social_acq-ap-mb8",
      "RepetitionTime": 460.0,
      "Rows": 656,
      "SAR": 0.11696299074731,
      "SamplesPerPixel": 1,
      "ScanOptions": "FS",
      "ScanningSequence": "EP",
      "SequenceName": "epfid2d1_82",
      "SequenceVariant": [
        "SK",
        "SS"
],
      "SeriesDescription": "func_run-01_task-social_acq-ap-mb8",
      "SeriesNumber": 12,
      "SeriesTime": "171137.592000",
      "SliceLocation": -32.106434568828,
      "SliceThickness": 2.7000000476837,
      "SmallestImagePixelValue": 0,
      "SoftwareVersions": "syngo MR E11",
      "SpacingBetweenSlices": 2.7000000407679,
      "SpecificCharacterSet": "ISO_IR 100",
      "StudyID": "1",
      "StudyTime": "164116.411000",
      "TransmitCoilName": "Body",
      "VariableFlipAngleFlag": "N",
      "WindowCenterWidthExplanation": "Algo1",
      "dBdt": 0.0},
    "slices": {}
  },
  "time": {
    "samples": {
      "AcquisitionNumber": [1, 2, 3, 4, 5, 6, 7, 8, 9, 10, 11, 12, 13, 14, 15, 16, 17, 18, 19, 20, 21, 22, 23, 24, 25, 26, 27, 28, 29, 30, 31, 32, 33, 34, 35, 36, 37, 38, 39, 40, 41, 42, 43, 44, 45, 46, 47, 48, 49, 50, 51, 52, 53, 54, 55, 56, 57, 58, 59, 60, 61, 62, 63, 64, 65, 66, 67, 68, 69, 70, 71, 72, 73, 74, 75, 76, 77, 78, 79, 80, 81, 82, 83, 84, 85, 86, 87, 88, 89, 90, 91, 92, 93, 94, 95, 96, 97, 98, 99, 100, 101, 102, 103, 104, 105, 106, 107, 108, 109, 110, 111, 112, 113, 114, 115, 116, 117, 118, 119, 120, 121, 122, 123, 124, 125, 126, 127, 128, 129, 130, 131, 132, 133, 134, 135, 136, 137, 138, 139, 140, 141, 142, 143, 144, 145, 146, 147, 148, 149, 150, 151, 152, 153, 154, 155, 156, 157, 158, 159, 160, 161, 162, 163, 164, 165, 166, 167, 168, 169, 170, 171, 172, 173, 174, 175, 176, 177, 178, 179, 180, 181, 182, 183, 184, 185, 186, 187, 188, 189, 190, 191, 192, 193, 194, 195, 196, 197, 198, 199, 200, 201, 202, 203, 204, 205, 206, 207, 208, 209, 210, 211, 212, 213, 214, 215, 216, 217, 218, 219, 220, 221, 222, 223, 224, 225, 226, 227, 228, 229, 230, 231, 232, 233, 234, 235, 236, 237, 238, 239, 240, 241, 242, 243, 244, 245, 246, 247, 248, 249, 250, 251, 252, 253, 254, 255, 256, 257, 258, 259, 260, 261, 262, 263, 264, 265, 266, 267, 268, 269, 270, 271, 272, 273, 274, 275, 276, 277, 278, 279, 280, 281, 282, 283, 284, 285, 286, 287, 288, 289, 290, 291, 292, 293, 294, 295, 296, 297, 298, 299, 300, 301, 302, 303, 304, 305, 306, 307, 308, 309, 310, 311, 312, 313, 314, 315, 316, 317, 318, 319, 320, 321, 322, 323, 324, 325, 326, 327, 328, 329, 330, 331, 332, 333, 334, 335, 336, 337, 338, 339, 340, 341, 342, 343, 344, 345, 346, 347, 348, 349, 350, 351, 352, 353, 354, 355, 356, 357, 358, 359, 360, 361, 362, 363, 364, 365, 366, 367, 368, 369, 370, 371, 372, 373, 374, 375, 376, 377, 378, 379, 380, 381, 382, 383, 384, 385, 386, 387, 388, 389, 390, 391, 392, 393, 394, 395, 396, 397, 398, 399, 400, 401, 402, 403, 404, 405, 406, 407, 408, 409, 410, 411, 412, 413, 414, 415, 416, 417, 418, 419, 420, 421, 422, 423, 424, 425, 426, 427, 428, 429, 430, 431, 432, 433, 434, 435, 436, 437, 438, 439, 440, 441, 442, 443, 444, 445, 446, 447, 448, 449, 450, 451, 452, 453, 454, 455, 456, 457, 458, 459, 460, 461, 462, 463, 464, 465, 466, 467, 468, 469, 470, 471, 472, 473, 474, 475, 476, 477, 478, 479, 480, 481, 482, 483, 484, 485, 486, 487, 488, 489, 490, 491, 492, 493, 494, 495, 496, 497, 498, 499, 500, 501, 502, 503, 504, 505, 506, 507, 508, 509, 510, 511, 512, 513, 514, 515, 516, 517, 518, 519, 520, 521, 522, 523, 524, 525, 526, 527, 528, 529, 530, 531, 532, 533, 534, 535, 536, 537, 538, 539, 540, 541, 542, 543, 544, 545, 546, 547, 548, 549, 550, 551, 552, 553, 554, 555, 556, 557, 558, 559, 560, 561, 562, 563, 564, 565, 566, 567, 568, 569, 570, 571, 572, 573, 574, 575, 576, 577, 578, 579, 580, 581, 582, 583, 584, 585, 586, 587, 588, 589, 590, 591, 592, 593, 594, 595, 596, 597, 598, 599, 600, 601, 602, 603, 604, 605, 606, 607, 608, 609, 610, 611, 612, 613, 614, 615, 616, 617, 618, 619, 620, 621, 622, 623, 624, 625, 626, 627, 628, 629, 630, 631, 632, 633, 634, 635, 636, 637, 638, 639, 640, 641, 642, 643, 644, 645, 646, 647, 648, 649, 650, 651, 652, 653, 654, 655, 656, 657, 658, 659, 660, 661, 662, 663, 664, 665, 666, 667, 668, 669, 670, 671, 672, 673, 674, 675, 676, 677, 678, 679, 680, 681, 682, 683, 684, 685, 686, 687, 688, 689, 690, 691, 692, 693, 694, 695, 696, 697, 698, 699, 700, 701, 702, 703, 704, 705, 706, 707, 708, 709, 710, 711, 712, 713, 714, 715, 716, 717, 718, 719, 720, 721, 722, 723, 724, 725, 726, 727, 728, 729, 730, 731, 732, 733, 734, 735, 736, 737, 738, 739, 740, 741, 742, 743, 744, 745, 746, 747, 748, 749, 750, 751, 752, 753, 754, 755, 756, 757, 758, 759, 760, 761, 762, 763, 764, 765, 766, 767, 768, 769, 770, 771, 772, 773, 774, 775, 776, 777, 778, 779, 780, 781, 782, 783, 784, 785, 786, 787, 788, 789, 790, 791, 792, 793, 794, 795, 796, 797, 798, 799, 800, 801, 802, 803, 804, 805, 806, 807, 808, 809, 810, 811, 812, 813, 814, 815, 816, 817, 818, 819, 820, 821, 822, 823, 824, 825, 826, 827, 828, 829, 830, 831, 832, 833, 834, 835, 836, 837, 838, 839, 840, 841, 842, 843, 844, 845, 846, 847, 848, 849, 850, 851, 852, 853, 854, 855, 856, 857, 858, 859, 860, 861, 862, 863, 864, 865, 866, 867, 868, 869, 870, 871, 872],
      "AcquisitionTime": ["171114.447500", "171114.907500", "171115.367500", "171115.827500", "171116.287500", "171116.747500", "171117.207500", "171117.667500", "171118.127500", "171118.587500", "171119.047500", "171119.507500", "171119.967500", "171120.427500", "171120.887500", "171121.347500", "171121.807500", "171122.267500", "171122.727500", "171123.187500", "171123.647500", "171124.107500", "171124.567500", "171125.027500", "171125.487500", "171125.947500", "171126.407500", "171126.867500", "171127.327500", "171127.787500", "171128.247500", "171128.707500", "171129.167500", "171129.627500", "171130.087500", "171130.547500", "171131.007500", "171131.467500", "171131.927500", "171132.387500", "171132.847500", "171133.307500", "171133.767500", "171134.227500", "171134.687500", "171135.147500", "171135.607500", "171136.067500", "171136.527500", "171136.987500", "171137.447500", "171137.907500", "171138.367500", "171138.827500", "171139.287500", "171139.747500", "171140.207500", "171140.667500", "171141.127500", "171141.587500", "171142.047500", "171142.507500", "171142.967500", "171143.427500", "171143.887500", "171144.347500", "171144.807500", "171145.267500", "171145.727500", "171146.187500", "171146.647500", "171147.107500", "171147.567500", "171148.027500", "171148.487500", "171148.947500", "171149.407500", "171149.867500", "171150.327500", "171150.787500", "171151.247500", "171151.707500", "171152.167500", "171152.627500", "171153.087500", "171153.547500", "171154.007500", "171154.467500", "171154.927500", "171155.387500", "171155.847500", "171156.307500", "171156.767500", "171157.227500", "171157.687500", "171158.147500", "171158.607500", "171159.067500", "171159.527500", "171159.987500", "171200.447500", "171200.907500", "171201.367500", "171201.827500", "171202.287500", "171202.747500", "171203.207500", "171203.667500", "171204.127500", "171204.587500", "171205.047500", "171205.507500", "171205.967500", "171206.427500", "171206.887500", "171207.347500", "171207.807500", "171208.267500", "171208.727500", "171209.187500", "171209.647500", "171210.107500", "171210.567500", "171211.027500", "171211.487500", "171211.947500", "171212.407500", "171212.867500", "171213.327500", "171213.787500", "171214.247500", "171214.707500", "171215.167500", "171215.627500", "171216.087500", "171216.547500", "171217.007500", "171217.467500", "171217.927500", "171218.387500", "171218.847500", "171219.307500", "171219.767500", "171220.227500", "171220.687500", "171221.147500", "171221.607500", "171222.067500", "171222.527500", "171222.987500", "171223.447500", "171223.907500", "171224.367500", "171224.827500", "171225.287500", "171225.747500", "171226.207500", "171226.667500", "171227.127500", "171227.587500", "171228.047500", "171228.507500", "171228.967500", "171229.427500", "171229.887500", "171230.347500", "171230.807500", "171231.267500", "171231.727500", "171232.187500", "171232.647500", "171233.107500", "171233.567500", "171234.027500", "171234.487500", "171234.947500", "171235.407500", "171235.867500", "171236.327500", "171236.787500", "171237.247500", "171237.707500", "171238.167500", "171238.627500", "171239.087500", "171239.547500", "171240.007500", "171240.467500", "171240.927500", "171241.387500", "171241.847500", "171242.307500", "171242.767500", "171243.227500", "171243.687500", "171244.147500", "171244.607500", "171245.067500", "171245.527500", "171245.987500", "171246.447500", "171246.907500", "171247.367500", "171247.827500", "171248.287500", "171248.747500", "171249.207500", "171249.667500", "171250.127500", "171250.587500", "171251.047500", "171251.507500", "171251.967500", "171252.427500", "171252.887500", "171253.347500", "171253.807500", "171254.267500", "171254.727500", "171255.187500", "171255.647500", "171256.107500", "171256.567500", "171257.027500", "171257.487500", "171257.947500", "171258.407500", "171258.867500", "171259.327500", "171259.787500", "171300.247500", "171300.707500", "171301.167500", "171301.627500", "171302.087500", "171302.547500", "171303.007500", "171303.467500", "171303.927500", "171304.387500", "171304.847500", "171305.307500", "171305.767500", "171306.227500", "171306.687500", "171307.147500", "171307.607500", "171308.067500", "171308.527500", "171308.987500", "171309.447500", "171309.907500", "171310.367500", "171310.827500", "171311.287500", "171311.747500", "171312.207500", "171312.667500", "171313.127500", "171313.587500", "171314.047500", "171314.507500", "171314.967500", "171315.427500", "171315.887500", "171316.347500", "171316.807500", "171317.267500", "171317.727500", "171318.187500", "171318.647500", "171319.107500", "171319.567500", "171320.027500", "171320.487500", "171320.947500", "171321.407500", "171321.867500", "171322.327500", "171322.787500", "171323.247500", "171323.707500", "171324.167500", "171324.627500", "171325.087500", "171325.547500", "171326.007500", "171326.467500", "171326.927500", "171327.387500", "171327.847500", "171328.307500", "171328.767500", "171329.227500", "171329.687500", "171330.147500", "171330.607500", "171331.067500", "171331.527500", "171331.987500", "171332.447500", "171332.907500", "171333.367500", "171333.827500", "171334.287500", "171334.747500", "171335.207500", "171335.667500", "171336.127500", "171336.587500", "171337.047500", "171337.507500", "171337.967500", "171338.427500", "171338.887500", "171339.347500", "171339.807500", "171340.267500", "171340.727500", "171341.187500", "171341.647500", "171342.107500", "171342.567500", "171343.027500", "171343.487500", "171343.947500", "171344.407500", "171344.867500", "171345.327500", "171345.787500", "171346.247500", "171346.707500", "171347.167500", "171347.627500", "171348.087500", "171348.547500", "171349.007500", "171349.467500", "171349.927500", "171350.387500", "171350.847500", "171351.307500", "171351.767500", "171352.227500", "171352.687500", "171353.147500", "171353.607500", "171354.067500", "171354.527500", "171354.987500", "171355.447500", "171355.907500", "171356.367500", "171356.827500", "171357.287500", "171357.747500", "171358.207500", "171358.667500", "171359.127500", "171359.587500", "171400.047500", "171400.507500", "171400.967500", "171401.427500", "171401.887500", "171402.347500", "171402.807500", "171403.267500", "171403.727500", "171404.187500", "171404.647500", "171405.107500", "171405.567500", "171406.027500", "171406.487500", "171406.947500", "171407.407500", "171407.867500", "171408.327500", "171408.787500", "171409.247500", "171409.707500", "171410.167500", "171410.627500", "171411.087500", "171411.547500", "171412.007500", "171412.467500", "171412.927500", "171413.387500", "171413.847500", "171414.307500", "171414.767500", "171415.227500", "171415.687500", "171416.147500", "171416.607500", "171417.067500", "171417.527500", "171417.987500", "171418.447500", "171418.907500", "171419.367500", "171419.827500", "171420.287500", "171420.747500", "171421.207500", "171421.667500", "171422.127500", "171422.587500", "171423.047500", "171423.507500", "171423.967500", "171424.427500", "171424.887500", "171425.347500", "171425.807500", "171426.267500", "171426.727500", "171427.187500", "171427.647500", "171428.107500", "171428.567500", "171429.027500", "171429.487500", "171429.947500", "171430.407500", "171430.867500", "171431.327500", "171431.787500", "171432.247500", "171432.707500", "171433.167500", "171433.627500", "171434.087500", "171434.547500", "171435.007500", "171435.467500", "171435.927500", "171436.387500", "171436.847500", "171437.307500", "171437.767500", "171438.227500", "171438.687500", "171439.147500", "171439.607500", "171440.067500", "171440.527500", "171440.987500", "171441.447500", "171441.907500", "171442.367500", "171442.827500", "171443.287500", "171443.747500", "171444.207500", "171444.667500", "171445.127500", "171445.587500", "171446.047500", "171446.507500", "171446.967500", "171447.427500", "171447.887500", "171448.347500", "171448.807500", "171449.267500", "171449.727500", "171450.187500", "171450.647500", "171451.107500", "171451.567500", "171452.027500", "171452.487500", "171452.947500", "171453.407500", "171453.867500", "171454.327500", "171454.787500", "171455.247500", "171455.707500", "171456.167500", "171456.627500", "171457.087500", "171457.547500", "171458.007500", "171458.467500", "171458.927500", "171459.387500", "171459.847500", "171500.307500", "171500.767500", "171501.227500", "171501.687500", "171502.147500", "171502.607500", "171503.067500", "171503.527500", "171503.987500", "171504.447500", "171504.907500", "171505.367500", "171505.827500", "171506.287500", "171506.747500", "171507.207500", "171507.667500", "171508.127500", "171508.587500", "171509.047500", "171509.507500", "171509.967500", "171510.427500", "171510.887500", "171511.347500", "171511.807500", "171512.267500", "171512.727500", "171513.187500", "171513.647500", "171514.107500", "171514.567500", "171515.027500", "171515.487500", "171515.947500", "171516.407500", "171516.867500", "171517.327500", "171517.787500", "171518.247500", "171518.707500", "171519.167500", "171519.627500", "171520.087500", "171520.547500", "171521.007500", "171521.467500", "171521.927500", "171522.387500", "171522.847500", "171523.307500", "171523.767500", "171524.227500", "171524.687500", "171525.147500", "171525.607500", "171526.067500", "171526.527500", "171526.987500", "171527.447500", "171527.907500", "171528.367500", "171528.827500", "171529.287500", "171529.747500", "171530.207500", "171530.667500", "171531.127500", "171531.587500", "171532.047500", "171532.507500", "171532.967500", "171533.427500", "171533.887500", "171534.347500", "171534.807500", "171535.267500", "171535.727500", "171536.187500", "171536.647500", "171537.107500", "171537.567500", "171538.027500", "171538.487500", "171538.947500", "171539.407500", "171539.867500", "171540.327500", "171540.787500", "171541.247500", "171541.707500", "171542.167500", "171542.627500", "171543.087500", "171543.547500", "171544.007500", "171544.467500", "171544.927500", "171545.387500", "171545.847500", "171546.307500", "171546.767500", "171547.227500", "171547.687500", "171548.147500", "171548.607500", "171549.067500", "171549.527500", "171549.987500", "171550.447500", "171550.907500", "171551.367500", "171551.827500", "171552.287500", "171552.747500", "171553.207500", "171553.667500", "171554.127500", "171554.587500", "171555.047500", "171555.507500", "171555.967500", "171556.427500", "171556.887500", "171557.347500", "171557.807500", "171558.267500", "171558.727500", "171559.187500", "171559.647500", "171600.107500", "171600.567500", "171601.027500", "171601.487500", "171601.947500", "171602.407500", "171602.867500", "171603.327500", "171603.787500", "171604.247500", "171604.707500", "171605.167500", "171605.627500", "171606.087500", "171606.547500", "171607.007500", "171607.467500", "171607.927500", "171608.387500", "171608.847500", "171609.307500", "171609.767500", "171610.227500", "171610.687500", "171611.147500", "171611.607500", "171612.067500", "171612.527500", "171612.987500", "171613.447500", "171613.907500", "171614.367500", "171614.827500", "171615.287500", "171615.747500", "171616.207500", "171616.667500", "171617.127500", "171617.587500", "171618.047500", "171618.507500", "171618.967500", "171619.427500", "171619.887500", "171620.347500", "171620.807500", "171621.267500", "171621.727500", "171622.187500", "171622.647500", "171623.107500", "171623.567500", "171624.027500", "171624.487500", "171624.947500", "171625.407500", "171625.867500", "171626.327500", "171626.787500", "171627.247500", "171627.707500", "171628.167500", "171628.627500", "171629.087500", "171629.547500", "171630.007500", "171630.467500", "171630.927500", "171631.387500", "171631.847500", "171632.307500", "171632.767500", "171633.227500", "171633.687500", "171634.147500", "171634.607500", "171635.067500", "171635.527500", "171635.987500", "171636.447500", "171636.907500", "171637.367500", "171637.827500", "171638.287500", "171638.747500", "171639.207500", "171639.667500", "171640.127500", "171640.587500", "171641.047500", "171641.507500", "171641.967500", "171642.427500", "171642.887500", "171643.347500", "171643.807500", "171644.267500", "171644.727500", "171645.187500", "171645.647500", "171646.107500", "171646.567500", "171647.027500", "171647.487500", "171647.947500", "171648.407500", "171648.867500", "171649.327500", "171649.787500", "171650.247500", "171650.707500", "171651.167500", "171651.627500", "171652.087500", "171652.547500", "171653.007500", "171653.467500", "171653.927500", "171654.387500", "171654.847500", "171655.307500", "171655.767500", "171656.227500", "171656.687500", "171657.147500", "171657.607500", "171658.067500", "171658.527500", "171658.987500", "171659.447500", "171659.907500", "171700.367500", "171700.827500", "171701.287500", "171701.747500", "171702.207500", "171702.667500", "171703.127500", "171703.587500", "171704.047500", "171704.507500", "171704.967500", "171705.427500", "171705.887500", "171706.347500", "171706.807500", "171707.267500", "171707.727500", "171708.187500", "171708.647500", "171709.107500", "171709.567500", "171710.027500", "171710.487500", "171710.947500", "171711.407500", "171711.867500", "171712.327500", "171712.787500", "171713.247500", "171713.707500", "171714.167500", "171714.627500", "171715.087500", "171715.547500", "171716.007500", "171716.467500", "171716.927500", "171717.387500", "171717.847500", "171718.307500", "171718.767500", "171719.227500", "171719.687500", "171720.147500", "171720.607500", "171721.067500", "171721.527500", "171721.987500", "171722.447500", "171722.907500", "171723.367500", "171723.827500", "171724.287500", "171724.747500", "171725.207500", "171725.667500", "171726.127500", "171726.587500", "171727.047500", "171727.507500", "171727.967500", "171728.427500", "171728.887500", "171729.347500", "171729.807500", "171730.267500", "171730.727500", "171731.187500", "171731.647500", "171732.107500", "171732.567500", "171733.027500", "171733.487500", "171733.947500", "171734.407500", "171734.867500", "171735.327500", "171735.787500", "171736.247500", "171736.707500", "171737.167500", "171737.627500", "171738.087500", "171738.547500", "171739.007500", "171739.467500", "171739.927500", "171740.387500", "171740.847500", "171741.307500", "171741.767500", "171742.227500", "171742.687500", "171743.147500", "171743.607500", "171744.067500", "171744.527500", "171744.987500", "171745.447500", "171745.907500", "171746.367500", "171746.827500", "171747.287500", "171747.747500", "171748.207500", "171748.667500", "171749.127500", "171749.587500", "171750.047500", "171750.507500", "171750.967500", "171751.427500", "171751.887500", "171752.347500", "171752.807500", "171753.267500", "171753.727500", "171754.187500", "171754.647500", "171755.107500"],
