{
  "AcquisitionMatrixPE": 82,
  "AcquisitionNumber": 1,
  "AcquisitionTime": "21:26:54.100000",
  "BandwidthPerPixelPhaseEncode": 24.888,
  "BaseResolution": 82,
  "BodyPartExamined": "BRAIN",
  "ConsistencyInfo": "N4_VE11E_LATEST_20181129",
  "ConversionSoftware": "dcm2niix",
  "ConversionSoftwareVersion": "v1.0.20201102",
  "DerivedVendorReportedEchoSpacing": 0.00049,
  "DeviceSerialNumber": "66112",
  "DwellTime": 2e-06,
  "EchoTime": 0.0272,
  "EchoTrainLength": 82,
  "EffectiveEchoSpacing": 0.00049,
  "FlipAngle": 44,
  "ImageComments": "Unaliased MB8/PE3",
  "ImageOrientationPatientDICOM": [0.998135, -0.0542214, -0.0280411, 0.0551054, 0.997975, 0.0317771],
  "ImageType": [
    "ORIGINAL",
    "PRIMARY",
    "M",
    "MB",
    "ND",
    "NORM",
    "MOSAIC"
],
  "ImagingFrequency": 123.259,
  "InPlanePhaseEncodingDirectionDICOM": "COL",
  "InstitutionAddress": "Maynard 3,Hanover,NH,US,03755",
  "InstitutionName": "Dartmouth College - PBS",
  "InstitutionalDepartmentName": "Department",
  "MRAcquisitionType": "2D",
  "MagneticFieldStrength": 3,
  "Manufacturer": "Siemens",
  "ManufacturersModelName": "Prisma",
  "Modality": "MR",
  "MultibandAccelerationFactor": 8,
  "PartialFourier": 1,
  "PatientPosition": "HFS",
  "PercentPhaseFOV": 100,
  "PercentSampling": 100,
  "PhaseEncodingDirection": "j-",
  "PhaseEncodingSteps": 82,
  "PhaseResolution": 1,
  "PixelBandwidth": 3050,
  "ProcedureStepDescription": "Wager_Wager^1076_spacetop",
  "ProtocolName": "func_run-04_task-social_acq-ap-mb8",
  "PulseSequenceDetails": "%CustomerSeq%\\cmrr_mbep2d_bold",
  "ReceiveCoilActiveElements": "HEA;HEP",
  "ReceiveCoilName": "Head_32",
  "ReconMatrixPE": 82,
  "RepetitionTime": 0.46,
  "SAR": 0.0944895,
  "ScanOptions": "FS",
  "ScanningSequence": "EP",
  "SequenceName": "epfid2d1_82",
  "SequenceVariant": "SK\\SS",
  "SeriesDescription": "func_run-04_task-social_acq-ap-mb8",
  "SeriesNumber": 20,
  "ShimSetting": [4222, -7785, -7257, 341, -85, -2, -23, 87],
  "SliceThickness": 2.7,
  "SliceTiming": [0, 0.25, 0.0625, 0.3125, 0.125, 0.375, 0.1875, 0, 0.25, 0.0625, 0.3125, 0.125, 0.375, 0.1875, 0, 0.25, 0.0625, 0.3125, 0.125, 0.375, 0.1875, 0, 0.25, 0.0625, 0.3125, 0.125, 0.375, 0.1875, 0, 0.25, 0.0625, 0.3125, 0.125, 0.375, 0.1875, 0, 0.25, 0.0625, 0.3125, 0.125, 0.375, 0.1875, 0, 0.25, 0.0625, 0.3125, 0.125, 0.375, 0.1875, 0, 0.25, 0.0625, 0.3125, 0.125, 0.375, 0.1875],
  "SoftwareVersions": "syngo MR E11",
  "SpacingBetweenSlices": 2.7,
  "StationName": "AWP66112",
  "TaskName": "social",
  "TotalReadoutTime": 0.03969,
  "TxRefAmp": 241.594,
  "WipMemBlock": "202a6ef8-f444-4ca6-8590-6f95b78ff246||Sequence: R016 ve11e/master r/434b28f1; Aug  7 2019 18:53:46 by eja",
  "dcmmeta_affine": [
    [-2.6779236793518066, 0.14784380793571472, -0.07090552151203156, 109.75798034667969],
    [0.14547204971313477, 2.6774933338165283, 0.08981021493673325, -115.38445281982422],
    [-0.07523220032453537, -0.08525560051202774, 2.6975741386413574, -81.8042221069336],
    [0.0, 0.0, 0.0, 1.0]
],
  "dcmmeta_reorient_transform": [
    [0.0, -1.0, 0.0, 81.0],
    [1.0, 0.0, 0.0, 0.0],
    [0.0, 0.0, 1.0, 0.0],
    [0.0, 0.0, 0.0, 1.0]
],
  "dcmmeta_shape": [82, 82, 56, 872],
  "dcmmeta_slice_dim": 2,
  "dcmmeta_version": 0.6,
  "global": {
    "const": {
      "AccessionNumber": "A004464",
      "AcquisitionMatrix": [82, 0, 0, 82],
      "AngioFlag": "N",
      "BitsAllocated": 16,
      "BitsStored": 16,
      "BodyPartExamined": "BRAIN",
      "Columns": 656,
      "EchoNumbers": 1,
      "EchoTime": 27.2,
      "EchoTrainLength": 82,
      "FlipAngle": 44.0,
      "HighBit": 15,
      "ImageOrientationPatient": [0.99813512962076, -0.0542213994539, -0.0280410923149, 0.05510541645422, 0.9979747541253, 0.03177708617797],
      "ImagePositionPatient": [-932.72856803081, -828.1826019527, -91.586640132024],
      "ImageType": [
        "ORIGINAL",
        "PRIMARY",
        "M",
        "MB",
        "ND",
        "NORM",
        "MOSAIC"
],
      "ImagedNucleus": "1H",
      "ImagingFrequency": 123.259122,
      "InPlanePhaseEncodingDirection": "COL",
      "MRAcquisitionType": "2D",
      "MagneticFieldStrength": 3.0,
      "Manufacturer": "SIEMENS",
      "ManufacturerModelName": "Prisma",
      "Modality": "MR",
      "NumberOfAverages": 1.0,
      "NumberOfPhaseEncodingSteps": 82,
      "PercentPhaseFieldOfView": 100.0,
      "PercentSampling": 100.0,
      "PerformedProcedureStepStartTime": "202635.875000",
      "PhotometricInterpretation": "MONOCHROME2",
      "PixelBandwidth": 3050.0,
      "PixelRepresentation": 0,
      "PixelSpacing": [2.6829268932343, 2.6829268932343],
      "ProtocolName": "func_run-04_task-social_acq-ap-mb8",
      "RepetitionTime": 460.0,
      "Rows": 656,
      "SAR": 0.09448953242611,
      "SamplesPerPixel": 1,
      "ScanOptions": "FS",
      "ScanningSequence": "EP",
      "SequenceName": "epfid2d1_82",
      "SequenceVariant": [
        "SK",
        "SS"
],
      "SeriesDescription": "func_run-04_task-social_acq-ap-mb8",
      "SeriesNumber": 20,
      "SeriesTime": "212713.993000",
      "SliceLocation": -88.451150258554,
      "SliceThickness": 2.7000000476837,
      "SmallestImagePixelValue": 0,
      "SoftwareVersions": "syngo MR E11",
      "SpacingBetweenSlices": 2.7000000053412,
      "SpecificCharacterSet": "ISO_IR 100",
      "StudyID": "1",
      "StudyTime": "202635.813000",
      "TransmitCoilName": "Body",
      "VariableFlipAngleFlag": "N",
      "WindowCenterWidthExplanation": "Algo1"
    },
    "slices": {}
  },
  "time": {
    "samples": {
      "AcquisitionNumber": [1, 2, 3, 4, 5, 6, 7, 8, 9, 10, 11, 12, 13, 14, 15, 16, 17, 18, 19, 20, 21, 22, 23, 24, 25, 26, 27, 28, 29, 30, 31, 32, 33, 34, 35, 36, 37, 38, 39, 40, 41, 42, 43, 44, 45, 46, 47, 48, 49, 50, 51, 52, 53, 54, 55, 56, 57, 58, 59, 60, 61, 62, 63, 64, 65, 66, 67, 68, 69, 70, 71, 72, 73, 74, 75, 76, 77, 78, 79, 80, 81, 82, 83, 84, 85, 86, 87, 88, 89, 90, 91, 92, 93, 94, 95, 96, 97, 98, 99, 100, 101, 102, 103, 104, 105, 106, 107, 108, 109, 110, 111, 112, 113, 114, 115, 116, 117, 118, 119, 120, 121, 122, 123, 124, 125, 126, 127, 128, 129, 130, 131, 132, 133, 134, 135, 136, 137, 138, 139, 140, 141, 142, 143, 144, 145, 146, 147, 148, 149, 150, 151, 152, 153, 154, 155, 156, 157, 158, 159, 160, 161, 162, 163, 164, 165, 166, 167, 168, 169, 170, 171, 172, 173, 174, 175, 176, 177, 178, 179, 180, 181, 182, 183, 184, 185, 186, 187, 188, 189, 190, 191, 192, 193, 194, 195, 196, 197, 198, 199, 200, 201, 202, 203, 204, 205, 206, 207, 208, 209, 210, 211, 212, 213, 214, 215, 216, 217, 218, 219, 220, 221, 222, 223, 224, 225, 226, 227, 228, 229, 230, 231, 232, 233, 234, 235, 236, 237, 238, 239, 240, 241, 242, 243, 244, 245, 246, 247, 248, 249, 250, 251, 252, 253, 254, 255, 256, 257, 258, 259, 260, 261, 262, 263, 264, 265, 266, 267, 268, 269, 270, 271, 272, 273, 274, 275, 276, 277, 278, 279, 280, 281, 282, 283, 284, 285, 286, 287, 288, 289, 290, 291, 292, 293, 294, 295, 296, 297, 298, 299, 300, 301, 302, 303, 304, 305, 306, 307, 308, 309, 310, 311, 312, 313, 314, 315, 316, 317, 318, 319, 320, 321, 322, 323, 324, 325, 326, 327, 328, 329, 330, 331, 332, 333, 334, 335, 336, 337, 338, 339, 340, 341, 342, 343, 344, 345, 346, 347, 348, 349, 350, 351, 352, 353, 354, 355, 356, 357, 358, 359, 360, 361, 362, 363, 364, 365, 366, 367, 368, 369, 370, 371, 372, 373, 374, 375, 376, 377, 378, 379, 380, 381, 382, 383, 384, 385, 386, 387, 388, 389, 390, 391, 392, 393, 394, 395, 396, 397, 398, 399, 400, 401, 402, 403, 404, 405, 406, 407, 408, 409, 410, 411, 412, 413, 414, 415, 416, 417, 418, 419, 420, 421, 422, 423, 424, 425, 426, 427, 428, 429, 430, 431, 432, 433, 434, 435, 436, 437, 438, 439, 440, 441, 442, 443, 444, 445, 446, 447, 448, 449, 450, 451, 452, 453, 454, 455, 456, 457, 458, 459, 460, 461, 462, 463, 464, 465, 466, 467, 468, 469, 470, 471, 472, 473, 474, 475, 476, 477, 478, 479, 480, 481, 482, 483, 484, 485, 486, 487, 488, 489, 490, 491, 492, 493, 494, 495, 496, 497, 498, 499, 500, 501, 502, 503, 504, 505, 506, 507, 508, 509, 510, 511, 512, 513, 514, 515, 516, 517, 518, 519, 520, 521, 522, 523, 524, 525, 526, 527, 528, 529, 530, 531, 532, 533, 534, 535, 536, 537, 538, 539, 540, 541, 542, 543, 544, 545, 546, 547, 548, 549, 550, 551, 552, 553, 554, 555, 556, 557, 558, 559, 560, 561, 562, 563, 564, 565, 566, 567, 568, 569, 570, 571, 572, 573, 574, 575, 576, 577, 578, 579, 580, 581, 582, 583, 584, 585, 586, 587, 588, 589, 590, 591, 592, 593, 594, 595, 596, 597, 598, 599, 600, 601, 602, 603, 604, 605, 606, 607, 608, 609, 610, 611, 612, 613, 614, 615, 616, 617, 618, 619, 620, 621, 622, 623, 624, 625, 626, 627, 628, 629, 630, 631, 632, 633, 634, 635, 636, 637, 638, 639, 640, 641, 642, 643, 644, 645, 646, 647, 648, 649, 650, 651, 652, 653, 654, 655, 656, 657, 658, 659, 660, 661, 662, 663, 664, 665, 666, 667, 668, 669, 670, 671, 672, 673, 674, 675, 676, 677, 678, 679, 680, 681, 682, 683, 684, 685, 686, 687, 688, 689, 690, 691, 692, 693, 694, 695, 696, 697, 698, 699, 700, 701, 702, 703, 704, 705, 706, 707, 708, 709, 710, 711, 712, 713, 714, 715, 716, 717, 718, 719, 720, 721, 722, 723, 724, 725, 726, 727, 728, 729, 730, 731, 732, 733, 734, 735, 736, 737, 738, 739, 740, 741, 742, 743, 744, 745, 746, 747, 748, 749, 750, 751, 752, 753, 754, 755, 756, 757, 758, 759, 760, 761, 762, 763, 764, 765, 766, 767, 768, 769, 770, 771, 772, 773, 774, 775, 776, 777, 778, 779, 780, 781, 782, 783, 784, 785, 786, 787, 788, 789, 790, 791, 792, 793, 794, 795, 796, 797, 798, 799, 800, 801, 802, 803, 804, 805, 806, 807, 808, 809, 810, 811, 812, 813, 814, 815, 816, 817, 818, 819, 820, 821, 822, 823, 824, 825, 826, 827, 828, 829, 830, 831, 832, 833, 834, 835, 836, 837, 838, 839, 840, 841, 842, 843, 844, 845, 846, 847, 848, 849, 850, 851, 852, 853, 854, 855, 856, 857, 858, 859, 860, 861, 862, 863, 864, 865, 866, 867, 868, 869, 870, 871, 872],
      "AcquisitionTime": ["212654.100000", "212654.560000", "212655.020000", "212655.480000", "212655.940000", "212656.400000", "212656.860000", "212657.320000", "212657.780000", "212658.240000", "212658.700000", "212659.160000", "212659.620000", "212700.080000", "212700.540000", "212701.000000", "212701.460000", "212701.920000", "212702.380000", "212702.840000", "212703.300000", "212703.760000", "212704.220000", "212704.680000", "212705.140000", "212705.600000", "212706.060000", "212706.520000", "212706.980000", "212707.440000", "212707.900000", "212708.360000", "212708.820000", "212709.280000", "212709.740000", "212710.200000", "212710.660000", "212711.120000", "212711.580000", "212712.040000", "212712.500000", "212712.960000", "212713.420000", "212713.880000", "212714.340000", "212714.800000", "212715.260000", "212715.720000", "212716.180000", "212716.640000", "212717.100000", "212717.560000", "212718.020000", "212718.480000", "212718.940000", "212719.400000", "212719.860000", "212720.320000", "212720.780000", "212721.240000", "212721.700000", "212722.160000", "212722.620000", "212723.080000", "212723.540000", "212724.000000", "212724.460000", "212724.920000", "212725.380000", "212725.840000", "212726.300000", "212726.760000", "212727.220000", "212727.680000", "212728.140000", "212728.600000", "212729.060000", "212729.520000", "212729.980000", "212730.440000", "212730.900000", "212731.360000", "212731.820000", "212732.280000", "212732.740000", "212733.200000", "212733.660000", "212734.120000", "212734.580000", "212735.040000", "212735.500000", "212735.960000", "212736.420000", "212736.880000", "212737.340000", "212737.800000", "212738.260000", "212738.720000", "212739.180000", "212739.640000", "212740.100000", "212740.560000", "212741.020000", "212741.480000", "212741.940000", "212742.400000", "212742.860000", "212743.320000", "212743.780000", "212744.240000", "212744.700000", "212745.160000", "212745.620000", "212746.080000", "212746.540000", "212747.000000", "212747.460000", "212747.920000", "212748.380000", "212748.840000", "212749.300000", "212749.760000", "212750.220000", "212750.680000", "212751.140000", "212751.600000", "212752.060000", "212752.520000", "212752.980000", "212753.440000", "212753.900000", "212754.360000", "212754.820000", "212755.280000", "212755.740000", "212756.200000", "212756.660000", "212757.120000", "212757.580000", "212758.040000", "212758.500000", "212758.960000", "212759.420000", "212759.880000", "212800.340000", "212800.800000", "212801.260000", "212801.720000", "212802.180000", "212802.640000", "212803.100000", "212803.560000", "212804.020000", "212804.480000", "212804.940000", "212805.400000", "212805.860000", "212806.320000", "212806.780000", "212807.240000", "212807.700000", "212808.160000", "212808.620000", "212809.080000", "212809.540000", "212810.000000", "212810.460000", "212810.920000", "212811.380000", "212811.840000", "212812.300000", "212812.760000", "212813.220000", "212813.680000", "212814.140000", "212814.600000", "212815.060000", "212815.520000", "212815.980000", "212816.440000", "212816.900000", "212817.360000", "212817.820000", "212818.280000", "212818.740000", "212819.200000", "212819.660000", "212820.120000", "212820.580000", "212821.040000", "212821.500000", "212821.960000", "212822.420000", "212822.880000", "212823.340000", "212823.800000", "212824.260000", "212824.720000", "212825.180000", "212825.640000", "212826.100000", "212826.560000", "212827.020000", "212827.480000", "212827.940000", "212828.400000", "212828.860000", "212829.320000", "212829.780000", "212830.240000", "212830.700000", "212831.160000", "212831.620000", "212832.080000", "212832.540000", "212833.000000", "212833.460000", "212833.920000", "212834.380000", "212834.840000", "212835.300000", "212835.760000", "212836.220000", "212836.680000", "212837.140000", "212837.600000", "212838.060000", "212838.520000", "212838.980000", "212839.440000", "212839.900000", "212840.360000", "212840.820000", "212841.280000", "212841.740000", "212842.200000", "212842.660000", "212843.120000", "212843.580000", "212844.040000", "212844.500000", "212844.960000", "212845.420000", "212845.880000", "212846.340000", "212846.800000", "212847.260000", "212847.720000", "212848.180000", "212848.640000", "212849.100000", "212849.560000", "212850.020000", "212850.480000", "212850.940000", "212851.400000", "212851.860000", "212852.320000", "212852.780000", "212853.240000", "212853.700000", "212854.160000", "212854.620000", "212855.080000", "212855.540000", "212856.000000", "212856.460000", "212856.920000", "212857.380000", "212857.840000", "212858.300000", "212858.760000", "212859.220000", "212859.680000", "212900.140000", "212900.600000", "212901.060000", "212901.520000", "212901.980000", "212902.440000", "212902.900000", "212903.360000", "212903.820000", "212904.280000", "212904.740000", "212905.200000", "212905.660000", "212906.120000", "212906.580000", "212907.040000", "212907.500000", "212907.960000", "212908.420000", "212908.880000", "212909.340000", "212909.800000", "212910.260000", "212910.720000", "212911.180000", "212911.640000", "212912.100000", "212912.560000", "212913.020000", "212913.480000", "212913.940000", "212914.400000", "212914.860000", "212915.320000", "212915.780000", "212916.240000", "212916.700000", "212917.160000", "212917.620000", "212918.080000", "212918.540000", "212919.000000", "212919.460000", "212919.920000", "212920.380000", "212920.840000", "212921.300000", "212921.760000", "212922.220000", "212922.680000", "212923.140000", "212923.600000", "212924.060000", "212924.520000", "212924.980000", "212925.440000", "212925.900000", "212926.360000", "212926.820000", "212927.280000", "212927.740000", "212928.200000", "212928.660000", "212929.120000", "212929.580000", "212930.040000", "212930.500000", "212930.960000", "212931.420000", "212931.880000", "212932.340000", "212932.800000", "212933.260000", "212933.720000", "212934.180000", "212934.640000", "212935.100000", "212935.560000", "212936.020000", "212936.480000", "212936.940000", "212937.400000", "212937.860000", "212938.320000", "212938.780000", "212939.240000", "212939.700000", "212940.160000", "212940.620000", "212941.080000", "212941.540000", "212942.000000", "212942.460000", "212942.920000", "212943.380000", "212943.840000", "212944.300000", "212944.760000", "212945.220000", "212945.680000", "212946.140000", "212946.600000", "212947.060000", "212947.520000", "212947.980000", "212948.440000", "212948.900000", "212949.360000", "212949.820000", "212950.280000", "212950.740000", "212951.200000", "212951.660000", "212952.120000", "212952.580000", "212953.040000", "212953.500000", "212953.960000", "212954.420000", "212954.880000", "212955.340000", "212955.800000", "212956.260000", "212956.720000", "212957.180000", "212957.640000", "212958.100000", "212958.560000", "212959.020000", "212959.480000", "212959.940000", "213000.400000", "213000.860000", "213001.320000", "213001.780000", "213002.240000", "213002.700000", "213003.160000", "213003.620000", "213004.080000", "213004.540000", "213005.000000", "213005.460000", "213005.920000", "213006.380000", "213006.840000", "213007.300000", "213007.760000", "213008.220000", "213008.680000", "213009.140000", "213009.600000", "213010.060000", "213010.520000", "213010.980000", "213011.440000", "213011.900000", "213012.360000", "213012.820000", "213013.280000", "213013.740000", "213014.200000", "213014.660000", "213015.120000", "213015.580000", "213016.040000", "213016.500000", "213016.960000", "213017.420000", "213017.880000", "213018.340000", "213018.800000", "213019.260000", "213019.720000", "213020.180000", "213020.640000", "213021.100000", "213021.560000", "213022.020000", "213022.480000", "213022.940000", "213023.400000", "213023.860000", "213024.320000", "213024.780000", "213025.240000", "213025.700000", "213026.160000", "213026.620000", "213027.080000", "213027.540000", "213028.000000", "213028.460000", "213028.920000", "213029.380000", "213029.840000", "213030.300000", "213030.760000", "213031.220000", "213031.680000", "213032.140000", "213032.600000", "213033.060000", "213033.520000", "213033.980000", "213034.440000", "213034.900000", "213035.360000", "213035.820000", "213036.280000", "213036.740000", "213037.200000", "213037.660000", "213038.120000", "213038.580000", "213039.040000", "213039.500000", "213039.960000", "213040.420000", "213040.880000", "213041.340000", "213041.800000", "213042.260000", "213042.720000", "213043.180000", "213043.640000", "213044.100000", "213044.560000", "213045.020000", "213045.480000", "213045.940000", "213046.400000", "213046.860000", "213047.320000", "213047.780000", "213048.240000", "213048.700000", "213049.160000", "213049.620000", "213050.080000", "213050.540000", "213051.000000", "213051.460000", "213051.920000", "213052.380000", "213052.840000", "213053.300000", "213053.760000", "213054.220000", "213054.680000", "213055.140000", "213055.600000", "213056.060000", "213056.520000", "213056.980000", "213057.440000", "213057.900000", "213058.360000", "213058.820000", "213059.280000", "213059.740000", "213100.200000", "213100.660000", "213101.120000", "213101.580000", "213102.040000", "213102.500000", "213102.960000", "213103.420000", "213103.880000", "213104.340000", "213104.800000", "213105.260000", "213105.720000", "213106.180000", "213106.640000", "213107.100000", "213107.560000", "213108.020000", "213108.480000", "213108.940000", "213109.400000", "213109.860000", "213110.320000", "213110.780000", "213111.240000", "213111.700000", "213112.160000", "213112.620000", "213113.080000", "213113.540000", "213114.000000", "213114.460000", "213114.920000", "213115.380000", "213115.840000", "213116.300000", "213116.760000", "213117.220000", "213117.680000", "213118.140000", "213118.600000", "213119.060000", "213119.520000", "213119.980000", "213120.440000", "213120.900000", "213121.360000", "213121.820000", "213122.280000", "213122.740000", "213123.200000", "213123.660000", "213124.120000", "213124.580000", "213125.040000", "213125.500000", "213125.960000", "213126.420000", "213126.880000", "213127.340000", "213127.800000", "213128.260000", "213128.720000", "213129.180000", "213129.640000", "213130.100000", "213130.560000", "213131.020000", "213131.480000", "213131.940000", "213132.400000", "213132.860000", "213133.320000", "213133.780000", "213134.240000", "213134.700000", "213135.160000", "213135.620000", "213136.080000", "213136.540000", "213137.000000", "213137.460000", "213137.920000", "213138.380000", "213138.840000", "213139.300000", "213139.760000", "213140.220000", "213140.680000", "213141.140000", "213141.600000", "213142.060000", "213142.520000", "213142.980000", "213143.440000", "213143.900000", "213144.360000", "213144.820000", "213145.280000", "213145.740000", "213146.200000", "213146.660000", "213147.120000", "213147.580000", "213148.040000", "213148.500000", "213148.960000", "213149.420000", "213149.880000", "213150.340000", "213150.800000", "213151.260000", "213151.720000", "213152.180000", "213152.640000", "213153.100000", "213153.560000", "213154.020000", "213154.480000", "213154.940000", "213155.400000", "213155.860000", "213156.320000", "213156.780000", "213157.240000", "213157.700000", "213158.160000", "213158.620000", "213159.080000", "213159.540000", "213200.000000", "213200.460000", "213200.920000", "213201.380000", "213201.840000", "213202.300000", "213202.760000", "213203.220000", "213203.680000", "213204.140000", "213204.600000", "213205.060000", "213205.520000", "213205.980000", "213206.440000", "213206.900000", "213207.360000", "213207.820000", "213208.280000", "213208.740000", "213209.200000", "213209.660000", "213210.120000", "213210.580000", "213211.040000", "213211.500000", "213211.960000", "213212.420000", "213212.880000", "213213.340000", "213213.800000", "213214.260000", "213214.720000", "213215.180000", "213215.640000", "213216.100000", "213216.560000", "213217.020000", "213217.480000", "213217.940000", "213218.400000", "213218.860000", "213219.320000", "213219.780000", "213220.240000", "213220.700000", "213221.160000", "213221.620000", "213222.080000", "213222.540000", "213223.000000", "213223.460000", "213223.920000", "213224.380000", "213224.840000", "213225.300000", "213225.760000", "213226.220000", "213226.680000", "213227.140000", "213227.600000", "213228.060000", "213228.520000", "213228.980000", "213229.440000", "213229.900000", "213230.360000", "213230.820000", "213231.280000", "213231.740000", "213232.200000", "213232.660000", "213233.120000", "213233.580000", "213234.040000", "213234.500000", "213234.960000", "213235.420000", "213235.880000", "213236.340000", "213236.800000", "213237.260000", "213237.720000", "213238.180000", "213238.640000", "213239.100000", "213239.560000", "213240.020000", "213240.480000", "213240.940000", "213241.400000", "213241.860000", "213242.320000", "213242.780000", "213243.240000", "213243.700000", "213244.160000", "213244.620000", "213245.080000", "213245.540000", "213246.000000", "213246.460000", "213246.920000", "213247.380000", "213247.840000", "213248.300000", "213248.760000", "213249.220000", "213249.680000", "213250.140000", "213250.600000", "213251.060000", "213251.520000", "213251.980000", "213252.440000", "213252.900000", "213253.360000", "213253.820000", "213254.280000", "213254.740000", "213255.200000", "213255.660000", "213256.120000", "213256.580000", "213257.040000", "213257.500000", "213257.960000", "213258.420000", "213258.880000", "213259.340000", "213259.800000", "213300.260000", "213300.720000", "213301.180000", "213301.640000", "213302.100000", "213302.560000", "213303.020000", "213303.480000", "213303.940000", "213304.400000", "213304.860000", "213305.320000", "213305.780000", "213306.240000", "213306.700000", "213307.160000", "213307.620000", "213308.080000", "213308.540000", "213309.000000", "213309.460000", "213309.920000", "213310.380000", "213310.840000", "213311.300000", "213311.760000", "213312.220000", "213312.680000", "213313.140000", "213313.600000", "213314.060000", "213314.520000", "213314.980000", "213315.440000", "213315.900000", "213316.360000", "213316.820000", "213317.280000", "213317.740000", "213318.200000", "213318.660000", "213319.120000", "213319.580000", "213320.040000", "213320.500000", "213320.960000", "213321.420000", "213321.880000", "213322.340000", "213322.800000", "213323.260000", "213323.720000", "213324.180000", "213324.640000", "213325.100000", "213325.560000", "213326.020000", "213326.480000", "213326.940000", "213327.400000", "213327.860000", "213328.320000", "213328.780000", "213329.240000", "213329.700000", "213330.160000", "213330.620000", "213331.080000", "213331.540000", "213332.000000", "213332.460000", "213332.920000", "213333.380000", "213333.840000", "213334.300000", "213334.760000"],
