{
  "AcquisitionMatrixPE": 82,
  "AcquisitionNumber": 1,
  "AcquisitionTime": "21:51:48.082500",
  "BandwidthPerPixelPhaseEncode": 24.888,
  "BaseResolution": 82,
  "BodyPartExamined": "BRAIN",
  "ConsistencyInfo": "N4_VE11E_LATEST_20181129",
  "ConversionSoftware": "dcm2niix",
  "ConversionSoftwareVersion": "v1.0.20201102",
  "DerivedVendorReportedEchoSpacing": 0.00049,
  "DeviceSerialNumber": "66112",
  "DwellTime": 2e-06,
  "EchoTime": 0.0272,
  "EchoTrainLength": 82,
  "EffectiveEchoSpacing": 0.00049,
  "FlipAngle": 44,
  "ImageComments": "Unaliased MB8/PE3",
  "ImageOrientationPatientDICOM": [0.998715, -0.0494145, -0.0112207, 0.0500685, 0.9964, 0.0684064],
  "ImageType": [
    "ORIGINAL",
    "PRIMARY",
    "M",
    "MB",
    "ND",
    "NORM",
    "MOSAIC"
],
  "ImagingFrequency": 123.259,
  "InPlanePhaseEncodingDirectionDICOM": "COL",
  "InstitutionAddress": "Maynard 3,Hanover,NH,US,03755",
  "InstitutionName": "Dartmouth College - PBS",
  "InstitutionalDepartmentName": "Department",
  "MRAcquisitionType": "2D",
  "MagneticFieldStrength": 3,
  "Manufacturer": "Siemens",
  "ManufacturersModelName": "Prisma",
  "Modality": "MR",
  "MultibandAccelerationFactor": 8,
  "PartialFourier": 1,
  "PatientPosition": "HFS",
  "PercentPhaseFOV": 100,
  "PercentSampling": 100,
  "PhaseEncodingDirection": "j-",
  "PhaseEncodingSteps": 82,
  "PhaseResolution": 1,
  "PixelBandwidth": 3050,
  "ProcedureStepDescription": "Wager_Wager^1076_spacetop",
  "ProtocolName": "func_run-01_task-alignvideo_acq-ap-mb8",
  "PulseSequenceDetails": "%CustomerSeq%\\cmrr_mbep2d_bold",
  "ReceiveCoilActiveElements": "HEA;HEP",
  "ReceiveCoilName": "Head_32",
  "ReconMatrixPE": 82,
  "RepetitionTime": 0.46,
  "SAR": 0.0945997,
  "ScanOptions": "FS",
  "ScanningSequence": "EP",
  "SequenceName": "epfid2d1_82",
  "SequenceVariant": "SK\\SS",
  "SeriesDescription": "func_run-01_task-alignvideo_acq-ap-mb8",
  "SeriesNumber": 32,
  "ShimSetting": [4222, -7782, -7254, 322, -88, 16, -22, 87],
  "SliceThickness": 2.7,
  "SliceTiming": [0, 0.2525, 0.0625, 0.315, 0.125, 0.3775, 0.1875, 0, 0.2525, 0.0625, 0.315, 0.125, 0.3775, 0.1875, 0, 0.2525, 0.0625, 0.315, 0.125, 0.3775, 0.1875, 0, 0.2525, 0.0625, 0.315, 0.125, 0.3775, 0.1875, 0, 0.2525, 0.0625, 0.315, 0.125, 0.3775, 0.1875, 0, 0.2525, 0.0625, 0.315, 0.125, 0.3775, 0.1875, 0, 0.2525, 0.0625, 0.315, 0.125, 0.3775, 0.1875, 0, 0.2525, 0.0625, 0.315, 0.125, 0.3775, 0.1875],
  "SoftwareVersions": "syngo MR E11",
  "SpacingBetweenSlices": 2.7,
  "StationName": "AWP66112",
  "TaskName": "alignvideo",
  "TotalReadoutTime": 0.03969,
  "TxRefAmp": 241.594,
  "WipMemBlock": "071c2974-432c-4074-9a96-65aca83198ff||Sequence: R016 ve11e/master r/434b28f1; Aug  7 2019 18:53:46 by eja",
  "dcmmeta_affine": [
    [-2.6794803142547607, 0.134330153465271, -0.0210601557046175, 108.86589813232422],
    [0.13257548213005066, 2.673269271850586, 0.18597696721553802, -117.10435485839844],
    [-0.030104365199804306, -0.18352946639060974, 2.693504810333252, -75.15072631835938],
    [0.0, 0.0, 0.0, 1.0]
],
  "dcmmeta_reorient_transform": [
    [0.0, -1.0, 0.0, 81.0],
    [1.0, 0.0, 0.0, 0.0],
    [0.0, 0.0, 1.0, 0.0],
    [0.0, 0.0, 0.0, 1.0]
],
  "dcmmeta_shape": [82, 82, 56, 1073],
  "dcmmeta_slice_dim": 2,
  "dcmmeta_version": 0.6,
  "global": {
    "const": {
      "AccessionNumber": "A004464",
      "AcquisitionMatrix": [82, 0, 0, 82],
      "AngioFlag": "N",
      "BitsAllocated": 16,
      "BitsStored": 16,
      "BodyPartExamined": "BRAIN",
      "Columns": 656,
      "EchoNumbers": 1,
      "EchoTime": 27.2,
      "EchoTrainLength": 82,
      "FlipAngle": 44.0,
      "HighBit": 15,
      "ImageOrientationPatient": [0.9987153263708, -0.0494144954707, -0.0112207178669, 0.05006851273313, 0.99640037318519, 0.06840643499786],
      "ImagePositionPatient": [-927.31021394808, -828.60960998419, -134.04961330528],
      "ImageType": [
        "ORIGINAL",
        "PRIMARY",
        "M",
        "MB",
        "ND",
        "NORM",
        "MOSAIC"
],
      "ImagedNucleus": "1H",
      "ImagingFrequency": 123.259119,
      "InPlanePhaseEncodingDirection": "COL",
      "MRAcquisitionType": "2D",
      "MagneticFieldStrength": 3.0,
      "Manufacturer": "SIEMENS",
      "ManufacturerModelName": "Prisma",
      "Modality": "MR",
      "NumberOfAverages": 1.0,
      "NumberOfPhaseEncodingSteps": 82,
      "PercentPhaseFieldOfView": 100.0,
      "PercentSampling": 100.0,
      "PerformedProcedureStepStartTime": "202635.875000",
      "PhotometricInterpretation": "MONOCHROME2",
      "PixelBandwidth": 3050.0,
      "PixelRepresentation": 0,
      "PixelSpacing": [2.6829268932343, 2.6829268932343],
      "ProtocolName": "func_run-01_task-alignvideo_acq-ap-mb8",
      "RepetitionTime": 460.0,
      "Rows": 656,
      "SAR": 0.09459972837844,
      "SamplesPerPixel": 1,
      "ScanOptions": "FS",
      "ScanningSequence": "EP",
      "SequenceName": "epfid2d1_82",
      "SequenceVariant": [
        "SK",
        "SS"
],
      "SeriesDescription": "func_run-01_task-alignvideo_acq-ap-mb8",
      "SeriesNumber": 32,
      "SeriesTime": "215213.998000",
      "SliceLocation": -83.885293595273,
      "SliceThickness": 2.7000000476837,
      "SmallestImagePixelValue": 0,
      "SoftwareVersions": "syngo MR E11",
      "SpacingBetweenSlices": 2.6999999158055,
      "SpecificCharacterSet": "ISO_IR 100",
      "StudyID": "1",
      "StudyTime": "202635.813000",
      "TransmitCoilName": "Body",
      "VariableFlipAngleFlag": "N",
      "WindowCenterWidthExplanation": "Algo1"
    },
    "slices": {}
  },
  "time": {
    "samples": {
      "AcquisitionNumber": [1, 2, 3, 4, 5, 6, 7, 8, 9, 10, 11, 12, 13, 14, 15, 16, 17, 18, 19, 20, 21, 22, 23, 24, 25, 26, 27, 28, 29, 30, 31, 32, 33, 34, 35, 36, 37, 38, 39, 40, 41, 42, 43, 44, 45, 46, 47, 48, 49, 50, 51, 52, 53, 54, 55, 56, 57, 58, 59, 60, 61, 62, 63, 64, 65, 66, 67, 68, 69, 70, 71, 72, 73, 74, 75, 76, 77, 78, 79, 80, 81, 82, 83, 84, 85, 86, 87, 88, 89, 90, 91, 92, 93, 94, 95, 96, 97, 98, 99, 100, 101, 102, 103, 104, 105, 106, 107, 108, 109, 110, 111, 112, 113, 114, 115, 116, 117, 118, 119, 120, 121, 122, 123, 124, 125, 126, 127, 128, 129, 130, 131, 132, 133, 134, 135, 136, 137, 138, 139, 140, 141, 142, 143, 144, 145, 146, 147, 148, 149, 150, 151, 152, 153, 154, 155, 156, 157, 158, 159, 160, 161, 162, 163, 164, 165, 166, 167, 168, 169, 170, 171, 172, 173, 174, 175, 176, 177, 178, 179, 180, 181, 182, 183, 184, 185, 186, 187, 188, 189, 190, 191, 192, 193, 194, 195, 196, 197, 198, 199, 200, 201, 202, 203, 204, 205, 206, 207, 208, 209, 210, 211, 212, 213, 214, 215, 216, 217, 218, 219, 220, 221, 222, 223, 224, 225, 226, 227, 228, 229, 230, 231, 232, 233, 234, 235, 236, 237, 238, 239, 240, 241, 242, 243, 244, 245, 246, 247, 248, 249, 250, 251, 252, 253, 254, 255, 256, 257, 258, 259, 260, 261, 262, 263, 264, 265, 266, 267, 268, 269, 270, 271, 272, 273, 274, 275, 276, 277, 278, 279, 280, 281, 282, 283, 284, 285, 286, 287, 288, 289, 290, 291, 292, 293, 294, 295, 296, 297, 298, 299, 300, 301, 302, 303, 304, 305, 306, 307, 308, 309, 310, 311, 312, 313, 314, 315, 316, 317, 318, 319, 320, 321, 322, 323, 324, 325, 326, 327, 328, 329, 330, 331, 332, 333, 334, 335, 336, 337, 338, 339, 340, 341, 342, 343, 344, 345, 346, 347, 348, 349, 350, 351, 352, 353, 354, 355, 356, 357, 358, 359, 360, 361, 362, 363, 364, 365, 366, 367, 368, 369, 370, 371, 372, 373, 374, 375, 376, 377, 378, 379, 380, 381, 382, 383, 384, 385, 386, 387, 388, 389, 390, 391, 392, 393, 394, 395, 396, 397, 398, 399, 400, 401, 402, 403, 404, 405, 406, 407, 408, 409, 410, 411, 412, 413, 414, 415, 416, 417, 418, 419, 420, 421, 422, 423, 424, 425, 426, 427, 428, 429, 430, 431, 432, 433, 434, 435, 436, 437, 438, 439, 440, 441, 442, 443, 444, 445, 446, 447, 448, 449, 450, 451, 452, 453, 454, 455, 456, 457, 458, 459, 460, 461, 462, 463, 464, 465, 466, 467, 468, 469, 470, 471, 472, 473, 474, 475, 476, 477, 478, 479, 480, 481, 482, 483, 484, 485, 486, 487, 488, 489, 490, 491, 492, 493, 494, 495, 496, 497, 498, 499, 500, 501, 502, 503, 504, 505, 506, 507, 508, 509, 510, 511, 512, 513, 514, 515, 516, 517, 518, 519, 520, 521, 522, 523, 524, 525, 526, 527, 528, 529, 530, 531, 532, 533, 534, 535, 536, 537, 538, 539, 540, 541, 542, 543, 544, 545, 546, 547, 548, 549, 550, 551, 552, 553, 554, 555, 556, 557, 558, 559, 560, 561, 562, 563, 564, 565, 566, 567, 568, 569, 570, 571, 572, 573, 574, 575, 576, 577, 578, 579, 580, 581, 582, 583, 584, 585, 586, 587, 588, 589, 590, 591, 592, 593, 594, 595, 596, 597, 598, 599, 600, 601, 602, 603, 604, 605, 606, 607, 608, 609, 610, 611, 612, 613, 614, 615, 616, 617, 618, 619, 620, 621, 622, 623, 624, 625, 626, 627, 628, 629, 630, 631, 632, 633, 634, 635, 636, 637, 638, 639, 640, 641, 642, 643, 644, 645, 646, 647, 648, 649, 650, 651, 652, 653, 654, 655, 656, 657, 658, 659, 660, 661, 662, 663, 664, 665, 666, 667, 668, 669, 670, 671, 672, 673, 674, 675, 676, 677, 678, 679, 680, 681, 682, 683, 684, 685, 686, 687, 688, 689, 690, 691, 692, 693, 694, 695, 696, 697, 698, 699, 700, 701, 702, 703, 704, 705, 706, 707, 708, 709, 710, 711, 712, 713, 714, 715, 716, 717, 718, 719, 720, 721, 722, 723, 724, 725, 726, 727, 728, 729, 730, 731, 732, 733, 734, 735, 736, 737, 738, 739, 740, 741, 742, 743, 744, 745, 746, 747, 748, 749, 750, 751, 752, 753, 754, 755, 756, 757, 758, 759, 760, 761, 762, 763, 764, 765, 766, 767, 768, 769, 770, 771, 772, 773, 774, 775, 776, 777, 778, 779, 780, 781, 782, 783, 784, 785, 786, 787, 788, 789, 790, 791, 792, 793, 794, 795, 796, 797, 798, 799, 800, 801, 802, 803, 804, 805, 806, 807, 808, 809, 810, 811, 812, 813, 814, 815, 816, 817, 818, 819, 820, 821, 822, 823, 824, 825, 826, 827, 828, 829, 830, 831, 832, 833, 834, 835, 836, 837, 838, 839, 840, 841, 842, 843, 844, 845, 846, 847, 848, 849, 850, 851, 852, 853, 854, 855, 856, 857, 858, 859, 860, 861, 862, 863, 864, 865, 866, 867, 868, 869, 870, 871, 872, 873, 874, 875, 876, 877, 878, 879, 880, 881, 882, 883, 884, 885, 886, 887, 888, 889, 890, 891, 892, 893, 894, 895, 896, 897, 898, 899, 900, 901, 902, 903, 904, 905, 906, 907, 908, 909, 910, 911, 912, 913, 914, 915, 916, 917, 918, 919, 920, 921, 922, 923, 924, 925, 926, 927, 928, 929, 930, 931, 932, 933, 934, 935, 936, 937, 938, 939, 940, 941, 942, 943, 944, 945, 946, 947, 948, 949, 950, 951, 952, 953, 954, 955, 956, 957, 958, 959, 960, 961, 962, 963, 964, 965, 966, 967, 968, 969, 970, 971, 972, 973, 974, 975, 976, 977, 978, 979, 980, 981, 982, 983, 984, 985, 986, 987, 988, 989, 990, 991, 992, 993, 994, 995, 996, 997, 998, 999, 1000, 1001, 1002, 1003, 1004, 1005, 1006, 1007, 1008, 1009, 1010, 1011, 1012, 1013, 1014, 1015, 1016, 1017, 1018, 1019, 1020, 1021, 1022, 1023, 1024, 1025, 1026, 1027, 1028, 1029, 1030, 1031, 1032, 1033, 1034, 1035, 1036, 1037, 1038, 1039, 1040, 1041, 1042, 1043, 1044, 1045, 1046, 1047, 1048, 1049, 1050, 1051, 1052, 1053, 1054, 1055, 1056, 1057, 1058, 1059, 1060, 1061, 1062, 1063, 1064, 1065, 1066, 1067, 1068, 1069, 1070, 1071, 1072, 1073],
      "AcquisitionTime": ["215148.082500", "215148.542500", "215149.002500", "215149.462500", "215149.922500", "215150.382500", "215150.842500", "215151.302500", "215151.762500", "215152.222500", "215152.682500", "215153.142500", "215153.602500", "215154.062500", "215154.522500", "215154.982500", "215155.442500", "215155.902500", "215156.362500", "215156.822500", "215157.282500", "215157.742500", "215158.202500", "215158.662500", "215159.122500", "215159.582500", "215200.042500", "215200.502500", "215200.962500", "215201.422500", "215201.882500", "215202.342500", "215202.802500", "215203.262500", "215203.722500", "215204.182500", "215204.642500", "215205.102500", "215205.562500", "215206.022500", "215206.482500", "215206.942500", "215207.402500", "215207.862500", "215208.322500", "215208.782500", "215209.242500", "215209.702500", "215210.162500", "215210.622500", "215211.082500", "215211.542500", "215212.002500", "215212.462500", "215212.922500", "215213.382500", "215213.842500", "215214.302500", "215214.762500", "215215.222500", "215215.682500", "215216.142500", "215216.602500", "215217.062500", "215217.522500", "215217.982500", "215218.442500", "215218.902500", "215219.362500", "215219.822500", "215220.282500", "215220.742500", "215221.202500", "215221.662500", "215222.122500", "215222.582500", "215223.042500", "215223.502500", "215223.962500", "215224.422500", "215224.882500", "215225.342500", "215225.802500", "215226.262500", "215226.722500", "215227.182500", "215227.642500", "215228.102500", "215228.562500", "215229.022500", "215229.482500", "215229.942500", "215230.402500", "215230.862500", "215231.322500", "215231.782500", "215232.242500", "215232.702500", "215233.162500", "215233.622500", "215234.082500", "215234.542500", "215235.002500", "215235.462500", "215235.922500", "215236.382500", "215236.842500", "215237.302500", "215237.762500", "215238.222500", "215238.682500", "215239.142500", "215239.602500", "215240.062500", "215240.522500", "215240.982500", "215241.442500", "215241.902500", "215242.362500", "215242.822500", "215243.282500", "215243.742500", "215244.202500", "215244.662500", "215245.122500", "215245.582500", "215246.042500", "215246.502500", "215246.962500", "215247.422500", "215247.882500", "215248.342500", "215248.802500", "215249.262500", "215249.722500", "215250.182500", "215250.642500", "215251.102500", "215251.562500", "215252.022500", "215252.482500", "215252.942500", "215253.402500", "215253.862500", "215254.322500", "215254.782500", "215255.242500", "215255.702500", "215256.162500", "215256.622500", "215257.082500", "215257.542500", "215258.002500", "215258.462500", "215258.922500", "215259.382500", "215259.842500", "215300.302500", "215300.762500", "215301.222500", "215301.682500", "215302.142500", "215302.602500", "215303.062500", "215303.522500", "215303.982500", "215304.442500", "215304.902500", "215305.362500", "215305.822500", "215306.282500", "215306.742500", "215307.202500", "215307.662500", "215308.122500", "215308.582500", "215309.042500", "215309.502500", "215309.962500", "215310.422500", "215310.882500", "215311.342500", "215311.802500", "215312.262500", "215312.722500", "215313.182500", "215313.642500", "215314.102500", "215314.562500", "215315.022500", "215315.482500", "215315.942500", "215316.402500", "215316.862500", "215317.322500", "215317.782500", "215318.242500", "215318.702500", "215319.162500", "215319.622500", "215320.082500", "215320.542500", "215321.002500", "215321.462500", "215321.922500", "215322.382500", "215322.842500", "215323.302500", "215323.762500", "215324.222500", "215324.682500", "215325.142500", "215325.602500", "215326.062500", "215326.522500", "215326.982500", "215327.442500", "215327.902500", "215328.362500", "215328.822500", "215329.282500", "215329.742500", "215330.202500", "215330.662500", "215331.122500", "215331.582500", "215332.042500", "215332.502500", "215332.962500", "215333.422500", "215333.882500", "215334.342500", "215334.802500", "215335.262500", "215335.722500", "215336.182500", "215336.642500", "215337.102500", "215337.562500", "215338.022500", "215338.482500", "215338.942500", "215339.402500", "215339.862500", "215340.322500", "215340.782500", "215341.242500", "215341.702500", "215342.162500", "215342.622500", "215343.082500", "215343.542500", "215344.002500", "215344.462500", "215344.922500", "215345.382500", "215345.842500", "215346.302500", "215346.762500", "215347.222500", "215347.682500", "215348.142500", "215348.602500", "215349.062500", "215349.522500", "215349.982500", "215350.442500", "215350.902500", "215351.362500", "215351.822500", "215352.282500", "215352.742500", "215353.202500", "215353.662500", "215354.122500", "215354.582500", "215355.042500", "215355.502500", "215355.962500", "215356.422500", "215356.882500", "215357.342500", "215357.802500", "215358.262500", "215358.722500", "215359.182500", "215359.642500", "215400.102500", "215400.562500", "215401.022500", "215401.482500", "215401.942500", "215402.402500", "215402.862500", "215403.322500", "215403.782500", "215404.242500", "215404.702500", "215405.162500", "215405.622500", "215406.082500", "215406.542500", "215407.002500", "215407.462500", "215407.922500", "215408.382500", "215408.842500", "215409.302500", "215409.762500", "215410.222500", "215410.682500", "215411.142500", "215411.602500", "215412.062500", "215412.522500", "215412.982500", "215413.442500", "215413.902500", "215414.362500", "215414.822500", "215415.282500", "215415.742500", "215416.202500", "215416.662500", "215417.122500", "215417.582500", "215418.042500", "215418.502500", "215418.962500", "215419.422500", "215419.882500", "215420.342500", "215420.802500", "215421.262500", "215421.722500", "215422.182500", "215422.642500", "215423.102500", "215423.562500", "215424.022500", "215424.482500", "215424.942500", "215425.402500", "215425.862500", "215426.322500", "215426.782500", "215427.242500", "215427.702500", "215428.162500", "215428.622500", "215429.082500", "215429.542500", "215430.002500", "215430.462500", "215430.922500", "215431.382500", "215431.842500", "215432.302500", "215432.762500", "215433.222500", "215433.682500", "215434.142500", "215434.602500", "215435.062500", "215435.522500", "215435.982500", "215436.442500", "215436.902500", "215437.362500", "215437.822500", "215438.282500", "215438.742500", "215439.202500", "215439.662500", "215440.122500", "215440.582500", "215441.042500", "215441.502500", "215441.962500", "215442.422500", "215442.882500", "215443.342500", "215443.802500", "215444.262500", "215444.722500", "215445.182500", "215445.642500", "215446.102500", "215446.562500", "215447.022500", "215447.482500", "215447.942500", "215448.402500", "215448.862500", "215449.322500", "215449.782500", "215450.242500", "215450.702500", "215451.162500", "215451.622500", "215452.082500", "215452.542500", "215453.002500", "215453.462500", "215453.922500", "215454.382500", "215454.842500", "215455.302500", "215455.762500", "215456.222500", "215456.682500", "215457.142500", "215457.602500", "215458.062500", "215458.522500", "215458.982500", "215459.442500", "215459.902500", "215500.362500", "215500.822500", "215501.282500", "215501.742500", "215502.202500", "215502.662500", "215503.122500", "215503.582500", "215504.042500", "215504.502500", "215504.962500", "215505.422500", "215505.882500", "215506.342500", "215506.802500", "215507.262500", "215507.722500", "215508.182500", "215508.642500", "215509.102500", "215509.562500", "215510.022500", "215510.482500", "215510.942500", "215511.402500", "215511.862500", "215512.322500", "215512.782500", "215513.242500", "215513.702500", "215514.162500", "215514.622500", "215515.082500", "215515.542500", "215516.002500", "215516.462500", "215516.922500", "215517.382500", "215517.842500", "215518.302500", "215518.762500", "215519.222500", "215519.682500", "215520.142500", "215520.602500", "215521.062500", "215521.522500", "215521.982500", "215522.442500", "215522.902500", "215523.362500", "215523.822500", "215524.282500", "215524.742500", "215525.202500", "215525.662500", "215526.122500", "215526.582500", "215527.042500", "215527.502500", "215527.962500", "215528.422500", "215528.882500", "215529.342500", "215529.802500", "215530.262500", "215530.722500", "215531.182500", "215531.642500", "215532.102500", "215532.562500", "215533.022500", "215533.482500", "215533.942500", "215534.402500", "215534.862500", "215535.322500", "215535.782500", "215536.242500", "215536.702500", "215537.162500", "215537.622500", "215538.082500", "215538.542500", "215539.002500", "215539.462500", "215539.922500", "215540.382500", "215540.842500", "215541.302500", "215541.762500", "215542.222500", "215542.682500", "215543.142500", "215543.602500", "215544.062500", "215544.522500", "215544.982500", "215545.442500", "215545.902500", "215546.362500", "215546.822500", "215547.282500", "215547.742500", "215548.202500", "215548.662500", "215549.122500", "215549.582500", "215550.042500", "215550.502500", "215550.962500", "215551.422500", "215551.882500", "215552.342500", "215552.802500", "215553.262500", "215553.722500", "215554.182500", "215554.642500", "215555.102500", "215555.562500", "215556.022500", "215556.482500", "215556.942500", "215557.402500", "215557.862500", "215558.322500", "215558.782500", "215559.242500", "215559.702500", "215600.162500", "215600.622500", "215601.082500", "215601.542500", "215602.002500", "215602.462500", "215602.922500", "215603.382500", "215603.842500", "215604.302500", "215604.762500", "215605.222500", "215605.682500", "215606.142500", "215606.602500", "215607.062500", "215607.522500", "215607.982500", "215608.442500", "215608.902500", "215609.362500", "215609.822500", "215610.282500", "215610.742500", "215611.202500", "215611.662500", "215612.122500", "215612.582500", "215613.042500", "215613.502500", "215613.962500", "215614.422500", "215614.882500", "215615.342500", "215615.802500", "215616.262500", "215616.722500", "215617.182500", "215617.642500", "215618.102500", "215618.562500", "215619.022500", "215619.482500", "215619.942500", "215620.402500", "215620.862500", "215621.322500", "215621.782500", "215622.242500", "215622.702500", "215623.162500", "215623.622500", "215624.082500", "215624.542500", "215625.002500", "215625.462500", "215625.922500", "215626.382500", "215626.842500", "215627.302500", "215627.762500", "215628.222500", "215628.682500", "215629.142500", "215629.602500", "215630.062500", "215630.522500", "215630.982500", "215631.442500", "215631.902500", "215632.362500", "215632.822500", "215633.282500", "215633.742500", "215634.202500", "215634.662500", "215635.122500", "215635.582500", "215636.042500", "215636.502500", "215636.962500", "215637.422500", "215637.882500", "215638.342500", "215638.802500", "215639.262500", "215639.722500", "215640.182500", "215640.642500", "215641.102500", "215641.562500", "215642.022500", "215642.482500", "215642.942500", "215643.402500", "215643.862500", "215644.322500", "215644.782500", "215645.242500", "215645.702500", "215646.162500", "215646.622500", "215647.082500", "215647.542500", "215648.002500", "215648.462500", "215648.922500", "215649.382500", "215649.842500", "215650.302500", "215650.762500", "215651.222500", "215651.682500", "215652.142500", "215652.602500", "215653.062500", "215653.522500", "215653.982500", "215654.442500", "215654.902500", "215655.362500", "215655.822500", "215656.282500", "215656.742500", "215657.202500", "215657.662500", "215658.122500", "215658.582500", "215659.042500", "215659.502500", "215659.962500", "215700.422500", "215700.882500", "215701.342500", "215701.802500", "215702.262500", "215702.722500", "215703.182500", "215703.642500", "215704.102500", "215704.562500", "215705.022500", "215705.482500", "215705.942500", "215706.402500", "215706.862500", "215707.322500", "215707.782500", "215708.242500", "215708.702500", "215709.162500", "215709.622500", "215710.082500", "215710.542500", "215711.002500", "215711.462500", "215711.922500", "215712.382500", "215712.842500", "215713.302500", "215713.762500", "215714.222500", "215714.682500", "215715.142500", "215715.602500", "215716.062500", "215716.522500", "215716.982500", "215717.442500", "215717.902500", "215718.362500", "215718.822500", "215719.282500", "215719.742500", "215720.202500", "215720.662500", "215721.122500", "215721.582500", "215722.042500", "215722.502500", "215722.962500", "215723.422500", "215723.882500", "215724.342500", "215724.802500", "215725.262500", "215725.722500", "215726.182500", "215726.642500", "215727.102500", "215727.562500", "215728.022500", "215728.482500", "215728.942500", "215729.402500", "215729.862500", "215730.322500", "215730.782500", "215731.242500", "215731.702500", "215732.162500", "215732.622500", "215733.082500", "215733.542500", "215734.002500", "215734.462500", "215734.922500", "215735.382500", "215735.842500", "215736.302500", "215736.762500", "215737.222500", "215737.682500", "215738.142500", "215738.602500", "215739.062500", "215739.522500", "215739.982500", "215740.442500", "215740.902500", "215741.362500", "215741.822500", "215742.282500", "215742.742500", "215743.202500", "215743.662500", "215744.122500", "215744.582500", "215745.042500", "215745.502500", "215745.962500", "215746.422500", "215746.882500", "215747.342500", "215747.802500", "215748.262500", "215748.722500", "215749.182500", "215749.642500", "215750.102500", "215750.562500", "215751.022500", "215751.482500", "215751.942500", "215752.402500", "215752.862500", "215753.322500", "215753.782500", "215754.242500", "215754.702500", "215755.162500", "215755.622500", "215756.082500", "215756.542500", "215757.002500", "215757.462500", "215757.922500", "215758.382500", "215758.842500", "215759.302500", "215759.762500", "215800.222500", "215800.682500", "215801.142500", "215801.602500", "215802.062500", "215802.522500", "215802.982500", "215803.442500", "215803.902500", "215804.362500", "215804.822500", "215805.282500", "215805.742500", "215806.202500", "215806.662500", "215807.122500", "215807.582500", "215808.042500", "215808.502500", "215808.962500", "215809.422500", "215809.882500", "215810.342500", "215810.802500", "215811.262500", "215811.722500", "215812.182500", "215812.642500", "215813.102500", "215813.562500", "215814.022500", "215814.482500", "215814.942500", "215815.402500", "215815.862500", "215816.322500", "215816.782500", "215817.242500", "215817.702500", "215818.162500", "215818.622500", "215819.082500", "215819.542500", "215820.002500", "215820.462500", "215820.922500", "215821.382500", "215821.842500", "215822.302500", "215822.762500", "215823.222500", "215823.682500", "215824.142500", "215824.602500", "215825.062500", "215825.522500", "215825.982500", "215826.442500", "215826.902500", "215827.362500", "215827.822500", "215828.282500", "215828.742500", "215829.202500", "215829.662500", "215830.122500", "215830.582500", "215831.042500", "215831.502500", "215831.962500", "215832.422500", "215832.882500", "215833.342500", "215833.802500", "215834.262500", "215834.722500", "215835.182500", "215835.642500", "215836.102500", "215836.562500", "215837.022500", "215837.482500", "215837.942500", "215838.402500", "215838.862500", "215839.322500", "215839.782500", "215840.242500", "215840.702500", "215841.162500", "215841.622500", "215842.082500", "215842.542500", "215843.002500", "215843.462500", "215843.922500", "215844.382500", "215844.842500", "215845.302500", "215845.762500", "215846.222500", "215846.682500", "215847.142500", "215847.602500", "215848.062500", "215848.522500", "215848.982500", "215849.442500", "215849.902500", "215850.362500", "215850.822500", "215851.282500", "215851.742500", "215852.202500", "215852.662500", "215853.122500", "215853.582500", "215854.042500", "215854.502500", "215854.962500", "215855.422500", "215855.882500", "215856.342500", "215856.802500", "215857.262500", "215857.722500", "215858.182500", "215858.642500", "215859.102500", "215859.562500", "215900.022500", "215900.482500", "215900.942500", "215901.402500", "215901.862500", "215902.322500", "215902.782500", "215903.242500", "215903.702500", "215904.162500", "215904.622500", "215905.082500", "215905.542500", "215906.002500", "215906.462500", "215906.922500", "215907.382500", "215907.842500", "215908.302500", "215908.762500", "215909.222500", "215909.682500", "215910.142500", "215910.602500", "215911.062500", "215911.522500", "215911.982500", "215912.442500", "215912.902500", "215913.362500", "215913.822500", "215914.282500", "215914.742500", "215915.202500", "215915.662500", "215916.122500", "215916.582500", "215917.042500", "215917.502500", "215917.962500", "215918.422500", "215918.882500", "215919.342500", "215919.802500", "215920.262500", "215920.722500", "215921.182500", "215921.642500", "215922.102500", "215922.562500", "215923.022500", "215923.482500", "215923.942500", "215924.402500", "215924.862500", "215925.322500", "215925.782500", "215926.242500", "215926.702500", "215927.162500", "215927.622500", "215928.082500", "215928.542500", "215929.002500", "215929.462500", "215929.922500", "215930.382500", "215930.842500", "215931.302500", "215931.762500", "215932.222500", "215932.682500", "215933.142500", "215933.602500", "215934.062500", "215934.522500", "215934.982500", "215935.442500", "215935.902500", "215936.362500", "215936.822500", "215937.282500", "215937.742500", "215938.202500", "215938.662500", "215939.122500", "215939.582500", "215940.042500", "215940.502500", "215940.962500", "215941.422500", "215941.882500", "215942.342500", "215942.802500", "215943.262500", "215943.722500", "215944.182500", "215944.642500", "215945.102500", "215945.562500", "215946.022500", "215946.482500", "215946.942500", "215947.402500", "215947.862500", "215948.322500", "215948.782500", "215949.242500", "215949.702500", "215950.162500", "215950.622500", "215951.082500", "215951.542500", "215952.002500", "215952.462500", "215952.922500", "215953.382500", "215953.842500", "215954.302500", "215954.762500", "215955.222500", "215955.682500", "215956.142500", "215956.602500", "215957.062500", "215957.522500", "215957.982500", "215958.442500", "215958.902500", "215959.362500", "215959.822500", "220000.282500", "220000.742500", "220001.202500"],
