{
  "AcquisitionMatrixPE": 82,
  "AcquisitionNumber": 1,
  "AcquisitionTime": "14:20:29.970000",
  "BandwidthPerPixelPhaseEncode": 24.888,
  "BaseResolution": 82,
  "BodyPartExamined": "BRAIN",
  "ConsistencyInfo": "N4_VE11C_LATEST_20160120",
  "ConversionSoftware": "dcm2niix",
  "ConversionSoftwareVersion": "v1.0.20201102",
  "DerivedVendorReportedEchoSpacing": 0.00049,
  "DeviceSerialNumber": "66112",
  "DwellTime": 2e-06,
  "EchoTime": 0.0272,
  "EchoTrainLength": 82,
  "EffectiveEchoSpacing": 0.00049,
  "FlipAngle": 44,
  "ImageComments": "Unaliased MB8/PE3",
  "ImageOrientationPatientDICOM": [0.99226, -0.0770426, 0.0973919, 0.0739117, 0.996638, 0.0353616],
  "ImageType": [
    "ORIGINAL",
    "PRIMARY",
    "M",
    "MB",
    "ND",
    "NORM",
    "MOSAIC"
],
  "ImagingFrequency": 123.252,
  "InPlanePhaseEncodingDirectionDICOM": "COL",
  "InstitutionAddress": "Maynard 3,Hanover,NH,US,03755",
  "InstitutionName": "Dartmouth College - PBS",
  "InstitutionalDepartmentName": "Department",
  "MRAcquisitionType": "2D",
  "MagneticFieldStrength": 3,
  "Manufacturer": "Siemens",
  "ManufacturersModelName": "Prisma",
  "Modality": "MR",
  "MultibandAccelerationFactor": 8,
  "PartialFourier": 1,
  "PatientPosition": "HFS",
  "PercentPhaseFOV": 100,
  "PercentSampling": 100,
  "PhaseEncodingDirection": "j-",
  "PhaseEncodingSteps": 82,
  "PhaseResolution": 1,
  "PixelBandwidth": 3050,
  "ProcedureStepDescription": "Wager_Wager^1076_spacetop",
  "ProtocolName": "func_run-03_task-faces_acq-ap-mb8",
  "PulseSequenceDetails": "%CustomerSeq%\\cmrr_mbep2d_bold",
  "ReceiveCoilActiveElements": "HEA;HEP",
  "ReceiveCoilName": "Head_32",
  "ReconMatrixPE": 82,
  "RepetitionTime": 0.46,
  "SAR": 0.0889986,
  "ScanOptions": "FS",
  "ScanningSequence": "EP",
  "SequenceName": "epfid2d1_82",
  "SequenceVariant": "SK\\SS",
  "SeriesDescription": "func_run-03_task-faces_acq-ap-mb8",
  "SeriesNumber": 14,
  "ShimSetting": [4146, -7736, -7196, 542, -148, -58, 111, 68],
  "SliceThickness": 2.7,
  "SliceTiming": [0, 0.25, 0.0625, 0.3125, 0.125, 0.375, 0.1875, 0, 0.25, 0.0625, 0.3125, 0.125, 0.375, 0.1875, 0, 0.25, 0.0625, 0.3125, 0.125, 0.375, 0.1875, 0, 0.25, 0.0625, 0.3125, 0.125, 0.375, 0.1875, 0, 0.25, 0.0625, 0.3125, 0.125, 0.375, 0.1875, 0, 0.25, 0.0625, 0.3125, 0.125, 0.375, 0.1875, 0, 0.25, 0.0625, 0.3125, 0.125, 0.375, 0.1875, 0, 0.25, 0.0625, 0.3125, 0.125, 0.375, 0.1875],
  "SoftwareVersions": "syngo MR E11",
  "SpacingBetweenSlices": 2.7,
  "StationName": "AWP66112",
  "TaskName": "faces",
  "TotalReadoutTime": 0.03969,
  "TxRefAmp": 251.143,
  "WipMemBlock": "31043349-481c-4927-a709-94bdb5001f9d||Sequence: R016 ve11c/master r/e634e98; Dec 19 2017 11:00:25 by eja",
  "dcmmeta_affine": [
    [-2.6621601581573486, 0.1982998102903366, 0.2694297432899475, 99.7263412475586],
    [0.20669971406459808, 2.673905849456787, 0.07530158013105392, -94.1766128540039],
    [0.2612953782081604, -0.09487256407737732, 2.6854677200317383, -45.40944290161133],
    [0.0, 0.0, 0.0, 1.0]
],
  "dcmmeta_reorient_transform": [
    [0.0, -1.0, 0.0, 81.0],
    [1.0, 0.0, 0.0, 0.0],
    [0.0, 0.0, 1.0, 0.0],
    [0.0, 0.0, 0.0, 1.0]
],
  "dcmmeta_shape": [82, 82, 56, 914],
  "dcmmeta_slice_dim": 2,
  "dcmmeta_version": 0.6,
  "global": {
    "const": {
      "AccessionNumber": "A003842",
      "AcquisitionMatrix": [82, 0, 0, 82],
      "AngioFlag": "N",
      "BitsAllocated": 16,
      "BitsStored": 16,
      "BodyPartExamined": "BRAIN",
      "Columns": 656,
      "EchoNumbers": 1,
      "EchoTime": 27.2,
      "EchoTrainLength": 82,
      "FlipAngle": 44.0,
      "HighBit": 15,
      "ImageOrientationPatient": [0.99225966879154, -0.0770426208753, 0.0973919106414, 0.07391174530606, 0.99663765319245, 0.035361591379],
      "ImagePositionPatient": [-936.74063311531, -830.49796215561, -155.31431838891],
      "ImageType": [
        "ORIGINAL",
        "PRIMARY",
        "M",
        "MB",
        "ND",
        "NORM",
        "MOSAIC"
],
      "ImagedNucleus": "1H",
      "ImagingFrequency": 123.252175,
      "InPlanePhaseEncodingDirection": "COL",
      "MRAcquisitionType": "2D",
      "MagneticFieldStrength": 3.0,
      "Manufacturer": "SIEMENS",
      "ManufacturerModelName": "Prisma",
      "Modality": "MR",
      "NumberOfAverages": 1.0,
      "NumberOfPhaseEncodingSteps": 82,
      "PercentPhaseFieldOfView": 100.0,
      "PercentSampling": 100.0,
      "PerformedProcedureStepStartTime": "134841.560000",
      "PhotometricInterpretation": "MONOCHROME2",
      "PixelBandwidth": 3050.0,
      "PixelRepresentation": 0,
      "PixelSpacing": [2.6829268932343, 2.6829268932343],
      "ProtocolName": "func_run-03_task-faces_acq-ap-mb8",
      "RepetitionTime": 460.0,
      "Rows": 656,
      "SAR": 0.08899859362939,
      "SamplesPerPixel": 1,
      "ScanOptions": "FS",
      "ScanningSequence": "EP",
      "SequenceName": "epfid2d1_82",
      "SequenceVariant": [
        "SK",
        "SS"
],
      "SeriesDescription": "func_run-03_task-faces_acq-ap-mb8",
      "SeriesNumber": 14,
      "SeriesTime": "142047.062000",
      "SliceLocation": -37.839999497269,
      "SliceThickness": 2.7000000476837,
      "SmallestImagePixelValue": 0,
      "SoftwareVersions": "syngo MR E11",
      "SpacingBetweenSlices": 2.7000000105161,
      "SpecificCharacterSet": "ISO_IR 100",
      "StudyID": "2",
      "StudyTime": "134841.450000",
      "TransmitCoilName": "Body",
      "VariableFlipAngleFlag": "N",
      "WindowCenterWidthExplanation": "Algo1",
      "dBdt": 0.0},
    "slices": {}
  },
  "time": {
    "samples": {
      "AcquisitionNumber": [1, 2, 3, 4, 5, 6, 7, 8, 9, 10, 11, 12, 13, 14, 15, 16, 17, 18, 19, 20, 21, 22, 23, 24, 25, 26, 27, 28, 29, 30, 31, 32, 33, 34, 35, 36, 37, 38, 39, 40, 41, 42, 43, 44, 45, 46, 47, 48, 49, 50, 51, 52, 53, 54, 55, 56, 57, 58, 59, 60, 61, 62, 63, 64, 65, 66, 67, 68, 69, 70, 71, 72, 73, 74, 75, 76, 77, 78, 79, 80, 81, 82, 83, 84, 85, 86, 87, 88, 89, 90, 91, 92, 93, 94, 95, 96, 97, 98, 99, 100, 101, 102, 103, 104, 105, 106, 107, 108, 109, 110, 111, 112, 113, 114, 115, 116, 117, 118, 119, 120, 121, 122, 123, 124, 125, 126, 127, 128, 129, 130, 131, 132, 133, 134, 135, 136, 137, 138, 139, 140, 141, 142, 143, 144, 145, 146, 147, 148, 149, 150, 151, 152, 153, 154, 155, 156, 157, 158, 159, 160, 161, 162, 163, 164, 165, 166, 167, 168, 169, 170, 171, 172, 173, 174, 175, 176, 177, 178, 179, 180, 181, 182, 183, 184, 185, 186, 187, 188, 189, 190, 191, 192, 193, 194, 195, 196, 197, 198, 199, 200, 201, 202, 203, 204, 205, 206, 207, 208, 209, 210, 211, 212, 213, 214, 215, 216, 217, 218, 219, 220, 221, 222, 223, 224, 225, 226, 227, 228, 229, 230, 231, 232, 233, 234, 235, 236, 237, 238, 239, 240, 241, 242, 243, 244, 245, 246, 247, 248, 249, 250, 251, 252, 253, 254, 255, 256, 257, 258, 259, 260, 261, 262, 263, 264, 265, 266, 267, 268, 269, 270, 271, 272, 273, 274, 275, 276, 277, 278, 279, 280, 281, 282, 283, 284, 285, 286, 287, 288, 289, 290, 291, 292, 293, 294, 295, 296, 297, 298, 299, 300, 301, 302, 303, 304, 305, 306, 307, 308, 309, 310, 311, 312, 313, 314, 315, 316, 317, 318, 319, 320, 321, 322, 323, 324, 325, 326, 327, 328, 329, 330, 331, 332, 333, 334, 335, 336, 337, 338, 339, 340, 341, 342, 343, 344, 345, 346, 347, 348, 349, 350, 351, 352, 353, 354, 355, 356, 357, 358, 359, 360, 361, 362, 363, 364, 365, 366, 367, 368, 369, 370, 371, 372, 373, 374, 375, 376, 377, 378, 379, 380, 381, 382, 383, 384, 385, 386, 387, 388, 389, 390, 391, 392, 393, 394, 395, 396, 397, 398, 399, 400, 401, 402, 403, 404, 405, 406, 407, 408, 409, 410, 411, 412, 413, 414, 415, 416, 417, 418, 419, 420, 421, 422, 423, 424, 425, 426, 427, 428, 429, 430, 431, 432, 433, 434, 435, 436, 437, 438, 439, 440, 441, 442, 443, 444, 445, 446, 447, 448, 449, 450, 451, 452, 453, 454, 455, 456, 457, 458, 459, 460, 461, 462, 463, 464, 465, 466, 467, 468, 469, 470, 471, 472, 473, 474, 475, 476, 477, 478, 479, 480, 481, 482, 483, 484, 485, 486, 487, 488, 489, 490, 491, 492, 493, 494, 495, 496, 497, 498, 499, 500, 501, 502, 503, 504, 505, 506, 507, 508, 509, 510, 511, 512, 513, 514, 515, 516, 517, 518, 519, 520, 521, 522, 523, 524, 525, 526, 527, 528, 529, 530, 531, 532, 533, 534, 535, 536, 537, 538, 539, 540, 541, 542, 543, 544, 545, 546, 547, 548, 549, 550, 551, 552, 553, 554, 555, 556, 557, 558, 559, 560, 561, 562, 563, 564, 565, 566, 567, 568, 569, 570, 571, 572, 573, 574, 575, 576, 577, 578, 579, 580, 581, 582, 583, 584, 585, 586, 587, 588, 589, 590, 591, 592, 593, 594, 595, 596, 597, 598, 599, 600, 601, 602, 603, 604, 605, 606, 607, 608, 609, 610, 611, 612, 613, 614, 615, 616, 617, 618, 619, 620, 621, 622, 623, 624, 625, 626, 627, 628, 629, 630, 631, 632, 633, 634, 635, 636, 637, 638, 639, 640, 641, 642, 643, 644, 645, 646, 647, 648, 649, 650, 651, 652, 653, 654, 655, 656, 657, 658, 659, 660, 661, 662, 663, 664, 665, 666, 667, 668, 669, 670, 671, 672, 673, 674, 675, 676, 677, 678, 679, 680, 681, 682, 683, 684, 685, 686, 687, 688, 689, 690, 691, 692, 693, 694, 695, 696, 697, 698, 699, 700, 701, 702, 703, 704, 705, 706, 707, 708, 709, 710, 711, 712, 713, 714, 715, 716, 717, 718, 719, 720, 721, 722, 723, 724, 725, 726, 727, 728, 729, 730, 731, 732, 733, 734, 735, 736, 737, 738, 739, 740, 741, 742, 743, 744, 745, 746, 747, 748, 749, 750, 751, 752, 753, 754, 755, 756, 757, 758, 759, 760, 761, 762, 763, 764, 765, 766, 767, 768, 769, 770, 771, 772, 773, 774, 775, 776, 777, 778, 779, 780, 781, 782, 783, 784, 785, 786, 787, 788, 789, 790, 791, 792, 793, 794, 795, 796, 797, 798, 799, 800, 801, 802, 803, 804, 805, 806, 807, 808, 809, 810, 811, 812, 813, 814, 815, 816, 817, 818, 819, 820, 821, 822, 823, 824, 825, 826, 827, 828, 829, 830, 831, 832, 833, 834, 835, 836, 837, 838, 839, 840, 841, 842, 843, 844, 845, 846, 847, 848, 849, 850, 851, 852, 853, 854, 855, 856, 857, 858, 859, 860, 861, 862, 863, 864, 865, 866, 867, 868, 869, 870, 871, 872, 873, 874, 875, 876, 877, 878, 879, 880, 881, 882, 883, 884, 885, 886, 887, 888, 889, 890, 891, 892, 893, 894, 895, 896, 897, 898, 899, 900, 901, 902, 903, 904, 905, 906, 907, 908, 909, 910, 911, 912, 913, 914],
      "AcquisitionTime": ["142029.970000", "142030.430000", "142030.890000", "142031.350000", "142031.810000", "142032.270000", "142032.730000", "142033.190000", "142033.650000", "142034.110000", "142034.570000", "142035.030000", "142035.490000", "142035.950000", "142036.410000", "142036.870000", "142037.330000", "142037.790000", "142038.250000", "142038.710000", "142039.170000", "142039.630000", "142040.090000", "142040.550000", "142041.010000", "142041.470000", "142041.930000", "142042.390000", "142042.850000", "142043.310000", "142043.770000", "142044.230000", "142044.690000", "142045.150000", "142045.610000", "142046.070000", "142046.530000", "142046.990000", "142047.450000", "142047.910000", "142048.370000", "142048.830000", "142049.290000", "142049.750000", "142050.210000", "142050.670000", "142051.130000", "142051.590000", "142052.050000", "142052.510000", "142052.970000", "142053.430000", "142053.890000", "142054.350000", "142054.810000", "142055.270000", "142055.730000", "142056.190000", "142056.650000", "142057.110000", "142057.570000", "142058.030000", "142058.490000", "142058.950000", "142059.410000", "142059.870000", "142100.330000", "142100.790000", "142101.250000", "142101.710000", "142102.170000", "142102.630000", "142103.090000", "142103.550000", "142104.010000", "142104.470000", "142104.930000", "142105.390000", "142105.850000", "142106.310000", "142106.770000", "142107.230000", "142107.690000", "142108.150000", "142108.610000", "142109.070000", "142109.530000", "142109.990000", "142110.450000", "142110.910000", "142111.370000", "142111.830000", "142112.290000", "142112.750000", "142113.210000", "142113.670000", "142114.130000", "142114.590000", "142115.050000", "142115.510000", "142115.970000", "142116.430000", "142116.890000", "142117.350000", "142117.810000", "142118.270000", "142118.730000", "142119.190000", "142119.650000", "142120.110000", "142120.570000", "142121.030000", "142121.490000", "142121.950000", "142122.410000", "142122.870000", "142123.330000", "142123.790000", "142124.250000", "142124.710000", "142125.170000", "142125.630000", "142126.090000", "142126.550000", "142127.010000", "142127.470000", "142127.930000", "142128.390000", "142128.850000", "142129.310000", "142129.770000", "142130.230000", "142130.690000", "142131.150000", "142131.610000", "142132.070000", "142132.530000", "142132.990000", "142133.450000", "142133.910000", "142134.370000", "142134.830000", "142135.290000", "142135.750000", "142136.210000", "142136.670000", "142137.130000", "142137.590000", "142138.050000", "142138.510000", "142138.970000", "142139.430000", "142139.890000", "142140.350000", "142140.810000", "142141.270000", "142141.730000", "142142.190000", "142142.650000", "142143.110000", "142143.570000", "142144.030000", "142144.490000", "142144.950000", "142145.410000", "142145.870000", "142146.330000", "142146.790000", "142147.250000", "142147.710000", "142148.170000", "142148.630000", "142149.090000", "142149.550000", "142150.010000", "142150.470000", "142150.930000", "142151.390000", "142151.850000", "142152.310000", "142152.770000", "142153.230000", "142153.690000", "142154.150000", "142154.610000", "142155.070000", "142155.530000", "142155.990000", "142156.450000", "142156.910000", "142157.370000", "142157.830000", "142158.290000", "142158.750000", "142159.210000", "142159.670000", "142200.130000", "142200.590000", "142201.050000", "142201.510000", "142201.970000", "142202.430000", "142202.890000", "142203.350000", "142203.810000", "142204.270000", "142204.730000", "142205.190000", "142205.650000", "142206.110000", "142206.570000", "142207.030000", "142207.490000", "142207.950000", "142208.410000", "142208.870000", "142209.330000", "142209.790000", "142210.250000", "142210.710000", "142211.170000", "142211.630000", "142212.090000", "142212.550000", "142213.010000", "142213.470000", "142213.930000", "142214.390000", "142214.850000", "142215.310000", "142215.770000", "142216.230000", "142216.690000", "142217.150000", "142217.610000", "142218.070000", "142218.530000", "142218.990000", "142219.450000", "142219.910000", "142220.370000", "142220.830000", "142221.290000", "142221.750000", "142222.210000", "142222.670000", "142223.130000", "142223.590000", "142224.050000", "142224.510000", "142224.970000", "142225.430000", "142225.890000", "142226.350000", "142226.810000", "142227.270000", "142227.730000", "142228.190000", "142228.650000", "142229.110000", "142229.570000", "142230.030000", "142230.490000", "142230.950000", "142231.410000", "142231.870000", "142232.330000", "142232.790000", "142233.250000", "142233.710000", "142234.170000", "142234.630000", "142235.090000", "142235.550000", "142236.010000", "142236.470000", "142236.930000", "142237.390000", "142237.850000", "142238.310000", "142238.770000", "142239.230000", "142239.690000", "142240.150000", "142240.610000", "142241.070000", "142241.530000", "142241.990000", "142242.450000", "142242.910000", "142243.370000", "142243.830000", "142244.290000", "142244.750000", "142245.210000", "142245.670000", "142246.130000", "142246.590000", "142247.050000", "142247.510000", "142247.970000", "142248.430000", "142248.890000", "142249.350000", "142249.810000", "142250.270000", "142250.730000", "142251.190000", "142251.650000", "142252.110000", "142252.570000", "142253.030000", "142253.490000", "142253.950000", "142254.410000", "142254.870000", "142255.330000", "142255.790000", "142256.250000", "142256.710000", "142257.170000", "142257.630000", "142258.090000", "142258.550000", "142259.010000", "142259.470000", "142259.930000", "142300.390000", "142300.850000", "142301.310000", "142301.770000", "142302.230000", "142302.690000", "142303.150000", "142303.610000", "142304.070000", "142304.530000", "142304.990000", "142305.450000", "142305.910000", "142306.370000", "142306.830000", "142307.290000", "142307.750000", "142308.210000", "142308.670000", "142309.130000", "142309.590000", "142310.050000", "142310.510000", "142310.970000", "142311.430000", "142311.890000", "142312.350000", "142312.810000", "142313.270000", "142313.730000", "142314.190000", "142314.650000", "142315.110000", "142315.570000", "142316.030000", "142316.490000", "142316.950000", "142317.410000", "142317.870000", "142318.330000", "142318.790000", "142319.250000", "142319.710000", "142320.170000", "142320.630000", "142321.090000", "142321.550000", "142322.010000", "142322.470000", "142322.930000", "142323.390000", "142323.850000", "142324.310000", "142324.770000", "142325.230000", "142325.690000", "142326.150000", "142326.610000", "142327.070000", "142327.530000", "142327.990000", "142328.450000", "142328.910000", "142329.370000", "142329.830000", "142330.290000", "142330.750000", "142331.210000", "142331.670000", "142332.130000", "142332.590000", "142333.050000", "142333.510000", "142333.970000", "142334.430000", "142334.890000", "142335.350000", "142335.810000", "142336.270000", "142336.730000", "142337.190000", "142337.650000", "142338.110000", "142338.570000", "142339.030000", "142339.490000", "142339.950000", "142340.410000", "142340.870000", "142341.330000", "142341.790000", "142342.250000", "142342.710000", "142343.170000", "142343.630000", "142344.090000", "142344.550000", "142345.010000", "142345.470000", "142345.930000", "142346.390000", "142346.850000", "142347.310000", "142347.770000", "142348.230000", "142348.690000", "142349.150000", "142349.610000", "142350.070000", "142350.530000", "142350.990000", "142351.450000", "142351.910000", "142352.370000", "142352.830000", "142353.290000", "142353.750000", "142354.210000", "142354.670000", "142355.130000", "142355.590000", "142356.050000", "142356.510000", "142356.970000", "142357.430000", "142357.890000", "142358.350000", "142358.810000", "142359.270000", "142359.730000", "142400.190000", "142400.650000", "142401.110000", "142401.570000", "142402.030000", "142402.490000", "142402.950000", "142403.410000", "142403.870000", "142404.330000", "142404.790000", "142405.250000", "142405.710000", "142406.170000", "142406.630000", "142407.090000", "142407.550000", "142408.010000", "142408.470000", "142408.930000", "142409.390000", "142409.850000", "142410.310000", "142410.770000", "142411.230000", "142411.690000", "142412.150000", "142412.610000", "142413.070000", "142413.530000", "142413.990000", "142414.450000", "142414.910000", "142415.370000", "142415.830000", "142416.290000", "142416.750000", "142417.210000", "142417.670000", "142418.130000", "142418.590000", "142419.050000", "142419.510000", "142419.970000", "142420.430000", "142420.890000", "142421.350000", "142421.810000", "142422.270000", "142422.730000", "142423.190000", "142423.650000", "142424.110000", "142424.570000", "142425.030000", "142425.490000", "142425.950000", "142426.410000", "142426.870000", "142427.330000", "142427.790000", "142428.250000", "142428.710000", "142429.170000", "142429.630000", "142430.090000", "142430.550000", "142431.010000", "142431.470000", "142431.930000", "142432.390000", "142432.850000", "142433.310000", "142433.770000", "142434.230000", "142434.690000", "142435.150000", "142435.610000", "142436.070000", "142436.530000", "142436.990000", "142437.450000", "142437.910000", "142438.370000", "142438.830000", "142439.290000", "142439.750000", "142440.210000", "142440.670000", "142441.130000", "142441.590000", "142442.050000", "142442.510000", "142442.970000", "142443.430000", "142443.890000", "142444.350000", "142444.810000", "142445.270000", "142445.730000", "142446.190000", "142446.650000", "142447.110000", "142447.570000", "142448.030000", "142448.490000", "142448.950000", "142449.410000", "142449.870000", "142450.330000", "142450.790000", "142451.250000", "142451.710000", "142452.170000", "142452.630000", "142453.090000", "142453.550000", "142454.010000", "142454.470000", "142454.930000", "142455.390000", "142455.850000", "142456.310000", "142456.770000", "142457.230000", "142457.690000", "142458.150000", "142458.610000", "142459.070000", "142459.530000", "142459.990000", "142500.450000", "142500.910000", "142501.370000", "142501.830000", "142502.290000", "142502.750000", "142503.210000", "142503.670000", "142504.130000", "142504.590000", "142505.050000", "142505.510000", "142505.970000", "142506.430000", "142506.890000", "142507.350000", "142507.810000", "142508.270000", "142508.730000", "142509.190000", "142509.650000", "142510.110000", "142510.570000", "142511.030000", "142511.490000", "142511.950000", "142512.410000", "142512.870000", "142513.330000", "142513.790000", "142514.250000", "142514.710000", "142515.170000", "142515.630000", "142516.090000", "142516.550000", "142517.010000", "142517.470000", "142517.930000", "142518.390000", "142518.850000", "142519.310000", "142519.770000", "142520.230000", "142520.690000", "142521.150000", "142521.610000", "142522.070000", "142522.530000", "142522.990000", "142523.450000", "142523.910000", "142524.370000", "142524.830000", "142525.290000", "142525.750000", "142526.210000", "142526.670000", "142527.130000", "142527.590000", "142528.050000", "142528.510000", "142528.970000", "142529.430000", "142529.890000", "142530.350000", "142530.810000", "142531.270000", "142531.730000", "142532.190000", "142532.650000", "142533.110000", "142533.570000", "142534.030000", "142534.490000", "142534.950000", "142535.410000", "142535.870000", "142536.330000", "142536.790000", "142537.250000", "142537.710000", "142538.170000", "142538.630000", "142539.090000", "142539.550000", "142540.010000", "142540.470000", "142540.930000", "142541.390000", "142541.850000", "142542.310000", "142542.770000", "142543.230000", "142543.690000", "142544.150000", "142544.610000", "142545.070000", "142545.530000", "142545.990000", "142546.450000", "142546.910000", "142547.370000", "142547.830000", "142548.290000", "142548.750000", "142549.210000", "142549.670000", "142550.130000", "142550.590000", "142551.050000", "142551.510000", "142551.970000", "142552.430000", "142552.890000", "142553.350000", "142553.810000", "142554.270000", "142554.730000", "142555.190000", "142555.650000", "142556.110000", "142556.570000", "142557.030000", "142557.490000", "142557.950000", "142558.410000", "142558.870000", "142559.330000", "142559.790000", "142600.250000", "142600.710000", "142601.170000", "142601.630000", "142602.090000", "142602.550000", "142603.010000", "142603.470000", "142603.930000", "142604.390000", "142604.850000", "142605.310000", "142605.770000", "142606.230000", "142606.690000", "142607.150000", "142607.610000", "142608.070000", "142608.530000", "142608.990000", "142609.450000", "142609.910000", "142610.370000", "142610.830000", "142611.290000", "142611.750000", "142612.210000", "142612.670000", "142613.130000", "142613.590000", "142614.050000", "142614.510000", "142614.970000", "142615.430000", "142615.890000", "142616.350000", "142616.810000", "142617.270000", "142617.730000", "142618.190000", "142618.650000", "142619.110000", "142619.570000", "142620.030000", "142620.490000", "142620.950000", "142621.410000", "142621.870000", "142622.330000", "142622.790000", "142623.250000", "142623.710000", "142624.170000", "142624.630000", "142625.090000", "142625.550000", "142626.010000", "142626.470000", "142626.930000", "142627.390000", "142627.850000", "142628.310000", "142628.770000", "142629.230000", "142629.690000", "142630.150000", "142630.610000", "142631.070000", "142631.530000", "142631.990000", "142632.450000", "142632.910000", "142633.370000", "142633.830000", "142634.290000", "142634.750000", "142635.210000", "142635.670000", "142636.130000", "142636.590000", "142637.050000", "142637.510000", "142637.970000", "142638.430000", "142638.890000", "142639.350000", "142639.810000", "142640.270000", "142640.730000", "142641.190000", "142641.650000", "142642.110000", "142642.570000", "142643.030000", "142643.490000", "142643.950000", "142644.410000", "142644.870000", "142645.330000", "142645.790000", "142646.250000", "142646.710000", "142647.170000", "142647.630000", "142648.090000", "142648.550000", "142649.010000", "142649.470000", "142649.930000", "142650.390000", "142650.850000", "142651.310000", "142651.770000", "142652.230000", "142652.690000", "142653.150000", "142653.610000", "142654.070000", "142654.530000", "142654.990000", "142655.450000", "142655.910000", "142656.370000", "142656.830000", "142657.290000", "142657.750000", "142658.210000", "142658.670000", "142659.130000", "142659.590000", "142700.050000", "142700.510000", "142700.970000", "142701.430000", "142701.890000", "142702.350000", "142702.810000", "142703.270000", "142703.730000", "142704.190000", "142704.650000", "142705.110000", "142705.570000", "142706.030000", "142706.490000", "142706.950000", "142707.410000", "142707.870000", "142708.330000", "142708.790000", "142709.250000", "142709.710000", "142710.170000", "142710.630000", "142711.090000", "142711.550000", "142712.010000", "142712.470000", "142712.930000", "142713.390000", "142713.850000", "142714.310000", "142714.770000", "142715.230000", "142715.690000", "142716.150000", "142716.610000", "142717.070000", "142717.530000", "142717.990000", "142718.450000", "142718.910000", "142719.370000", "142719.830000", "142720.290000", "142720.750000", "142721.210000", "142721.670000", "142722.130000", "142722.590000", "142723.050000", "142723.510000", "142723.970000", "142724.430000", "142724.890000", "142725.350000", "142725.810000", "142726.270000", "142726.730000", "142727.190000", "142727.650000", "142728.110000", "142728.570000", "142729.030000", "142729.490000", "142729.950000"],
