{
  "AcquisitionMatrixPE": 82,
  "AcquisitionNumber": 1,
  "AcquisitionTime": "12:51:22.262500",
  "BandwidthPerPixelPhaseEncode": 24.888,
  "BaseResolution": 82,
  "BodyPartExamined": "BRAIN",
  "ConsistencyInfo": "N4_VE11C_LATEST_20160120",
  "ConversionSoftware": "dcm2niix",
  "ConversionSoftwareVersion": "v1.0.20201102",
  "DerivedVendorReportedEchoSpacing": 0.00049,
  "DeviceSerialNumber": "66112",
  "DwellTime": 2e-06,
  "EchoTime": 0.0272,
  "EchoTrainLength": 82,
  "EffectiveEchoSpacing": 0.00049,
  "FlipAngle": 44,
  "ImageComments": "Unaliased MB8/PE3",
  "ImageOrientationPatientDICOM": [0.998539, -0.0469226, -0.026811, 0.0472645, 0.998807, 0.0122665],
  "ImageType": [
    "ORIGINAL",
    "PRIMARY",
    "M",
    "MB",
    "ND",
    "NORM",
    "MOSAIC"
],
  "ImagingFrequency": 123.252,
  "InPlanePhaseEncodingDirectionDICOM": "COL",
  "InstitutionAddress": "Maynard 3,Hanover,NH,US,03755",
  "InstitutionName": "Dartmouth College - PBS",
  "InstitutionalDepartmentName": "Department",
  "MRAcquisitionType": "2D",
  "MagneticFieldStrength": 3,
  "Manufacturer": "Siemens",
  "ManufacturersModelName": "Prisma",
  "Modality": "MR",
  "MultibandAccelerationFactor": 8,
  "PartialFourier": 1,
  "PatientPosition": "HFS",
  "PercentPhaseFOV": 100,
  "PercentSampling": 100,
  "PhaseEncodingDirection": "j-",
  "PhaseEncodingSteps": 82,
  "PhaseResolution": 1,
  "PixelBandwidth": 3050,
  "ProcedureStepDescription": "Wager_Wager^1076_spacetop",
  "ProtocolName": "func_run-01_task-narratives_acq-ap-mb8",
  "PulseSequenceDetails": "%CustomerSeq%\\cmrr_mbep2d_bold",
  "ReceiveCoilActiveElements": "HEA;HEP",
  "ReceiveCoilName": "Head_32",
  "ReconMatrixPE": 82,
  "RepetitionTime": 0.46,
  "SAR": 0.0791507,
  "ScanOptions": "FS",
  "ScanningSequence": "EP",
  "SequenceName": "epfid2d1_82",
  "SequenceVariant": "SK\\SS",
  "SeriesDescription": "func_run-01_task-narratives_acq-ap-mb8",
  "SeriesNumber": 8,
  "ShimSetting": [4123, -7743, -7223, 572, -113, -62, 24, 89],
  "SliceThickness": 2.7,
  "SliceTiming": [0, 0.25, 0.0625, 0.315, 0.125, 0.3775, 0.1875, 0, 0.25, 0.0625, 0.315, 0.125, 0.3775, 0.1875, 0, 0.25, 0.0625, 0.315, 0.125, 0.3775, 0.1875, 0, 0.25, 0.0625, 0.315, 0.125, 0.3775, 0.1875, 0, 0.25, 0.0625, 0.315, 0.125, 0.3775, 0.1875, 0, 0.25, 0.0625, 0.315, 0.125, 0.3775, 0.1875, 0, 0.25, 0.0625, 0.315, 0.125, 0.3775, 0.1875, 0, 0.25, 0.0625, 0.315, 0.125, 0.3775, 0.1875],
  "SoftwareVersions": "syngo MR E11",
  "SpacingBetweenSlices": 2.7,
  "StationName": "AWP66112",
  "TaskName": "narratives",
  "TotalReadoutTime": 0.03969,
  "TxRefAmp": 242.36,
  "WipMemBlock": "0e07134a-fcc4-4b7c-8528-5fea2b0a951a||Sequence: R016 ve11c/master r/e634e98; Dec 19 2017 11:00:25 by eja",
  "dcmmeta_affine": [
    [-2.6790060997009277, 0.126807302236557, -0.07074921578168869, 107.97492980957031],
    [0.12588980793952942, 2.6797263622283936, 0.03649253770709038, -100.71224975585938],
    [-0.0719318762421608, -0.032910045236349106, 2.698826313018799, -51.343875885009766],
    [0.0, 0.0, 0.0, 1.0]
],
  "dcmmeta_reorient_transform": [
    [0.0, -1.0, 0.0, 81.0],
    [1.0, 0.0, 0.0, 0.0],
    [0.0, 0.0, 1.0, 0.0],
    [0.0, 0.0, 0.0, 1.0]
],
  "dcmmeta_shape": [82, 82, 56, 967],
  "dcmmeta_slice_dim": 2,
  "dcmmeta_version": 0.6,
  "global": {
    "const": {
      "AccessionNumber": "A003842",
      "AcquisitionMatrix": [82, 0, 0, 82],
      "AngioFlag": "N",
      "BitsAllocated": 16,
      "BitsStored": 16,
      "BodyPartExamined": "BRAIN",
      "Columns": 656,
      "EchoNumbers": 1,
      "EchoTime": 27.2,
      "EchoTrainLength": 82,
      "FlipAngle": 44.0,
      "HighBit": 15,
      "ImageOrientationPatient": [0.99853865456374, -0.0469225655268, -0.0268109713815, 0.04726453681599, 0.99880708710162, 0.01226647117771],
      "ImagePositionPatient": [-923.51480049835, -849.29668745514, -42.810325141686],
      "ImageType": [
        "ORIGINAL",
        "PRIMARY",
        "M",
        "MB",
        "ND",
        "NORM",
        "MOSAIC"
],
      "ImagedNucleus": "1H",
      "ImagingFrequency": 123.252191,
      "InPlanePhaseEncodingDirection": "COL",
      "MRAcquisitionType": "2D",
      "MagneticFieldStrength": 3.0,
      "Manufacturer": "SIEMENS",
      "ManufacturerModelName": "Prisma",
      "Modality": "MR",
      "NumberOfAverages": 1.0,
      "NumberOfPhaseEncodingSteps": 82,
      "PercentPhaseFieldOfView": 100.0,
      "PercentSampling": 100.0,
      "PerformedProcedureStepStartTime": "124521.093000",
      "PhotometricInterpretation": "MONOCHROME2",
      "PixelBandwidth": 3050.0,
      "PixelRepresentation": 0,
      "PixelSpacing": [2.6829268932343, 2.6829268932343],
      "ProtocolName": "func_run-01_task-narratives_acq-ap-mb8",
      "RepetitionTime": 460.0,
      "Rows": 656,
      "SAR": 0.0791506595546,
      "SamplesPerPixel": 1,
      "ScanOptions": "FS",
      "ScanningSequence": "EP",
      "SequenceName": "epfid2d1_82",
      "SequenceVariant": [
        "SK",
        "SS"
],
      "SeriesDescription": "func_run-01_task-narratives_acq-ap-mb8",
      "SeriesNumber": 8,
      "SeriesTime": "125135.767000",
      "SliceLocation": -55.512069388943,
      "SliceThickness": 2.7000000476837,
      "SmallestImagePixelValue": 0,
      "SoftwareVersions": "syngo MR E11",
      "SpacingBetweenSlices": 2.7000000548777,
      "SpecificCharacterSet": "ISO_IR 100",
      "StudyID": "1",
      "StudyTime": "124521.018000",
      "TransmitCoilName": "Body",
      "VariableFlipAngleFlag": "N",
      "WindowCenterWidthExplanation": "Algo1",
      "dBdt": 0.0},
    "slices": {}
  },
  "time": {
    "samples": {
      "AcquisitionNumber": [1, 2, 3, 4, 5, 6, 7, 8, 9, 10, 11, 12, 13, 14, 15, 16, 17, 18, 19, 20, 21, 22, 23, 24, 25, 26, 27, 28, 29, 30, 31, 32, 33, 34, 35, 36, 37, 38, 39, 40, 41, 42, 43, 44, 45, 46, 47, 48, 49, 50, 51, 52, 53, 54, 55, 56, 57, 58, 59, 60, 61, 62, 63, 64, 65, 66, 67, 68, 69, 70, 71, 72, 73, 74, 75, 76, 77, 78, 79, 80, 81, 82, 83, 84, 85, 86, 87, 88, 89, 90, 91, 92, 93, 94, 95, 96, 97, 98, 99, 100, 101, 102, 103, 104, 105, 106, 107, 108, 109, 110, 111, 112, 113, 114, 115, 116, 117, 118, 119, 120, 121, 122, 123, 124, 125, 126, 127, 128, 129, 130, 131, 132, 133, 134, 135, 136, 137, 138, 139, 140, 141, 142, 143, 144, 145, 146, 147, 148, 149, 150, 151, 152, 153, 154, 155, 156, 157, 158, 159, 160, 161, 162, 163, 164, 165, 166, 167, 168, 169, 170, 171, 172, 173, 174, 175, 176, 177, 178, 179, 180, 181, 182, 183, 184, 185, 186, 187, 188, 189, 190, 191, 192, 193, 194, 195, 196, 197, 198, 199, 200, 201, 202, 203, 204, 205, 206, 207, 208, 209, 210, 211, 212, 213, 214, 215, 216, 217, 218, 219, 220, 221, 222, 223, 224, 225, 226, 227, 228, 229, 230, 231, 232, 233, 234, 235, 236, 237, 238, 239, 240, 241, 242, 243, 244, 245, 246, 247, 248, 249, 250, 251, 252, 253, 254, 255, 256, 257, 258, 259, 260, 261, 262, 263, 264, 265, 266, 267, 268, 269, 270, 271, 272, 273, 274, 275, 276, 277, 278, 279, 280, 281, 282, 283, 284, 285, 286, 287, 288, 289, 290, 291, 292, 293, 294, 295, 296, 297, 298, 299, 300, 301, 302, 303, 304, 305, 306, 307, 308, 309, 310, 311, 312, 313, 314, 315, 316, 317, 318, 319, 320, 321, 322, 323, 324, 325, 326, 327, 328, 329, 330, 331, 332, 333, 334, 335, 336, 337, 338, 339, 340, 341, 342, 343, 344, 345, 346, 347, 348, 349, 350, 351, 352, 353, 354, 355, 356, 357, 358, 359, 360, 361, 362, 363, 364, 365, 366, 367, 368, 369, 370, 371, 372, 373, 374, 375, 376, 377, 378, 379, 380, 381, 382, 383, 384, 385, 386, 387, 388, 389, 390, 391, 392, 393, 394, 395, 396, 397, 398, 399, 400, 401, 402, 403, 404, 405, 406, 407, 408, 409, 410, 411, 412, 413, 414, 415, 416, 417, 418, 419, 420, 421, 422, 423, 424, 425, 426, 427, 428, 429, 430, 431, 432, 433, 434, 435, 436, 437, 438, 439, 440, 441, 442, 443, 444, 445, 446, 447, 448, 449, 450, 451, 452, 453, 454, 455, 456, 457, 458, 459, 460, 461, 462, 463, 464, 465, 466, 467, 468, 469, 470, 471, 472, 473, 474, 475, 476, 477, 478, 479, 480, 481, 482, 483, 484, 485, 486, 487, 488, 489, 490, 491, 492, 493, 494, 495, 496, 497, 498, 499, 500, 501, 502, 503, 504, 505, 506, 507, 508, 509, 510, 511, 512, 513, 514, 515, 516, 517, 518, 519, 520, 521, 522, 523, 524, 525, 526, 527, 528, 529, 530, 531, 532, 533, 534, 535, 536, 537, 538, 539, 540, 541, 542, 543, 544, 545, 546, 547, 548, 549, 550, 551, 552, 553, 554, 555, 556, 557, 558, 559, 560, 561, 562, 563, 564, 565, 566, 567, 568, 569, 570, 571, 572, 573, 574, 575, 576, 577, 578, 579, 580, 581, 582, 583, 584, 585, 586, 587, 588, 589, 590, 591, 592, 593, 594, 595, 596, 597, 598, 599, 600, 601, 602, 603, 604, 605, 606, 607, 608, 609, 610, 611, 612, 613, 614, 615, 616, 617, 618, 619, 620, 621, 622, 623, 624, 625, 626, 627, 628, 629, 630, 631, 632, 633, 634, 635, 636, 637, 638, 639, 640, 641, 642, 643, 644, 645, 646, 647, 648, 649, 650, 651, 652, 653, 654, 655, 656, 657, 658, 659, 660, 661, 662, 663, 664, 665, 666, 667, 668, 669, 670, 671, 672, 673, 674, 675, 676, 677, 678, 679, 680, 681, 682, 683, 684, 685, 686, 687, 688, 689, 690, 691, 692, 693, 694, 695, 696, 697, 698, 699, 700, 701, 702, 703, 704, 705, 706, 707, 708, 709, 710, 711, 712, 713, 714, 715, 716, 717, 718, 719, 720, 721, 722, 723, 724, 725, 726, 727, 728, 729, 730, 731, 732, 733, 734, 735, 736, 737, 738, 739, 740, 741, 742, 743, 744, 745, 746, 747, 748, 749, 750, 751, 752, 753, 754, 755, 756, 757, 758, 759, 760, 761, 762, 763, 764, 765, 766, 767, 768, 769, 770, 771, 772, 773, 774, 775, 776, 777, 778, 779, 780, 781, 782, 783, 784, 785, 786, 787, 788, 789, 790, 791, 792, 793, 794, 795, 796, 797, 798, 799, 800, 801, 802, 803, 804, 805, 806, 807, 808, 809, 810, 811, 812, 813, 814, 815, 816, 817, 818, 819, 820, 821, 822, 823, 824, 825, 826, 827, 828, 829, 830, 831, 832, 833, 834, 835, 836, 837, 838, 839, 840, 841, 842, 843, 844, 845, 846, 847, 848, 849, 850, 851, 852, 853, 854, 855, 856, 857, 858, 859, 860, 861, 862, 863, 864, 865, 866, 867, 868, 869, 870, 871, 872, 873, 874, 875, 876, 877, 878, 879, 880, 881, 882, 883, 884, 885, 886, 887, 888, 889, 890, 891, 892, 893, 894, 895, 896, 897, 898, 899, 900, 901, 902, 903, 904, 905, 906, 907, 908, 909, 910, 911, 912, 913, 914, 915, 916, 917, 918, 919, 920, 921, 922, 923, 924, 925, 926, 927, 928, 929, 930, 931, 932, 933, 934, 935, 936, 937, 938, 939, 940, 941, 942, 943, 944, 945, 946, 947, 948, 949, 950, 951, 952, 953, 954, 955, 956, 957, 958, 959, 960, 961, 962, 963, 964, 965, 966, 967],
      "AcquisitionTime": ["125122.262500", "125122.722500", "125123.182500", "125123.642500", "125124.102500", "125124.562500", "125125.022500", "125125.482500", "125125.942500", "125126.402500", "125126.862500", "125127.322500", "125127.782500", "125128.242500", "125128.702500", "125129.162500", "125129.622500", "125130.082500", "125130.542500", "125131.002500", "125131.462500", "125131.922500", "125132.382500", "125132.842500", "125133.302500", "125133.762500", "125134.222500", "125134.682500", "125135.142500", "125135.602500", "125136.062500", "125136.522500", "125136.982500", "125137.442500", "125137.902500", "125138.362500", "125138.822500", "125139.282500", "125139.742500", "125140.202500", "125140.662500", "125141.122500", "125141.582500", "125142.042500", "125142.502500", "125142.962500", "125143.422500", "125143.882500", "125144.342500", "125144.802500", "125145.262500", "125145.722500", "125146.182500", "125146.642500", "125147.102500", "125147.562500", "125148.022500", "125148.482500", "125148.942500", "125149.402500", "125149.862500", "125150.322500", "125150.782500", "125151.242500", "125151.702500", "125152.162500", "125152.622500", "125153.082500", "125153.542500", "125154.002500", "125154.462500", "125154.922500", "125155.382500", "125155.842500", "125156.302500", "125156.762500", "125157.222500", "125157.682500", "125158.142500", "125158.602500", "125159.062500", "125159.522500", "125159.982500", "125200.442500", "125200.902500", "125201.362500", "125201.822500", "125202.282500", "125202.742500", "125203.202500", "125203.662500", "125204.122500", "125204.582500", "125205.042500", "125205.502500", "125205.962500", "125206.422500", "125206.882500", "125207.342500", "125207.802500", "125208.262500", "125208.722500", "125209.182500", "125209.642500", "125210.102500", "125210.562500", "125211.022500", "125211.482500", "125211.942500", "125212.402500", "125212.862500", "125213.322500", "125213.782500", "125214.242500", "125214.702500", "125215.162500", "125215.622500", "125216.082500", "125216.542500", "125217.002500", "125217.462500", "125217.922500", "125218.382500", "125218.842500", "125219.302500", "125219.762500", "125220.222500", "125220.682500", "125221.142500", "125221.602500", "125222.062500", "125222.522500", "125222.982500", "125223.442500", "125223.902500", "125224.362500", "125224.822500", "125225.282500", "125225.742500", "125226.202500", "125226.662500", "125227.122500", "125227.582500", "125228.042500", "125228.502500", "125228.962500", "125229.422500", "125229.882500", "125230.342500", "125230.802500", "125231.262500", "125231.722500", "125232.182500", "125232.642500", "125233.102500", "125233.562500", "125234.022500", "125234.482500", "125234.942500", "125235.402500", "125235.862500", "125236.322500", "125236.782500", "125237.242500", "125237.702500", "125238.162500", "125238.622500", "125239.082500", "125239.542500", "125240.002500", "125240.462500", "125240.922500", "125241.382500", "125241.842500", "125242.302500", "125242.762500", "125243.222500", "125243.682500", "125244.142500", "125244.602500", "125245.062500", "125245.522500", "125245.982500", "125246.442500", "125246.902500", "125247.362500", "125247.822500", "125248.282500", "125248.742500", "125249.202500", "125249.662500", "125250.122500", "125250.582500", "125251.042500", "125251.502500", "125251.962500", "125252.422500", "125252.882500", "125253.342500", "125253.802500", "125254.262500", "125254.722500", "125255.182500", "125255.642500", "125256.102500", "125256.562500", "125257.022500", "125257.482500", "125257.942500", "125258.402500", "125258.862500", "125259.322500", "125259.782500", "125300.242500", "125300.702500", "125301.162500", "125301.622500", "125302.082500", "125302.542500", "125303.002500", "125303.462500", "125303.922500", "125304.382500", "125304.842500", "125305.302500", "125305.762500", "125306.222500", "125306.682500", "125307.142500", "125307.602500", "125308.062500", "125308.522500", "125308.982500", "125309.442500", "125309.902500", "125310.362500", "125310.822500", "125311.282500", "125311.742500", "125312.202500", "125312.662500", "125313.122500", "125313.582500", "125314.042500", "125314.502500", "125314.962500", "125315.422500", "125315.882500", "125316.342500", "125316.802500", "125317.262500", "125317.722500", "125318.182500", "125318.642500", "125319.102500", "125319.562500", "125320.022500", "125320.482500", "125320.942500", "125321.402500", "125321.862500", "125322.322500", "125322.782500", "125323.242500", "125323.702500", "125324.162500", "125324.622500", "125325.082500", "125325.542500", "125326.002500", "125326.462500", "125326.922500", "125327.382500", "125327.842500", "125328.302500", "125328.762500", "125329.222500", "125329.682500", "125330.142500", "125330.602500", "125331.062500", "125331.522500", "125331.982500", "125332.442500", "125332.902500", "125333.362500", "125333.822500", "125334.282500", "125334.742500", "125335.202500", "125335.662500", "125336.122500", "125336.582500", "125337.042500", "125337.502500", "125337.962500", "125338.422500", "125338.882500", "125339.342500", "125339.802500", "125340.262500", "125340.722500", "125341.182500", "125341.642500", "125342.102500", "125342.562500", "125343.022500", "125343.482500", "125343.942500", "125344.402500", "125344.862500", "125345.322500", "125345.782500", "125346.242500", "125346.702500", "125347.162500", "125347.622500", "125348.082500", "125348.542500", "125349.002500", "125349.462500", "125349.922500", "125350.382500", "125350.842500", "125351.302500", "125351.762500", "125352.222500", "125352.682500", "125353.142500", "125353.602500", "125354.062500", "125354.522500", "125354.982500", "125355.442500", "125355.902500", "125356.362500", "125356.822500", "125357.282500", "125357.742500", "125358.202500", "125358.662500", "125359.122500", "125359.582500", "125400.042500", "125400.502500", "125400.962500", "125401.422500", "125401.882500", "125402.342500", "125402.802500", "125403.262500", "125403.722500", "125404.182500", "125404.642500", "125405.102500", "125405.562500", "125406.022500", "125406.482500", "125406.942500", "125407.402500", "125407.862500", "125408.322500", "125408.782500", "125409.242500", "125409.702500", "125410.162500", "125410.622500", "125411.082500", "125411.542500", "125412.002500", "125412.462500", "125412.922500", "125413.382500", "125413.842500", "125414.302500", "125414.762500", "125415.222500", "125415.682500", "125416.142500", "125416.602500", "125417.062500", "125417.522500", "125417.982500", "125418.442500", "125418.902500", "125419.362500", "125419.822500", "125420.282500", "125420.742500", "125421.202500", "125421.662500", "125422.122500", "125422.582500", "125423.042500", "125423.502500", "125423.962500", "125424.422500", "125424.882500", "125425.342500", "125425.802500", "125426.262500", "125426.722500", "125427.182500", "125427.642500", "125428.102500", "125428.562500", "125429.022500", "125429.482500", "125429.942500", "125430.402500", "125430.862500", "125431.322500", "125431.782500", "125432.242500", "125432.702500", "125433.162500", "125433.622500", "125434.082500", "125434.542500", "125435.002500", "125435.462500", "125435.922500", "125436.382500", "125436.842500", "125437.302500", "125437.762500", "125438.222500", "125438.682500", "125439.142500", "125439.602500", "125440.062500", "125440.522500", "125440.982500", "125441.442500", "125441.902500", "125442.362500", "125442.822500", "125443.282500", "125443.742500", "125444.202500", "125444.662500", "125445.122500", "125445.582500", "125446.042500", "125446.502500", "125446.962500", "125447.422500", "125447.882500", "125448.342500", "125448.802500", "125449.262500", "125449.722500", "125450.182500", "125450.642500", "125451.102500", "125451.562500", "125452.022500", "125452.482500", "125452.942500", "125453.402500", "125453.862500", "125454.322500", "125454.782500", "125455.242500", "125455.702500", "125456.162500", "125456.622500", "125457.082500", "125457.542500", "125458.002500", "125458.462500", "125458.922500", "125459.382500", "125459.842500", "125500.302500", "125500.762500", "125501.222500", "125501.682500", "125502.142500", "125502.602500", "125503.062500", "125503.522500", "125503.982500", "125504.442500", "125504.902500", "125505.362500", "125505.822500", "125506.282500", "125506.742500", "125507.202500", "125507.662500", "125508.122500", "125508.582500", "125509.042500", "125509.502500", "125509.962500", "125510.422500", "125510.882500", "125511.342500", "125511.802500", "125512.262500", "125512.722500", "125513.182500", "125513.642500", "125514.102500", "125514.562500", "125515.022500", "125515.482500", "125515.942500", "125516.402500", "125516.862500", "125517.322500", "125517.782500", "125518.242500", "125518.702500", "125519.162500", "125519.622500", "125520.082500", "125520.542500", "125521.002500", "125521.462500", "125521.922500", "125522.382500", "125522.842500", "125523.302500", "125523.762500", "125524.222500", "125524.682500", "125525.142500", "125525.602500", "125526.062500", "125526.522500", "125526.982500", "125527.442500", "125527.902500", "125528.362500", "125528.822500", "125529.282500", "125529.742500", "125530.202500", "125530.662500", "125531.122500", "125531.582500", "125532.042500", "125532.502500", "125532.962500", "125533.422500", "125533.882500", "125534.342500", "125534.802500", "125535.262500", "125535.722500", "125536.182500", "125536.642500", "125537.102500", "125537.562500", "125538.022500", "125538.482500", "125538.942500", "125539.402500", "125539.862500", "125540.322500", "125540.782500", "125541.242500", "125541.702500", "125542.162500", "125542.622500", "125543.082500", "125543.542500", "125544.002500", "125544.462500", "125544.922500", "125545.382500", "125545.842500", "125546.302500", "125546.762500", "125547.222500", "125547.682500", "125548.142500", "125548.602500", "125549.062500", "125549.522500", "125549.982500", "125550.442500", "125550.902500", "125551.362500", "125551.822500", "125552.282500", "125552.742500", "125553.202500", "125553.662500", "125554.122500", "125554.582500", "125555.042500", "125555.502500", "125555.962500", "125556.422500", "125556.882500", "125557.342500", "125557.802500", "125558.262500", "125558.722500", "125559.182500", "125559.642500", "125600.102500", "125600.562500", "125601.022500", "125601.482500", "125601.942500", "125602.402500", "125602.862500", "125603.322500", "125603.782500", "125604.242500", "125604.702500", "125605.162500", "125605.622500", "125606.082500", "125606.542500", "125607.002500", "125607.462500", "125607.922500", "125608.382500", "125608.842500", "125609.302500", "125609.762500", "125610.222500", "125610.682500", "125611.142500", "125611.602500", "125612.062500", "125612.522500", "125612.982500", "125613.442500", "125613.902500", "125614.362500", "125614.822500", "125615.282500", "125615.742500", "125616.202500", "125616.662500", "125617.122500", "125617.582500", "125618.042500", "125618.502500", "125618.962500", "125619.422500", "125619.882500", "125620.342500", "125620.802500", "125621.262500", "125621.722500", "125622.182500", "125622.642500", "125623.102500", "125623.562500", "125624.022500", "125624.482500", "125624.942500", "125625.402500", "125625.862500", "125626.322500", "125626.782500", "125627.242500", "125627.702500", "125628.162500", "125628.622500", "125629.082500", "125629.542500", "125630.002500", "125630.462500", "125630.922500", "125631.382500", "125631.842500", "125632.302500", "125632.762500", "125633.222500", "125633.682500", "125634.142500", "125634.602500", "125635.062500", "125635.522500", "125635.982500", "125636.442500", "125636.902500", "125637.362500", "125637.822500", "125638.282500", "125638.742500", "125639.202500", "125639.662500", "125640.122500", "125640.582500", "125641.042500", "125641.502500", "125641.962500", "125642.422500", "125642.882500", "125643.342500", "125643.802500", "125644.262500", "125644.722500", "125645.182500", "125645.642500", "125646.102500", "125646.562500", "125647.022500", "125647.482500", "125647.942500", "125648.402500", "125648.862500", "125649.322500", "125649.782500", "125650.242500", "125650.702500", "125651.162500", "125651.622500", "125652.082500", "125652.542500", "125653.002500", "125653.462500", "125653.922500", "125654.382500", "125654.842500", "125655.302500", "125655.762500", "125656.222500", "125656.682500", "125657.142500", "125657.602500", "125658.062500", "125658.522500", "125658.982500", "125659.442500", "125659.902500", "125700.362500", "125700.822500", "125701.282500", "125701.742500", "125702.202500", "125702.662500", "125703.122500", "125703.582500", "125704.042500", "125704.502500", "125704.962500", "125705.422500", "125705.882500", "125706.342500", "125706.802500", "125707.262500", "125707.722500", "125708.182500", "125708.642500", "125709.102500", "125709.562500", "125710.022500", "125710.482500", "125710.942500", "125711.402500", "125711.862500", "125712.322500", "125712.782500", "125713.242500", "125713.702500", "125714.162500", "125714.622500", "125715.082500", "125715.542500", "125716.002500", "125716.462500", "125716.922500", "125717.382500", "125717.842500", "125718.302500", "125718.762500", "125719.222500", "125719.682500", "125720.142500", "125720.602500", "125721.062500", "125721.522500", "125721.982500", "125722.442500", "125722.902500", "125723.362500", "125723.822500", "125724.282500", "125724.742500", "125725.202500", "125725.662500", "125726.122500", "125726.582500", "125727.042500", "125727.502500", "125727.962500", "125728.422500", "125728.882500", "125729.342500", "125729.802500", "125730.262500", "125730.722500", "125731.182500", "125731.642500", "125732.102500", "125732.562500", "125733.022500", "125733.482500", "125733.942500", "125734.402500", "125734.862500", "125735.322500", "125735.782500", "125736.242500", "125736.702500", "125737.162500", "125737.622500", "125738.082500", "125738.542500", "125739.002500", "125739.462500", "125739.922500", "125740.382500", "125740.842500", "125741.302500", "125741.762500", "125742.222500", "125742.682500", "125743.142500", "125743.602500", "125744.062500", "125744.522500", "125744.982500", "125745.442500", "125745.902500", "125746.362500", "125746.822500", "125747.282500", "125747.742500", "125748.202500", "125748.662500", "125749.122500", "125749.582500", "125750.042500", "125750.502500", "125750.962500", "125751.422500", "125751.882500", "125752.342500", "125752.802500", "125753.262500", "125753.722500", "125754.182500", "125754.642500", "125755.102500", "125755.562500", "125756.022500", "125756.482500", "125756.942500", "125757.402500", "125757.862500", "125758.322500", "125758.782500", "125759.242500", "125759.702500", "125800.162500", "125800.622500", "125801.082500", "125801.542500", "125802.002500", "125802.462500", "125802.922500", "125803.382500", "125803.842500", "125804.302500", "125804.762500", "125805.222500", "125805.682500", "125806.142500", "125806.602500", "125807.062500", "125807.522500", "125807.982500", "125808.442500", "125808.902500", "125809.362500", "125809.822500", "125810.282500", "125810.742500", "125811.202500", "125811.662500", "125812.122500", "125812.582500", "125813.042500", "125813.502500", "125813.962500", "125814.422500", "125814.882500", "125815.342500", "125815.802500", "125816.262500", "125816.722500", "125817.182500", "125817.642500", "125818.102500", "125818.562500", "125819.022500", "125819.482500", "125819.942500", "125820.402500", "125820.862500", "125821.322500", "125821.782500", "125822.242500", "125822.702500", "125823.162500", "125823.622500", "125824.082500", "125824.542500", "125825.002500", "125825.462500", "125825.922500", "125826.382500", "125826.842500", "125827.302500", "125827.762500", "125828.222500", "125828.682500", "125829.142500", "125829.602500", "125830.062500", "125830.522500", "125830.982500", "125831.442500", "125831.902500", "125832.362500", "125832.822500", "125833.282500", "125833.742500", "125834.202500", "125834.662500", "125835.122500", "125835.582500", "125836.042500", "125836.502500", "125836.962500", "125837.422500", "125837.882500", "125838.342500", "125838.802500", "125839.262500", "125839.722500", "125840.182500", "125840.642500", "125841.102500", "125841.562500", "125842.022500", "125842.482500", "125842.942500", "125843.402500", "125843.862500", "125844.322500", "125844.782500", "125845.242500", "125845.702500", "125846.162500", "125846.622500"],
