{
  "AcquisitionMatrixPE": 82,
  "AcquisitionNumber": 1,
  "AcquisitionTime": "14:30:28.492500",
  "BandwidthPerPixelPhaseEncode": 24.888,
  "BaseResolution": 82,
  "BodyPartExamined": "BRAIN",
  "ConsistencyInfo": "N4_VE11C_LATEST_20160120",
  "ConversionSoftware": "dcm2niix",
  "ConversionSoftwareVersion": "v1.0.20201102",
  "DerivedVendorReportedEchoSpacing": 0.00049,
  "DeviceSerialNumber": "66112",
  "DwellTime": 2e-06,
  "EchoTime": 0.0272,
  "EchoTrainLength": 82,
  "EffectiveEchoSpacing": 0.00049,
  "FlipAngle": 44,
  "ImageComments": "Unaliased MB8/PE3",
  "ImageOrientationPatientDICOM": [0.992215, -0.0426644, 0.117005, 0.0408922, 0.99901, 0.0175065],
  "ImageType": [
    "ORIGINAL",
    "PRIMARY",
    "M",
    "MB",
    "ND",
    "NORM",
    "MOSAIC"
],
  "ImagingFrequency": 123.252,
  "InPlanePhaseEncodingDirectionDICOM": "COL",
  "InstitutionAddress": "Maynard 3,Hanover,NH,US,03755",
  "InstitutionName": "Dartmouth College - PBS",
  "InstitutionalDepartmentName": "Department",
  "MRAcquisitionType": "2D",
  "MagneticFieldStrength": 3,
  "Manufacturer": "Siemens",
  "ManufacturersModelName": "Prisma",
  "Modality": "MR",
  "MultibandAccelerationFactor": 8,
  "PartialFourier": 1,
  "PatientPosition": "HFS",
  "PercentPhaseFOV": 100,
  "PercentSampling": 100,
  "PhaseEncodingDirection": "j-",
  "PhaseEncodingSteps": 82,
  "PhaseResolution": 1,
  "PixelBandwidth": 3050,
  "ProcedureStepDescription": "Wager_Wager^1076_spacetop",
  "ProtocolName": "func_run-01_task-alignvideo_acq-ap-mb8",
  "PulseSequenceDetails": "%CustomerSeq%\\cmrr_mbep2d_bold",
  "ReceiveCoilActiveElements": "HEA;HEP",
  "ReceiveCoilName": "Head_32",
  "ReconMatrixPE": 82,
  "RepetitionTime": 0.46,
  "SAR": 0.0889515,
  "ScanOptions": "FS",
  "ScanningSequence": "EP",
  "SequenceName": "epfid2d1_82",
  "SequenceVariant": "SK\\SS",
  "SeriesDescription": "func_run-01_task-alignvideo_acq-ap-mb8",
  "SeriesNumber": 22,
  "ShimSetting": [4146, -7739, -7194, 542, -150, -69, 110, 68],
  "SliceThickness": 2.7,
  "SliceTiming": [0, 0.25, 0.0625, 0.315, 0.125, 0.3775, 0.1875, 0, 0.25, 0.0625, 0.315, 0.125, 0.3775, 0.1875, 0, 0.25, 0.0625, 0.315, 0.125, 0.3775, 0.1875, 0, 0.25, 0.0625, 0.315, 0.125, 0.3775, 0.1875, 0, 0.25, 0.0625, 0.315, 0.125, 0.3775, 0.1875, 0, 0.25, 0.0625, 0.315, 0.125, 0.3775, 0.1875, 0, 0.25, 0.0625, 0.315, 0.125, 0.3775, 0.1875, 0, 0.25, 0.0625, 0.315, 0.125, 0.3775, 0.1875],
  "SoftwareVersions": "syngo MR E11",
  "SpacingBetweenSlices": 2.7,
  "StationName": "AWP66112",
  "TaskName": "alignvideo",
  "TotalReadoutTime": 0.03969,
  "TxRefAmp": 251.143,
  "WipMemBlock": "b03c0bd0-6e82-4a3d-b5fd-8642ed72e82e||Sequence: R016 ve11c/master r/e634e98; Dec 19 2017 11:00:25 by eja",
  "dcmmeta_affine": [
    [-2.662038803100586, 0.10971066355705261, 0.31761765480041504, 102.87063598632812],
    [0.1144653782248497, 2.6802713871002197, 0.033981144428253174, -97.58558654785156],
    [0.31391608715057373, -0.046968650072813034, 2.6810379028320312, -51.554134368896484],
    [0.0, 0.0, 0.0, 1.0]
],
  "dcmmeta_reorient_transform": [
    [0.0, -1.0, 0.0, 81.0],
    [1.0, 0.0, 0.0, 0.0],
    [0.0, 0.0, 1.0, 0.0],
    [0.0, 0.0, 0.0, 1.0]
],
  "dcmmeta_shape": [82, 82, 56, 839],
  "dcmmeta_slice_dim": 2,
  "dcmmeta_version": 0.6,
  "global": {
    "const": {
      "AccessionNumber": "A003842",
      "AcquisitionMatrix": [82, 0, 0, 82],
      "AngioFlag": "N",
      "BitsAllocated": 16,
      "BitsStored": 16,
      "BodyPartExamined": "BRAIN",
      "Columns": 656,
      "EchoNumbers": 1,
      "EchoTime": 27.2,
      "EchoTrainLength": 82,
      "FlipAngle": 44.0,
      "HighBit": 15,
      "ImageOrientationPatient": [0.99221447435918, -0.0426643659898, 0.11700508000436, 0.04089215416444, 0.9990101872917, 0.01750649637102],
      "ImagePositionPatient": [-907.24932327827, -855.90269169517, -158.93251074173],
      "ImageType": [
        "ORIGINAL",
        "PRIMARY",
        "M",
        "MB",
        "ND",
        "NORM",
        "MOSAIC"
],
      "ImagedNucleus": "1H",
      "ImagingFrequency": 123.252166,
      "InPlanePhaseEncodingDirection": "COL",
      "MRAcquisitionType": "2D",
      "MagneticFieldStrength": 3.0,
      "Manufacturer": "SIEMENS",
      "ManufacturerModelName": "Prisma",
      "Modality": "MR",
      "NumberOfAverages": 1.0,
      "NumberOfPhaseEncodingSteps": 82,
      "PercentPhaseFieldOfView": 100.0,
      "PercentSampling": 100.0,
      "PerformedProcedureStepStartTime": "134841.560000",
      "PhotometricInterpretation": "MONOCHROME2",
      "PixelBandwidth": 3050.0,
      "PixelRepresentation": 0,
      "PixelSpacing": [2.6829268932343, 2.6829268932343],
      "ProtocolName": "func_run-01_task-alignvideo_acq-ap-mb8",
      "RepetitionTime": 460.0,
      "Rows": 656,
      "SAR": 0.0889515008892,
      "SamplesPerPixel": 1,
      "ScanOptions": "FS",
      "ScanningSequence": "EP",
      "SequenceName": "epfid2d1_82",
      "SequenceVariant": [
        "SK",
        "SS"
],
      "SeriesDescription": "func_run-01_task-alignvideo_acq-ap-mb8",
      "SeriesNumber": 22,
      "SeriesTime": "143047.141000",
      "SliceLocation": -40.318935685154,
      "SliceThickness": 2.7000000476837,
      "SmallestImagePixelValue": 0,
      "SoftwareVersions": "syngo MR E11",
      "SpacingBetweenSlices": 2.700000057147,
      "SpecificCharacterSet": "ISO_IR 100",
      "StudyID": "2",
      "StudyTime": "134841.450000",
      "TransmitCoilName": "Body",
      "VariableFlipAngleFlag": "N",
      "WindowCenterWidthExplanation": "Algo1",
      "dBdt": 0.0},
    "slices": {}
  },
  "time": {
    "samples": {
      "AcquisitionNumber": [1, 2, 3, 4, 5, 6, 7, 8, 9, 10, 11, 12, 13, 14, 15, 16, 17, 18, 19, 20, 21, 22, 23, 24, 25, 26, 27, 28, 29, 30, 31, 32, 33, 34, 35, 36, 37, 38, 39, 40, 41, 42, 43, 44, 45, 46, 47, 48, 49, 50, 51, 52, 53, 54, 55, 56, 57, 58, 59, 60, 61, 62, 63, 64, 65, 66, 67, 68, 69, 70, 71, 72, 73, 74, 75, 76, 77, 78, 79, 80, 81, 82, 83, 84, 85, 86, 87, 88, 89, 90, 91, 92, 93, 94, 95, 96, 97, 98, 99, 100, 101, 102, 103, 104, 105, 106, 107, 108, 109, 110, 111, 112, 113, 114, 115, 116, 117, 118, 119, 120, 121, 122, 123, 124, 125, 126, 127, 128, 129, 130, 131, 132, 133, 134, 135, 136, 137, 138, 139, 140, 141, 142, 143, 144, 145, 146, 147, 148, 149, 150, 151, 152, 153, 154, 155, 156, 157, 158, 159, 160, 161, 162, 163, 164, 165, 166, 167, 168, 169, 170, 171, 172, 173, 174, 175, 176, 177, 178, 179, 180, 181, 182, 183, 184, 185, 186, 187, 188, 189, 190, 191, 192, 193, 194, 195, 196, 197, 198, 199, 200, 201, 202, 203, 204, 205, 206, 207, 208, 209, 210, 211, 212, 213, 214, 215, 216, 217, 218, 219, 220, 221, 222, 223, 224, 225, 226, 227, 228, 229, 230, 231, 232, 233, 234, 235, 236, 237, 238, 239, 240, 241, 242, 243, 244, 245, 246, 247, 248, 249, 250, 251, 252, 253, 254, 255, 256, 257, 258, 259, 260, 261, 262, 263, 264, 265, 266, 267, 268, 269, 270, 271, 272, 273, 274, 275, 276, 277, 278, 279, 280, 281, 282, 283, 284, 285, 286, 287, 288, 289, 290, 291, 292, 293, 294, 295, 296, 297, 298, 299, 300, 301, 302, 303, 304, 305, 306, 307, 308, 309, 310, 311, 312, 313, 314, 315, 316, 317, 318, 319, 320, 321, 322, 323, 324, 325, 326, 327, 328, 329, 330, 331, 332, 333, 334, 335, 336, 337, 338, 339, 340, 341, 342, 343, 344, 345, 346, 347, 348, 349, 350, 351, 352, 353, 354, 355, 356, 357, 358, 359, 360, 361, 362, 363, 364, 365, 366, 367, 368, 369, 370, 371, 372, 373, 374, 375, 376, 377, 378, 379, 380, 381, 382, 383, 384, 385, 386, 387, 388, 389, 390, 391, 392, 393, 394, 395, 396, 397, 398, 399, 400, 401, 402, 403, 404, 405, 406, 407, 408, 409, 410, 411, 412, 413, 414, 415, 416, 417, 418, 419, 420, 421, 422, 423, 424, 425, 426, 427, 428, 429, 430, 431, 432, 433, 434, 435, 436, 437, 438, 439, 440, 441, 442, 443, 444, 445, 446, 447, 448, 449, 450, 451, 452, 453, 454, 455, 456, 457, 458, 459, 460, 461, 462, 463, 464, 465, 466, 467, 468, 469, 470, 471, 472, 473, 474, 475, 476, 477, 478, 479, 480, 481, 482, 483, 484, 485, 486, 487, 488, 489, 490, 491, 492, 493, 494, 495, 496, 497, 498, 499, 500, 501, 502, 503, 504, 505, 506, 507, 508, 509, 510, 511, 512, 513, 514, 515, 516, 517, 518, 519, 520, 521, 522, 523, 524, 525, 526, 527, 528, 529, 530, 531, 532, 533, 534, 535, 536, 537, 538, 539, 540, 541, 542, 543, 544, 545, 546, 547, 548, 549, 550, 551, 552, 553, 554, 555, 556, 557, 558, 559, 560, 561, 562, 563, 564, 565, 566, 567, 568, 569, 570, 571, 572, 573, 574, 575, 576, 577, 578, 579, 580, 581, 582, 583, 584, 585, 586, 587, 588, 589, 590, 591, 592, 593, 594, 595, 596, 597, 598, 599, 600, 601, 602, 603, 604, 605, 606, 607, 608, 609, 610, 611, 612, 613, 614, 615, 616, 617, 618, 619, 620, 621, 622, 623, 624, 625, 626, 627, 628, 629, 630, 631, 632, 633, 634, 635, 636, 637, 638, 639, 640, 641, 642, 643, 644, 645, 646, 647, 648, 649, 650, 651, 652, 653, 654, 655, 656, 657, 658, 659, 660, 661, 662, 663, 664, 665, 666, 667, 668, 669, 670, 671, 672, 673, 674, 675, 676, 677, 678, 679, 680, 681, 682, 683, 684, 685, 686, 687, 688, 689, 690, 691, 692, 693, 694, 695, 696, 697, 698, 699, 700, 701, 702, 703, 704, 705, 706, 707, 708, 709, 710, 711, 712, 713, 714, 715, 716, 717, 718, 719, 720, 721, 722, 723, 724, 725, 726, 727, 728, 729, 730, 731, 732, 733, 734, 735, 736, 737, 738, 739, 740, 741, 742, 743, 744, 745, 746, 747, 748, 749, 750, 751, 752, 753, 754, 755, 756, 757, 758, 759, 760, 761, 762, 763, 764, 765, 766, 767, 768, 769, 770, 771, 772, 773, 774, 775, 776, 777, 778, 779, 780, 781, 782, 783, 784, 785, 786, 787, 788, 789, 790, 791, 792, 793, 794, 795, 796, 797, 798, 799, 800, 801, 802, 803, 804, 805, 806, 807, 808, 809, 810, 811, 812, 813, 814, 815, 816, 817, 818, 819, 820, 821, 822, 823, 824, 825, 826, 827, 828, 829, 830, 831, 832, 833, 834, 835, 836, 837, 838, 839],
      "AcquisitionTime": ["143028.492500", "143028.952500", "143029.412500", "143029.872500", "143030.332500", "143030.792500", "143031.252500", "143031.712500", "143032.172500", "143032.632500", "143033.092500", "143033.552500", "143034.012500", "143034.472500", "143034.932500", "143035.392500", "143035.852500", "143036.312500", "143036.772500", "143037.232500", "143037.692500", "143038.152500", "143038.612500", "143039.072500", "143039.532500", "143039.992500", "143040.452500", "143040.912500", "143041.372500", "143041.832500", "143042.292500", "143042.752500", "143043.212500", "143043.672500", "143044.132500", "143044.592500", "143045.052500", "143045.512500", "143045.972500", "143046.432500", "143046.892500", "143047.352500", "143047.812500", "143048.272500", "143048.732500", "143049.192500", "143049.652500", "143050.112500", "143050.572500", "143051.032500", "143051.492500", "143051.952500", "143052.412500", "143052.872500", "143053.332500", "143053.792500", "143054.252500", "143054.712500", "143055.172500", "143055.632500", "143056.092500", "143056.552500", "143057.012500", "143057.472500", "143057.932500", "143058.392500", "143058.852500", "143059.312500", "143059.772500", "143100.232500", "143100.692500", "143101.152500", "143101.612500", "143102.072500", "143102.532500", "143102.992500", "143103.452500", "143103.912500", "143104.372500", "143104.832500", "143105.292500", "143105.752500", "143106.212500", "143106.672500", "143107.132500", "143107.592500", "143108.052500", "143108.512500", "143108.972500", "143109.432500", "143109.892500", "143110.352500", "143110.812500", "143111.272500", "143111.732500", "143112.192500", "143112.652500", "143113.112500", "143113.572500", "143114.032500", "143114.492500", "143114.952500", "143115.412500", "143115.872500", "143116.332500", "143116.792500", "143117.252500", "143117.712500", "143118.172500", "143118.632500", "143119.092500", "143119.552500", "143120.012500", "143120.472500", "143120.932500", "143121.392500", "143121.852500", "143122.312500", "143122.772500", "143123.232500", "143123.692500", "143124.152500", "143124.612500", "143125.072500", "143125.532500", "143125.992500", "143126.452500", "143126.912500", "143127.372500", "143127.832500", "143128.292500", "143128.752500", "143129.212500", "143129.672500", "143130.132500", "143130.592500", "143131.052500", "143131.512500", "143131.972500", "143132.432500", "143132.892500", "143133.352500", "143133.812500", "143134.272500", "143134.732500", "143135.192500", "143135.652500", "143136.112500", "143136.572500", "143137.032500", "143137.492500", "143137.952500", "143138.412500", "143138.872500", "143139.332500", "143139.792500", "143140.252500", "143140.712500", "143141.172500", "143141.632500", "143142.092500", "143142.552500", "143143.012500", "143143.472500", "143143.932500", "143144.392500", "143144.852500", "143145.312500", "143145.772500", "143146.232500", "143146.692500", "143147.152500", "143147.612500", "143148.072500", "143148.532500", "143148.992500", "143149.452500", "143149.912500", "143150.372500", "143150.832500", "143151.292500", "143151.752500", "143152.212500", "143152.672500", "143153.132500", "143153.592500", "143154.052500", "143154.512500", "143154.972500", "143155.432500", "143155.892500", "143156.352500", "143156.812500", "143157.272500", "143157.732500", "143158.192500", "143158.652500", "143159.112500", "143159.572500", "143200.032500", "143200.492500", "143200.952500", "143201.412500", "143201.872500", "143202.332500", "143202.792500", "143203.252500", "143203.712500", "143204.172500", "143204.632500", "143205.092500", "143205.552500", "143206.012500", "143206.472500", "143206.932500", "143207.392500", "143207.852500", "143208.312500", "143208.772500", "143209.232500", "143209.692500", "143210.152500", "143210.612500", "143211.072500", "143211.532500", "143211.992500", "143212.452500", "143212.912500", "143213.372500", "143213.832500", "143214.292500", "143214.752500", "143215.212500", "143215.672500", "143216.132500", "143216.592500", "143217.052500", "143217.512500", "143217.972500", "143218.432500", "143218.892500", "143219.352500", "143219.812500", "143220.272500", "143220.732500", "143221.192500", "143221.652500", "143222.112500", "143222.572500", "143223.032500", "143223.492500", "143223.952500", "143224.412500", "143224.872500", "143225.332500", "143225.792500", "143226.252500", "143226.712500", "143227.172500", "143227.632500", "143228.092500", "143228.552500", "143229.012500", "143229.472500", "143229.932500", "143230.392500", "143230.852500", "143231.312500", "143231.772500", "143232.232500", "143232.692500", "143233.152500", "143233.612500", "143234.072500", "143234.532500", "143234.992500", "143235.452500", "143235.912500", "143236.372500", "143236.832500", "143237.292500", "143237.752500", "143238.212500", "143238.672500", "143239.132500", "143239.592500", "143240.052500", "143240.512500", "143240.972500", "143241.432500", "143241.892500", "143242.352500", "143242.812500", "143243.272500", "143243.732500", "143244.192500", "143244.652500", "143245.112500", "143245.572500", "143246.032500", "143246.492500", "143246.952500", "143247.412500", "143247.872500", "143248.332500", "143248.792500", "143249.252500", "143249.712500", "143250.172500", "143250.632500", "143251.092500", "143251.552500", "143252.012500", "143252.472500", "143252.932500", "143253.392500", "143253.852500", "143254.312500", "143254.772500", "143255.232500", "143255.692500", "143256.152500", "143256.612500", "143257.072500", "143257.532500", "143257.992500", "143258.452500", "143258.912500", "143259.372500", "143259.832500", "143300.292500", "143300.752500", "143301.212500", "143301.672500", "143302.132500", "143302.592500", "143303.052500", "143303.512500", "143303.972500", "143304.432500", "143304.892500", "143305.352500", "143305.812500", "143306.272500", "143306.732500", "143307.192500", "143307.652500", "143308.112500", "143308.572500", "143309.032500", "143309.492500", "143309.952500", "143310.412500", "143310.872500", "143311.332500", "143311.792500", "143312.252500", "143312.712500", "143313.172500", "143313.632500", "143314.092500", "143314.552500", "143315.012500", "143315.472500", "143315.932500", "143316.392500", "143316.852500", "143317.312500", "143317.772500", "143318.232500", "143318.692500", "143319.152500", "143319.612500", "143320.072500", "143320.532500", "143320.992500", "143321.452500", "143321.912500", "143322.372500", "143322.832500", "143323.292500", "143323.752500", "143324.212500", "143324.672500", "143325.132500", "143325.592500", "143326.052500", "143326.512500", "143326.972500", "143327.432500", "143327.892500", "143328.352500", "143328.812500", "143329.272500", "143329.732500", "143330.192500", "143330.652500", "143331.112500", "143331.572500", "143332.032500", "143332.492500", "143332.952500", "143333.412500", "143333.872500", "143334.332500", "143334.792500", "143335.252500", "143335.712500", "143336.172500", "143336.632500", "143337.092500", "143337.552500", "143338.012500", "143338.472500", "143338.932500", "143339.392500", "143339.852500", "143340.312500", "143340.772500", "143341.232500", "143341.692500", "143342.152500", "143342.612500", "143343.072500", "143343.532500", "143343.992500", "143344.452500", "143344.912500", "143345.372500", "143345.832500", "143346.292500", "143346.752500", "143347.212500", "143347.672500", "143348.132500", "143348.592500", "143349.052500", "143349.512500", "143349.972500", "143350.432500", "143350.892500", "143351.352500", "143351.812500", "143352.272500", "143352.732500", "143353.192500", "143353.652500", "143354.112500", "143354.572500", "143355.032500", "143355.492500", "143355.952500", "143356.412500", "143356.872500", "143357.332500", "143357.792500", "143358.252500", "143358.712500", "143359.172500", "143359.632500", "143400.092500", "143400.552500", "143401.012500", "143401.472500", "143401.932500", "143402.392500", "143402.852500", "143403.312500", "143403.772500", "143404.232500", "143404.692500", "143405.152500", "143405.612500", "143406.072500", "143406.532500", "143406.992500", "143407.452500", "143407.912500", "143408.372500", "143408.832500", "143409.292500", "143409.752500", "143410.212500", "143410.672500", "143411.132500", "143411.592500", "143412.052500", "143412.512500", "143412.972500", "143413.432500", "143413.892500", "143414.352500", "143414.812500", "143415.272500", "143415.732500", "143416.192500", "143416.652500", "143417.112500", "143417.572500", "143418.032500", "143418.492500", "143418.952500", "143419.412500", "143419.872500", "143420.332500", "143420.792500", "143421.252500", "143421.712500", "143422.172500", "143422.632500", "143423.092500", "143423.552500", "143424.012500", "143424.472500", "143424.932500", "143425.392500", "143425.852500", "143426.312500", "143426.772500", "143427.232500", "143427.692500", "143428.152500", "143428.612500", "143429.072500", "143429.532500", "143429.992500", "143430.452500", "143430.912500", "143431.372500", "143431.832500", "143432.292500", "143432.752500", "143433.212500", "143433.672500", "143434.132500", "143434.592500", "143435.052500", "143435.512500", "143435.972500", "143436.432500", "143436.892500", "143437.352500", "143437.812500", "143438.272500", "143438.732500", "143439.192500", "143439.652500", "143440.112500", "143440.572500", "143441.032500", "143441.492500", "143441.952500", "143442.412500", "143442.872500", "143443.332500", "143443.792500", "143444.252500", "143444.712500", "143445.172500", "143445.632500", "143446.092500", "143446.552500", "143447.012500", "143447.472500", "143447.932500", "143448.392500", "143448.852500", "143449.312500", "143449.772500", "143450.232500", "143450.692500", "143451.152500", "143451.612500", "143452.072500", "143452.532500", "143452.992500", "143453.452500", "143453.912500", "143454.372500", "143454.832500", "143455.292500", "143455.752500", "143456.212500", "143456.672500", "143457.132500", "143457.592500", "143458.052500", "143458.512500", "143458.972500", "143459.432500", "143459.892500", "143500.352500", "143500.812500", "143501.272500", "143501.732500", "143502.192500", "143502.652500", "143503.112500", "143503.572500", "143504.032500", "143504.492500", "143504.952500", "143505.412500", "143505.872500", "143506.332500", "143506.792500", "143507.252500", "143507.712500", "143508.172500", "143508.632500", "143509.092500", "143509.552500", "143510.012500", "143510.472500", "143510.932500", "143511.392500", "143511.852500", "143512.312500", "143512.772500", "143513.232500", "143513.692500", "143514.152500", "143514.612500", "143515.072500", "143515.532500", "143515.992500", "143516.452500", "143516.912500", "143517.372500", "143517.832500", "143518.292500", "143518.752500", "143519.212500", "143519.672500", "143520.132500", "143520.592500", "143521.052500", "143521.512500", "143521.972500", "143522.432500", "143522.892500", "143523.352500", "143523.812500", "143524.272500", "143524.732500", "143525.192500", "143525.652500", "143526.112500", "143526.572500", "143527.032500", "143527.492500", "143527.952500", "143528.412500", "143528.872500", "143529.332500", "143529.792500", "143530.252500", "143530.712500", "143531.172500", "143531.632500", "143532.092500", "143532.552500", "143533.012500", "143533.472500", "143533.932500", "143534.392500", "143534.852500", "143535.312500", "143535.772500", "143536.232500", "143536.692500", "143537.152500", "143537.612500", "143538.072500", "143538.532500", "143538.992500", "143539.452500", "143539.912500", "143540.372500", "143540.832500", "143541.292500", "143541.752500", "143542.212500", "143542.672500", "143543.132500", "143543.592500", "143544.052500", "143544.512500", "143544.972500", "143545.432500", "143545.892500", "143546.352500", "143546.812500", "143547.272500", "143547.732500", "143548.192500", "143548.652500", "143549.112500", "143549.572500", "143550.032500", "143550.492500", "143550.952500", "143551.412500", "143551.872500", "143552.332500", "143552.792500", "143553.252500", "143553.712500", "143554.172500", "143554.632500", "143555.092500", "143555.552500", "143556.012500", "143556.472500", "143556.932500", "143557.392500", "143557.852500", "143558.312500", "143558.772500", "143559.232500", "143559.692500", "143600.152500", "143600.612500", "143601.072500", "143601.532500", "143601.992500", "143602.452500", "143602.912500", "143603.372500", "143603.832500", "143604.292500", "143604.752500", "143605.212500", "143605.672500", "143606.132500", "143606.592500", "143607.052500", "143607.512500", "143607.972500", "143608.432500", "143608.892500", "143609.352500", "143609.812500", "143610.272500", "143610.732500", "143611.192500", "143611.652500", "143612.112500", "143612.572500", "143613.032500", "143613.492500", "143613.952500", "143614.412500", "143614.872500", "143615.332500", "143615.792500", "143616.252500", "143616.712500", "143617.172500", "143617.632500", "143618.092500", "143618.552500", "143619.012500", "143619.472500", "143619.932500", "143620.392500", "143620.852500", "143621.312500", "143621.772500", "143622.232500", "143622.692500", "143623.152500", "143623.612500", "143624.072500", "143624.532500", "143624.992500", "143625.452500", "143625.912500", "143626.372500", "143626.832500", "143627.292500", "143627.752500", "143628.212500", "143628.672500", "143629.132500", "143629.592500", "143630.052500", "143630.512500", "143630.972500", "143631.432500", "143631.892500", "143632.352500", "143632.812500", "143633.272500", "143633.732500", "143634.192500", "143634.652500", "143635.112500", "143635.572500", "143636.032500", "143636.492500", "143636.952500", "143637.412500", "143637.872500", "143638.332500", "143638.792500", "143639.252500", "143639.712500", "143640.172500", "143640.632500", "143641.092500", "143641.552500", "143642.012500", "143642.472500", "143642.932500", "143643.392500", "143643.852500", "143644.312500", "143644.772500", "143645.232500", "143645.692500", "143646.152500", "143646.612500", "143647.072500", "143647.532500", "143647.992500", "143648.452500", "143648.912500", "143649.372500", "143649.832500", "143650.292500", "143650.752500", "143651.212500", "143651.672500", "143652.132500", "143652.592500", "143653.052500", "143653.512500", "143653.972500"],
