{
  "AcquisitionMatrixPE": 82,
  "AcquisitionNumber": 1,
  "AcquisitionTime": "12:59:20.617500",
  "BandwidthPerPixelPhaseEncode": 24.888,
  "BaseResolution": 82,
  "BodyPartExamined": "BRAIN",
  "ConsistencyInfo": "N4_VE11C_LATEST_20160120",
  "ConversionSoftware": "dcm2niix",
  "ConversionSoftwareVersion": "v1.0.20201102",
  "DerivedVendorReportedEchoSpacing": 0.00049,
  "DeviceSerialNumber": "66112",
  "DwellTime": 2e-06,
  "EchoTime": 0.0272,
  "EchoTrainLength": 82,
  "EffectiveEchoSpacing": 0.00049,
  "FlipAngle": 44,
  "ImageComments": "Unaliased MB8/PE3",
  "ImageOrientationPatientDICOM": [0.998539, -0.0469226, -0.026811, 0.0472645, 0.998807, 0.0122665],
  "ImageType": [
    "ORIGINAL",
    "PRIMARY",
    "M",
    "MB",
    "ND",
    "NORM",
    "MOSAIC"
],
  "ImagingFrequency": 123.252,
  "InPlanePhaseEncodingDirectionDICOM": "COL",
  "InstitutionAddress": "Maynard 3,Hanover,NH,US,03755",
  "InstitutionName": "Dartmouth College - PBS",
  "InstitutionalDepartmentName": "Department",
  "MRAcquisitionType": "2D",
  "MagneticFieldStrength": 3,
  "Manufacturer": "Siemens",
  "ManufacturersModelName": "Prisma",
  "Modality": "MR",
  "MultibandAccelerationFactor": 8,
  "PartialFourier": 1,
  "PatientPosition": "HFS",
  "PercentPhaseFOV": 100,
  "PercentSampling": 100,
  "PhaseEncodingDirection": "j-",
  "PhaseEncodingSteps": 82,
  "PhaseResolution": 1,
  "PixelBandwidth": 3050,
  "ProcedureStepDescription": "Wager_Wager^1076_spacetop",
  "ProtocolName": "func_run-02_task-narratives_acq-ap-mb8",
  "PulseSequenceDetails": "%CustomerSeq%\\cmrr_mbep2d_bold",
  "ReceiveCoilActiveElements": "HEA;HEP",
  "ReceiveCoilName": "Head_32",
  "ReconMatrixPE": 82,
  "RepetitionTime": 0.46,
  "SAR": 0.0792037,
  "ScanOptions": "FS",
  "ScanningSequence": "EP",
  "SequenceName": "epfid2d1_82",
  "SequenceVariant": "SK\\SS",
  "SeriesDescription": "func_run-02_task-narratives_acq-ap-mb8",
  "SeriesNumber": 10,
  "ShimSetting": [4123, -7743, -7223, 572, -113, -62, 24, 89],
  "SliceThickness": 2.7,
  "SliceTiming": [0, 0.2525, 0.0625, 0.315, 0.125, 0.3775, 0.19, 0, 0.2525, 0.0625, 0.315, 0.125, 0.3775, 0.19, 0, 0.2525, 0.0625, 0.315, 0.125, 0.3775, 0.19, 0, 0.2525, 0.0625, 0.315, 0.125, 0.3775, 0.19, 0, 0.2525, 0.0625, 0.315, 0.125, 0.3775, 0.19, 0, 0.2525, 0.0625, 0.315, 0.125, 0.3775, 0.19, 0, 0.2525, 0.0625, 0.315, 0.125, 0.3775, 0.19, 0, 0.2525, 0.0625, 0.315, 0.125, 0.3775, 0.19],
  "SoftwareVersions": "syngo MR E11",
  "SpacingBetweenSlices": 2.7,
  "StationName": "AWP66112",
  "TaskName": "narratives",
  "TotalReadoutTime": 0.03969,
  "TxRefAmp": 242.36,
  "WipMemBlock": "6c885f29-95cb-4887-a83f-c272054b1943||Sequence: R016 ve11c/master r/e634e98; Dec 19 2017 11:00:25 by eja",
  "dcmmeta_affine": [
    [-2.6790060997009277, 0.126807302236557, -0.07074921578168869, 107.97492980957031],
    [0.12588980793952942, 2.6797263622283936, 0.03649253770709038, -100.71224975585938],
    [-0.0719318762421608, -0.032910045236349106, 2.698826313018799, -51.343875885009766],
    [0.0, 0.0, 0.0, 1.0]
],
  "dcmmeta_reorient_transform": [
    [0.0, -1.0, 0.0, 81.0],
    [1.0, 0.0, 0.0, 0.0],
    [0.0, 0.0, 1.0, 0.0],
    [0.0, 0.0, 0.0, 1.0]
],
  "dcmmeta_shape": [82, 82, 56, 1098],
  "dcmmeta_slice_dim": 2,
  "dcmmeta_version": 0.6,
  "global": {
    "const": {
      "AccessionNumber": "A003842",
      "AcquisitionMatrix": [82, 0, 0, 82],
      "AngioFlag": "N",
      "BitsAllocated": 16,
      "BitsStored": 16,
      "BodyPartExamined": "BRAIN",
      "Columns": 656,
      "EchoNumbers": 1,
      "EchoTime": 27.2,
      "EchoTrainLength": 82,
      "FlipAngle": 44.0,
      "HighBit": 15,
      "ImageOrientationPatient": [0.99853865456374, -0.0469225655268, -0.0268109713815, 0.04726453681599, 0.99880708710162, 0.01226647117771],
      "ImagePositionPatient": [-923.51480049835, -849.29668745514, -42.810325141686],
      "ImageType": [
        "ORIGINAL",
        "PRIMARY",
        "M",
        "MB",
        "ND",
        "NORM",
        "MOSAIC"
],
      "ImagedNucleus": "1H",
      "ImagingFrequency": 123.252194,
      "InPlanePhaseEncodingDirection": "COL",
      "MRAcquisitionType": "2D",
      "MagneticFieldStrength": 3.0,
      "Manufacturer": "SIEMENS",
      "ManufacturerModelName": "Prisma",
      "Modality": "MR",
      "NumberOfAverages": 1.0,
      "NumberOfPhaseEncodingSteps": 82,
      "PercentPhaseFieldOfView": 100.0,
      "PercentSampling": 100.0,
      "PerformedProcedureStepStartTime": "124521.093000",
      "PhotometricInterpretation": "MONOCHROME2",
      "PixelBandwidth": 3050.0,
      "PixelRepresentation": 0,
      "PixelSpacing": [2.6829268932343, 2.6829268932343],
      "ProtocolName": "func_run-02_task-narratives_acq-ap-mb8",
      "RepetitionTime": 460.0,
      "Rows": 656,
      "SAR": 0.07920374252413,
      "SamplesPerPixel": 1,
      "ScanOptions": "FS",
      "ScanningSequence": "EP",
      "SequenceName": "epfid2d1_82",
      "SequenceVariant": [
        "SK",
        "SS"
],
      "SeriesDescription": "func_run-02_task-narratives_acq-ap-mb8",
      "SeriesNumber": 10,
      "SeriesTime": "125935.628000",
      "SliceLocation": -55.512069388943,
      "SliceThickness": 2.7000000476837,
      "SmallestImagePixelValue": 0,
      "SoftwareVersions": "syngo MR E11",
      "SpacingBetweenSlices": 2.7000000548777,
      "SpecificCharacterSet": "ISO_IR 100",
      "StudyID": "1",
      "StudyTime": "124521.018000",
      "TransmitCoilName": "Body",
      "VariableFlipAngleFlag": "N",
      "WindowCenterWidthExplanation": "Algo1",
      "dBdt": 0.0},
    "slices": {}
  },
  "time": {
    "samples": {
      "AcquisitionNumber": [1, 2, 3, 4, 5, 6, 7, 8, 9, 10, 11, 12, 13, 14, 15, 16, 17, 18, 19, 20, 21, 22, 23, 24, 25, 26, 27, 28, 29, 30, 31, 32, 33, 34, 35, 36, 37, 38, 39, 40, 41, 42, 43, 44, 45, 46, 47, 48, 49, 50, 51, 52, 53, 54, 55, 56, 57, 58, 59, 60, 61, 62, 63, 64, 65, 66, 67, 68, 69, 70, 71, 72, 73, 74, 75, 76, 77, 78, 79, 80, 81, 82, 83, 84, 85, 86, 87, 88, 89, 90, 91, 92, 93, 94, 95, 96, 97, 98, 99, 100, 101, 102, 103, 104, 105, 106, 107, 108, 109, 110, 111, 112, 113, 114, 115, 116, 117, 118, 119, 120, 121, 122, 123, 124, 125, 126, 127, 128, 129, 130, 131, 132, 133, 134, 135, 136, 137, 138, 139, 140, 141, 142, 143, 144, 145, 146, 147, 148, 149, 150, 151, 152, 153, 154, 155, 156, 157, 158, 159, 160, 161, 162, 163, 164, 165, 166, 167, 168, 169, 170, 171, 172, 173, 174, 175, 176, 177, 178, 179, 180, 181, 182, 183, 184, 185, 186, 187, 188, 189, 190, 191, 192, 193, 194, 195, 196, 197, 198, 199, 200, 201, 202, 203, 204, 205, 206, 207, 208, 209, 210, 211, 212, 213, 214, 215, 216, 217, 218, 219, 220, 221, 222, 223, 224, 225, 226, 227, 228, 229, 230, 231, 232, 233, 234, 235, 236, 237, 238, 239, 240, 241, 242, 243, 244, 245, 246, 247, 248, 249, 250, 251, 252, 253, 254, 255, 256, 257, 258, 259, 260, 261, 262, 263, 264, 265, 266, 267, 268, 269, 270, 271, 272, 273, 274, 275, 276, 277, 278, 279, 280, 281, 282, 283, 284, 285, 286, 287, 288, 289, 290, 291, 292, 293, 294, 295, 296, 297, 298, 299, 300, 301, 302, 303, 304, 305, 306, 307, 308, 309, 310, 311, 312, 313, 314, 315, 316, 317, 318, 319, 320, 321, 322, 323, 324, 325, 326, 327, 328, 329, 330, 331, 332, 333, 334, 335, 336, 337, 338, 339, 340, 341, 342, 343, 344, 345, 346, 347, 348, 349, 350, 351, 352, 353, 354, 355, 356, 357, 358, 359, 360, 361, 362, 363, 364, 365, 366, 367, 368, 369, 370, 371, 372, 373, 374, 375, 376, 377, 378, 379, 380, 381, 382, 383, 384, 385, 386, 387, 388, 389, 390, 391, 392, 393, 394, 395, 396, 397, 398, 399, 400, 401, 402, 403, 404, 405, 406, 407, 408, 409, 410, 411, 412, 413, 414, 415, 416, 417, 418, 419, 420, 421, 422, 423, 424, 425, 426, 427, 428, 429, 430, 431, 432, 433, 434, 435, 436, 437, 438, 439, 440, 441, 442, 443, 444, 445, 446, 447, 448, 449, 450, 451, 452, 453, 454, 455, 456, 457, 458, 459, 460, 461, 462, 463, 464, 465, 466, 467, 468, 469, 470, 471, 472, 473, 474, 475, 476, 477, 478, 479, 480, 481, 482, 483, 484, 485, 486, 487, 488, 489, 490, 491, 492, 493, 494, 495, 496, 497, 498, 499, 500, 501, 502, 503, 504, 505, 506, 507, 508, 509, 510, 511, 512, 513, 514, 515, 516, 517, 518, 519, 520, 521, 522, 523, 524, 525, 526, 527, 528, 529, 530, 531, 532, 533, 534, 535, 536, 537, 538, 539, 540, 541, 542, 543, 544, 545, 546, 547, 548, 549, 550, 551, 552, 553, 554, 555, 556, 557, 558, 559, 560, 561, 562, 563, 564, 565, 566, 567, 568, 569, 570, 571, 572, 573, 574, 575, 576, 577, 578, 579, 580, 581, 582, 583, 584, 585, 586, 587, 588, 589, 590, 591, 592, 593, 594, 595, 596, 597, 598, 599, 600, 601, 602, 603, 604, 605, 606, 607, 608, 609, 610, 611, 612, 613, 614, 615, 616, 617, 618, 619, 620, 621, 622, 623, 624, 625, 626, 627, 628, 629, 630, 631, 632, 633, 634, 635, 636, 637, 638, 639, 640, 641, 642, 643, 644, 645, 646, 647, 648, 649, 650, 651, 652, 653, 654, 655, 656, 657, 658, 659, 660, 661, 662, 663, 664, 665, 666, 667, 668, 669, 670, 671, 672, 673, 674, 675, 676, 677, 678, 679, 680, 681, 682, 683, 684, 685, 686, 687, 688, 689, 690, 691, 692, 693, 694, 695, 696, 697, 698, 699, 700, 701, 702, 703, 704, 705, 706, 707, 708, 709, 710, 711, 712, 713, 714, 715, 716, 717, 718, 719, 720, 721, 722, 723, 724, 725, 726, 727, 728, 729, 730, 731, 732, 733, 734, 735, 736, 737, 738, 739, 740, 741, 742, 743, 744, 745, 746, 747, 748, 749, 750, 751, 752, 753, 754, 755, 756, 757, 758, 759, 760, 761, 762, 763, 764, 765, 766, 767, 768, 769, 770, 771, 772, 773, 774, 775, 776, 777, 778, 779, 780, 781, 782, 783, 784, 785, 786, 787, 788, 789, 790, 791, 792, 793, 794, 795, 796, 797, 798, 799, 800, 801, 802, 803, 804, 805, 806, 807, 808, 809, 810, 811, 812, 813, 814, 815, 816, 817, 818, 819, 820, 821, 822, 823, 824, 825, 826, 827, 828, 829, 830, 831, 832, 833, 834, 835, 836, 837, 838, 839, 840, 841, 842, 843, 844, 845, 846, 847, 848, 849, 850, 851, 852, 853, 854, 855, 856, 857, 858, 859, 860, 861, 862, 863, 864, 865, 866, 867, 868, 869, 870, 871, 872, 873, 874, 875, 876, 877, 878, 879, 880, 881, 882, 883, 884, 885, 886, 887, 888, 889, 890, 891, 892, 893, 894, 895, 896, 897, 898, 899, 900, 901, 902, 903, 904, 905, 906, 907, 908, 909, 910, 911, 912, 913, 914, 915, 916, 917, 918, 919, 920, 921, 922, 923, 924, 925, 926, 927, 928, 929, 930, 931, 932, 933, 934, 935, 936, 937, 938, 939, 940, 941, 942, 943, 944, 945, 946, 947, 948, 949, 950, 951, 952, 953, 954, 955, 956, 957, 958, 959, 960, 961, 962, 963, 964, 965, 966, 967, 968, 969, 970, 971, 972, 973, 974, 975, 976, 977, 978, 979, 980, 981, 982, 983, 984, 985, 986, 987, 988, 989, 990, 991, 992, 993, 994, 995, 996, 997, 998, 999, 1000, 1001, 1002, 1003, 1004, 1005, 1006, 1007, 1008, 1009, 1010, 1011, 1012, 1013, 1014, 1015, 1016, 1017, 1018, 1019, 1020, 1021, 1022, 1023, 1024, 1025, 1026, 1027, 1028, 1029, 1030, 1031, 1032, 1033, 1034, 1035, 1036, 1037, 1038, 1039, 1040, 1041, 1042, 1043, 1044, 1045, 1046, 1047, 1048, 1049, 1050, 1051, 1052, 1053, 1054, 1055, 1056, 1057, 1058, 1059, 1060, 1061, 1062, 1063, 1064, 1065, 1066, 1067, 1068, 1069, 1070, 1071, 1072, 1073, 1074, 1075, 1076, 1077, 1078, 1079, 1080, 1081, 1082, 1083, 1084, 1085, 1086, 1087, 1088, 1089, 1090, 1091, 1092, 1093, 1094, 1095, 1096, 1097, 1098],
      "AcquisitionTime": ["125920.617500", "125921.077500", "125921.537500", "125921.997500", "125922.457500", "125922.917500", "125923.377500", "125923.837500", "125924.297500", "125924.757500", "125925.217500", "125925.677500", "125926.137500", "125926.597500", "125927.057500", "125927.517500", "125927.977500", "125928.437500", "125928.897500", "125929.357500", "125929.817500", "125930.277500", "125930.737500", "125931.197500", "125931.657500", "125932.117500", "125932.577500", "125933.037500", "125933.497500", "125933.957500", "125934.417500", "125934.877500", "125935.337500", "125935.797500", "125936.257500", "125936.717500", "125937.177500", "125937.637500", "125938.097500", "125938.557500", "125939.017500", "125939.477500", "125939.937500", "125940.397500", "125940.857500", "125941.317500", "125941.777500", "125942.237500", "125942.697500", "125943.157500", "125943.617500", "125944.077500", "125944.537500", "125944.997500", "125945.457500", "125945.917500", "125946.377500", "125946.837500", "125947.297500", "125947.757500", "125948.217500", "125948.677500", "125949.137500", "125949.597500", "125950.057500", "125950.517500", "125950.977500", "125951.437500", "125951.897500", "125952.357500", "125952.817500", "125953.277500", "125953.737500", "125954.197500", "125954.657500", "125955.117500", "125955.577500", "125956.037500", "125956.497500", "125956.957500", "125957.417500", "125957.877500", "125958.337500", "125958.797500", "125959.257500", "125959.717500", "130000.177500", "130000.637500", "130001.097500", "130001.557500", "130002.017500", "130002.477500", "130002.937500", "130003.397500", "130003.857500", "130004.317500", "130004.777500", "130005.237500", "130005.697500", "130006.157500", "130006.617500", "130007.077500", "130007.537500", "130007.997500", "130008.457500", "130008.917500", "130009.377500", "130009.837500", "130010.297500", "130010.757500", "130011.217500", "130011.677500", "130012.137500", "130012.597500", "130013.057500", "130013.517500", "130013.977500", "130014.437500", "130014.897500", "130015.357500", "130015.817500", "130016.277500", "130016.737500", "130017.197500", "130017.657500", "130018.117500", "130018.577500", "130019.037500", "130019.497500", "130019.957500", "130020.417500", "130020.877500", "130021.337500", "130021.797500", "130022.257500", "130022.717500", "130023.177500", "130023.637500", "130024.097500", "130024.557500", "130025.017500", "130025.477500", "130025.937500", "130026.397500", "130026.857500", "130027.317500", "130027.777500", "130028.237500", "130028.697500", "130029.157500", "130029.617500", "130030.077500", "130030.537500", "130030.997500", "130031.457500", "130031.917500", "130032.377500", "130032.837500", "130033.297500", "130033.757500", "130034.217500", "130034.677500", "130035.137500", "130035.597500", "130036.057500", "130036.517500", "130036.977500", "130037.437500", "130037.897500", "130038.357500", "130038.817500", "130039.277500", "130039.737500", "130040.197500", "130040.657500", "130041.117500", "130041.577500", "130042.037500", "130042.497500", "130042.957500", "130043.417500", "130043.877500", "130044.337500", "130044.797500", "130045.257500", "130045.717500", "130046.177500", "130046.637500", "130047.097500", "130047.557500", "130048.017500", "130048.477500", "130048.937500", "130049.397500", "130049.857500", "130050.317500", "130050.777500", "130051.237500", "130051.697500", "130052.157500", "130052.617500", "130053.077500", "130053.537500", "130053.997500", "130054.457500", "130054.917500", "130055.377500", "130055.837500", "130056.297500", "130056.757500", "130057.217500", "130057.677500", "130058.137500", "130058.597500", "130059.057500", "130059.517500", "130059.977500", "130100.437500", "130100.897500", "130101.357500", "130101.817500", "130102.277500", "130102.737500", "130103.197500", "130103.657500", "130104.117500", "130104.577500", "130105.037500", "130105.497500", "130105.957500", "130106.417500", "130106.877500", "130107.337500", "130107.797500", "130108.257500", "130108.717500", "130109.177500", "130109.637500", "130110.097500", "130110.557500", "130111.017500", "130111.477500", "130111.937500", "130112.397500", "130112.857500", "130113.317500", "130113.777500", "130114.237500", "130114.697500", "130115.157500", "130115.617500", "130116.077500", "130116.537500", "130116.997500", "130117.457500", "130117.917500", "130118.377500", "130118.837500", "130119.297500", "130119.757500", "130120.217500", "130120.677500", "130121.137500", "130121.597500", "130122.057500", "130122.517500", "130122.977500", "130123.437500", "130123.897500", "130124.357500", "130124.817500", "130125.277500", "130125.737500", "130126.197500", "130126.657500", "130127.117500", "130127.577500", "130128.037500", "130128.497500", "130128.957500", "130129.417500", "130129.877500", "130130.337500", "130130.797500", "130131.257500", "130131.717500", "130132.177500", "130132.637500", "130133.097500", "130133.557500", "130134.017500", "130134.477500", "130134.937500", "130135.397500", "130135.857500", "130136.317500", "130136.777500", "130137.237500", "130137.697500", "130138.157500", "130138.617500", "130139.077500", "130139.537500", "130139.997500", "130140.457500", "130140.917500", "130141.377500", "130141.837500", "130142.297500", "130142.757500", "130143.217500", "130143.677500", "130144.137500", "130144.597500", "130145.057500", "130145.517500", "130145.977500", "130146.437500", "130146.897500", "130147.357500", "130147.817500", "130148.277500", "130148.737500", "130149.197500", "130149.657500", "130150.117500", "130150.577500", "130151.037500", "130151.497500", "130151.957500", "130152.417500", "130152.877500", "130153.337500", "130153.797500", "130154.257500", "130154.717500", "130155.177500", "130155.637500", "130156.097500", "130156.557500", "130157.017500", "130157.477500", "130157.937500", "130158.397500", "130158.857500", "130159.317500", "130159.777500", "130200.237500", "130200.697500", "130201.157500", "130201.617500", "130202.077500", "130202.537500", "130202.997500", "130203.457500", "130203.917500", "130204.377500", "130204.837500", "130205.297500", "130205.757500", "130206.217500", "130206.677500", "130207.137500", "130207.597500", "130208.057500", "130208.517500", "130208.977500", "130209.437500", "130209.897500", "130210.357500", "130210.817500", "130211.277500", "130211.737500", "130212.197500", "130212.657500", "130213.117500", "130213.577500", "130214.037500", "130214.497500", "130214.957500", "130215.417500", "130215.877500", "130216.337500", "130216.797500", "130217.257500", "130217.717500", "130218.177500", "130218.637500", "130219.097500", "130219.557500", "130220.017500", "130220.477500", "130220.937500", "130221.397500", "130221.857500", "130222.317500", "130222.777500", "130223.237500", "130223.697500", "130224.157500", "130224.617500", "130225.077500", "130225.537500", "130225.997500", "130226.457500", "130226.917500", "130227.377500", "130227.837500", "130228.297500", "130228.757500", "130229.217500", "130229.677500", "130230.137500", "130230.597500", "130231.057500", "130231.517500", "130231.977500", "130232.437500", "130232.897500", "130233.357500", "130233.817500", "130234.277500", "130234.737500", "130235.197500", "130235.657500", "130236.117500", "130236.577500", "130237.037500", "130237.497500", "130237.957500", "130238.417500", "130238.877500", "130239.337500", "130239.797500", "130240.257500", "130240.717500", "130241.177500", "130241.637500", "130242.097500", "130242.557500", "130243.017500", "130243.477500", "130243.937500", "130244.397500", "130244.857500", "130245.317500", "130245.777500", "130246.237500", "130246.697500", "130247.157500", "130247.617500", "130248.077500", "130248.537500", "130248.997500", "130249.457500", "130249.917500", "130250.377500", "130250.837500", "130251.297500", "130251.757500", "130252.217500", "130252.677500", "130253.137500", "130253.597500", "130254.057500", "130254.517500", "130254.977500", "130255.437500", "130255.897500", "130256.357500", "130256.817500", "130257.277500", "130257.737500", "130258.197500", "130258.657500", "130259.117500", "130259.577500", "130300.037500", "130300.497500", "130300.957500", "130301.417500", "130301.877500", "130302.337500", "130302.797500", "130303.257500", "130303.717500", "130304.177500", "130304.637500", "130305.097500", "130305.557500", "130306.017500", "130306.477500", "130306.937500", "130307.397500", "130307.857500", "130308.317500", "130308.777500", "130309.237500", "130309.697500", "130310.157500", "130310.617500", "130311.077500", "130311.537500", "130311.997500", "130312.457500", "130312.917500", "130313.377500", "130313.837500", "130314.297500", "130314.757500", "130315.217500", "130315.677500", "130316.137500", "130316.597500", "130317.057500", "130317.517500", "130317.977500", "130318.437500", "130318.897500", "130319.357500", "130319.817500", "130320.277500", "130320.737500", "130321.197500", "130321.657500", "130322.117500", "130322.577500", "130323.037500", "130323.497500", "130323.957500", "130324.417500", "130324.877500", "130325.337500", "130325.797500", "130326.257500", "130326.717500", "130327.177500", "130327.637500", "130328.097500", "130328.557500", "130329.017500", "130329.477500", "130329.937500", "130330.397500", "130330.857500", "130331.317500", "130331.777500", "130332.237500", "130332.697500", "130333.157500", "130333.617500", "130334.077500", "130334.537500", "130334.997500", "130335.457500", "130335.917500", "130336.377500", "130336.837500", "130337.297500", "130337.757500", "130338.217500", "130338.677500", "130339.137500", "130339.597500", "130340.057500", "130340.517500", "130340.977500", "130341.437500", "130341.897500", "130342.357500", "130342.817500", "130343.277500", "130343.737500", "130344.197500", "130344.657500", "130345.117500", "130345.577500", "130346.037500", "130346.497500", "130346.957500", "130347.417500", "130347.877500", "130348.337500", "130348.797500", "130349.257500", "130349.717500", "130350.177500", "130350.637500", "130351.097500", "130351.557500", "130352.017500", "130352.477500", "130352.937500", "130353.397500", "130353.857500", "130354.317500", "130354.777500", "130355.237500", "130355.697500", "130356.157500", "130356.617500", "130357.077500", "130357.537500", "130357.997500", "130358.457500", "130358.917500", "130359.377500", "130359.837500", "130400.297500", "130400.757500", "130401.217500", "130401.677500", "130402.137500", "130402.597500", "130403.057500", "130403.517500", "130403.977500", "130404.437500", "130404.897500", "130405.357500", "130405.817500", "130406.277500", "130406.737500", "130407.197500", "130407.657500", "130408.117500", "130408.577500", "130409.037500", "130409.497500", "130409.957500", "130410.417500", "130410.877500", "130411.337500", "130411.797500", "130412.257500", "130412.717500", "130413.177500", "130413.637500", "130414.097500", "130414.557500", "130415.017500", "130415.477500", "130415.937500", "130416.397500", "130416.857500", "130417.317500", "130417.777500", "130418.237500", "130418.697500", "130419.157500", "130419.617500", "130420.077500", "130420.537500", "130420.997500", "130421.457500", "130421.917500", "130422.377500", "130422.837500", "130423.297500", "130423.757500", "130424.217500", "130424.677500", "130425.137500", "130425.597500", "130426.057500", "130426.517500", "130426.977500", "130427.437500", "130427.897500", "130428.357500", "130428.817500", "130429.277500", "130429.737500", "130430.197500", "130430.657500", "130431.117500", "130431.577500", "130432.037500", "130432.497500", "130432.957500", "130433.417500", "130433.877500", "130434.337500", "130434.797500", "130435.257500", "130435.717500", "130436.177500", "130436.637500", "130437.097500", "130437.557500", "130438.017500", "130438.477500", "130438.937500", "130439.397500", "130439.857500", "130440.317500", "130440.777500", "130441.237500", "130441.697500", "130442.157500", "130442.617500", "130443.077500", "130443.537500", "130443.997500", "130444.457500", "130444.917500", "130445.377500", "130445.837500", "130446.297500", "130446.757500", "130447.217500", "130447.677500", "130448.137500", "130448.597500", "130449.057500", "130449.517500", "130449.977500", "130450.437500", "130450.897500", "130451.357500", "130451.817500", "130452.277500", "130452.737500", "130453.197500", "130453.657500", "130454.117500", "130454.577500", "130455.037500", "130455.497500", "130455.957500", "130456.417500", "130456.877500", "130457.337500", "130457.797500", "130458.257500", "130458.717500", "130459.177500", "130459.637500", "130500.097500", "130500.557500", "130501.017500", "130501.477500", "130501.937500", "130502.397500", "130502.857500", "130503.317500", "130503.777500", "130504.237500", "130504.697500", "130505.157500", "130505.617500", "130506.077500", "130506.537500", "130506.997500", "130507.457500", "130507.917500", "130508.377500", "130508.837500", "130509.297500", "130509.757500", "130510.217500", "130510.677500", "130511.137500", "130511.597500", "130512.057500", "130512.517500", "130512.977500", "130513.437500", "130513.897500", "130514.357500", "130514.817500", "130515.277500", "130515.737500", "130516.197500", "130516.657500", "130517.117500", "130517.577500", "130518.037500", "130518.497500", "130518.957500", "130519.417500", "130519.877500", "130520.337500", "130520.797500", "130521.257500", "130521.717500", "130522.177500", "130522.637500", "130523.097500", "130523.557500", "130524.017500", "130524.477500", "130524.937500", "130525.397500", "130525.857500", "130526.317500", "130526.777500", "130527.237500", "130527.697500", "130528.157500", "130528.617500", "130529.077500", "130529.537500", "130529.997500", "130530.457500", "130530.917500", "130531.377500", "130531.837500", "130532.297500", "130532.757500", "130533.217500", "130533.677500", "130534.137500", "130534.597500", "130535.057500", "130535.517500", "130535.977500", "130536.437500", "130536.897500", "130537.357500", "130537.817500", "130538.277500", "130538.737500", "130539.197500", "130539.657500", "130540.117500", "130540.577500", "130541.037500", "130541.497500", "130541.957500", "130542.417500", "130542.877500", "130543.337500", "130543.797500", "130544.257500", "130544.717500", "130545.177500", "130545.637500", "130546.097500", "130546.557500", "130547.017500", "130547.477500", "130547.937500", "130548.397500", "130548.857500", "130549.317500", "130549.777500", "130550.237500", "130550.697500", "130551.157500", "130551.617500", "130552.077500", "130552.537500", "130552.997500", "130553.457500", "130553.917500", "130554.377500", "130554.837500", "130555.297500", "130555.757500", "130556.217500", "130556.677500", "130557.137500", "130557.597500", "130558.057500", "130558.517500", "130558.977500", "130559.437500", "130559.897500", "130600.357500", "130600.817500", "130601.277500", "130601.737500", "130602.197500", "130602.657500", "130603.117500", "130603.577500", "130604.037500", "130604.497500", "130604.957500", "130605.417500", "130605.877500", "130606.337500", "130606.797500", "130607.257500", "130607.717500", "130608.177500", "130608.637500", "130609.097500", "130609.557500", "130610.017500", "130610.477500", "130610.937500", "130611.397500", "130611.857500", "130612.317500", "130612.777500", "130613.237500", "130613.697500", "130614.157500", "130614.617500", "130615.077500", "130615.537500", "130615.997500", "130616.457500", "130616.917500", "130617.377500", "130617.837500", "130618.297500", "130618.757500", "130619.217500", "130619.677500", "130620.137500", "130620.597500", "130621.057500", "130621.517500", "130621.977500", "130622.437500", "130622.897500", "130623.357500", "130623.817500", "130624.277500", "130624.737500", "130625.197500", "130625.657500", "130626.117500", "130626.577500", "130627.037500", "130627.497500", "130627.957500", "130628.417500", "130628.877500", "130629.337500", "130629.797500", "130630.257500", "130630.717500", "130631.177500", "130631.637500", "130632.097500", "130632.557500", "130633.017500", "130633.477500", "130633.937500", "130634.397500", "130634.857500", "130635.317500", "130635.777500", "130636.237500", "130636.697500", "130637.157500", "130637.617500", "130638.077500", "130638.537500", "130638.997500", "130639.457500", "130639.917500", "130640.377500", "130640.837500", "130641.297500", "130641.757500", "130642.217500", "130642.677500", "130643.137500", "130643.597500", "130644.057500", "130644.517500", "130644.977500", "130645.437500", "130645.897500", "130646.357500", "130646.817500", "130647.277500", "130647.737500", "130648.197500", "130648.657500", "130649.117500", "130649.577500", "130650.037500", "130650.497500", "130650.957500", "130651.417500", "130651.877500", "130652.337500", "130652.797500", "130653.257500", "130653.717500", "130654.177500", "130654.637500", "130655.097500", "130655.557500", "130656.017500", "130656.477500", "130656.937500", "130657.397500", "130657.857500", "130658.317500", "130658.777500", "130659.237500", "130659.697500", "130700.157500", "130700.617500", "130701.077500", "130701.537500", "130701.997500", "130702.457500", "130702.917500", "130703.377500", "130703.837500", "130704.297500", "130704.757500", "130705.217500", "130705.677500", "130706.137500", "130706.597500", "130707.057500", "130707.517500", "130707.977500", "130708.437500", "130708.897500", "130709.357500", "130709.817500", "130710.277500", "130710.737500", "130711.197500", "130711.657500", "130712.117500", "130712.577500", "130713.037500", "130713.497500", "130713.957500", "130714.417500", "130714.877500", "130715.337500", "130715.797500", "130716.257500", "130716.717500", "130717.177500", "130717.637500", "130718.097500", "130718.557500", "130719.017500", "130719.477500", "130719.937500", "130720.397500", "130720.857500", "130721.317500", "130721.777500", "130722.237500", "130722.697500", "130723.157500", "130723.617500", "130724.077500", "130724.537500", "130724.997500", "130725.457500", "130725.917500", "130726.377500", "130726.837500", "130727.297500", "130727.757500", "130728.217500", "130728.677500", "130729.137500", "130729.597500", "130730.057500", "130730.517500", "130730.977500", "130731.437500", "130731.897500", "130732.357500", "130732.817500", "130733.277500", "130733.737500", "130734.197500", "130734.657500", "130735.117500", "130735.577500", "130736.037500", "130736.497500", "130736.957500", "130737.417500", "130737.877500", "130738.337500", "130738.797500", "130739.257500", "130739.717500", "130740.177500", "130740.637500", "130741.097500", "130741.557500", "130742.017500", "130742.477500", "130742.937500", "130743.397500", "130743.857500", "130744.317500", "130744.777500", "130745.237500"],
