{
  "AcquisitionMatrixPE": 82,
  "AcquisitionNumber": 1,
  "AcquisitionTime": "21:12:50.670000",
  "BandwidthPerPixelPhaseEncode": 24.888,
  "BaseResolution": 82,
  "BodyPartExamined": "BRAIN",
  "ConsistencyInfo": "N4_VE11E_LATEST_20181129",
  "ConversionSoftware": "dcm2niix",
  "ConversionSoftwareVersion": "v1.0.20201102",
  "DerivedVendorReportedEchoSpacing": 0.00049,
  "DeviceSerialNumber": "66112",
  "DwellTime": 2e-06,
  "EchoTime": 0.0272,
  "EchoTrainLength": 82,
  "EffectiveEchoSpacing": 0.00049,
  "FlipAngle": 44,
  "ImageComments": "Unaliased MB8/PE3",
  "ImageOrientationPatientDICOM": [0.997541, -0.0287203, -0.06393, 0.032569, 0.997667, 0.0599971],
  "ImageType": [
    "ORIGINAL",
    "PRIMARY",
    "M",
    "MB",
    "ND",
    "NORM",
    "MOSAIC"
],
  "ImagingFrequency": 123.259,
  "InPlanePhaseEncodingDirectionDICOM": "COL",
  "InstitutionAddress": "Maynard 3,Hanover,NH,US,03755",
  "InstitutionName": "Dartmouth College - PBS",
  "InstitutionalDepartmentName": "Department",
  "MRAcquisitionType": "2D",
  "MagneticFieldStrength": 3,
  "Manufacturer": "Siemens",
  "ManufacturersModelName": "Prisma",
  "Modality": "MR",
  "MultibandAccelerationFactor": 8,
  "PartialFourier": 1,
  "PatientPosition": "HFS",
  "PercentPhaseFOV": 100,
  "PercentSampling": 100,
  "PhaseEncodingDirection": "j-",
  "PhaseEncodingSteps": 82,
  "PhaseResolution": 1,
  "PixelBandwidth": 3050,
  "ProcedureStepDescription": "Wager_Wager^1076_spacetop",
  "ProtocolName": "func_run-03_task-social_acq-ap-mb8",
  "PulseSequenceDetails": "%CustomerSeq%\\cmrr_mbep2d_bold",
  "ReceiveCoilActiveElements": "HEA;HEP",
  "ReceiveCoilName": "Head_32",
  "ReconMatrixPE": 82,
  "RepetitionTime": 0.46,
  "SAR": 0.095939,
  "ScanOptions": "FS",
  "ScanningSequence": "EP",
  "SequenceName": "epfid2d1_82",
  "SequenceVariant": "SK\\SS",
  "SeriesDescription": "func_run-03_task-social_acq-ap-mb8",
  "SeriesNumber": 12,
  "ShimSetting": [4214, -7787, -7241, 416, -141, 45, 17, 115],
  "SliceThickness": 2.7,
  "SliceTiming": [0, 0.25, 0.0625, 0.3125, 0.125, 0.375, 0.1875, 0, 0.25, 0.0625, 0.3125, 0.125, 0.375, 0.1875, 0, 0.25, 0.0625, 0.3125, 0.125, 0.375, 0.1875, 0, 0.25, 0.0625, 0.3125, 0.125, 0.375, 0.1875, 0, 0.25, 0.0625, 0.3125, 0.125, 0.375, 0.1875, 0, 0.25, 0.0625, 0.3125, 0.125, 0.375, 0.1875, 0, 0.25, 0.0625, 0.3125, 0.125, 0.375, 0.1875, 0, 0.25, 0.0625, 0.3125, 0.125, 0.375, 0.1875],
  "SoftwareVersions": "syngo MR E11",
  "SpacingBetweenSlices": 2.7,
  "StationName": "AWP66112",
  "TaskName": "social",
  "TotalReadoutTime": 0.03969,
  "TxRefAmp": 233.119,
  "WipMemBlock": "7f3cc6f9-c2cb-4c32-800c-1584f80408a6||Sequence: R016 ve11e/master r/434b28f1; Aug  7 2019 18:53:46 by eja",
  "dcmmeta_affine": [
    [-2.6763296127319336, 0.08738034963607788, -0.16755592823028564, 109.14598083496094],
    [0.07705456763505936, 2.6766679286956787, 0.16721564531326294, -110.36207580566406],
    [-0.17151959240436554, -0.1609678566455841, 2.689602851867676, -50.98103713989258],
    [0.0, 0.0, 0.0, 1.0]
],
  "dcmmeta_reorient_transform": [
    [0.0, -1.0, 0.0, 81.0],
    [1.0, 0.0, 0.0, 0.0],
    [0.0, 0.0, 1.0, 0.0],
    [0.0, 0.0, 0.0, 1.0]
],
  "dcmmeta_shape": [82, 82, 56, 872],
  "dcmmeta_slice_dim": 2,
  "dcmmeta_version": 0.6,
  "global": {
    "const": {
      "AccessionNumber": "A004836",
      "AcquisitionMatrix": [82, 0, 0, 82],
      "AngioFlag": "N",
      "BitsAllocated": 16,
      "BitsStored": 16,
      "BodyPartExamined": "BRAIN",
      "Columns": 656,
      "EchoNumbers": 1,
      "EchoTime": 27.2,
      "EchoTrainLength": 82,
      "FlipAngle": 44.0,
      "HighBit": 15,
      "ImageOrientationPatient": [0.99754102342146, -0.0287203371258, -0.0639300307105, 0.03256903856024, 0.99766708093954, 0.05999711107086],
      "ImagePositionPatient": [-909.40855518593, -852.5370293804, -60.991087519357],
      "ImageType": [
        "ORIGINAL",
        "PRIMARY",
        "M",
        "MB",
        "ND",
        "NORM",
        "MOSAIC"
],
      "ImagedNucleus": "1H",
      "ImagingFrequency": 123.259091,
      "InPlanePhaseEncodingDirection": "COL",
      "MRAcquisitionType": "2D",
      "MagneticFieldStrength": 3.0,
      "Manufacturer": "SIEMENS",
      "ManufacturerModelName": "Prisma",
      "Modality": "MR",
      "NumberOfAverages": 1.0,
      "NumberOfPhaseEncodingSteps": 82,
      "PercentPhaseFieldOfView": 100.0,
      "PercentSampling": 100.0,
      "PerformedProcedureStepStartTime": "204147.381000",
      "PhotometricInterpretation": "MONOCHROME2",
      "PixelBandwidth": 3050.0,
      "PixelRepresentation": 0,
      "PixelSpacing": [2.6829268932343, 2.6829268932343],
      "ProtocolName": "func_run-03_task-social_acq-ap-mb8",
      "RepetitionTime": 460.0,
      "Rows": 656,
      "SAR": 0.09593894825549,
      "SamplesPerPixel": 1,
      "ScanOptions": "FS",
      "ScanningSequence": "EP",
      "SequenceName": "epfid2d1_82",
      "SequenceVariant": [
        "SK",
        "SS"
],
      "SeriesDescription": "func_run-03_task-social_acq-ap-mb8",
      "SeriesNumber": 12,
      "SeriesTime": "211319.764000",
      "SliceLocation": -64.39298987745,
      "SliceThickness": 2.7000000476837,
      "SmallestImagePixelValue": 0,
      "SoftwareVersions": "syngo MR E11",
      "SpacingBetweenSlices": 2.7000000053687,
      "SpecificCharacterSet": "ISO_IR 100",
      "StudyID": "1",
      "StudyTime": "204147.316000",
      "TransmitCoilName": "Body",
      "VariableFlipAngleFlag": "N",
      "WindowCenterWidthExplanation": "Algo1"
    },
    "slices": {}
  },
  "time": {
    "samples": {
      "AcquisitionNumber": [1, 2, 3, 4, 5, 6, 7, 8, 9, 10, 11, 12, 13, 14, 15, 16, 17, 18, 19, 20, 21, 22, 23, 24, 25, 26, 27, 28, 29, 30, 31, 32, 33, 34, 35, 36, 37, 38, 39, 40, 41, 42, 43, 44, 45, 46, 47, 48, 49, 50, 51, 52, 53, 54, 55, 56, 57, 58, 59, 60, 61, 62, 63, 64, 65, 66, 67, 68, 69, 70, 71, 72, 73, 74, 75, 76, 77, 78, 79, 80, 81, 82, 83, 84, 85, 86, 87, 88, 89, 90, 91, 92, 93, 94, 95, 96, 97, 98, 99, 100, 101, 102, 103, 104, 105, 106, 107, 108, 109, 110, 111, 112, 113, 114, 115, 116, 117, 118, 119, 120, 121, 122, 123, 124, 125, 126, 127, 128, 129, 130, 131, 132, 133, 134, 135, 136, 137, 138, 139, 140, 141, 142, 143, 144, 145, 146, 147, 148, 149, 150, 151, 152, 153, 154, 155, 156, 157, 158, 159, 160, 161, 162, 163, 164, 165, 166, 167, 168, 169, 170, 171, 172, 173, 174, 175, 176, 177, 178, 179, 180, 181, 182, 183, 184, 185, 186, 187, 188, 189, 190, 191, 192, 193, 194, 195, 196, 197, 198, 199, 200, 201, 202, 203, 204, 205, 206, 207, 208, 209, 210, 211, 212, 213, 214, 215, 216, 217, 218, 219, 220, 221, 222, 223, 224, 225, 226, 227, 228, 229, 230, 231, 232, 233, 234, 235, 236, 237, 238, 239, 240, 241, 242, 243, 244, 245, 246, 247, 248, 249, 250, 251, 252, 253, 254, 255, 256, 257, 258, 259, 260, 261, 262, 263, 264, 265, 266, 267, 268, 269, 270, 271, 272, 273, 274, 275, 276, 277, 278, 279, 280, 281, 282, 283, 284, 285, 286, 287, 288, 289, 290, 291, 292, 293, 294, 295, 296, 297, 298, 299, 300, 301, 302, 303, 304, 305, 306, 307, 308, 309, 310, 311, 312, 313, 314, 315, 316, 317, 318, 319, 320, 321, 322, 323, 324, 325, 326, 327, 328, 329, 330, 331, 332, 333, 334, 335, 336, 337, 338, 339, 340, 341, 342, 343, 344, 345, 346, 347, 348, 349, 350, 351, 352, 353, 354, 355, 356, 357, 358, 359, 360, 361, 362, 363, 364, 365, 366, 367, 368, 369, 370, 371, 372, 373, 374, 375, 376, 377, 378, 379, 380, 381, 382, 383, 384, 385, 386, 387, 388, 389, 390, 391, 392, 393, 394, 395, 396, 397, 398, 399, 400, 401, 402, 403, 404, 405, 406, 407, 408, 409, 410, 411, 412, 413, 414, 415, 416, 417, 418, 419, 420, 421, 422, 423, 424, 425, 426, 427, 428, 429, 430, 431, 432, 433, 434, 435, 436, 437, 438, 439, 440, 441, 442, 443, 444, 445, 446, 447, 448, 449, 450, 451, 452, 453, 454, 455, 456, 457, 458, 459, 460, 461, 462, 463, 464, 465, 466, 467, 468, 469, 470, 471, 472, 473, 474, 475, 476, 477, 478, 479, 480, 481, 482, 483, 484, 485, 486, 487, 488, 489, 490, 491, 492, 493, 494, 495, 496, 497, 498, 499, 500, 501, 502, 503, 504, 505, 506, 507, 508, 509, 510, 511, 512, 513, 514, 515, 516, 517, 518, 519, 520, 521, 522, 523, 524, 525, 526, 527, 528, 529, 530, 531, 532, 533, 534, 535, 536, 537, 538, 539, 540, 541, 542, 543, 544, 545, 546, 547, 548, 549, 550, 551, 552, 553, 554, 555, 556, 557, 558, 559, 560, 561, 562, 563, 564, 565, 566, 567, 568, 569, 570, 571, 572, 573, 574, 575, 576, 577, 578, 579, 580, 581, 582, 583, 584, 585, 586, 587, 588, 589, 590, 591, 592, 593, 594, 595, 596, 597, 598, 599, 600, 601, 602, 603, 604, 605, 606, 607, 608, 609, 610, 611, 612, 613, 614, 615, 616, 617, 618, 619, 620, 621, 622, 623, 624, 625, 626, 627, 628, 629, 630, 631, 632, 633, 634, 635, 636, 637, 638, 639, 640, 641, 642, 643, 644, 645, 646, 647, 648, 649, 650, 651, 652, 653, 654, 655, 656, 657, 658, 659, 660, 661, 662, 663, 664, 665, 666, 667, 668, 669, 670, 671, 672, 673, 674, 675, 676, 677, 678, 679, 680, 681, 682, 683, 684, 685, 686, 687, 688, 689, 690, 691, 692, 693, 694, 695, 696, 697, 698, 699, 700, 701, 702, 703, 704, 705, 706, 707, 708, 709, 710, 711, 712, 713, 714, 715, 716, 717, 718, 719, 720, 721, 722, 723, 724, 725, 726, 727, 728, 729, 730, 731, 732, 733, 734, 735, 736, 737, 738, 739, 740, 741, 742, 743, 744, 745, 746, 747, 748, 749, 750, 751, 752, 753, 754, 755, 756, 757, 758, 759, 760, 761, 762, 763, 764, 765, 766, 767, 768, 769, 770, 771, 772, 773, 774, 775, 776, 777, 778, 779, 780, 781, 782, 783, 784, 785, 786, 787, 788, 789, 790, 791, 792, 793, 794, 795, 796, 797, 798, 799, 800, 801, 802, 803, 804, 805, 806, 807, 808, 809, 810, 811, 812, 813, 814, 815, 816, 817, 818, 819, 820, 821, 822, 823, 824, 825, 826, 827, 828, 829, 830, 831, 832, 833, 834, 835, 836, 837, 838, 839, 840, 841, 842, 843, 844, 845, 846, 847, 848, 849, 850, 851, 852, 853, 854, 855, 856, 857, 858, 859, 860, 861, 862, 863, 864, 865, 866, 867, 868, 869, 870, 871, 872],
      "AcquisitionTime": ["211250.670000", "211251.130000", "211251.590000", "211252.050000", "211252.510000", "211252.970000", "211253.430000", "211253.890000", "211254.350000", "211254.810000", "211255.270000", "211255.730000", "211256.190000", "211256.650000", "211257.110000", "211257.570000", "211258.030000", "211258.490000", "211258.950000", "211259.410000", "211259.870000", "211300.330000", "211300.790000", "211301.250000", "211301.710000", "211302.170000", "211302.630000", "211303.090000", "211303.550000", "211304.010000", "211304.470000", "211304.930000", "211305.390000", "211305.850000", "211306.310000", "211306.770000", "211307.230000", "211307.690000", "211308.150000", "211308.610000", "211309.070000", "211309.530000", "211309.990000", "211310.450000", "211310.910000", "211311.370000", "211311.830000", "211312.290000", "211312.750000", "211313.210000", "211313.670000", "211314.130000", "211314.590000", "211315.050000", "211315.510000", "211315.970000", "211316.430000", "211316.890000", "211317.350000", "211317.810000", "211318.270000", "211318.730000", "211319.190000", "211319.650000", "211320.110000", "211320.570000", "211321.030000", "211321.490000", "211321.950000", "211322.410000", "211322.870000", "211323.330000", "211323.790000", "211324.250000", "211324.710000", "211325.170000", "211325.630000", "211326.090000", "211326.550000", "211327.010000", "211327.470000", "211327.930000", "211328.390000", "211328.850000", "211329.310000", "211329.770000", "211330.230000", "211330.690000", "211331.150000", "211331.610000", "211332.070000", "211332.530000", "211332.990000", "211333.450000", "211333.910000", "211334.370000", "211334.830000", "211335.290000", "211335.750000", "211336.210000", "211336.670000", "211337.130000", "211337.590000", "211338.050000", "211338.510000", "211338.970000", "211339.430000", "211339.890000", "211340.350000", "211340.810000", "211341.270000", "211341.730000", "211342.190000", "211342.650000", "211343.110000", "211343.570000", "211344.030000", "211344.490000", "211344.950000", "211345.410000", "211345.870000", "211346.330000", "211346.790000", "211347.250000", "211347.710000", "211348.170000", "211348.630000", "211349.090000", "211349.550000", "211350.010000", "211350.470000", "211350.930000", "211351.390000", "211351.850000", "211352.310000", "211352.770000", "211353.230000", "211353.690000", "211354.150000", "211354.610000", "211355.070000", "211355.530000", "211355.990000", "211356.450000", "211356.910000", "211357.370000", "211357.830000", "211358.290000", "211358.750000", "211359.210000", "211359.670000", "211400.130000", "211400.590000", "211401.050000", "211401.510000", "211401.970000", "211402.430000", "211402.890000", "211403.350000", "211403.810000", "211404.270000", "211404.730000", "211405.190000", "211405.650000", "211406.110000", "211406.570000", "211407.030000", "211407.490000", "211407.950000", "211408.410000", "211408.870000", "211409.330000", "211409.790000", "211410.250000", "211410.710000", "211411.170000", "211411.630000", "211412.090000", "211412.550000", "211413.010000", "211413.470000", "211413.930000", "211414.390000", "211414.850000", "211415.310000", "211415.770000", "211416.230000", "211416.690000", "211417.150000", "211417.610000", "211418.070000", "211418.530000", "211418.990000", "211419.450000", "211419.910000", "211420.370000", "211420.830000", "211421.290000", "211421.750000", "211422.210000", "211422.670000", "211423.130000", "211423.590000", "211424.050000", "211424.510000", "211424.970000", "211425.430000", "211425.890000", "211426.350000", "211426.810000", "211427.270000", "211427.730000", "211428.190000", "211428.650000", "211429.110000", "211429.570000", "211430.030000", "211430.490000", "211430.950000", "211431.410000", "211431.870000", "211432.330000", "211432.790000", "211433.250000", "211433.710000", "211434.170000", "211434.630000", "211435.090000", "211435.550000", "211436.010000", "211436.470000", "211436.930000", "211437.390000", "211437.850000", "211438.310000", "211438.770000", "211439.230000", "211439.690000", "211440.150000", "211440.610000", "211441.070000", "211441.530000", "211441.990000", "211442.450000", "211442.910000", "211443.370000", "211443.830000", "211444.290000", "211444.750000", "211445.210000", "211445.670000", "211446.130000", "211446.590000", "211447.050000", "211447.510000", "211447.970000", "211448.430000", "211448.890000", "211449.350000", "211449.810000", "211450.270000", "211450.730000", "211451.190000", "211451.650000", "211452.110000", "211452.570000", "211453.030000", "211453.490000", "211453.950000", "211454.410000", "211454.870000", "211455.330000", "211455.790000", "211456.250000", "211456.710000", "211457.170000", "211457.630000", "211458.090000", "211458.550000", "211459.010000", "211459.470000", "211459.930000", "211500.390000", "211500.850000", "211501.310000", "211501.770000", "211502.230000", "211502.690000", "211503.150000", "211503.610000", "211504.070000", "211504.530000", "211504.990000", "211505.450000", "211505.910000", "211506.370000", "211506.830000", "211507.290000", "211507.750000", "211508.210000", "211508.670000", "211509.130000", "211509.590000", "211510.050000", "211510.510000", "211510.970000", "211511.430000", "211511.890000", "211512.350000", "211512.810000", "211513.270000", "211513.730000", "211514.190000", "211514.650000", "211515.110000", "211515.570000", "211516.030000", "211516.490000", "211516.950000", "211517.410000", "211517.870000", "211518.330000", "211518.790000", "211519.250000", "211519.710000", "211520.170000", "211520.630000", "211521.090000", "211521.550000", "211522.010000", "211522.470000", "211522.930000", "211523.390000", "211523.850000", "211524.310000", "211524.770000", "211525.230000", "211525.690000", "211526.150000", "211526.610000", "211527.070000", "211527.530000", "211527.990000", "211528.450000", "211528.910000", "211529.370000", "211529.830000", "211530.290000", "211530.750000", "211531.210000", "211531.670000", "211532.130000", "211532.590000", "211533.050000", "211533.510000", "211533.970000", "211534.430000", "211534.890000", "211535.350000", "211535.810000", "211536.270000", "211536.730000", "211537.190000", "211537.650000", "211538.110000", "211538.570000", "211539.030000", "211539.490000", "211539.950000", "211540.410000", "211540.870000", "211541.330000", "211541.790000", "211542.250000", "211542.710000", "211543.170000", "211543.630000", "211544.090000", "211544.550000", "211545.010000", "211545.470000", "211545.930000", "211546.390000", "211546.850000", "211547.310000", "211547.770000", "211548.230000", "211548.690000", "211549.150000", "211549.610000", "211550.070000", "211550.530000", "211550.990000", "211551.450000", "211551.910000", "211552.370000", "211552.830000", "211553.290000", "211553.750000", "211554.210000", "211554.670000", "211555.130000", "211555.590000", "211556.050000", "211556.510000", "211556.970000", "211557.430000", "211557.890000", "211558.350000", "211558.810000", "211559.270000", "211559.730000", "211600.190000", "211600.650000", "211601.110000", "211601.570000", "211602.030000", "211602.490000", "211602.950000", "211603.410000", "211603.870000", "211604.330000", "211604.790000", "211605.250000", "211605.710000", "211606.170000", "211606.630000", "211607.090000", "211607.550000", "211608.010000", "211608.470000", "211608.930000", "211609.390000", "211609.850000", "211610.310000", "211610.770000", "211611.230000", "211611.690000", "211612.150000", "211612.610000", "211613.070000", "211613.530000", "211613.990000", "211614.450000", "211614.910000", "211615.370000", "211615.830000", "211616.290000", "211616.750000", "211617.210000", "211617.670000", "211618.130000", "211618.590000", "211619.050000", "211619.510000", "211619.970000", "211620.430000", "211620.890000", "211621.350000", "211621.810000", "211622.270000", "211622.730000", "211623.190000", "211623.650000", "211624.110000", "211624.570000", "211625.030000", "211625.490000", "211625.950000", "211626.410000", "211626.870000", "211627.330000", "211627.790000", "211628.250000", "211628.710000", "211629.170000", "211629.630000", "211630.090000", "211630.550000", "211631.010000", "211631.470000", "211631.930000", "211632.390000", "211632.850000", "211633.310000", "211633.770000", "211634.230000", "211634.690000", "211635.150000", "211635.610000", "211636.070000", "211636.530000", "211636.990000", "211637.450000", "211637.910000", "211638.370000", "211638.830000", "211639.290000", "211639.750000", "211640.210000", "211640.670000", "211641.130000", "211641.590000", "211642.050000", "211642.510000", "211642.970000", "211643.430000", "211643.890000", "211644.350000", "211644.810000", "211645.270000", "211645.730000", "211646.190000", "211646.650000", "211647.110000", "211647.570000", "211648.030000", "211648.490000", "211648.950000", "211649.410000", "211649.870000", "211650.330000", "211650.790000", "211651.250000", "211651.710000", "211652.170000", "211652.630000", "211653.090000", "211653.550000", "211654.010000", "211654.470000", "211654.930000", "211655.390000", "211655.850000", "211656.310000", "211656.770000", "211657.230000", "211657.690000", "211658.150000", "211658.610000", "211659.070000", "211659.530000", "211659.990000", "211700.450000", "211700.910000", "211701.370000", "211701.830000", "211702.290000", "211702.750000", "211703.210000", "211703.670000", "211704.130000", "211704.590000", "211705.050000", "211705.510000", "211705.970000", "211706.430000", "211706.890000", "211707.350000", "211707.810000", "211708.270000", "211708.730000", "211709.190000", "211709.650000", "211710.110000", "211710.570000", "211711.030000", "211711.490000", "211711.950000", "211712.410000", "211712.870000", "211713.330000", "211713.790000", "211714.250000", "211714.710000", "211715.170000", "211715.630000", "211716.090000", "211716.550000", "211717.010000", "211717.470000", "211717.930000", "211718.390000", "211718.850000", "211719.310000", "211719.770000", "211720.230000", "211720.690000", "211721.150000", "211721.610000", "211722.070000", "211722.530000", "211722.990000", "211723.450000", "211723.910000", "211724.370000", "211724.830000", "211725.290000", "211725.750000", "211726.210000", "211726.670000", "211727.130000", "211727.590000", "211728.050000", "211728.510000", "211728.970000", "211729.430000", "211729.890000", "211730.350000", "211730.810000", "211731.270000", "211731.730000", "211732.190000", "211732.650000", "211733.110000", "211733.570000", "211734.030000", "211734.490000", "211734.950000", "211735.410000", "211735.870000", "211736.330000", "211736.790000", "211737.250000", "211737.710000", "211738.170000", "211738.630000", "211739.090000", "211739.550000", "211740.010000", "211740.470000", "211740.930000", "211741.390000", "211741.850000", "211742.310000", "211742.770000", "211743.230000", "211743.690000", "211744.150000", "211744.610000", "211745.070000", "211745.530000", "211745.990000", "211746.450000", "211746.910000", "211747.370000", "211747.830000", "211748.290000", "211748.750000", "211749.210000", "211749.670000", "211750.130000", "211750.590000", "211751.050000", "211751.510000", "211751.970000", "211752.430000", "211752.890000", "211753.350000", "211753.810000", "211754.270000", "211754.730000", "211755.190000", "211755.650000", "211756.110000", "211756.570000", "211757.030000", "211757.490000", "211757.950000", "211758.410000", "211758.870000", "211759.330000", "211759.790000", "211800.250000", "211800.710000", "211801.170000", "211801.630000", "211802.090000", "211802.550000", "211803.010000", "211803.470000", "211803.930000", "211804.390000", "211804.850000", "211805.310000", "211805.770000", "211806.230000", "211806.690000", "211807.150000", "211807.610000", "211808.070000", "211808.530000", "211808.990000", "211809.450000", "211809.910000", "211810.370000", "211810.830000", "211811.290000", "211811.750000", "211812.210000", "211812.670000", "211813.130000", "211813.590000", "211814.050000", "211814.510000", "211814.970000", "211815.430000", "211815.890000", "211816.350000", "211816.810000", "211817.270000", "211817.730000", "211818.190000", "211818.650000", "211819.110000", "211819.570000", "211820.030000", "211820.490000", "211820.950000", "211821.410000", "211821.870000", "211822.330000", "211822.790000", "211823.250000", "211823.710000", "211824.170000", "211824.630000", "211825.090000", "211825.550000", "211826.010000", "211826.470000", "211826.930000", "211827.390000", "211827.850000", "211828.310000", "211828.770000", "211829.230000", "211829.690000", "211830.150000", "211830.610000", "211831.070000", "211831.530000", "211831.990000", "211832.450000", "211832.910000", "211833.370000", "211833.830000", "211834.290000", "211834.750000", "211835.210000", "211835.670000", "211836.130000", "211836.590000", "211837.050000", "211837.510000", "211837.970000", "211838.430000", "211838.890000", "211839.350000", "211839.810000", "211840.270000", "211840.730000", "211841.190000", "211841.650000", "211842.110000", "211842.570000", "211843.030000", "211843.490000", "211843.950000", "211844.410000", "211844.870000", "211845.330000", "211845.790000", "211846.250000", "211846.710000", "211847.170000", "211847.630000", "211848.090000", "211848.550000", "211849.010000", "211849.470000", "211849.930000", "211850.390000", "211850.850000", "211851.310000", "211851.770000", "211852.230000", "211852.690000", "211853.150000", "211853.610000", "211854.070000", "211854.530000", "211854.990000", "211855.450000", "211855.910000", "211856.370000", "211856.830000", "211857.290000", "211857.750000", "211858.210000", "211858.670000", "211859.130000", "211859.590000", "211900.050000", "211900.510000", "211900.970000", "211901.430000", "211901.890000", "211902.350000", "211902.810000", "211903.270000", "211903.730000", "211904.190000", "211904.650000", "211905.110000", "211905.570000", "211906.030000", "211906.490000", "211906.950000", "211907.410000", "211907.870000", "211908.330000", "211908.790000", "211909.250000", "211909.710000", "211910.170000", "211910.630000", "211911.090000", "211911.550000", "211912.010000", "211912.470000", "211912.930000", "211913.390000", "211913.850000", "211914.310000", "211914.770000", "211915.230000", "211915.690000", "211916.150000", "211916.610000", "211917.070000", "211917.530000", "211917.990000", "211918.450000", "211918.910000", "211919.370000", "211919.830000", "211920.290000", "211920.750000", "211921.210000", "211921.670000", "211922.130000", "211922.590000", "211923.050000", "211923.510000", "211923.970000", "211924.430000", "211924.890000", "211925.350000", "211925.810000", "211926.270000", "211926.730000", "211927.190000", "211927.650000", "211928.110000", "211928.570000", "211929.030000", "211929.490000", "211929.950000", "211930.410000", "211930.870000", "211931.330000"],
