{
  "AcquisitionMatrixPE": 82,
  "AcquisitionNumber": 1,
  "AcquisitionTime": "20:57:2.055000",
  "BandwidthPerPixelPhaseEncode": 24.888,
  "BaseResolution": 82,
  "BodyPartExamined": "BRAIN",
  "ConsistencyInfo": "N4_VE11E_LATEST_20181129",
  "ConversionSoftware": "dcm2niix",
  "ConversionSoftwareVersion": "v1.0.20201102",
  "DerivedVendorReportedEchoSpacing": 0.00049,
  "DeviceSerialNumber": "66112",
  "DwellTime": 2e-06,
  "EchoTime": 0.0272,
  "EchoTrainLength": 82,
  "EffectiveEchoSpacing": 0.00049,
  "FlipAngle": 44,
  "ImageComments": "Unaliased MB8/PE3",
  "ImageOrientationPatientDICOM": [0.997541, -0.0287203, -0.06393, 0.032569, 0.997667, 0.0599971],
  "ImageType": [
    "ORIGINAL",
    "PRIMARY",
    "M",
    "MB",
    "ND",
    "NORM",
    "MOSAIC"
],
  "ImagingFrequency": 123.259,
  "InPlanePhaseEncodingDirectionDICOM": "COL",
  "InstitutionAddress": "Maynard 3,Hanover,NH,US,03755",
  "InstitutionName": "Dartmouth College - PBS",
  "InstitutionalDepartmentName": "Department",
  "MRAcquisitionType": "2D",
  "MagneticFieldStrength": 3,
  "Manufacturer": "Siemens",
  "ManufacturersModelName": "Prisma",
  "Modality": "MR",
  "MultibandAccelerationFactor": 8,
  "PartialFourier": 1,
  "PatientPosition": "HFS",
  "PercentPhaseFOV": 100,
  "PercentSampling": 100,
  "PhaseEncodingDirection": "j-",
  "PhaseEncodingSteps": 82,
  "PhaseResolution": 1,
  "PixelBandwidth": 3050,
  "ProcedureStepDescription": "Wager_Wager^1076_spacetop",
  "ProtocolName": "func_run-01_task-social_acq-ap-mb8",
  "PulseSequenceDetails": "%CustomerSeq%\\cmrr_mbep2d_bold",
  "ReceiveCoilActiveElements": "HEA;HEP",
  "ReceiveCoilName": "Head_32",
  "ReconMatrixPE": 82,
  "RepetitionTime": 0.46,
  "SAR": 0.095939,
  "ScanOptions": "FS",
  "ScanningSequence": "EP",
  "SequenceName": "epfid2d1_82",
  "SequenceVariant": "SK\\SS",
  "SeriesDescription": "func_run-01_task-social_acq-ap-mb8",
  "SeriesNumber": 8,
  "ShimSetting": [4214, -7787, -7241, 416, -141, 45, 17, 115],
  "SliceThickness": 2.7,
  "SliceTiming": [0, 0.2525, 0.0625, 0.315, 0.125, 0.3775, 0.1875, 0, 0.2525, 0.0625, 0.315, 0.125, 0.3775, 0.1875, 0, 0.2525, 0.0625, 0.315, 0.125, 0.3775, 0.1875, 0, 0.2525, 0.0625, 0.315, 0.125, 0.3775, 0.1875, 0, 0.2525, 0.0625, 0.315, 0.125, 0.3775, 0.1875, 0, 0.2525, 0.0625, 0.315, 0.125, 0.3775, 0.1875, 0, 0.2525, 0.0625, 0.315, 0.125, 0.3775, 0.1875, 0, 0.2525, 0.0625, 0.315, 0.125, 0.3775, 0.1875],
  "SoftwareVersions": "syngo MR E11",
  "SpacingBetweenSlices": 2.7,
  "StationName": "AWP66112",
  "TaskName": "social",
  "TotalReadoutTime": 0.03969,
  "TxRefAmp": 233.119,
  "WipMemBlock": "25c675a1-c279-40e5-b878-312fc012f1f3||Sequence: R016 ve11e/master r/434b28f1; Aug  7 2019 18:53:46 by eja",
  "dcmmeta_affine": [
    [-2.6763296127319336, 0.08738034963607788, -0.16755592823028564, 109.14598083496094],
    [0.07705456763505936, 2.6766679286956787, 0.16721564531326294, -110.36207580566406],
    [-0.17151959240436554, -0.1609678566455841, 2.689602851867676, -50.98103713989258],
    [0.0, 0.0, 0.0, 1.0]
],
  "dcmmeta_reorient_transform": [
    [0.0, -1.0, 0.0, 81.0],
    [1.0, 0.0, 0.0, 0.0],
    [0.0, 0.0, 1.0, 0.0],
    [0.0, 0.0, 0.0, 1.0]
],
  "dcmmeta_shape": [82, 82, 56, 872],
  "dcmmeta_slice_dim": 2,
  "dcmmeta_version": 0.6,
  "global": {
    "const": {
      "AccessionNumber": "A004836",
      "AcquisitionMatrix": [82, 0, 0, 82],
      "AngioFlag": "N",
      "BitsAllocated": 16,
      "BitsStored": 16,
      "BodyPartExamined": "BRAIN",
      "Columns": 656,
      "EchoNumbers": 1,
      "EchoTime": 27.2,
      "EchoTrainLength": 82,
      "FlipAngle": 44.0,
      "HighBit": 15,
      "ImageOrientationPatient": [0.99754102342146, -0.0287203371258, -0.0639300307105, 0.03256903856024, 0.99766708093954, 0.05999711107086],
      "ImagePositionPatient": [-909.40855518593, -852.5370293804, -60.991087519357],
      "ImageType": [
        "ORIGINAL",
        "PRIMARY",
        "M",
        "MB",
        "ND",
        "NORM",
        "MOSAIC"
],
      "ImagedNucleus": "1H",
      "ImagingFrequency": 123.259083,
      "InPlanePhaseEncodingDirection": "COL",
      "MRAcquisitionType": "2D",
      "MagneticFieldStrength": 3.0,
      "Manufacturer": "SIEMENS",
      "ManufacturerModelName": "Prisma",
      "Modality": "MR",
      "NumberOfAverages": 1.0,
      "NumberOfPhaseEncodingSteps": 82,
      "PercentPhaseFieldOfView": 100.0,
      "PercentSampling": 100.0,
      "PerformedProcedureStepStartTime": "204147.381000",
      "PhotometricInterpretation": "MONOCHROME2",
      "PixelBandwidth": 3050.0,
      "PixelRepresentation": 0,
      "PixelSpacing": [2.6829268932343, 2.6829268932343],
      "ProtocolName": "func_run-01_task-social_acq-ap-mb8",
      "RepetitionTime": 460.0,
      "Rows": 656,
      "SAR": 0.09593894825549,
      "SamplesPerPixel": 1,
      "ScanOptions": "FS",
      "ScanningSequence": "EP",
      "SequenceName": "epfid2d1_82",
      "SequenceVariant": [
        "SK",
        "SS"
],
      "SeriesDescription": "func_run-01_task-social_acq-ap-mb8",
      "SeriesNumber": 8,
      "SeriesTime": "205719.847000",
      "SliceLocation": -64.39298987745,
      "SliceThickness": 2.7000000476837,
      "SmallestImagePixelValue": 0,
      "SoftwareVersions": "syngo MR E11",
      "SpacingBetweenSlices": 2.7000000053687,
      "SpecificCharacterSet": "ISO_IR 100",
      "StudyID": "1",
      "StudyTime": "204147.316000",
      "TransmitCoilName": "Body",
      "VariableFlipAngleFlag": "N",
      "WindowCenterWidthExplanation": "Algo1"
    },
    "slices": {}
  },
  "time": {
    "samples": {
      "AcquisitionNumber": [1, 2, 3, 4, 5, 6, 7, 8, 9, 10, 11, 12, 13, 14, 15, 16, 17, 18, 19, 20, 21, 22, 23, 24, 25, 26, 27, 28, 29, 30, 31, 32, 33, 34, 35, 36, 37, 38, 39, 40, 41, 42, 43, 44, 45, 46, 47, 48, 49, 50, 51, 52, 53, 54, 55, 56, 57, 58, 59, 60, 61, 62, 63, 64, 65, 66, 67, 68, 69, 70, 71, 72, 73, 74, 75, 76, 77, 78, 79, 80, 81, 82, 83, 84, 85, 86, 87, 88, 89, 90, 91, 92, 93, 94, 95, 96, 97, 98, 99, 100, 101, 102, 103, 104, 105, 106, 107, 108, 109, 110, 111, 112, 113, 114, 115, 116, 117, 118, 119, 120, 121, 122, 123, 124, 125, 126, 127, 128, 129, 130, 131, 132, 133, 134, 135, 136, 137, 138, 139, 140, 141, 142, 143, 144, 145, 146, 147, 148, 149, 150, 151, 152, 153, 154, 155, 156, 157, 158, 159, 160, 161, 162, 163, 164, 165, 166, 167, 168, 169, 170, 171, 172, 173, 174, 175, 176, 177, 178, 179, 180, 181, 182, 183, 184, 185, 186, 187, 188, 189, 190, 191, 192, 193, 194, 195, 196, 197, 198, 199, 200, 201, 202, 203, 204, 205, 206, 207, 208, 209, 210, 211, 212, 213, 214, 215, 216, 217, 218, 219, 220, 221, 222, 223, 224, 225, 226, 227, 228, 229, 230, 231, 232, 233, 234, 235, 236, 237, 238, 239, 240, 241, 242, 243, 244, 245, 246, 247, 248, 249, 250, 251, 252, 253, 254, 255, 256, 257, 258, 259, 260, 261, 262, 263, 264, 265, 266, 267, 268, 269, 270, 271, 272, 273, 274, 275, 276, 277, 278, 279, 280, 281, 282, 283, 284, 285, 286, 287, 288, 289, 290, 291, 292, 293, 294, 295, 296, 297, 298, 299, 300, 301, 302, 303, 304, 305, 306, 307, 308, 309, 310, 311, 312, 313, 314, 315, 316, 317, 318, 319, 320, 321, 322, 323, 324, 325, 326, 327, 328, 329, 330, 331, 332, 333, 334, 335, 336, 337, 338, 339, 340, 341, 342, 343, 344, 345, 346, 347, 348, 349, 350, 351, 352, 353, 354, 355, 356, 357, 358, 359, 360, 361, 362, 363, 364, 365, 366, 367, 368, 369, 370, 371, 372, 373, 374, 375, 376, 377, 378, 379, 380, 381, 382, 383, 384, 385, 386, 387, 388, 389, 390, 391, 392, 393, 394, 395, 396, 397, 398, 399, 400, 401, 402, 403, 404, 405, 406, 407, 408, 409, 410, 411, 412, 413, 414, 415, 416, 417, 418, 419, 420, 421, 422, 423, 424, 425, 426, 427, 428, 429, 430, 431, 432, 433, 434, 435, 436, 437, 438, 439, 440, 441, 442, 443, 444, 445, 446, 447, 448, 449, 450, 451, 452, 453, 454, 455, 456, 457, 458, 459, 460, 461, 462, 463, 464, 465, 466, 467, 468, 469, 470, 471, 472, 473, 474, 475, 476, 477, 478, 479, 480, 481, 482, 483, 484, 485, 486, 487, 488, 489, 490, 491, 492, 493, 494, 495, 496, 497, 498, 499, 500, 501, 502, 503, 504, 505, 506, 507, 508, 509, 510, 511, 512, 513, 514, 515, 516, 517, 518, 519, 520, 521, 522, 523, 524, 525, 526, 527, 528, 529, 530, 531, 532, 533, 534, 535, 536, 537, 538, 539, 540, 541, 542, 543, 544, 545, 546, 547, 548, 549, 550, 551, 552, 553, 554, 555, 556, 557, 558, 559, 560, 561, 562, 563, 564, 565, 566, 567, 568, 569, 570, 571, 572, 573, 574, 575, 576, 577, 578, 579, 580, 581, 582, 583, 584, 585, 586, 587, 588, 589, 590, 591, 592, 593, 594, 595, 596, 597, 598, 599, 600, 601, 602, 603, 604, 605, 606, 607, 608, 609, 610, 611, 612, 613, 614, 615, 616, 617, 618, 619, 620, 621, 622, 623, 624, 625, 626, 627, 628, 629, 630, 631, 632, 633, 634, 635, 636, 637, 638, 639, 640, 641, 642, 643, 644, 645, 646, 647, 648, 649, 650, 651, 652, 653, 654, 655, 656, 657, 658, 659, 660, 661, 662, 663, 664, 665, 666, 667, 668, 669, 670, 671, 672, 673, 674, 675, 676, 677, 678, 679, 680, 681, 682, 683, 684, 685, 686, 687, 688, 689, 690, 691, 692, 693, 694, 695, 696, 697, 698, 699, 700, 701, 702, 703, 704, 705, 706, 707, 708, 709, 710, 711, 712, 713, 714, 715, 716, 717, 718, 719, 720, 721, 722, 723, 724, 725, 726, 727, 728, 729, 730, 731, 732, 733, 734, 735, 736, 737, 738, 739, 740, 741, 742, 743, 744, 745, 746, 747, 748, 749, 750, 751, 752, 753, 754, 755, 756, 757, 758, 759, 760, 761, 762, 763, 764, 765, 766, 767, 768, 769, 770, 771, 772, 773, 774, 775, 776, 777, 778, 779, 780, 781, 782, 783, 784, 785, 786, 787, 788, 789, 790, 791, 792, 793, 794, 795, 796, 797, 798, 799, 800, 801, 802, 803, 804, 805, 806, 807, 808, 809, 810, 811, 812, 813, 814, 815, 816, 817, 818, 819, 820, 821, 822, 823, 824, 825, 826, 827, 828, 829, 830, 831, 832, 833, 834, 835, 836, 837, 838, 839, 840, 841, 842, 843, 844, 845, 846, 847, 848, 849, 850, 851, 852, 853, 854, 855, 856, 857, 858, 859, 860, 861, 862, 863, 864, 865, 866, 867, 868, 869, 870, 871, 872],
      "AcquisitionTime": ["205702.055000", "205702.515000", "205702.975000", "205703.435000", "205703.895000", "205704.355000", "205704.815000", "205705.275000", "205705.735000", "205706.195000", "205706.655000", "205707.115000", "205707.575000", "205708.035000", "205708.495000", "205708.955000", "205709.415000", "205709.875000", "205710.335000", "205710.795000", "205711.255000", "205711.715000", "205712.175000", "205712.635000", "205713.095000", "205713.555000", "205714.015000", "205714.475000", "205714.935000", "205715.395000", "205715.855000", "205716.315000", "205716.775000", "205717.235000", "205717.695000", "205718.155000", "205718.615000", "205719.075000", "205719.535000", "205719.995000", "205720.455000", "205720.915000", "205721.375000", "205721.835000", "205722.295000", "205722.755000", "205723.215000", "205723.675000", "205724.135000", "205724.595000", "205725.055000", "205725.515000", "205725.975000", "205726.435000", "205726.895000", "205727.355000", "205727.815000", "205728.275000", "205728.735000", "205729.195000", "205729.655000", "205730.115000", "205730.575000", "205731.035000", "205731.495000", "205731.955000", "205732.415000", "205732.875000", "205733.335000", "205733.795000", "205734.255000", "205734.715000", "205735.175000", "205735.635000", "205736.095000", "205736.555000", "205737.015000", "205737.475000", "205737.935000", "205738.395000", "205738.855000", "205739.315000", "205739.775000", "205740.235000", "205740.695000", "205741.155000", "205741.615000", "205742.075000", "205742.535000", "205742.995000", "205743.455000", "205743.915000", "205744.375000", "205744.835000", "205745.295000", "205745.755000", "205746.215000", "205746.675000", "205747.135000", "205747.595000", "205748.055000", "205748.515000", "205748.975000", "205749.435000", "205749.895000", "205750.355000", "205750.815000", "205751.275000", "205751.735000", "205752.195000", "205752.655000", "205753.115000", "205753.575000", "205754.035000", "205754.495000", "205754.955000", "205755.415000", "205755.875000", "205756.335000", "205756.795000", "205757.255000", "205757.715000", "205758.175000", "205758.635000", "205759.095000", "205759.555000", "205800.015000", "205800.475000", "205800.935000", "205801.395000", "205801.855000", "205802.315000", "205802.775000", "205803.235000", "205803.695000", "205804.155000", "205804.615000", "205805.075000", "205805.535000", "205805.995000", "205806.455000", "205806.915000", "205807.375000", "205807.835000", "205808.295000", "205808.755000", "205809.215000", "205809.675000", "205810.135000", "205810.595000", "205811.055000", "205811.515000", "205811.975000", "205812.435000", "205812.895000", "205813.355000", "205813.815000", "205814.275000", "205814.735000", "205815.195000", "205815.655000", "205816.115000", "205816.575000", "205817.035000", "205817.495000", "205817.955000", "205818.415000", "205818.875000", "205819.335000", "205819.795000", "205820.255000", "205820.715000", "205821.175000", "205821.635000", "205822.095000", "205822.555000", "205823.015000", "205823.475000", "205823.935000", "205824.395000", "205824.855000", "205825.315000", "205825.775000", "205826.235000", "205826.695000", "205827.155000", "205827.615000", "205828.075000", "205828.535000", "205828.995000", "205829.455000", "205829.915000", "205830.375000", "205830.835000", "205831.295000", "205831.755000", "205832.215000", "205832.675000", "205833.135000", "205833.595000", "205834.055000", "205834.515000", "205834.975000", "205835.435000", "205835.895000", "205836.355000", "205836.815000", "205837.275000", "205837.735000", "205838.195000", "205838.655000", "205839.115000", "205839.575000", "205840.035000", "205840.495000", "205840.955000", "205841.415000", "205841.875000", "205842.335000", "205842.795000", "205843.255000", "205843.715000", "205844.175000", "205844.635000", "205845.095000", "205845.555000", "205846.015000", "205846.475000", "205846.935000", "205847.395000", "205847.855000", "205848.315000", "205848.775000", "205849.235000", "205849.695000", "205850.155000", "205850.615000", "205851.075000", "205851.535000", "205851.995000", "205852.455000", "205852.915000", "205853.375000", "205853.835000", "205854.295000", "205854.755000", "205855.215000", "205855.675000", "205856.135000", "205856.595000", "205857.055000", "205857.515000", "205857.975000", "205858.435000", "205858.895000", "205859.355000", "205859.815000", "205900.275000", "205900.735000", "205901.195000", "205901.655000", "205902.115000", "205902.575000", "205903.035000", "205903.495000", "205903.955000", "205904.415000", "205904.875000", "205905.335000", "205905.795000", "205906.255000", "205906.715000", "205907.175000", "205907.635000", "205908.095000", "205908.555000", "205909.015000", "205909.475000", "205909.935000", "205910.395000", "205910.855000", "205911.315000", "205911.775000", "205912.235000", "205912.695000", "205913.155000", "205913.615000", "205914.075000", "205914.535000", "205914.995000", "205915.455000", "205915.915000", "205916.375000", "205916.835000", "205917.295000", "205917.755000", "205918.215000", "205918.675000", "205919.135000", "205919.595000", "205920.055000", "205920.515000", "205920.975000", "205921.435000", "205921.895000", "205922.355000", "205922.815000", "205923.275000", "205923.735000", "205924.195000", "205924.655000", "205925.115000", "205925.575000", "205926.035000", "205926.495000", "205926.955000", "205927.415000", "205927.875000", "205928.335000", "205928.795000", "205929.255000", "205929.715000", "205930.175000", "205930.635000", "205931.095000", "205931.555000", "205932.015000", "205932.475000", "205932.935000", "205933.395000", "205933.855000", "205934.315000", "205934.775000", "205935.235000", "205935.695000", "205936.155000", "205936.615000", "205937.075000", "205937.535000", "205937.995000", "205938.455000", "205938.915000", "205939.375000", "205939.835000", "205940.295000", "205940.755000", "205941.215000", "205941.675000", "205942.135000", "205942.595000", "205943.055000", "205943.515000", "205943.975000", "205944.435000", "205944.895000", "205945.355000", "205945.815000", "205946.275000", "205946.735000", "205947.195000", "205947.655000", "205948.115000", "205948.575000", "205949.035000", "205949.495000", "205949.955000", "205950.415000", "205950.875000", "205951.335000", "205951.795000", "205952.255000", "205952.715000", "205953.175000", "205953.635000", "205954.095000", "205954.555000", "205955.015000", "205955.475000", "205955.935000", "205956.395000", "205956.855000", "205957.315000", "205957.775000", "205958.235000", "205958.695000", "205959.155000", "205959.615000", "210000.075000", "210000.535000", "210000.995000", "210001.455000", "210001.915000", "210002.375000", "210002.835000", "210003.295000", "210003.755000", "210004.215000", "210004.675000", "210005.135000", "210005.595000", "210006.055000", "210006.515000", "210006.975000", "210007.435000", "210007.895000", "210008.355000", "210008.815000", "210009.275000", "210009.735000", "210010.195000", "210010.655000", "210011.115000", "210011.575000", "210012.035000", "210012.495000", "210012.955000", "210013.415000", "210013.875000", "210014.335000", "210014.795000", "210015.255000", "210015.715000", "210016.175000", "210016.635000", "210017.095000", "210017.555000", "210018.015000", "210018.475000", "210018.935000", "210019.395000", "210019.855000", "210020.315000", "210020.775000", "210021.235000", "210021.695000", "210022.155000", "210022.615000", "210023.075000", "210023.535000", "210023.995000", "210024.455000", "210024.915000", "210025.375000", "210025.835000", "210026.295000", "210026.755000", "210027.215000", "210027.675000", "210028.135000", "210028.595000", "210029.055000", "210029.515000", "210029.975000", "210030.435000", "210030.895000", "210031.355000", "210031.815000", "210032.275000", "210032.735000", "210033.195000", "210033.655000", "210034.115000", "210034.575000", "210035.035000", "210035.495000", "210035.955000", "210036.415000", "210036.875000", "210037.335000", "210037.795000", "210038.255000", "210038.715000", "210039.175000", "210039.635000", "210040.095000", "210040.555000", "210041.015000", "210041.475000", "210041.935000", "210042.395000", "210042.855000", "210043.315000", "210043.775000", "210044.235000", "210044.695000", "210045.155000", "210045.615000", "210046.075000", "210046.535000", "210046.995000", "210047.455000", "210047.915000", "210048.375000", "210048.835000", "210049.295000", "210049.755000", "210050.215000", "210050.675000", "210051.135000", "210051.595000", "210052.055000", "210052.515000", "210052.975000", "210053.435000", "210053.895000", "210054.355000", "210054.815000", "210055.275000", "210055.735000", "210056.195000", "210056.655000", "210057.115000", "210057.575000", "210058.035000", "210058.495000", "210058.955000", "210059.415000", "210059.875000", "210100.335000", "210100.795000", "210101.255000", "210101.715000", "210102.175000", "210102.635000", "210103.095000", "210103.555000", "210104.015000", "210104.475000", "210104.935000", "210105.395000", "210105.855000", "210106.315000", "210106.775000", "210107.235000", "210107.695000", "210108.155000", "210108.615000", "210109.075000", "210109.535000", "210109.995000", "210110.455000", "210110.915000", "210111.375000", "210111.835000", "210112.295000", "210112.755000", "210113.215000", "210113.675000", "210114.135000", "210114.595000", "210115.055000", "210115.515000", "210115.975000", "210116.435000", "210116.895000", "210117.355000", "210117.815000", "210118.275000", "210118.735000", "210119.195000", "210119.655000", "210120.115000", "210120.575000", "210121.035000", "210121.495000", "210121.955000", "210122.415000", "210122.875000", "210123.335000", "210123.795000", "210124.255000", "210124.715000", "210125.175000", "210125.635000", "210126.095000", "210126.555000", "210127.015000", "210127.475000", "210127.935000", "210128.395000", "210128.855000", "210129.315000", "210129.775000", "210130.235000", "210130.695000", "210131.155000", "210131.615000", "210132.075000", "210132.535000", "210132.995000", "210133.455000", "210133.915000", "210134.375000", "210134.835000", "210135.295000", "210135.755000", "210136.215000", "210136.675000", "210137.135000", "210137.595000", "210138.055000", "210138.515000", "210138.975000", "210139.435000", "210139.895000", "210140.355000", "210140.815000", "210141.275000", "210141.735000", "210142.195000", "210142.655000", "210143.115000", "210143.575000", "210144.035000", "210144.495000", "210144.955000", "210145.415000", "210145.875000", "210146.335000", "210146.795000", "210147.255000", "210147.715000", "210148.175000", "210148.635000", "210149.095000", "210149.555000", "210150.015000", "210150.475000", "210150.935000", "210151.395000", "210151.855000", "210152.315000", "210152.775000", "210153.235000", "210153.695000", "210154.155000", "210154.615000", "210155.075000", "210155.535000", "210155.995000", "210156.455000", "210156.915000", "210157.375000", "210157.835000", "210158.295000", "210158.755000", "210159.215000", "210159.675000", "210200.135000", "210200.595000", "210201.055000", "210201.515000", "210201.975000", "210202.435000", "210202.895000", "210203.355000", "210203.815000", "210204.275000", "210204.735000", "210205.195000", "210205.655000", "210206.115000", "210206.575000", "210207.035000", "210207.495000", "210207.955000", "210208.415000", "210208.875000", "210209.335000", "210209.795000", "210210.255000", "210210.715000", "210211.175000", "210211.635000", "210212.095000", "210212.555000", "210213.015000", "210213.475000", "210213.935000", "210214.395000", "210214.855000", "210215.315000", "210215.775000", "210216.235000", "210216.695000", "210217.155000", "210217.615000", "210218.075000", "210218.535000", "210218.995000", "210219.455000", "210219.915000", "210220.375000", "210220.835000", "210221.295000", "210221.755000", "210222.215000", "210222.675000", "210223.135000", "210223.595000", "210224.055000", "210224.515000", "210224.975000", "210225.435000", "210225.895000", "210226.355000", "210226.815000", "210227.275000", "210227.735000", "210228.195000", "210228.655000", "210229.115000", "210229.575000", "210230.035000", "210230.495000", "210230.955000", "210231.415000", "210231.875000", "210232.335000", "210232.795000", "210233.255000", "210233.715000", "210234.175000", "210234.635000", "210235.095000", "210235.555000", "210236.015000", "210236.475000", "210236.935000", "210237.395000", "210237.855000", "210238.315000", "210238.775000", "210239.235000", "210239.695000", "210240.155000", "210240.615000", "210241.075000", "210241.535000", "210241.995000", "210242.455000", "210242.915000", "210243.375000", "210243.835000", "210244.295000", "210244.755000", "210245.215000", "210245.675000", "210246.135000", "210246.595000", "210247.055000", "210247.515000", "210247.975000", "210248.435000", "210248.895000", "210249.355000", "210249.815000", "210250.275000", "210250.735000", "210251.195000", "210251.655000", "210252.115000", "210252.575000", "210253.035000", "210253.495000", "210253.955000", "210254.415000", "210254.875000", "210255.335000", "210255.795000", "210256.255000", "210256.715000", "210257.175000", "210257.635000", "210258.095000", "210258.555000", "210259.015000", "210259.475000", "210259.935000", "210300.395000", "210300.855000", "210301.315000", "210301.775000", "210302.235000", "210302.695000", "210303.155000", "210303.615000", "210304.075000", "210304.535000", "210304.995000", "210305.455000", "210305.915000", "210306.375000", "210306.835000", "210307.295000", "210307.755000", "210308.215000", "210308.675000", "210309.135000", "210309.595000", "210310.055000", "210310.515000", "210310.975000", "210311.435000", "210311.895000", "210312.355000", "210312.815000", "210313.275000", "210313.735000", "210314.195000", "210314.655000", "210315.115000", "210315.575000", "210316.035000", "210316.495000", "210316.955000", "210317.415000", "210317.875000", "210318.335000", "210318.795000", "210319.255000", "210319.715000", "210320.175000", "210320.635000", "210321.095000", "210321.555000", "210322.015000", "210322.475000", "210322.935000", "210323.395000", "210323.855000", "210324.315000", "210324.775000", "210325.235000", "210325.695000", "210326.155000", "210326.615000", "210327.075000", "210327.535000", "210327.995000", "210328.455000", "210328.915000", "210329.375000", "210329.835000", "210330.295000", "210330.755000", "210331.215000", "210331.675000", "210332.135000", "210332.595000", "210333.055000", "210333.515000", "210333.975000", "210334.435000", "210334.895000", "210335.355000", "210335.815000", "210336.275000", "210336.735000", "210337.195000", "210337.655000", "210338.115000", "210338.575000", "210339.035000", "210339.495000", "210339.955000", "210340.415000", "210340.875000", "210341.335000", "210341.795000", "210342.255000", "210342.715000"],
