{
  "AcquisitionMatrixPE": 140,
  "AcquisitionNumber": 1,
  "AcquisitionTime": "15:42:2.107500",
  "BandwidthPerPixelPhaseEncode": 10.352,
  "BaseResolution": 140,
  "BodyPartExamined": "BRAIN",
  "ConsistencyInfo": "N4_VE11C_LATEST_20160120",
  "ConversionSoftware": "dcm2niix",
  "ConversionSoftwareVersion": "v1.0.20201102",
  "DerivedVendorReportedEchoSpacing": 0.000689998,
  "DeviceSerialNumber": "66112",
  "DiffusionScheme": "Monopolar",
  "DwellTime": 2.1e-06,
  "EchoTime": 0.0884,
  "EchoTrainLength": 105,
  "EffectiveEchoSpacing": 0.000689998,
  "FlipAngle": 90,
  "ImageComments": "Unaliased MB3/PE3 SENSE1",
  "ImageOrientationPatientDICOM": [0.999029, 0.0182642, 0.0400967, -0.0179614, 0.999807, -0.00789712],
  "ImageType": [
    "ORIGINAL",
    "PRIMARY",
    "DIFFUSION",
    "NONE",
    "MB",
    "ND",
    "MOSAIC"
],
  "ImagingFrequency": 123.252,
  "InPlanePhaseEncodingDirectionDICOM": "COL",
  "InstitutionAddress": "Maynard 3,Hanover,NH,US,03755",
  "InstitutionName": "Dartmouth College - PBS",
  "InstitutionalDepartmentName": "Department",
  "MRAcquisitionType": "2D",
  "MagneticFieldStrength": 3,
  "Manufacturer": "Siemens",
  "ManufacturersModelName": "Prisma",
  "Modality": "MR",
  "MultibandAccelerationFactor": 3,
  "PartialFourier": 0.75,
  "PatientPosition": "HFS",
  "PercentPhaseFOV": 100,
  "PercentSampling": 100,
  "PhaseEncodingDirection": "j-",
  "PhaseEncodingSteps": 105,
  "PhaseResolution": 1,
  "PixelBandwidth": 1700,
  "ProcedureStepDescription": "Wager_Wager^1076_spacetop",
  "ProtocolName": "dwi_acq-96dir-6b0-mb",
  "PulseSequenceDetails": "%CustomerSeq%\\cmrr_mbep2d_diff",
  "ReceiveCoilActiveElements": "HEA;HEP",
  "ReceiveCoilName": "Head_32",
  "ReconMatrixPE": 140,
  "RepetitionTime": 4.11,
  "SAR": 0.210955,
  "ScanOptions": "PFP\\FS",
  "ScanningSequence": "EP",
  "SequenceName": "ep_b5#1",
  "SequenceVariant": "SK\\SS",
  "SeriesDescription": "dwi_acq-96dir-6b0-mb",
  "SeriesNumber": 15,
  "ShimSetting": [4150, -7761, -7261, 602, -53, -195, 33, 74],
  "SliceThickness": 1.7,
  "SliceTiming": [0, 2.12, 0.1525, 2.2725, 0.3025, 2.425, 0.455, 2.575, 0.605, 2.7275, 0.7575, 2.8775, 0.91, 3.03, 1.06, 3.1825, 1.2125, 3.3325, 1.3625, 3.485, 1.515, 3.635, 1.6675, 3.7875, 1.8175, 3.9375, 1.97, 0, 2.12, 0.1525, 2.2725, 0.3025, 2.425, 0.455, 2.575, 0.605, 2.7275, 0.7575, 2.8775, 0.91, 3.03, 1.06, 3.1825, 1.2125, 3.3325, 1.3625, 3.485, 1.515, 3.635, 1.6675, 3.7875, 1.8175, 3.9375, 1.97, 0, 2.12, 0.1525, 2.2725, 0.3025, 2.425, 0.455, 2.575, 0.605, 2.7275, 0.7575, 2.8775, 0.91, 3.03, 1.06, 3.1825, 1.2125, 3.3325, 1.3625, 3.485, 1.515, 3.635, 1.6675, 3.7875, 1.8175, 3.9375, 1.97],
  "SoftwareVersions": "syngo MR E11",
  "SpacingBetweenSlices": 1.7,
  "StationName": "AWP66112",
  "TotalReadoutTime": 0.0959097,
  "TxRefAmp": 221.102,
  "WipMemBlock": "1976f8b2-48c1-4a9c-bd0a-74b78bcd911b||Sequence: R016 ve11c/master r/e634e98; Dec 19 2017 11:11:25 by eja",
  "dcmmeta_affine": [
    [-1.7126209735870361, -0.030791040509939194, 0.06839653849601746, 119.41778564453125],
    [-0.03130999207496643, 1.7139557600021362, -0.012187741696834564, -84.72740173339844],
    [0.06873727589845657, 0.013537927530705929, 1.6985797882080078, -58.01036071777344],
    [0.0, 0.0, 0.0, 1.0]
],
  "dcmmeta_reorient_transform": [
    [0.0, -1.0, 0.0, 139.0],
    [1.0, 0.0, 0.0, 0.0],
    [0.0, 0.0, 1.0, 0.0],
    [0.0, 0.0, 0.0, 1.0]
],
  "dcmmeta_shape": [140, 140, 81, 103],
  "dcmmeta_slice_dim": 2,
  "dcmmeta_version": 0.6,
  "global": {
    "const": {
      "AccessionNumber": "A003492",
      "AcquisitionMatrix": [140, 0, 0, 140],
      "AngioFlag": "N",
      "BitsAllocated": 16,
      "BitsStored": 16,
      "BodyPartExamined": "BRAIN",
      "Columns": 1260,
      "EchoNumbers": 1,
      "EchoTime": 88.4,
      "EchoTrainLength": 105,
      "FlipAngle": 90.0,
      "HighBit": 15,
      "ImageOrientationPatient": [0.99902886425012, 0.01826416171357, 0.04009674291042, -0.0179614397502, 0.99980749252358, -0.0078971245282],
      "ImagePositionPatient": [-1056.9625653805, -1130.8612371442, -87.040221376973],
      "ImageType": [
        "ORIGINAL",
        "PRIMARY",
        "DIFFUSION",
        "NONE",
        "MB",
        "ND",
        "MOSAIC"
],
      "ImagedNucleus": "1H",
      "ImagingFrequency": 123.252136,
      "InPlanePhaseEncodingDirection": "COL",
      "MRAcquisitionType": "2D",
      "MagneticFieldStrength": 3.0,
      "Manufacturer": "SIEMENS",
      "ManufacturerModelName": "Prisma",
      "Modality": "MR",
      "NumberOfAverages": 1.0,
      "NumberOfPhaseEncodingSteps": 105,
      "PercentPhaseFieldOfView": 100.0,
      "PercentSampling": 100.0,
      "PerformedProcedureStepStartTime": "150309.808000",
      "PhotometricInterpretation": "MONOCHROME2",
      "PixelBandwidth": 1700.0,
      "PixelRepresentation": 0,
      "PixelSpacing": [1.7142857313156, 1.7142857313156],
      "ProtocolName": "dwi_acq-96dir-6b0-mb",
      "RepetitionTime": 4110.0,
      "Rows": 1260,
      "SAR": 0.21095488099812,
      "SamplesPerPixel": 1,
      "ScanOptions": [
        "PFP",
        "FS"
],
      "ScanningSequence": "EP",
      "SequenceVariant": [
        "SK",
        "SS"
],
      "SeriesDescription": "dwi_acq-96dir-6b0-mb",
      "SeriesNumber": 15,
      "SeriesTime": "154332.918000",
      "SliceLocation": -52.549897893904,
      "SliceThickness": 1.7000000476837,
      "SmallestImagePixelValue": 0,
      "SoftwareVersions": "syngo MR E11",
      "SpacingBetweenSlices": 1.6999999779055,
      "SpecificCharacterSet": "ISO_IR 100",
      "StudyID": "1",
      "StudyTime": "150309.731000",
      "TransmitCoilName": "Body",
      "VariableFlipAngleFlag": "N",
      "WindowCenterWidthExplanation": "Algo1",
      "dBdt": 0.0},
    "slices": {}
  },
  "time": {
    "samples": {
      "AcquisitionNumber": [1, 2, 3, 4, 5, 6, 7, 8, 9, 10, 11, 12, 13, 14, 15, 16, 17, 18, 19, 20, 21, 22, 23, 24, 25, 26, 27, 28, 29, 30, 31, 32, 33, 34, 35, 36, 37, 38, 39, 40, 41, 42, 43, 44, 45, 46, 47, 48, 49, 50, 51, 52, 53, 54, 55, 56, 57, 58, 59, 60, 61, 62, 63, 64, 65, 66, 67, 68, 69, 70, 71, 72, 73, 74, 75, 76, 77, 78, 79, 80, 81, 82, 83, 84, 85, 86, 87, 88, 89, 90, 91, 92, 93, 94, 95, 96, 97, 98, 99, 100, 101, 102, 103],
      "AcquisitionTime": ["154202.107500", "154206.217500", "154210.327500", "154214.437500", "154218.547500", "154222.657500", "154226.767500", "154230.877500", "154234.987500", "154239.097500", "154243.207500", "154247.317500", "154251.427500", "154255.537500", "154259.647500", "154303.757500", "154307.867500", "154311.977500", "154316.087500", "154320.197500", "154324.307500", "154328.417500", "154332.527500", "154336.637500", "154340.747500", "154344.857500", "154348.967500", "154353.077500", "154357.187500", "154401.297500", "154405.407500", "154409.517500", "154413.627500", "154417.737500", "154421.847500", "154425.957500", "154430.067500", "154434.177500", "154438.287500", "154442.397500", "154446.507500", "154450.617500", "154454.727500", "154458.837500", "154502.947500", "154507.057500", "154511.167500", "154515.277500", "154519.387500", "154523.497500", "154527.607500", "154531.717500", "154535.827500", "154539.937500", "154544.047500", "154548.157500", "154552.267500", "154556.377500", "154600.487500", "154604.597500", "154608.707500", "154612.817500", "154616.927500", "154621.037500", "154625.147500", "154629.257500", "154633.367500", "154637.477500", "154641.587500", "154645.697500", "154649.807500", "154653.917500", "154658.027500", "154702.137500", "154706.247500", "154710.357500", "154714.467500", "154718.577500", "154722.687500", "154726.797500", "154730.907500", "154735.017500", "154739.127500", "154743.237500", "154747.347500", "154751.457500", "154755.567500", "154759.677500", "154803.787500", "154807.897500", "154812.007500", "154816.117500", "154820.227500", "154824.337500", "154828.447500", "154832.557500", "154836.667500", "154840.777500", "154844.887500", "154848.997500", "154853.107500", "154857.217500", "154901.327500"],
      "ContentTime": ["154332.922000", "154332.926000", "154332.930000", "154332.933000", "154332.936000", "154332.940000", "154332.943000", "154332.946000", "154332.949000", "154332.953000", "154332.956000", "154332.959000", "154332.963000", "154332.966000", "154332.969000", "154332.973000", "154332.976000", "154332.986000", "154332.989000", "154332.992000", "154332.995000", "154452.917000", "154452.929000", "154452.932000", "154452.935000", "154452.939000", "154452.942000", "154452.945000", "154452.948000", "154452.952000", "154452.955000", "154452.958000", "154452.962000", "154452.965000", "154452.968000", "154452.971000", "154452.975000", "154452.978000", "154452.981000", "154452.984000", "154452.988000", "154632.917000", "154632.921000", "154632.924000", "154632.928000", "154632.931000", "154632.934000", "154632.938000", "154632.941000", "154632.944000", "154632.947000", "154632.951000", "154632.954000", "154632.957000", "154632.961000", "154632.964000", "154632.967000", "154632.971000", "154632.974000", "154632.977000", "154632.980000", "154632.984000", "154632.987000", "154632.990000", "154632.994000", "154752.917000", "154752.921000", "154752.924000", "154752.927000", "154752.931000", "154752.934000", "154752.937000", "154752.941000", "154752.944000", "154752.947000", "154752.951000", "154752.954000", "154752.957000", "154752.961000", "154752.964000", "154752.967000", "154752.970000", "154752.974000", "154752.977000", "154752.980000", "154906.475000", "154906.479000", "154906.483000", "154906.486000", "154906.490000", "154906.493000", "154906.497000", "154906.500000", "154906.504000", "154906.508000", "154906.512000", "154906.515000", "154906.519000", "154906.522000", "154906.525000", "154906.529000", "154906.532000", "154906.535000"],
      "InstanceCreationTime": ["154332.922000", "154332.926000", "154332.930000", "154332.933000", "154332.936000", "154332.940000", "154332.943000", "154332.946000", "154332.949000", "154332.953000", "154332.956000", "154332.959000", "154332.963000", "154332.966000", "154332.969000", "154332.973000", "154332.976000", "154332.986000", "154332.989000", "154332.992000", "154332.995000", "154452.917000", "154452.929000", "154452.932000", "154452.935000", "154452.939000", "154452.942000", "154452.945000", "154452.948000", "154452.952000", "154452.955000", "154452.958000", "154452.962000", "154452.965000", "154452.968000", "154452.971000", "154452.975000", "154452.978000", "154452.981000", "154452.984000", "154452.988000", "154632.917000", "154632.921000", "154632.924000", "154632.928000", "154632.931000", "154632.934000", "154632.938000", "154632.941000", "154632.944000", "154632.947000", "154632.951000", "154632.954000", "154632.957000", "154632.961000", "154632.964000", "154632.967000", "154632.971000", "154632.974000", "154632.977000", "154632.980000", "154632.984000", "154632.987000", "154632.990000", "154632.994000", "154752.917000", "154752.921000", "154752.924000", "154752.927000", "154752.931000", "154752.934000", "154752.937000", "154752.941000", "154752.944000", "154752.947000", "154752.951000", "154752.954000", "154752.957000", "154752.961000", "154752.964000", "154752.967000", "154752.970000", "154752.974000", "154752.977000", "154752.980000", "154906.475000", "154906.479000", "154906.483000", "154906.486000", "154906.490000", "154906.493000", "154906.497000", "154906.500000", "154906.504000", "154906.508000", "154906.512000", "154906.515000", "154906.519000", "154906.522000", "154906.525000", "154906.529000", "154906.532000", "154906.535000"],
      "InstanceNumber": [1, 2, 3, 4, 5, 6, 7, 8, 9, 10, 11, 12, 13, 14, 15, 16, 17, 18, 19, 20, 21, 22, 23, 24, 25, 26, 27, 28, 29, 30, 31, 32, 33, 34, 35, 36, 37, 38, 39, 40, 41, 42, 43, 44, 45, 46, 47, 48, 49, 50, 51, 52, 53, 54, 55, 56, 57, 58, 59, 60, 61, 62, 63, 64, 65, 66, 67, 68, 69, 70, 71, 72, 73, 74, 75, 76, 77, 78, 79, 80, 81, 82, 83, 84, 85, 86, 87, 88, 89, 90, 91, 92, 93, 94, 95, 96, 97, 98, 99, 100, 101, 102, 103],
      "LargestImagePixelValue": [65535, 65535, 54689, 52195, 52032, 52893, 55842, 54500, 65535, 37332, 37253, 34980, 35301, 36666, 37347, 34733, 38780, 39309, 39150, 33442, 38653, 37790, 37047, 35784, 65535, 18338, 18267, 18041, 20741, 19137, 18187, 19039, 20140, 19355, 20916, 19416, 19508, 18600, 18702, 20494, 65535, 10653, 12472, 11571, 10587, 10897, 10970, 11564, 11953, 11493, 11062, 11260, 12629, 11527, 10536, 12010, 9931, 10171, 11580, 11413, 11165, 11076, 11003, 11114, 11097, 10942, 10287, 9761, 10080, 11097, 11031, 10683, 11455, 65535, 10721, 11974, 10560, 11444, 9855, 10803, 9750, 11376, 11181, 10887, 10949, 11396, 12173, 11631, 10472, 10919, 10864, 11120, 11355, 10456, 9930, 10727, 11014, 10800, 10818, 11851, 10110, 12412, 65535],
      "SequenceName": [
 "ep_b5#1",
 "ep_b5#1",
 "ep_b500#2",
 "ep_b495#3",
 "ep_b500#4",
 "ep_b505#5",
 "ep_b495#6",
 "ep_b500#7",
 "ep_b5#8",
 "ep_b1000#9",
 "ep_b1005#10",
 "ep_b995#11",
 "ep_b1005#12",
 "ep_b995#13",
 "ep_b995#14",
 "ep_b1005#15",
 "ep_b1000#16",
 "ep_b1005#17",
 "ep_b1000#18",
 "ep_b1000#19",
 "ep_b995#20",
 "ep_b1000#21",
 "ep_b1005#22",
 "ep_b1005#23",
 "ep_b5#24",
 "ep_b2000#25",
 "ep_b1995#26",
 "ep_b1990#27",
 "ep_b2000#28",
 "ep_b2005#29",
 "ep_b2010#30",
 "ep_b2000#31",
 "ep_b2010#32",
 "ep_b2000#33",
 "ep_b1995#34",
 "ep_b1995#35",
 "ep_b2005#36",
 "ep_b2000#37",
 "ep_b2005#38",
 "ep_b1995#39",
 "ep_b5#40",
 "ep_b3000#41",
 "ep_b3005#42",
 "ep_b3010#43",
 "ep_b3010#44",
 "ep_b3000#45",
 "ep_b3000#46",
 "ep_b2990#47",
 "ep_b3005#48",
 "ep_b3005#49",
 "ep_b2990#50",
 "ep_b2990#51",
 "ep_b2995#52",
 "ep_b2995#53",
 "ep_b3005#54",
 "ep_b3000#55",
 "ep_b2995#56",
 "ep_b2995#57",
 "ep_b2990#58",
 "ep_b2990#59",
 "ep_b3000#60",
 "ep_b2990#61",
 "ep_b2990#62",
 "ep_b3000#63",
 "ep_b3000#64",
 "ep_b3010#65",
 "ep_b3000#66",
 "ep_b3005#67",
 "ep_b3010#68",
 "ep_b3005#69",
 "ep_b3005#70",
 "ep_b3005#71",
 "ep_b2990#72",
 "ep_b5#73",
 "ep_b3010#74",
 "ep_b3005#75",
 "ep_b3005#76",
 "ep_b3000#77",
 "ep_b2990#78",
 "ep_b3005#79",
 "ep_b2995#80",
 "ep_b3010#81",
 "ep_b3005#82",
 "ep_b3005#83",
 "ep_b3000#84",
 "ep_b3000#85",
 "ep_b3010#86",
 "ep_b3010#87",
 "ep_b2990#88",
 "ep_b3010#89",
 "ep_b2995#90",
 "ep_b2995#91",
 "ep_b2990#92",
 "ep_b2995#93",
 "ep_b3005#94",
 "ep_b3005#95",
 "ep_b2995#96",
 "ep_b3000#97",
 "ep_b2990#98",
 "ep_b2995#99",
 "ep_b2995#100",
 "ep_b2995#101",
 "ep_b5#102"
],
      "WindowCenter": [10161.0, 10158.0, 7321.0, 7308.0, 7284.0, 7191.0, 7319.0, 7299.0, 10156.0, 5604.0, 5477.0, 5555.0, 5480.0, 5518.0, 5565.0, 5484.0, 5596.0, 5555.0, 5591.0, 5544.0, 5604.0, 5547.0, 5513.0, 5559.0, 10160.0, 3639.0, 3601.0, 3526.0, 3700.0, 3562.0, 3514.0, 3584.0, 3532.0, 3658.0, 3643.0, 3614.0, 3546.0, 3597.0, 3572.0, 3580.0, 10139.0, 2584.0, 2520.0, 2553.0, 2499.0, 2586.0, 2601.0, 2577.0, 2508.0, 2545.0, 2480.0, 2508.0, 2581.0, 2574.0, 2530.0, 2550.0, 2546.0, 2519.0, 2564.0, 2524.0, 2542.0, 2527.0, 2581.0, 2584.0, 2588.0, 2540.0, 2522.0, 2539.0, 2519.0, 2564.0, 2554.0, 2572.0, 2562.0, 10113.0, 2495.0, 2554.0, 2455.0, 2541.0, 2448.0, 2513.0, 2478.0, 2479.0, 2557.0, 2500.0, 2591.0, 2574.0, 2488.0, 2465.0, 2500.0, 2467.0, 2561.0, 2500.0, 2511.0, 2576.0, 2494.0, 2536.0, 2615.0, 2554.0, 2539.0, 2533.0, 2553.0, 2605.0, 10123.0],
      "WindowWidth": [22932.0, 22929.0, 15406.0, 15395.0, 15338.0, 15174.0, 15408.0, 15364.0, 22938.0, 11929.0, 11723.0, 11859.0, 11734.0, 11817.0, 11879.0, 11732.0, 11918.0, 11858.0, 11903.0, 11835.0, 11938.0, 11836.0, 11782.0, 11846.0, 22944.0, 8172.0, 8099.0, 7967.0, 8261.0, 8022.0, 7935.0, 8060.0, 7966.0, 8198.0, 8152.0, 8120.0, 7990.0, 8091.0, 8028.0, 8052.0, 22859.0, 6181.0, 6000.0, 6072.0, 5958.0, 6163.0, 6200.0, 6105.0, 5981.0, 6078.0, 5914.0, 5963.0, 6135.0, 6139.0, 6037.0, 6064.0, 6111.0, 6032.0, 6078.0, 6005.0, 6065.0, 6022.0, 6128.0, 6151.0, 6171.0, 6044.0, 6041.0, 6085.0, 6022.0, 6129.0, 6118.0, 6126.0, 6071.0, 22794.0, 5941.0, 6089.0, 5881.0, 6057.0, 5879.0, 6003.0, 5945.0, 5913.0, 6090.0, 5977.0, 6181.0, 6139.0, 5924.0, 5888.0, 5973.0, 5891.0, 6110.0, 5977.0, 5988.0, 6146.0, 5984.0, 6067.0, 6220.0, 6086.0, 6040.0, 6023.0, 6111.0, 6172.0, 22822.0]
    },
    "slices": {}
  }
}