{
  "AcquisitionMatrixPE": 140,
  "AcquisitionNumber": 1,
  "AcquisitionTime": "15:46:12.052500",
  "BandwidthPerPixelPhaseEncode": 10.352,
  "BaseResolution": 140,
  "BodyPartExamined": "BRAIN",
  "ConsistencyInfo": "N4_VE11E_LATEST_20181129",
  "ConversionSoftware": "dcm2niix",
  "ConversionSoftwareVersion": "v1.0.20201102",
  "DerivedVendorReportedEchoSpacing": 0.000689998,
  "DeviceSerialNumber": "66112",
  "DiffusionScheme": "Monopolar",
  "DwellTime": 2.1e-06,
  "EchoTime": 0.0884,
  "EchoTrainLength": 105,
  "EffectiveEchoSpacing": 0.000689998,
  "FlipAngle": 90,
  "ImageComments": "Unaliased MB3/PE3 SENSE1",
  "ImageOrientationPatientDICOM": [0.995652, -0.0103441, -0.0925794, 0.0180745, 0.996381, 0.0830555],
  "ImageType": [
    "ORIGINAL",
    "PRIMARY",
    "DIFFUSION",
    "NONE",
    "MB",
    "ND",
    "MOSAIC"
],
  "ImagingFrequency": 123.259,
  "InPlanePhaseEncodingDirectionDICOM": "COL",
  "InstitutionAddress": "Maynard 3,Hanover,NH,US,03755",
  "InstitutionName": "Dartmouth College - PBS",
  "InstitutionalDepartmentName": "Department",
  "MRAcquisitionType": "2D",
  "MagneticFieldStrength": 3,
  "Manufacturer": "Siemens",
  "ManufacturersModelName": "Prisma",
  "Modality": "MR",
  "MultibandAccelerationFactor": 3,
  "PartialFourier": 0.75,
  "PatientPosition": "HFS",
  "PercentPhaseFOV": 100,
  "PercentSampling": 100,
  "PhaseEncodingDirection": "j-",
  "PhaseEncodingSteps": 105,
  "PhaseResolution": 1,
  "PixelBandwidth": 1700,
  "ProcedureStepDescription": "Wager_Wager^1076_spacetop",
  "ProtocolName": "dwi_acq-96dir-6b0-mb",
  "PulseSequenceDetails": "%CustomerSeq%\\cmrr_mbep2d_diff",
  "ReceiveCoilActiveElements": "HEA;HEP",
  "ReceiveCoilName": "Head_32",
  "ReconMatrixPE": 140,
  "RepetitionTime": 4.11,
  "SAR": 0.277863,
  "ScanOptions": "PFP\\FS",
  "ScanningSequence": "EP",
  "SequenceName": "ep_b5#1",
  "SequenceVariant": "SK\\SS",
  "SeriesDescription": "dwi_acq-96dir-6b0-mb",
  "SeriesNumber": 8,
  "ShimSetting": [4208, -7799, -7278, 251, -115, -40, -44, 108],
  "SliceThickness": 1.7,
  "SliceTiming": [0, 2.12, 0.1525, 2.2725, 0.3025, 2.425, 0.455, 2.575, 0.605, 2.7275, 0.7575, 2.8775, 0.91, 3.03, 1.06, 3.1825, 1.2125, 3.3325, 1.3625, 3.485, 1.515, 3.635, 1.6675, 3.7875, 1.8175, 3.94, 1.97, 0, 2.12, 0.1525, 2.2725, 0.3025, 2.425, 0.455, 2.575, 0.605, 2.7275, 0.7575, 2.8775, 0.91, 3.03, 1.06, 3.1825, 1.2125, 3.3325, 1.3625, 3.485, 1.515, 3.635, 1.6675, 3.7875, 1.8175, 3.94, 1.97, 0, 2.12, 0.1525, 2.2725, 0.3025, 2.425, 0.455, 2.575, 0.605, 2.7275, 0.7575, 2.8775, 0.91, 3.03, 1.06, 3.1825, 1.2125, 3.3325, 1.3625, 3.485, 1.515, 3.635, 1.6675, 3.7875, 1.8175, 3.94, 1.97],
  "SoftwareVersions": "syngo MR E11",
  "SpacingBetweenSlices": 1.7,
  "StationName": "AWP66112",
  "TotalReadoutTime": 0.0959097,
  "TxRefAmp": 260.66,
  "WipMemBlock": "6af923b5-1068-44b5-94e3-50f43e1d308f||Sequence: R016 ve11e/master r/434b28f1; Aug  7 2019 19:06:17 by eja",
  "dcmmeta_affine": [
    [-1.7068313360214233, 0.03098478354513645, -0.15535487234592438, 124.57223510742188],
    [0.017732694745063782, 1.7080817222595215, 0.14342498779296875, -96.15435028076172],
    [-0.15870752930641174, -0.14238081872463226, 1.6868000030517578, -46.2235221862793],
    [0.0, 0.0, 0.0, 1.0]
],
  "dcmmeta_reorient_transform": [
    [0.0, -1.0, 0.0, 139.0],
    [1.0, 0.0, 0.0, 0.0],
    [0.0, 0.0, 1.0, 0.0],
    [0.0, 0.0, 0.0, 1.0]
],
  "dcmmeta_shape": [140, 140, 81, 103],
  "dcmmeta_slice_dim": 2,
  "dcmmeta_version": 0.6,
  "global": {
    "const": {
      "AccessionNumber": "A004333",
      "AcquisitionMatrix": [140, 0, 0, 140],
      "AngioFlag": "N",
      "BitsAllocated": 16,
      "BitsStored": 16,
      "BodyPartExamined": "BRAIN",
      "Columns": 1260,
      "EchoNumbers": 1,
      "EchoTime": 88.4,
      "EchoTrainLength": 105,
      "FlipAngle": 90.0,
      "HighBit": 15,
      "ImageOrientationPatient": [0.99565157393989, -0.0103440719662, -0.0925793901804, 0.01807445737842, 0.99638100253705, 0.08305547407451],
      "ImagePositionPatient": [-1102.0561188519, -1087.864471859, -56.871496248076],
      "ImageType": [
        "ORIGINAL",
        "PRIMARY",
        "DIFFUSION",
        "NONE",
        "MB",
        "ND",
        "MOSAIC"
],
      "ImagedNucleus": "1H",
      "ImagingFrequency": 123.259101,
      "InPlanePhaseEncodingDirection": "COL",
      "MRAcquisitionType": "2D",
      "MagneticFieldStrength": 3.0,
      "Manufacturer": "SIEMENS",
      "ManufacturerModelName": "Prisma",
      "Modality": "MR",
      "NumberOfAverages": 1.0,
      "NumberOfPhaseEncodingSteps": 105,
      "PercentPhaseFieldOfView": 100.0,
      "PercentSampling": 100.0,
      "PerformedProcedureStepStartTime": "152822.246000",
      "PhotometricInterpretation": "MONOCHROME2",
      "PixelBandwidth": 1700.0,
      "PixelRepresentation": 0,
      "PixelSpacing": [1.7142857313156, 1.7142857313156],
      "ProtocolName": "dwi_acq-96dir-6b0-mb",
      "RepetitionTime": 4110.0,
      "Rows": 1260,
      "SAR": 0.27786300744702,
      "SamplesPerPixel": 1,
      "ScanOptions": [
        "PFP",
        "FS"
],
      "ScanningSequence": "EP",
      "SequenceVariant": [
        "SK",
        "SS"
],
      "SeriesDescription": "dwi_acq-96dir-6b0-mb",
      "SeriesNumber": 8,
      "SeriesTime": "154737.313000",
      "SliceLocation": -65.360985386259,
      "SliceThickness": 1.7000000476837,
      "SmallestImagePixelValue": 0,
      "SoftwareVersions": "syngo MR E11",
      "SpacingBetweenSlices": 1.7000000321031,
      "SpecificCharacterSet": "ISO_IR 100",
      "StudyID": "1",
      "StudyTime": "152822.130000",
      "TransmitCoilName": "Body",
      "VariableFlipAngleFlag": "N",
      "WindowCenterWidthExplanation": "Algo1"
    },
    "slices": {}
  },
  "time": {
    "samples": {
      "AcquisitionNumber": [1, 2, 3, 4, 5, 6, 7, 8, 9, 10, 11, 12, 13, 14, 15, 16, 17, 18, 19, 20, 21, 22, 23, 24, 25, 26, 27, 28, 29, 30, 31, 32, 33, 34, 35, 36, 37, 38, 39, 40, 41, 42, 43, 44, 45, 46, 47, 48, 49, 50, 51, 52, 53, 54, 55, 56, 57, 58, 59, 60, 61, 62, 63, 64, 65, 66, 67, 68, 69, 70, 71, 72, 73, 74, 75, 76, 77, 78, 79, 80, 81, 82, 83, 84, 85, 86, 87, 88, 89, 90, 91, 92, 93, 94, 95, 96, 97, 98, 99, 100, 101, 102, 103],
      "AcquisitionTime": ["154612.052500", "154616.162500", "154620.272500", "154624.382500", "154628.492500", "154632.602500", "154636.712500", "154640.822500", "154644.932500", "154649.042500", "154653.152500", "154657.262500", "154701.372500", "154705.482500", "154709.592500", "154713.702500", "154717.812500", "154721.922500", "154726.032500", "154730.142500", "154734.252500", "154738.362500", "154742.472500", "154746.582500", "154750.692500", "154754.802500", "154758.912500", "154803.022500", "154807.132500", "154811.242500", "154815.352500", "154819.462500", "154823.572500", "154827.682500", "154831.792500", "154835.902500", "154840.012500", "154844.122500", "154848.232500", "154852.342500", "154856.452500", "154900.562500", "154904.672500", "154908.782500", "154912.892500", "154917.002500", "154921.112500", "154925.222500", "154929.332500", "154933.442500", "154937.552500", "154941.662500", "154945.772500", "154949.882500", "154953.992500", "154958.102500", "155002.212500", "155006.322500", "155010.432500", "155014.542500", "155018.652500", "155022.762500", "155026.872500", "155030.982500", "155035.092500", "155039.202500", "155043.312500", "155047.422500", "155051.532500", "155055.642500", "155059.752500", "155103.862500", "155107.972500", "155112.082500", "155116.192500", "155120.302500", "155124.412500", "155128.522500", "155132.632500", "155136.742500", "155140.852500", "155144.962500", "155149.072500", "155153.182500", "155157.292500", "155201.402500", "155205.512500", "155209.622500", "155213.732500", "155217.842500", "155221.952500", "155226.062500", "155230.172500", "155234.282500", "155238.392500", "155242.502500", "155246.612500", "155250.722500", "155254.832500", "155258.942500", "155303.052500", "155307.162500", "155311.272500"],
      "ContentTime": ["154737.317000", "154737.328000", "154737.331000", "154737.334000", "154737.344000", "154737.347000", "154737.350000", "154737.353000", "154737.356000", "154737.359000", "154737.362000", "154737.365000", "154737.368000", "154737.371000", "154737.374000", "154737.377000", "154737.380000", "154737.383000", "154737.386000", "154737.389000", "154857.311000", "154857.315000", "154857.322000", "154857.325000", "154857.328000", "154857.331000", "154857.334000", "154857.337000", "154857.340000", "154857.343000", "154857.346000", "154857.349000", "154857.352000", "154857.355000", "154857.358000", "154857.361000", "154857.364000", "154857.367000", "154857.370000", "154857.373000", "155037.311000", "155037.314000", "155037.317000", "155037.320000", "155037.323000", "155037.326000", "155037.329000", "155037.332000", "155037.335000", "155037.338000", "155037.341000", "155037.344000", "155037.347000", "155037.350000", "155037.353000", "155037.356000", "155037.359000", "155037.362000", "155037.365000", "155037.368000", "155037.371000", "155037.374000", "155037.377000", "155037.380000", "155217.312000", "155217.316000", "155217.319000", "155217.322000", "155217.325000", "155217.328000", "155217.331000", "155217.334000", "155217.337000", "155217.340000", "155217.343000", "155217.346000", "155217.349000", "155217.352000", "155217.355000", "155217.357000", "155217.361000", "155217.363000", "155217.366000", "155217.369000", "155217.373000", "155217.376000", "155217.378000", "155217.382000", "155315.744000", "155315.747000", "155315.750000", "155315.753000", "155315.756000", "155315.759000", "155315.763000", "155315.766000", "155315.769000", "155315.772000", "155315.775000", "155315.778000", "155315.781000", "155315.784000", "155315.787000"],
      "InstanceCreationTime": ["154737.317000", "154737.328000", "154737.331000", "154737.334000", "154737.344000", "154737.347000", "154737.350000", "154737.353000", "154737.356000", "154737.359000", "154737.362000", "154737.365000", "154737.368000", "154737.371000", "154737.374000", "154737.377000", "154737.380000", "154737.383000", "154737.386000", "154737.389000", "154857.311000", "154857.315000", "154857.322000", "154857.325000", "154857.328000", "154857.331000", "154857.334000", "154857.337000", "154857.340000", "154857.343000", "154857.346000", "154857.349000", "154857.352000", "154857.355000", "154857.358000", "154857.361000", "154857.364000", "154857.367000", "154857.370000", "154857.373000", "155037.311000", "155037.314000", "155037.317000", "155037.320000", "155037.323000", "155037.326000", "155037.329000", "155037.332000", "155037.335000", "155037.338000", "155037.341000", "155037.344000", "155037.347000", "155037.350000", "155037.353000", "155037.356000", "155037.359000", "155037.362000", "155037.365000", "155037.368000", "155037.371000", "155037.374000", "155037.377000", "155037.380000", "155217.312000", "155217.316000", "155217.319000", "155217.322000", "155217.325000", "155217.328000", "155217.331000", "155217.334000", "155217.337000", "155217.340000", "155217.343000", "155217.346000", "155217.349000", "155217.352000", "155217.355000", "155217.357000", "155217.361000", "155217.363000", "155217.366000", "155217.369000", "155217.373000", "155217.376000", "155217.378000", "155217.382000", "155315.744000", "155315.747000", "155315.750000", "155315.753000", "155315.756000", "155315.759000", "155315.763000", "155315.766000", "155315.769000", "155315.772000", "155315.775000", "155315.778000", "155315.781000", "155315.784000", "155315.787000"],
      "InstanceNumber": [1, 2, 3, 4, 5, 6, 7, 8, 9, 10, 11, 12, 13, 14, 15, 16, 17, 18, 19, 20, 21, 22, 23, 24, 25, 26, 27, 28, 29, 30, 31, 32, 33, 34, 35, 36, 37, 38, 39, 40, 41, 42, 43, 44, 45, 46, 47, 48, 49, 50, 51, 52, 53, 54, 55, 56, 57, 58, 59, 60, 61, 62, 63, 64, 65, 66, 67, 68, 69, 70, 71, 72, 73, 74, 75, 76, 77, 78, 79, 80, 81, 82, 83, 84, 85, 86, 87, 88, 89, 90, 91, 92, 93, 94, 95, 96, 97, 98, 99, 100, 101, 102, 103],
      "LargestImagePixelValue": [65535, 65535, 65535, 65535, 65535, 43762, 65146, 65535, 65535, 51692, 32535, 46361, 30862, 41366, 45490, 20643, 48507, 53865, 48032, 40166, 41494, 48504, 33652, 55234, 65535, 23992, 29713, 19718, 19669, 12399, 15428, 20835, 16110, 21927, 21454, 27862, 14580, 23724, 14433, 22143, 65535, 13396, 10054, 10592, 14125, 10451, 16642, 8275, 6761, 14723, 8952, 8455, 9051, 15014, 10543, 12997, 12260, 16475, 9717, 9805, 9824, 12621, 11194, 10752, 9213, 12149, 12908, 9661, 13405, 12687, 13284, 10663, 6762, 65535, 17978, 14095, 10791, 12203, 11566, 10107, 11267, 13341, 12084, 13084, 11755, 12985, 14171, 12707, 7155, 16034, 8188, 15264, 14749, 13516, 8015, 11696, 12597, 9802, 9177, 10250, 13249, 13613, 65535],
      "SequenceName": [
 "ep_b5#1",
 "ep_b5#1",
 "ep_b500#2",
 "ep_b495#3",
 "ep_b500#4",
 "ep_b505#5",
 "ep_b495#6",
 "ep_b500#7",
 "ep_b5#8",
 "ep_b1000#9",
 "ep_b1005#10",
 "ep_b995#11",
 "ep_b1005#12",
 "ep_b995#13",
 "ep_b995#14",
 "ep_b1005#15",
 "ep_b1000#16",
 "ep_b1005#17",
 "ep_b995#18",
 "ep_b1000#19",
 "ep_b995#20",
 "ep_b1000#21",
 "ep_b1005#22",
 "ep_b1005#23",
 "ep_b5#24",
 "ep_b2000#25",
 "ep_b1995#26",
 "ep_b1990#27",
 "ep_b1995#28",
 "ep_b2005#29",
 "ep_b2010#30",
 "ep_b2005#31",
 "ep_b2010#32",
 "ep_b2000#33",
 "ep_b1995#34",
 "ep_b1995#35",
 "ep_b2005#36",
 "ep_b2000#37",
 "ep_b2005#38",
 "ep_b1995#39",
 "ep_b5#40",
 "ep_b3000#41",
 "ep_b3005#42",
 "ep_b3010#43",
 "ep_b3010#44",
 "ep_b3000#45",
 "ep_b3000#46",
 "ep_b2990#47",
 "ep_b3005#48",
 "ep_b3000#49",
 "ep_b2990#50",
 "ep_b2990#51",
 "ep_b2995#52",
 "ep_b2995#53",
 "ep_b3010#54",
 "ep_b3000#55",
 "ep_b2995#56",
 "ep_b2995#57",
 "ep_b2990#58",
 "ep_b2990#59",
 "ep_b3000#60",
 "ep_b2990#61",
 "ep_b2990#62",
 "ep_b2995#63",
 "ep_b3005#64",
 "ep_b3010#65",
 "ep_b2995#66",
 "ep_b3005#67",
 "ep_b3005#68",
 "ep_b3005#69",
 "ep_b3005#70",
 "ep_b3005#71",
 "ep_b2990#72",
 "ep_b5#73",
 "ep_b3010#74",
 "ep_b3000#75",
 "ep_b3005#76",
 "ep_b3005#77",
 "ep_b2995#78",
 "ep_b3005#79",
 "ep_b2995#80",
 "ep_b3010#81",
 "ep_b3005#82",
 "ep_b3005#83",
 "ep_b3000#84",
 "ep_b3005#85",
 "ep_b3010#86",
 "ep_b3010#87",
 "ep_b2990#88",
 "ep_b3010#89",
 "ep_b2995#90",
 "ep_b2995#91",
 "ep_b2990#92",
 "ep_b2995#93",
 "ep_b3005#94",
 "ep_b3010#95",
 "ep_b2995#96",
 "ep_b3000#97",
 "ep_b2990#98",
 "ep_b3000#99",
 "ep_b2995#100",
 "ep_b2995#101",
 "ep_b5#102"
],
      "WindowCenter": [12236.0, 12244.0, 8336.0, 8014.0, 8134.0, 7123.0, 7302.0, 8427.0, 12014.0, 6255.0, 4885.0, 5290.0, 5274.0, 4669.0, 5407.0, 3810.0, 6243.0, 6198.0, 6068.0, 5943.0, 5621.0, 6020.0, 4933.0, 6270.0, 12114.0, 3896.0, 3931.0, 2686.0, 3496.0, 2628.0, 3389.0, 3381.0, 3260.0, 3217.0, 3307.0, 3553.0, 2642.0, 3600.0, 2866.0, 3065.0, 11686.0, 2702.0, 2147.0, 2483.0, 2679.0, 1865.0, 2934.0, 1580.0, 1493.0, 2836.0, 1465.0, 1336.0, 2075.0, 2682.0, 1928.0, 2753.0, 2606.0, 2706.0, 1714.0, 1506.0, 1972.0, 1943.0, 1951.0, 2426.0, 2382.0, 2344.0, 2283.0, 2421.0, 2469.0, 2706.0, 2768.0, 2601.0, 1356.0, 9937.0, 2802.0, 2568.0, 2510.0, 2482.0, 1744.0, 1761.0, 2122.0, 2262.0, 2669.0, 2725.0, 2244.0, 2646.0, 2364.0, 2668.0, 1322.0, 2633.0, 1429.0, 2262.0, 2132.0, 2408.0, 1734.0, 2547.0, 2144.0, 2489.0, 1582.0, 2181.0, 2698.0, 2725.0, 11236.0],
      "WindowWidth": [28818.0, 28854.0, 17692.0, 16965.0, 17177.0, 15134.0, 15467.0, 17871.0, 28163.0, 13306.0, 10670.0, 11424.0, 11426.0, 10273.0, 11660.0, 8691.0, 13254.0, 13131.0, 12925.0, 12694.0, 12080.0, 12833.0, 10758.0, 13280.0, 28468.0, 8713.0, 8741.0, 6386.0, 7922.0, 6357.0, 7820.0, 7729.0, 7535.0, 7386.0, 7563.0, 8016.0, 6282.0, 8138.0, 6797.0, 7086.0, 27187.0, 6416.0, 5331.0, 6055.0, 6574.0, 4716.0, 6834.0, 4167.0, 3916.0, 6680.0, 3880.0, 3541.0, 5207.0, 6362.0, 4944.0, 6532.0, 6250.0, 6374.0, 4419.0, 3884.0, 4938.0, 4857.0, 4842.0, 5898.0, 5828.0, 5844.0, 5563.0, 5890.0, 6038.0, 6452.0, 6564.0, 6248.0, 3673.0, 22376.0, 6979.0, 6126.0, 6058.0, 6000.0, 4429.0, 4446.0, 5252.0, 5934.0, 6396.0, 6485.0, 5492.0, 6305.0, 5939.0, 6422.0, 3565.0, 6677.0, 3807.0, 5456.0, 5200.0, 5798.0, 4469.0, 6111.0, 5276.0, 6026.0, 4151.0, 5375.0, 6416.0, 6453.0, 25782.0]
    },
    "slices": {}
  }
}