{
  "AcquisitionMatrixPE": 82,
  "AcquisitionNumber": 1,
  "AcquisitionTime": "13:23:0.192500",
  "BandwidthPerPixelPhaseEncode": 24.888,
  "BaseResolution": 82,
  "BodyPartExamined": "BRAIN",
  "ConsistencyInfo": "N4_VE11E_LATEST_20181129",
  "ConversionSoftware": "dcm2niix",
  "ConversionSoftwareVersion": "v1.0.20201102",
  "DerivedVendorReportedEchoSpacing": 0.00049,
  "DeviceSerialNumber": "66112",
  "DwellTime": 2e-06,
  "EchoTime": 0.0272,
  "EchoTrainLength": 82,
  "EffectiveEchoSpacing": 0.00049,
  "FlipAngle": 44,
  "ImageComments": "Unaliased MB8/PE3",
  "ImageOrientationPatientDICOM": [0.997945, -0.0608871, 0.0199451, 0.0582402, 0.991807, 0.113698],
  "ImageType": [
    "ORIGINAL",
    "PRIMARY",
    "M",
    "MB",
    "ND",
    "NORM",
    "MOSAIC"
],
  "ImagingFrequency": 123.252,
  "InPlanePhaseEncodingDirectionDICOM": "COL",
  "InstitutionAddress": "Maynard 3,Hanover,NH,US,03755",
  "InstitutionName": "Dartmouth College - PBS",
  "InstitutionalDepartmentName": "Department",
  "MRAcquisitionType": "2D",
  "MagneticFieldStrength": 3,
  "Manufacturer": "Siemens",
  "ManufacturersModelName": "Prisma",
  "Modality": "MR",
  "MultibandAccelerationFactor": 8,
  "PartialFourier": 1,
  "PatientPosition": "HFS",
  "PercentPhaseFOV": 100,
  "PercentSampling": 100,
  "PhaseEncodingDirection": "j-",
  "PhaseEncodingSteps": 82,
  "PhaseResolution": 1,
  "PixelBandwidth": 3050,
  "ProcedureStepDescription": "Wager_Wager^1076_spacetop",
  "ProtocolName": "func_run-01_task-alignvideo_acq-ap-mb8",
  "PulseSequenceDetails": "%CustomerSeq%\\cmrr_mbep2d_bold",
  "ReceiveCoilActiveElements": "HEA;HEP",
  "ReceiveCoilName": "Head_32",
  "ReconMatrixPE": 82,
  "RepetitionTime": 0.46,
  "SAR": 0.0786293,
  "ScanOptions": "FS",
  "ScanningSequence": "EP",
  "SequenceName": "epfid2d1_82",
  "SequenceVariant": "SK\\SS",
  "SeriesDescription": "func_run-01_task-alignvideo_acq-ap-mb8",
  "SeriesNumber": 30,
  "ShimSetting": [4148, -7767, -7272, 585, -90, -154, -12, 59],
  "SliceThickness": 2.7,
  "SliceTiming": [0, 0.2525, 0.065, 0.315, 0.1275, 0.3775, 0.19, 0, 0.2525, 0.065, 0.315, 0.1275, 0.3775, 0.19, 0, 0.2525, 0.065, 0.315, 0.1275, 0.3775, 0.19, 0, 0.2525, 0.065, 0.315, 0.1275, 0.3775, 0.19, 0, 0.2525, 0.065, 0.315, 0.1275, 0.3775, 0.19, 0, 0.2525, 0.065, 0.315, 0.1275, 0.3775, 0.19, 0, 0.2525, 0.065, 0.315, 0.1275, 0.3775, 0.19, 0, 0.2525, 0.065, 0.315, 0.1275, 0.3775, 0.19],
  "SoftwareVersions": "syngo MR E11",
  "SpacingBetweenSlices": 2.7,
  "StationName": "AWP66112",
  "TaskName": "alignvideo",
  "TotalReadoutTime": 0.03969,
  "TxRefAmp": 231.122,
  "WipMemBlock": "c3edf6bc-2d26-4c66-86a8-5e9eb02e480c||Sequence: R016 ve11e/master r/434b28f1; Aug  7 2019 18:53:46 by eja",
  "dcmmeta_affine": [
    [-2.6774144172668457, 0.15625421702861786, 0.07210192829370499, 101.62539672851562],
    [0.16335567831993103, 2.660945415496826, 0.3032171428203583, -110.36578369140625],
    [0.05351123586297035, -0.3050430417060852, 2.6819510459899902, -53.168033599853516],
    [0.0, 0.0, 0.0, 1.0]
],
  "dcmmeta_reorient_transform": [
    [0.0, -1.0, 0.0, 81.0],
    [1.0, 0.0, 0.0, 0.0],
    [0.0, 0.0, 1.0, 0.0],
    [0.0, 0.0, 0.0, 1.0]
],
  "dcmmeta_shape": [82, 82, 56, 1073],
  "dcmmeta_slice_dim": 2,
  "dcmmeta_version": 0.6,
  "global": {
    "const": {
      "AccessionNumber": "A003907",
      "AcquisitionMatrix": [82, 0, 0, 82],
      "AngioFlag": "N",
      "BitsAllocated": 16,
      "BitsStored": 16,
      "BodyPartExamined": "BRAIN",
      "Columns": 656,
      "EchoNumbers": 1,
      "EchoTime": 27.2,
      "EchoTrainLength": 82,
      "FlipAngle": 44.0,
      "HighBit": 15,
      "ImageOrientationPatient": [0.9979453653591, -0.0608871160789, 0.01994509598577, 0.05824020782456, 0.99180687357042, 0.11369786159392],
      "ImagePositionPatient": [-927.54490217429, -821.97901652898, -180.78160198285],
      "ImageType": [
        "ORIGINAL",
        "PRIMARY",
        "M",
        "MB",
        "ND",
        "NORM",
        "MOSAIC"
],
      "ImagedNucleus": "1H",
      "ImagingFrequency": 123.252219,
      "InPlanePhaseEncodingDirection": "COL",
      "MRAcquisitionType": "2D",
      "MagneticFieldStrength": 3.0,
      "Manufacturer": "SIEMENS",
      "ManufacturerModelName": "Prisma",
      "Modality": "MR",
      "NumberOfAverages": 1.0,
      "NumberOfPhaseEncodingSteps": 82,
      "PercentPhaseFieldOfView": 100.0,
      "PercentSampling": 100.0,
      "PerformedProcedureStepStartTime": "112222.388000",
      "PhotometricInterpretation": "MONOCHROME2",
      "PixelBandwidth": 3050.0,
      "PixelRepresentation": 0,
      "PixelSpacing": [2.6829268932343, 2.6829268932343],
      "ProtocolName": "func_run-01_task-alignvideo_acq-ap-mb8",
      "RepetitionTime": 460.0,
      "Rows": 656,
      "SAR": 0.07862932340091,
      "SamplesPerPixel": 1,
      "ScanOptions": "FS",
      "ScanningSequence": "EP",
      "SequenceName": "epfid2d1_82",
      "SequenceVariant": [
        "SK",
        "SS"
],
      "SeriesDescription": "func_run-01_task-alignvideo_acq-ap-mb8",
      "SeriesNumber": 30,
      "SeriesTime": "132314.810000",
      "SliceLocation": -62.493137593045,
      "SliceThickness": 2.7000000476837,
      "SmallestImagePixelValue": 0,
      "SoftwareVersions": "syngo MR E11",
      "SpacingBetweenSlices": 2.7000000265784,
      "SpecificCharacterSet": "ISO_IR 100",
      "StudyID": "1",
      "StudyTime": "112222.231000",
      "TransmitCoilName": "Body",
      "VariableFlipAngleFlag": "N",
      "WindowCenterWidthExplanation": "Algo1"
    },
    "slices": {}
  },
  "time": {
    "samples": {
      "AcquisitionNumber": [1, 2, 3, 4, 5, 6, 7, 8, 9, 10, 11, 12, 13, 14, 15, 16, 17, 18, 19, 20, 21, 22, 23, 24, 25, 26, 27, 28, 29, 30, 31, 32, 33, 34, 35, 36, 37, 38, 39, 40, 41, 42, 43, 44, 45, 46, 47, 48, 49, 50, 51, 52, 53, 54, 55, 56, 57, 58, 59, 60, 61, 62, 63, 64, 65, 66, 67, 68, 69, 70, 71, 72, 73, 74, 75, 76, 77, 78, 79, 80, 81, 82, 83, 84, 85, 86, 87, 88, 89, 90, 91, 92, 93, 94, 95, 96, 97, 98, 99, 100, 101, 102, 103, 104, 105, 106, 107, 108, 109, 110, 111, 112, 113, 114, 115, 116, 117, 118, 119, 120, 121, 122, 123, 124, 125, 126, 127, 128, 129, 130, 131, 132, 133, 134, 135, 136, 137, 138, 139, 140, 141, 142, 143, 144, 145, 146, 147, 148, 149, 150, 151, 152, 153, 154, 155, 156, 157, 158, 159, 160, 161, 162, 163, 164, 165, 166, 167, 168, 169, 170, 171, 172, 173, 174, 175, 176, 177, 178, 179, 180, 181, 182, 183, 184, 185, 186, 187, 188, 189, 190, 191, 192, 193, 194, 195, 196, 197, 198, 199, 200, 201, 202, 203, 204, 205, 206, 207, 208, 209, 210, 211, 212, 213, 214, 215, 216, 217, 218, 219, 220, 221, 222, 223, 224, 225, 226, 227, 228, 229, 230, 231, 232, 233, 234, 235, 236, 237, 238, 239, 240, 241, 242, 243, 244, 245, 246, 247, 248, 249, 250, 251, 252, 253, 254, 255, 256, 257, 258, 259, 260, 261, 262, 263, 264, 265, 266, 267, 268, 269, 270, 271, 272, 273, 274, 275, 276, 277, 278, 279, 280, 281, 282, 283, 284, 285, 286, 287, 288, 289, 290, 291, 292, 293, 294, 295, 296, 297, 298, 299, 300, 301, 302, 303, 304, 305, 306, 307, 308, 309, 310, 311, 312, 313, 314, 315, 316, 317, 318, 319, 320, 321, 322, 323, 324, 325, 326, 327, 328, 329, 330, 331, 332, 333, 334, 335, 336, 337, 338, 339, 340, 341, 342, 343, 344, 345, 346, 347, 348, 349, 350, 351, 352, 353, 354, 355, 356, 357, 358, 359, 360, 361, 362, 363, 364, 365, 366, 367, 368, 369, 370, 371, 372, 373, 374, 375, 376, 377, 378, 379, 380, 381, 382, 383, 384, 385, 386, 387, 388, 389, 390, 391, 392, 393, 394, 395, 396, 397, 398, 399, 400, 401, 402, 403, 404, 405, 406, 407, 408, 409, 410, 411, 412, 413, 414, 415, 416, 417, 418, 419, 420, 421, 422, 423, 424, 425, 426, 427, 428, 429, 430, 431, 432, 433, 434, 435, 436, 437, 438, 439, 440, 441, 442, 443, 444, 445, 446, 447, 448, 449, 450, 451, 452, 453, 454, 455, 456, 457, 458, 459, 460, 461, 462, 463, 464, 465, 466, 467, 468, 469, 470, 471, 472, 473, 474, 475, 476, 477, 478, 479, 480, 481, 482, 483, 484, 485, 486, 487, 488, 489, 490, 491, 492, 493, 494, 495, 496, 497, 498, 499, 500, 501, 502, 503, 504, 505, 506, 507, 508, 509, 510, 511, 512, 513, 514, 515, 516, 517, 518, 519, 520, 521, 522, 523, 524, 525, 526, 527, 528, 529, 530, 531, 532, 533, 534, 535, 536, 537, 538, 539, 540, 541, 542, 543, 544, 545, 546, 547, 548, 549, 550, 551, 552, 553, 554, 555, 556, 557, 558, 559, 560, 561, 562, 563, 564, 565, 566, 567, 568, 569, 570, 571, 572, 573, 574, 575, 576, 577, 578, 579, 580, 581, 582, 583, 584, 585, 586, 587, 588, 589, 590, 591, 592, 593, 594, 595, 596, 597, 598, 599, 600, 601, 602, 603, 604, 605, 606, 607, 608, 609, 610, 611, 612, 613, 614, 615, 616, 617, 618, 619, 620, 621, 622, 623, 624, 625, 626, 627, 628, 629, 630, 631, 632, 633, 634, 635, 636, 637, 638, 639, 640, 641, 642, 643, 644, 645, 646, 647, 648, 649, 650, 651, 652, 653, 654, 655, 656, 657, 658, 659, 660, 661, 662, 663, 664, 665, 666, 667, 668, 669, 670, 671, 672, 673, 674, 675, 676, 677, 678, 679, 680, 681, 682, 683, 684, 685, 686, 687, 688, 689, 690, 691, 692, 693, 694, 695, 696, 697, 698, 699, 700, 701, 702, 703, 704, 705, 706, 707, 708, 709, 710, 711, 712, 713, 714, 715, 716, 717, 718, 719, 720, 721, 722, 723, 724, 725, 726, 727, 728, 729, 730, 731, 732, 733, 734, 735, 736, 737, 738, 739, 740, 741, 742, 743, 744, 745, 746, 747, 748, 749, 750, 751, 752, 753, 754, 755, 756, 757, 758, 759, 760, 761, 762, 763, 764, 765, 766, 767, 768, 769, 770, 771, 772, 773, 774, 775, 776, 777, 778, 779, 780, 781, 782, 783, 784, 785, 786, 787, 788, 789, 790, 791, 792, 793, 794, 795, 796, 797, 798, 799, 800, 801, 802, 803, 804, 805, 806, 807, 808, 809, 810, 811, 812, 813, 814, 815, 816, 817, 818, 819, 820, 821, 822, 823, 824, 825, 826, 827, 828, 829, 830, 831, 832, 833, 834, 835, 836, 837, 838, 839, 840, 841, 842, 843, 844, 845, 846, 847, 848, 849, 850, 851, 852, 853, 854, 855, 856, 857, 858, 859, 860, 861, 862, 863, 864, 865, 866, 867, 868, 869, 870, 871, 872, 873, 874, 875, 876, 877, 878, 879, 880, 881, 882, 883, 884, 885, 886, 887, 888, 889, 890, 891, 892, 893, 894, 895, 896, 897, 898, 899, 900, 901, 902, 903, 904, 905, 906, 907, 908, 909, 910, 911, 912, 913, 914, 915, 916, 917, 918, 919, 920, 921, 922, 923, 924, 925, 926, 927, 928, 929, 930, 931, 932, 933, 934, 935, 936, 937, 938, 939, 940, 941, 942, 943, 944, 945, 946, 947, 948, 949, 950, 951, 952, 953, 954, 955, 956, 957, 958, 959, 960, 961, 962, 963, 964, 965, 966, 967, 968, 969, 970, 971, 972, 973, 974, 975, 976, 977, 978, 979, 980, 981, 982, 983, 984, 985, 986, 987, 988, 989, 990, 991, 992, 993, 994, 995, 996, 997, 998, 999, 1000, 1001, 1002, 1003, 1004, 1005, 1006, 1007, 1008, 1009, 1010, 1011, 1012, 1013, 1014, 1015, 1016, 1017, 1018, 1019, 1020, 1021, 1022, 1023, 1024, 1025, 1026, 1027, 1028, 1029, 1030, 1031, 1032, 1033, 1034, 1035, 1036, 1037, 1038, 1039, 1040, 1041, 1042, 1043, 1044, 1045, 1046, 1047, 1048, 1049, 1050, 1051, 1052, 1053, 1054, 1055, 1056, 1057, 1058, 1059, 1060, 1061, 1062, 1063, 1064, 1065, 1066, 1067, 1068, 1069, 1070, 1071, 1072, 1073],
      "AcquisitionTime": ["132300.192500", "132300.652500", "132301.112500", "132301.572500", "132302.032500", "132302.492500", "132302.952500", "132303.412500", "132303.872500", "132304.332500", "132304.792500", "132305.252500", "132305.712500", "132306.172500", "132306.632500", "132307.092500", "132307.552500", "132308.012500", "132308.472500", "132308.932500", "132309.392500", "132309.852500", "132310.312500", "132310.772500", "132311.232500", "132311.692500", "132312.152500", "132312.612500", "132313.072500", "132313.532500", "132313.992500", "132314.452500", "132314.912500", "132315.372500", "132315.832500", "132316.292500", "132316.752500", "132317.212500", "132317.672500", "132318.132500", "132318.592500", "132319.052500", "132319.512500", "132319.972500", "132320.432500", "132320.892500", "132321.352500", "132321.812500", "132322.272500", "132322.732500", "132323.192500", "132323.652500", "132324.112500", "132324.572500", "132325.032500", "132325.492500", "132325.952500", "132326.412500", "132326.872500", "132327.332500", "132327.792500", "132328.252500", "132328.712500", "132329.172500", "132329.632500", "132330.092500", "132330.552500", "132331.012500", "132331.472500", "132331.932500", "132332.392500", "132332.852500", "132333.312500", "132333.772500", "132334.232500", "132334.692500", "132335.152500", "132335.612500", "132336.072500", "132336.532500", "132336.992500", "132337.452500", "132337.912500", "132338.372500", "132338.832500", "132339.292500", "132339.752500", "132340.212500", "132340.672500", "132341.132500", "132341.592500", "132342.052500", "132342.512500", "132342.972500", "132343.432500", "132343.892500", "132344.352500", "132344.812500", "132345.272500", "132345.732500", "132346.192500", "132346.652500", "132347.112500", "132347.572500", "132348.032500", "132348.492500", "132348.952500", "132349.412500", "132349.872500", "132350.332500", "132350.792500", "132351.252500", "132351.712500", "132352.172500", "132352.632500", "132353.092500", "132353.552500", "132354.012500", "132354.472500", "132354.932500", "132355.392500", "132355.852500", "132356.312500", "132356.772500", "132357.232500", "132357.692500", "132358.152500", "132358.612500", "132359.072500", "132359.532500", "132359.992500", "132400.452500", "132400.912500", "132401.372500", "132401.832500", "132402.292500", "132402.752500", "132403.212500", "132403.672500", "132404.132500", "132404.592500", "132405.052500", "132405.512500", "132405.972500", "132406.432500", "132406.892500", "132407.352500", "132407.812500", "132408.272500", "132408.732500", "132409.192500", "132409.652500", "132410.112500", "132410.572500", "132411.032500", "132411.492500", "132411.952500", "132412.412500", "132412.872500", "132413.332500", "132413.792500", "132414.252500", "132414.712500", "132415.172500", "132415.632500", "132416.092500", "132416.552500", "132417.012500", "132417.472500", "132417.932500", "132418.392500", "132418.852500", "132419.312500", "132419.772500", "132420.232500", "132420.692500", "132421.152500", "132421.612500", "132422.072500", "132422.532500", "132422.992500", "132423.452500", "132423.912500", "132424.372500", "132424.832500", "132425.292500", "132425.752500", "132426.212500", "132426.672500", "132427.132500", "132427.592500", "132428.052500", "132428.512500", "132428.972500", "132429.432500", "132429.892500", "132430.352500", "132430.812500", "132431.272500", "132431.732500", "132432.192500", "132432.652500", "132433.112500", "132433.572500", "132434.032500", "132434.492500", "132434.952500", "132435.412500", "132435.872500", "132436.332500", "132436.792500", "132437.252500", "132437.712500", "132438.172500", "132438.632500", "132439.092500", "132439.552500", "132440.012500", "132440.472500", "132440.932500", "132441.392500", "132441.852500", "132442.312500", "132442.772500", "132443.232500", "132443.692500", "132444.152500", "132444.612500", "132445.072500", "132445.532500", "132445.992500", "132446.452500", "132446.912500", "132447.372500", "132447.832500", "132448.292500", "132448.752500", "132449.212500", "132449.672500", "132450.132500", "132450.592500", "132451.052500", "132451.512500", "132451.972500", "132452.432500", "132452.892500", "132453.352500", "132453.812500", "132454.272500", "132454.732500", "132455.192500", "132455.652500", "132456.112500", "132456.572500", "132457.032500", "132457.492500", "132457.952500", "132458.412500", "132458.872500", "132459.332500", "132459.792500", "132500.252500", "132500.712500", "132501.172500", "132501.632500", "132502.092500", "132502.552500", "132503.012500", "132503.472500", "132503.932500", "132504.392500", "132504.852500", "132505.312500", "132505.772500", "132506.232500", "132506.692500", "132507.152500", "132507.612500", "132508.072500", "132508.532500", "132508.992500", "132509.452500", "132509.912500", "132510.372500", "132510.832500", "132511.292500", "132511.752500", "132512.212500", "132512.672500", "132513.132500", "132513.592500", "132514.052500", "132514.512500", "132514.972500", "132515.432500", "132515.892500", "132516.352500", "132516.812500", "132517.272500", "132517.732500", "132518.192500", "132518.652500", "132519.112500", "132519.572500", "132520.032500", "132520.492500", "132520.952500", "132521.412500", "132521.872500", "132522.332500", "132522.792500", "132523.252500", "132523.712500", "132524.172500", "132524.632500", "132525.092500", "132525.552500", "132526.012500", "132526.472500", "132526.932500", "132527.392500", "132527.852500", "132528.312500", "132528.772500", "132529.232500", "132529.692500", "132530.152500", "132530.612500", "132531.072500", "132531.532500", "132531.992500", "132532.452500", "132532.912500", "132533.372500", "132533.832500", "132534.292500", "132534.752500", "132535.212500", "132535.672500", "132536.132500", "132536.592500", "132537.052500", "132537.512500", "132537.972500", "132538.432500", "132538.892500", "132539.352500", "132539.812500", "132540.272500", "132540.732500", "132541.192500", "132541.652500", "132542.112500", "132542.572500", "132543.032500", "132543.492500", "132543.952500", "132544.412500", "132544.872500", "132545.332500", "132545.792500", "132546.252500", "132546.712500", "132547.172500", "132547.632500", "132548.092500", "132548.552500", "132549.012500", "132549.472500", "132549.932500", "132550.392500", "132550.852500", "132551.312500", "132551.772500", "132552.232500", "132552.692500", "132553.152500", "132553.612500", "132554.072500", "132554.532500", "132554.992500", "132555.452500", "132555.912500", "132556.372500", "132556.832500", "132557.292500", "132557.752500", "132558.212500", "132558.672500", "132559.132500", "132559.592500", "132600.052500", "132600.512500", "132600.972500", "132601.432500", "132601.892500", "132602.352500", "132602.812500", "132603.272500", "132603.732500", "132604.192500", "132604.652500", "132605.112500", "132605.572500", "132606.032500", "132606.492500", "132606.952500", "132607.412500", "132607.872500", "132608.332500", "132608.792500", "132609.252500", "132609.712500", "132610.172500", "132610.632500", "132611.092500", "132611.552500", "132612.012500", "132612.472500", "132612.932500", "132613.392500", "132613.852500", "132614.312500", "132614.772500", "132615.232500", "132615.692500", "132616.152500", "132616.612500", "132617.072500", "132617.532500", "132617.992500", "132618.452500", "132618.912500", "132619.372500", "132619.832500", "132620.292500", "132620.752500", "132621.212500", "132621.672500", "132622.132500", "132622.592500", "132623.052500", "132623.512500", "132623.972500", "132624.432500", "132624.892500", "132625.352500", "132625.812500", "132626.272500", "132626.732500", "132627.192500", "132627.652500", "132628.112500", "132628.572500", "132629.032500", "132629.492500", "132629.952500", "132630.412500", "132630.872500", "132631.332500", "132631.792500", "132632.252500", "132632.712500", "132633.172500", "132633.632500", "132634.092500", "132634.552500", "132635.012500", "132635.472500", "132635.932500", "132636.392500", "132636.852500", "132637.312500", "132637.772500", "132638.232500", "132638.692500", "132639.152500", "132639.612500", "132640.072500", "132640.532500", "132640.992500", "132641.452500", "132641.912500", "132642.372500", "132642.832500", "132643.292500", "132643.752500", "132644.212500", "132644.672500", "132645.132500", "132645.592500", "132646.052500", "132646.512500", "132646.972500", "132647.432500", "132647.892500", "132648.352500", "132648.812500", "132649.272500", "132649.732500", "132650.192500", "132650.652500", "132651.112500", "132651.572500", "132652.032500", "132652.492500", "132652.952500", "132653.412500", "132653.872500", "132654.332500", "132654.792500", "132655.252500", "132655.712500", "132656.172500", "132656.632500", "132657.092500", "132657.552500", "132658.012500", "132658.472500", "132658.932500", "132659.392500", "132659.852500", "132700.312500", "132700.772500", "132701.232500", "132701.692500", "132702.152500", "132702.612500", "132703.072500", "132703.532500", "132703.992500", "132704.452500", "132704.912500", "132705.372500", "132705.832500", "132706.292500", "132706.752500", "132707.212500", "132707.672500", "132708.132500", "132708.592500", "132709.052500", "132709.512500", "132709.972500", "132710.432500", "132710.892500", "132711.352500", "132711.812500", "132712.272500", "132712.732500", "132713.192500", "132713.652500", "132714.112500", "132714.572500", "132715.032500", "132715.492500", "132715.952500", "132716.412500", "132716.872500", "132717.332500", "132717.792500", "132718.252500", "132718.712500", "132719.172500", "132719.632500", "132720.092500", "132720.552500", "132721.012500", "132721.472500", "132721.932500", "132722.392500", "132722.852500", "132723.312500", "132723.772500", "132724.232500", "132724.692500", "132725.152500", "132725.612500", "132726.072500", "132726.532500", "132726.992500", "132727.452500", "132727.912500", "132728.372500", "132728.832500", "132729.292500", "132729.752500", "132730.212500", "132730.672500", "132731.132500", "132731.592500", "132732.052500", "132732.512500", "132732.972500", "132733.432500", "132733.892500", "132734.352500", "132734.812500", "132735.272500", "132735.732500", "132736.192500", "132736.652500", "132737.112500", "132737.572500", "132738.032500", "132738.492500", "132738.952500", "132739.412500", "132739.872500", "132740.332500", "132740.792500", "132741.252500", "132741.712500", "132742.172500", "132742.632500", "132743.092500", "132743.552500", "132744.012500", "132744.472500", "132744.932500", "132745.392500", "132745.852500", "132746.312500", "132746.772500", "132747.232500", "132747.692500", "132748.152500", "132748.612500", "132749.072500", "132749.532500", "132749.992500", "132750.452500", "132750.912500", "132751.372500", "132751.832500", "132752.292500", "132752.752500", "132753.212500", "132753.672500", "132754.132500", "132754.592500", "132755.052500", "132755.512500", "132755.972500", "132756.432500", "132756.892500", "132757.352500", "132757.812500", "132758.272500", "132758.732500", "132759.192500", "132759.652500", "132800.112500", "132800.572500", "132801.032500", "132801.492500", "132801.952500", "132802.412500", "132802.872500", "132803.332500", "132803.792500", "132804.252500", "132804.712500", "132805.172500", "132805.632500", "132806.092500", "132806.552500", "132807.012500", "132807.472500", "132807.932500", "132808.392500", "132808.852500", "132809.312500", "132809.772500", "132810.232500", "132810.692500", "132811.152500", "132811.612500", "132812.072500", "132812.532500", "132812.992500", "132813.452500", "132813.912500", "132814.372500", "132814.832500", "132815.292500", "132815.752500", "132816.212500", "132816.672500", "132817.132500", "132817.592500", "132818.052500", "132818.512500", "132818.972500", "132819.432500", "132819.892500", "132820.352500", "132820.812500", "132821.272500", "132821.732500", "132822.192500", "132822.652500", "132823.112500", "132823.572500", "132824.032500", "132824.492500", "132824.952500", "132825.412500", "132825.872500", "132826.332500", "132826.792500", "132827.252500", "132827.712500", "132828.172500", "132828.632500", "132829.092500", "132829.552500", "132830.012500", "132830.472500", "132830.932500", "132831.392500", "132831.852500", "132832.312500", "132832.772500", "132833.232500", "132833.692500", "132834.152500", "132834.612500", "132835.072500", "132835.532500", "132835.992500", "132836.452500", "132836.912500", "132837.372500", "132837.832500", "132838.292500", "132838.752500", "132839.212500", "132839.672500", "132840.132500", "132840.592500", "132841.052500", "132841.512500", "132841.972500", "132842.432500", "132842.892500", "132843.352500", "132843.812500", "132844.272500", "132844.732500", "132845.192500", "132845.652500", "132846.112500", "132846.572500", "132847.032500", "132847.492500", "132847.952500", "132848.412500", "132848.872500", "132849.332500", "132849.792500", "132850.252500", "132850.712500", "132851.172500", "132851.632500", "132852.092500", "132852.552500", "132853.012500", "132853.472500", "132853.932500", "132854.392500", "132854.852500", "132855.312500", "132855.772500", "132856.232500", "132856.692500", "132857.152500", "132857.612500", "132858.072500", "132858.532500", "132858.992500", "132859.452500", "132859.912500", "132900.372500", "132900.832500", "132901.292500", "132901.752500", "132902.212500", "132902.672500", "132903.132500", "132903.592500", "132904.052500", "132904.512500", "132904.972500", "132905.432500", "132905.892500", "132906.352500", "132906.812500", "132907.272500", "132907.732500", "132908.192500", "132908.652500", "132909.112500", "132909.572500", "132910.032500", "132910.492500", "132910.952500", "132911.412500", "132911.872500", "132912.332500", "132912.792500", "132913.252500", "132913.712500", "132914.172500", "132914.632500", "132915.092500", "132915.552500", "132916.012500", "132916.472500", "132916.932500", "132917.392500", "132917.852500", "132918.312500", "132918.772500", "132919.232500", "132919.692500", "132920.152500", "132920.612500", "132921.072500", "132921.532500", "132921.992500", "132922.452500", "132922.912500", "132923.372500", "132923.832500", "132924.292500", "132924.752500", "132925.212500", "132925.672500", "132926.132500", "132926.592500", "132927.052500", "132927.512500", "132927.972500", "132928.432500", "132928.892500", "132929.352500", "132929.812500", "132930.272500", "132930.732500", "132931.192500", "132931.652500", "132932.112500", "132932.572500", "132933.032500", "132933.492500", "132933.952500", "132934.412500", "132934.872500", "132935.332500", "132935.792500", "132936.252500", "132936.712500", "132937.172500", "132937.632500", "132938.092500", "132938.552500", "132939.012500", "132939.472500", "132939.932500", "132940.392500", "132940.852500", "132941.312500", "132941.772500", "132942.232500", "132942.692500", "132943.152500", "132943.612500", "132944.072500", "132944.532500", "132944.992500", "132945.452500", "132945.912500", "132946.372500", "132946.832500", "132947.292500", "132947.752500", "132948.212500", "132948.672500", "132949.132500", "132949.592500", "132950.052500", "132950.512500", "132950.972500", "132951.432500", "132951.892500", "132952.352500", "132952.812500", "132953.272500", "132953.732500", "132954.192500", "132954.652500", "132955.112500", "132955.572500", "132956.032500", "132956.492500", "132956.952500", "132957.412500", "132957.872500", "132958.332500", "132958.792500", "132959.252500", "132959.712500", "133000.172500", "133000.632500", "133001.092500", "133001.552500", "133002.012500", "133002.472500", "133002.932500", "133003.392500", "133003.852500", "133004.312500", "133004.772500", "133005.232500", "133005.692500", "133006.152500", "133006.612500", "133007.072500", "133007.532500", "133007.992500", "133008.452500", "133008.912500", "133009.372500", "133009.832500", "133010.292500", "133010.752500", "133011.212500", "133011.672500", "133012.132500", "133012.592500", "133013.052500", "133013.512500", "133013.972500", "133014.432500", "133014.892500", "133015.352500", "133015.812500", "133016.272500", "133016.732500", "133017.192500", "133017.652500", "133018.112500", "133018.572500", "133019.032500", "133019.492500", "133019.952500", "133020.412500", "133020.872500", "133021.332500", "133021.792500", "133022.252500", "133022.712500", "133023.172500", "133023.632500", "133024.092500", "133024.552500", "133025.012500", "133025.472500", "133025.932500", "133026.392500", "133026.852500", "133027.312500", "133027.772500", "133028.232500", "133028.692500", "133029.152500", "133029.612500", "133030.072500", "133030.532500", "133030.992500", "133031.452500", "133031.912500", "133032.372500", "133032.832500", "133033.292500", "133033.752500", "133034.212500", "133034.672500", "133035.132500", "133035.592500", "133036.052500", "133036.512500", "133036.972500", "133037.432500", "133037.892500", "133038.352500", "133038.812500", "133039.272500", "133039.732500", "133040.192500", "133040.652500", "133041.112500", "133041.572500", "133042.032500", "133042.492500", "133042.952500", "133043.412500", "133043.872500", "133044.332500", "133044.792500", "133045.252500", "133045.712500", "133046.172500", "133046.632500", "133047.092500", "133047.552500", "133048.012500", "133048.472500", "133048.932500", "133049.392500", "133049.852500", "133050.312500", "133050.772500", "133051.232500", "133051.692500", "133052.152500", "133052.612500", "133053.072500", "133053.532500", "133053.992500", "133054.452500", "133054.912500", "133055.372500", "133055.832500", "133056.292500", "133056.752500", "133057.212500", "133057.672500", "133058.132500", "133058.592500", "133059.052500", "133059.512500", "133059.972500", "133100.432500", "133100.892500", "133101.352500", "133101.812500", "133102.272500", "133102.732500", "133103.192500", "133103.652500", "133104.112500", "133104.572500", "133105.032500", "133105.492500", "133105.952500", "133106.412500", "133106.872500", "133107.332500", "133107.792500", "133108.252500", "133108.712500", "133109.172500", "133109.632500", "133110.092500", "133110.552500", "133111.012500", "133111.472500", "133111.932500", "133112.392500", "133112.852500", "133113.312500"],
