{
  "AcquisitionMatrixPE": 82,
  "AcquisitionNumber": 1,
  "AcquisitionTime": "12:55:39.350000",
  "BandwidthPerPixelPhaseEncode": 24.888,
  "BaseResolution": 82,
  "BodyPartExamined": "BRAIN",
  "ConsistencyInfo": "N4_VE11E_LATEST_20181129",
  "ConversionSoftware": "dcm2niix",
  "ConversionSoftwareVersion": "v1.0.20201102",
  "DerivedVendorReportedEchoSpacing": 0.00049,
  "DeviceSerialNumber": "66112",
  "DwellTime": 2e-06,
  "EchoTime": 0.0272,
  "EchoTrainLength": 82,
  "EffectiveEchoSpacing": 0.00049,
  "FlipAngle": 44,
  "ImageComments": "Unaliased MB8/PE3",
  "ImageOrientationPatientDICOM": [0.997447, -0.0639716, 0.0317373, 0.0597834, 0.99111, 0.118855],
  "ImageType": [
    "ORIGINAL",
    "PRIMARY",
    "M",
    "MB",
    "ND",
    "NORM",
    "MOSAIC"
],
  "ImagingFrequency": 123.252,
  "InPlanePhaseEncodingDirectionDICOM": "COL",
  "InstitutionAddress": "Maynard 3,Hanover,NH,US,03755",
  "InstitutionName": "Dartmouth College - PBS",
  "InstitutionalDepartmentName": "Department",
  "MRAcquisitionType": "2D",
  "MagneticFieldStrength": 3,
  "Manufacturer": "Siemens",
  "ManufacturersModelName": "Prisma",
  "Modality": "MR",
  "MultibandAccelerationFactor": 8,
  "PartialFourier": 1,
  "PatientPosition": "HFS",
  "PercentPhaseFOV": 100,
  "PercentSampling": 100,
  "PhaseEncodingDirection": "j-",
  "PhaseEncodingSteps": 82,
  "PhaseResolution": 1,
  "PixelBandwidth": 3050,
  "ProcedureStepDescription": "Wager_Wager^1076_spacetop",
  "ProtocolName": "func_run-04_task-social_acq-ap-mb8",
  "PulseSequenceDetails": "%CustomerSeq%\\cmrr_mbep2d_bold",
  "ReceiveCoilActiveElements": "HEA;HEP",
  "ReceiveCoilName": "Head_32",
  "ReconMatrixPE": 82,
  "RepetitionTime": 0.46,
  "SAR": 0.0785377,
  "ScanOptions": "FS",
  "ScanningSequence": "EP",
  "SequenceName": "epfid2d1_82",
  "SequenceVariant": "SK\\SS",
  "SeriesDescription": "func_run-04_task-social_acq-ap-mb8",
  "SeriesNumber": 18,
  "ShimSetting": [4149, -7769, -7271, 598, -85, -165, -15, 59],
  "SliceThickness": 2.7,
  "SliceTiming": [0, 0.25, 0.0625, 0.3125, 0.125, 0.3775, 0.1875, 0, 0.25, 0.0625, 0.3125, 0.125, 0.3775, 0.1875, 0, 0.25, 0.0625, 0.3125, 0.125, 0.3775, 0.1875, 0, 0.25, 0.0625, 0.3125, 0.125, 0.3775, 0.1875, 0, 0.25, 0.0625, 0.3125, 0.125, 0.3775, 0.1875, 0, 0.25, 0.0625, 0.3125, 0.125, 0.3775, 0.1875, 0, 0.25, 0.0625, 0.3125, 0.125, 0.3775, 0.1875, 0, 0.25, 0.0625, 0.3125, 0.125, 0.3775, 0.1875],
  "SoftwareVersions": "syngo MR E11",
  "SpacingBetweenSlices": 2.7,
  "StationName": "AWP66112",
  "TaskName": "social",
  "TotalReadoutTime": 0.03969,
  "TxRefAmp": 231.122,
  "WipMemBlock": "8f21fd7a-efdf-4445-a9bc-106f379529d9||Sequence: R016 ve11e/master r/434b28f1; Aug  7 2019 18:53:46 by eja",
  "dcmmeta_affine": [
    [-2.676077127456665, 0.1603945940732956, 0.10545793175697327, 99.88825988769531],
    [0.17163123190402985, 2.65907621383667, 0.3149668574333191, -110.63965606689453],
    [0.08514877408742905, -0.3188798129558563, 2.6794915199279785, -56.033790588378906],
    [0.0, 0.0, 0.0, 1.0]
],
  "dcmmeta_reorient_transform": [
    [0.0, -1.0, 0.0, 81.0],
    [1.0, 0.0, 0.0, 0.0],
    [0.0, 0.0, 1.0, 0.0],
    [0.0, 0.0, 0.0, 1.0]
],
  "dcmmeta_shape": [82, 82, 56, 872],
  "dcmmeta_slice_dim": 2,
  "dcmmeta_version": 0.6,
  "global": {
    "const": {
      "AccessionNumber": "A003907",
      "AcquisitionMatrix": [82, 0, 0, 82],
      "AngioFlag": "N",
      "BitsAllocated": 16,
      "BitsStored": 16,
      "BodyPartExamined": "BRAIN",
      "Columns": 656,
      "EchoNumbers": 1,
      "EchoTime": 27.2,
      "EchoTrainLength": 82,
      "FlipAngle": 44.0,
      "HighBit": 15,
      "ImageOrientationPatient": [0.99744692828543, -0.0639716414398, 0.03173727060499, 0.05978343660136, 0.99111017659454, 0.1188551999656],
      "ImagePositionPatient": [-926.9476214882, -818.64220312959, -197.81925934175],
      "ImageType": [
        "ORIGINAL",
        "PRIMARY",
        "M",
        "MB",
        "ND",
        "NORM",
        "MOSAIC"
],
      "ImagedNucleus": "1H",
      "ImagingFrequency": 123.252198,
      "InPlanePhaseEncodingDirection": "COL",
      "MRAcquisitionType": "2D",
      "MagneticFieldStrength": 3.0,
      "Manufacturer": "SIEMENS",
      "ManufacturerModelName": "Prisma",
      "Modality": "MR",
      "NumberOfAverages": 1.0,
      "NumberOfPhaseEncodingSteps": 82,
      "PercentPhaseFieldOfView": 100.0,
      "PercentSampling": 100.0,
      "PerformedProcedureStepStartTime": "112222.388000",
      "PhotometricInterpretation": "MONOCHROME2",
      "PixelBandwidth": 3050.0,
      "PixelRepresentation": 0,
      "PixelSpacing": [2.6829268932343, 2.6829268932343],
      "ProtocolName": "func_run-04_task-social_acq-ap-mb8",
      "RepetitionTime": 460.0,
      "Rows": 656,
      "SAR": 0.07853773259866,
      "SamplesPerPixel": 1,
      "ScanOptions": "FS",
      "ScanningSequence": "EP",
      "SequenceName": "epfid2d1_82",
      "SequenceVariant": [
        "SK",
        "SS"
],
      "SeriesDescription": "func_run-04_task-social_acq-ap-mb8",
      "SeriesNumber": 18,
      "SeriesTime": "125554.800000",
      "SliceLocation": -64.613286997272,
      "SliceThickness": 2.7000000476837,
      "SmallestImagePixelValue": 0,
      "SoftwareVersions": "syngo MR E11",
      "SpacingBetweenSlices": 2.7000000306003,
      "SpecificCharacterSet": "ISO_IR 100",
      "StudyID": "1",
      "StudyTime": "112222.231000",
      "TransmitCoilName": "Body",
      "VariableFlipAngleFlag": "N",
      "WindowCenterWidthExplanation": "Algo1"
    },
    "slices": {}
  },
  "time": {
    "samples": {
      "AcquisitionNumber": [1, 2, 3, 4, 5, 6, 7, 8, 9, 10, 11, 12, 13, 14, 15, 16, 17, 18, 19, 20, 21, 22, 23, 24, 25, 26, 27, 28, 29, 30, 31, 32, 33, 34, 35, 36, 37, 38, 39, 40, 41, 42, 43, 44, 45, 46, 47, 48, 49, 50, 51, 52, 53, 54, 55, 56, 57, 58, 59, 60, 61, 62, 63, 64, 65, 66, 67, 68, 69, 70, 71, 72, 73, 74, 75, 76, 77, 78, 79, 80, 81, 82, 83, 84, 85, 86, 87, 88, 89, 90, 91, 92, 93, 94, 95, 96, 97, 98, 99, 100, 101, 102, 103, 104, 105, 106, 107, 108, 109, 110, 111, 112, 113, 114, 115, 116, 117, 118, 119, 120, 121, 122, 123, 124, 125, 126, 127, 128, 129, 130, 131, 132, 133, 134, 135, 136, 137, 138, 139, 140, 141, 142, 143, 144, 145, 146, 147, 148, 149, 150, 151, 152, 153, 154, 155, 156, 157, 158, 159, 160, 161, 162, 163, 164, 165, 166, 167, 168, 169, 170, 171, 172, 173, 174, 175, 176, 177, 178, 179, 180, 181, 182, 183, 184, 185, 186, 187, 188, 189, 190, 191, 192, 193, 194, 195, 196, 197, 198, 199, 200, 201, 202, 203, 204, 205, 206, 207, 208, 209, 210, 211, 212, 213, 214, 215, 216, 217, 218, 219, 220, 221, 222, 223, 224, 225, 226, 227, 228, 229, 230, 231, 232, 233, 234, 235, 236, 237, 238, 239, 240, 241, 242, 243, 244, 245, 246, 247, 248, 249, 250, 251, 252, 253, 254, 255, 256, 257, 258, 259, 260, 261, 262, 263, 264, 265, 266, 267, 268, 269, 270, 271, 272, 273, 274, 275, 276, 277, 278, 279, 280, 281, 282, 283, 284, 285, 286, 287, 288, 289, 290, 291, 292, 293, 294, 295, 296, 297, 298, 299, 300, 301, 302, 303, 304, 305, 306, 307, 308, 309, 310, 311, 312, 313, 314, 315, 316, 317, 318, 319, 320, 321, 322, 323, 324, 325, 326, 327, 328, 329, 330, 331, 332, 333, 334, 335, 336, 337, 338, 339, 340, 341, 342, 343, 344, 345, 346, 347, 348, 349, 350, 351, 352, 353, 354, 355, 356, 357, 358, 359, 360, 361, 362, 363, 364, 365, 366, 367, 368, 369, 370, 371, 372, 373, 374, 375, 376, 377, 378, 379, 380, 381, 382, 383, 384, 385, 386, 387, 388, 389, 390, 391, 392, 393, 394, 395, 396, 397, 398, 399, 400, 401, 402, 403, 404, 405, 406, 407, 408, 409, 410, 411, 412, 413, 414, 415, 416, 417, 418, 419, 420, 421, 422, 423, 424, 425, 426, 427, 428, 429, 430, 431, 432, 433, 434, 435, 436, 437, 438, 439, 440, 441, 442, 443, 444, 445, 446, 447, 448, 449, 450, 451, 452, 453, 454, 455, 456, 457, 458, 459, 460, 461, 462, 463, 464, 465, 466, 467, 468, 469, 470, 471, 472, 473, 474, 475, 476, 477, 478, 479, 480, 481, 482, 483, 484, 485, 486, 487, 488, 489, 490, 491, 492, 493, 494, 495, 496, 497, 498, 499, 500, 501, 502, 503, 504, 505, 506, 507, 508, 509, 510, 511, 512, 513, 514, 515, 516, 517, 518, 519, 520, 521, 522, 523, 524, 525, 526, 527, 528, 529, 530, 531, 532, 533, 534, 535, 536, 537, 538, 539, 540, 541, 542, 543, 544, 545, 546, 547, 548, 549, 550, 551, 552, 553, 554, 555, 556, 557, 558, 559, 560, 561, 562, 563, 564, 565, 566, 567, 568, 569, 570, 571, 572, 573, 574, 575, 576, 577, 578, 579, 580, 581, 582, 583, 584, 585, 586, 587, 588, 589, 590, 591, 592, 593, 594, 595, 596, 597, 598, 599, 600, 601, 602, 603, 604, 605, 606, 607, 608, 609, 610, 611, 612, 613, 614, 615, 616, 617, 618, 619, 620, 621, 622, 623, 624, 625, 626, 627, 628, 629, 630, 631, 632, 633, 634, 635, 636, 637, 638, 639, 640, 641, 642, 643, 644, 645, 646, 647, 648, 649, 650, 651, 652, 653, 654, 655, 656, 657, 658, 659, 660, 661, 662, 663, 664, 665, 666, 667, 668, 669, 670, 671, 672, 673, 674, 675, 676, 677, 678, 679, 680, 681, 682, 683, 684, 685, 686, 687, 688, 689, 690, 691, 692, 693, 694, 695, 696, 697, 698, 699, 700, 701, 702, 703, 704, 705, 706, 707, 708, 709, 710, 711, 712, 713, 714, 715, 716, 717, 718, 719, 720, 721, 722, 723, 724, 725, 726, 727, 728, 729, 730, 731, 732, 733, 734, 735, 736, 737, 738, 739, 740, 741, 742, 743, 744, 745, 746, 747, 748, 749, 750, 751, 752, 753, 754, 755, 756, 757, 758, 759, 760, 761, 762, 763, 764, 765, 766, 767, 768, 769, 770, 771, 772, 773, 774, 775, 776, 777, 778, 779, 780, 781, 782, 783, 784, 785, 786, 787, 788, 789, 790, 791, 792, 793, 794, 795, 796, 797, 798, 799, 800, 801, 802, 803, 804, 805, 806, 807, 808, 809, 810, 811, 812, 813, 814, 815, 816, 817, 818, 819, 820, 821, 822, 823, 824, 825, 826, 827, 828, 829, 830, 831, 832, 833, 834, 835, 836, 837, 838, 839, 840, 841, 842, 843, 844, 845, 846, 847, 848, 849, 850, 851, 852, 853, 854, 855, 856, 857, 858, 859, 860, 861, 862, 863, 864, 865, 866, 867, 868, 869, 870, 871, 872],
      "AcquisitionTime": ["125539.350000", "125539.810000", "125540.270000", "125540.730000", "125541.190000", "125541.650000", "125542.110000", "125542.570000", "125543.030000", "125543.490000", "125543.950000", "125544.410000", "125544.870000", "125545.330000", "125545.790000", "125546.250000", "125546.710000", "125547.170000", "125547.630000", "125548.090000", "125548.550000", "125549.010000", "125549.470000", "125549.930000", "125550.390000", "125550.850000", "125551.310000", "125551.770000", "125552.230000", "125552.690000", "125553.150000", "125553.610000", "125554.070000", "125554.530000", "125554.990000", "125555.450000", "125555.910000", "125556.370000", "125556.830000", "125557.290000", "125557.750000", "125558.210000", "125558.670000", "125559.130000", "125559.590000", "125600.050000", "125600.510000", "125600.970000", "125601.430000", "125601.890000", "125602.350000", "125602.810000", "125603.270000", "125603.730000", "125604.190000", "125604.650000", "125605.110000", "125605.570000", "125606.030000", "125606.490000", "125606.950000", "125607.410000", "125607.870000", "125608.330000", "125608.790000", "125609.250000", "125609.710000", "125610.170000", "125610.630000", "125611.090000", "125611.550000", "125612.010000", "125612.470000", "125612.930000", "125613.390000", "125613.850000", "125614.310000", "125614.770000", "125615.230000", "125615.690000", "125616.150000", "125616.610000", "125617.070000", "125617.530000", "125617.990000", "125618.450000", "125618.910000", "125619.370000", "125619.830000", "125620.290000", "125620.750000", "125621.210000", "125621.670000", "125622.130000", "125622.590000", "125623.050000", "125623.510000", "125623.970000", "125624.430000", "125624.890000", "125625.350000", "125625.810000", "125626.270000", "125626.730000", "125627.190000", "125627.650000", "125628.110000", "125628.570000", "125629.030000", "125629.490000", "125629.950000", "125630.410000", "125630.870000", "125631.330000", "125631.790000", "125632.250000", "125632.710000", "125633.170000", "125633.630000", "125634.090000", "125634.550000", "125635.010000", "125635.470000", "125635.930000", "125636.390000", "125636.850000", "125637.310000", "125637.770000", "125638.230000", "125638.690000", "125639.150000", "125639.610000", "125640.070000", "125640.530000", "125640.990000", "125641.450000", "125641.910000", "125642.370000", "125642.830000", "125643.290000", "125643.750000", "125644.210000", "125644.670000", "125645.130000", "125645.590000", "125646.050000", "125646.510000", "125646.970000", "125647.430000", "125647.890000", "125648.350000", "125648.810000", "125649.270000", "125649.730000", "125650.190000", "125650.650000", "125651.110000", "125651.570000", "125652.030000", "125652.490000", "125652.950000", "125653.410000", "125653.870000", "125654.330000", "125654.790000", "125655.250000", "125655.710000", "125656.170000", "125656.630000", "125657.090000", "125657.550000", "125658.010000", "125658.470000", "125658.930000", "125659.390000", "125659.850000", "125700.310000", "125700.770000", "125701.230000", "125701.690000", "125702.150000", "125702.610000", "125703.070000", "125703.530000", "125703.990000", "125704.450000", "125704.910000", "125705.370000", "125705.830000", "125706.290000", "125706.750000", "125707.210000", "125707.670000", "125708.130000", "125708.590000", "125709.050000", "125709.510000", "125709.970000", "125710.430000", "125710.890000", "125711.350000", "125711.810000", "125712.270000", "125712.730000", "125713.190000", "125713.650000", "125714.110000", "125714.570000", "125715.030000", "125715.490000", "125715.950000", "125716.410000", "125716.870000", "125717.330000", "125717.790000", "125718.250000", "125718.710000", "125719.170000", "125719.630000", "125720.090000", "125720.550000", "125721.010000", "125721.470000", "125721.930000", "125722.390000", "125722.850000", "125723.310000", "125723.770000", "125724.230000", "125724.690000", "125725.150000", "125725.610000", "125726.070000", "125726.530000", "125726.990000", "125727.450000", "125727.910000", "125728.370000", "125728.830000", "125729.290000", "125729.750000", "125730.210000", "125730.670000", "125731.130000", "125731.590000", "125732.050000", "125732.510000", "125732.970000", "125733.430000", "125733.890000", "125734.350000", "125734.810000", "125735.270000", "125735.730000", "125736.190000", "125736.650000", "125737.110000", "125737.570000", "125738.030000", "125738.490000", "125738.950000", "125739.410000", "125739.870000", "125740.330000", "125740.790000", "125741.250000", "125741.710000", "125742.170000", "125742.630000", "125743.090000", "125743.550000", "125744.010000", "125744.470000", "125744.930000", "125745.390000", "125745.850000", "125746.310000", "125746.770000", "125747.230000", "125747.690000", "125748.150000", "125748.610000", "125749.070000", "125749.530000", "125749.990000", "125750.450000", "125750.910000", "125751.370000", "125751.830000", "125752.290000", "125752.750000", "125753.210000", "125753.670000", "125754.130000", "125754.590000", "125755.050000", "125755.510000", "125755.970000", "125756.430000", "125756.890000", "125757.350000", "125757.810000", "125758.270000", "125758.730000", "125759.190000", "125759.650000", "125800.110000", "125800.570000", "125801.030000", "125801.490000", "125801.950000", "125802.410000", "125802.870000", "125803.330000", "125803.790000", "125804.250000", "125804.710000", "125805.170000", "125805.630000", "125806.090000", "125806.550000", "125807.010000", "125807.470000", "125807.930000", "125808.390000", "125808.850000", "125809.310000", "125809.770000", "125810.230000", "125810.690000", "125811.150000", "125811.610000", "125812.070000", "125812.530000", "125812.990000", "125813.450000", "125813.910000", "125814.370000", "125814.830000", "125815.290000", "125815.750000", "125816.210000", "125816.670000", "125817.130000", "125817.590000", "125818.050000", "125818.510000", "125818.970000", "125819.430000", "125819.890000", "125820.350000", "125820.810000", "125821.270000", "125821.730000", "125822.190000", "125822.650000", "125823.110000", "125823.570000", "125824.030000", "125824.490000", "125824.950000", "125825.410000", "125825.870000", "125826.330000", "125826.790000", "125827.250000", "125827.710000", "125828.170000", "125828.630000", "125829.090000", "125829.550000", "125830.010000", "125830.470000", "125830.930000", "125831.390000", "125831.850000", "125832.310000", "125832.770000", "125833.230000", "125833.690000", "125834.150000", "125834.610000", "125835.070000", "125835.530000", "125835.990000", "125836.450000", "125836.910000", "125837.370000", "125837.830000", "125838.290000", "125838.750000", "125839.210000", "125839.670000", "125840.130000", "125840.590000", "125841.050000", "125841.510000", "125841.970000", "125842.430000", "125842.890000", "125843.350000", "125843.810000", "125844.270000", "125844.730000", "125845.190000", "125845.650000", "125846.110000", "125846.570000", "125847.030000", "125847.490000", "125847.950000", "125848.410000", "125848.870000", "125849.330000", "125849.790000", "125850.250000", "125850.710000", "125851.170000", "125851.630000", "125852.090000", "125852.550000", "125853.010000", "125853.470000", "125853.930000", "125854.390000", "125854.850000", "125855.310000", "125855.770000", "125856.230000", "125856.690000", "125857.150000", "125857.610000", "125858.070000", "125858.530000", "125858.990000", "125859.450000", "125859.910000", "125900.370000", "125900.830000", "125901.290000", "125901.750000", "125902.210000", "125902.670000", "125903.130000", "125903.590000", "125904.050000", "125904.510000", "125904.970000", "125905.430000", "125905.890000", "125906.350000", "125906.810000", "125907.270000", "125907.730000", "125908.190000", "125908.650000", "125909.110000", "125909.570000", "125910.030000", "125910.490000", "125910.950000", "125911.410000", "125911.870000", "125912.330000", "125912.790000", "125913.250000", "125913.710000", "125914.170000", "125914.630000", "125915.090000", "125915.550000", "125916.010000", "125916.470000", "125916.930000", "125917.390000", "125917.850000", "125918.310000", "125918.770000", "125919.230000", "125919.690000", "125920.150000", "125920.610000", "125921.070000", "125921.530000", "125921.990000", "125922.450000", "125922.910000", "125923.370000", "125923.830000", "125924.290000", "125924.750000", "125925.210000", "125925.670000", "125926.130000", "125926.590000", "125927.050000", "125927.510000", "125927.970000", "125928.430000", "125928.890000", "125929.350000", "125929.810000", "125930.270000", "125930.730000", "125931.190000", "125931.650000", "125932.110000", "125932.570000", "125933.030000", "125933.490000", "125933.950000", "125934.410000", "125934.870000", "125935.330000", "125935.790000", "125936.250000", "125936.710000", "125937.170000", "125937.630000", "125938.090000", "125938.550000", "125939.010000", "125939.470000", "125939.930000", "125940.390000", "125940.850000", "125941.310000", "125941.770000", "125942.230000", "125942.690000", "125943.150000", "125943.610000", "125944.070000", "125944.530000", "125944.990000", "125945.450000", "125945.910000", "125946.370000", "125946.830000", "125947.290000", "125947.750000", "125948.210000", "125948.670000", "125949.130000", "125949.590000", "125950.050000", "125950.510000", "125950.970000", "125951.430000", "125951.890000", "125952.350000", "125952.810000", "125953.270000", "125953.730000", "125954.190000", "125954.650000", "125955.110000", "125955.570000", "125956.030000", "125956.490000", "125956.950000", "125957.410000", "125957.870000", "125958.330000", "125958.790000", "125959.250000", "125959.710000", "130000.170000", "130000.630000", "130001.090000", "130001.550000", "130002.010000", "130002.470000", "130002.930000", "130003.390000", "130003.850000", "130004.310000", "130004.770000", "130005.230000", "130005.690000", "130006.150000", "130006.610000", "130007.070000", "130007.530000", "130007.990000", "130008.450000", "130008.910000", "130009.370000", "130009.830000", "130010.290000", "130010.750000", "130011.210000", "130011.670000", "130012.130000", "130012.590000", "130013.050000", "130013.510000", "130013.970000", "130014.430000", "130014.890000", "130015.350000", "130015.810000", "130016.270000", "130016.730000", "130017.190000", "130017.650000", "130018.110000", "130018.570000", "130019.030000", "130019.490000", "130019.950000", "130020.410000", "130020.870000", "130021.330000", "130021.790000", "130022.250000", "130022.710000", "130023.170000", "130023.630000", "130024.090000", "130024.550000", "130025.010000", "130025.470000", "130025.930000", "130026.390000", "130026.850000", "130027.310000", "130027.770000", "130028.230000", "130028.690000", "130029.150000", "130029.610000", "130030.070000", "130030.530000", "130030.990000", "130031.450000", "130031.910000", "130032.370000", "130032.830000", "130033.290000", "130033.750000", "130034.210000", "130034.670000", "130035.130000", "130035.590000", "130036.050000", "130036.510000", "130036.970000", "130037.430000", "130037.890000", "130038.350000", "130038.810000", "130039.270000", "130039.730000", "130040.190000", "130040.650000", "130041.110000", "130041.570000", "130042.030000", "130042.490000", "130042.950000", "130043.410000", "130043.870000", "130044.330000", "130044.790000", "130045.250000", "130045.710000", "130046.170000", "130046.630000", "130047.090000", "130047.550000", "130048.010000", "130048.470000", "130048.930000", "130049.390000", "130049.850000", "130050.310000", "130050.770000", "130051.230000", "130051.690000", "130052.150000", "130052.610000", "130053.070000", "130053.530000", "130053.990000", "130054.450000", "130054.910000", "130055.370000", "130055.830000", "130056.290000", "130056.750000", "130057.210000", "130057.670000", "130058.130000", "130058.590000", "130059.050000", "130059.510000", "130059.970000", "130100.430000", "130100.890000", "130101.350000", "130101.810000", "130102.270000", "130102.730000", "130103.190000", "130103.650000", "130104.110000", "130104.570000", "130105.030000", "130105.490000", "130105.950000", "130106.410000", "130106.870000", "130107.330000", "130107.790000", "130108.250000", "130108.710000", "130109.170000", "130109.630000", "130110.090000", "130110.550000", "130111.010000", "130111.470000", "130111.930000", "130112.390000", "130112.850000", "130113.310000", "130113.770000", "130114.230000", "130114.690000", "130115.150000", "130115.610000", "130116.070000", "130116.530000", "130116.990000", "130117.450000", "130117.910000", "130118.370000", "130118.830000", "130119.290000", "130119.750000", "130120.210000", "130120.670000", "130121.130000", "130121.590000", "130122.050000", "130122.510000", "130122.970000", "130123.430000", "130123.890000", "130124.350000", "130124.810000", "130125.270000", "130125.730000", "130126.190000", "130126.650000", "130127.110000", "130127.570000", "130128.030000", "130128.490000", "130128.950000", "130129.410000", "130129.870000", "130130.330000", "130130.790000", "130131.250000", "130131.710000", "130132.170000", "130132.630000", "130133.090000", "130133.550000", "130134.010000", "130134.470000", "130134.930000", "130135.390000", "130135.850000", "130136.310000", "130136.770000", "130137.230000", "130137.690000", "130138.150000", "130138.610000", "130139.070000", "130139.530000", "130139.990000", "130140.450000", "130140.910000", "130141.370000", "130141.830000", "130142.290000", "130142.750000", "130143.210000", "130143.670000", "130144.130000", "130144.590000", "130145.050000", "130145.510000", "130145.970000", "130146.430000", "130146.890000", "130147.350000", "130147.810000", "130148.270000", "130148.730000", "130149.190000", "130149.650000", "130150.110000", "130150.570000", "130151.030000", "130151.490000", "130151.950000", "130152.410000", "130152.870000", "130153.330000", "130153.790000", "130154.250000", "130154.710000", "130155.170000", "130155.630000", "130156.090000", "130156.550000", "130157.010000", "130157.470000", "130157.930000", "130158.390000", "130158.850000", "130159.310000", "130159.770000", "130200.230000", "130200.690000", "130201.150000", "130201.610000", "130202.070000", "130202.530000", "130202.990000", "130203.450000", "130203.910000", "130204.370000", "130204.830000", "130205.290000", "130205.750000", "130206.210000", "130206.670000", "130207.130000", "130207.590000", "130208.050000", "130208.510000", "130208.970000", "130209.430000", "130209.890000", "130210.350000", "130210.810000", "130211.270000", "130211.730000", "130212.190000", "130212.650000", "130213.110000", "130213.570000", "130214.030000", "130214.490000", "130214.950000", "130215.410000", "130215.870000", "130216.330000", "130216.790000", "130217.250000", "130217.710000", "130218.170000", "130218.630000", "130219.090000", "130219.550000", "130220.010000"],
