{
  "AcquisitionMatrixPE": 82,
  "AcquisitionNumber": 1,
  "AcquisitionTime": "12:48:21.637500",
  "BandwidthPerPixelPhaseEncode": 24.888,
  "BaseResolution": 82,
  "BodyPartExamined": "BRAIN",
  "ConsistencyInfo": "N4_VE11E_LATEST_20181129",
  "ConversionSoftware": "dcm2niix",
  "ConversionSoftwareVersion": "v1.0.20201102",
  "DerivedVendorReportedEchoSpacing": 0.00049,
  "DeviceSerialNumber": "66112",
  "DwellTime": 2e-06,
  "EchoTime": 0.0272,
  "EchoTrainLength": 82,
  "EffectiveEchoSpacing": 0.00049,
  "FlipAngle": 44,
  "ImageComments": "Unaliased MB8/PE3",
  "ImageOrientationPatientDICOM": [0.997447, -0.0639716, 0.0317373, 0.0597834, 0.99111, 0.118855],
  "ImageType": [
    "ORIGINAL",
    "PRIMARY",
    "M",
    "MB",
    "ND",
    "NORM",
    "MOSAIC"
],
  "ImagingFrequency": 123.252,
  "InPlanePhaseEncodingDirectionDICOM": "COL",
  "InstitutionAddress": "Maynard 3,Hanover,NH,US,03755",
  "InstitutionName": "Dartmouth College - PBS",
  "InstitutionalDepartmentName": "Department",
  "MRAcquisitionType": "2D",
  "MagneticFieldStrength": 3,
  "Manufacturer": "Siemens",
  "ManufacturersModelName": "Prisma",
  "Modality": "MR",
  "MultibandAccelerationFactor": 8,
  "PartialFourier": 1,
  "PatientPosition": "HFS",
  "PercentPhaseFOV": 100,
  "PercentSampling": 100,
  "PhaseEncodingDirection": "j-",
  "PhaseEncodingSteps": 82,
  "PhaseResolution": 1,
  "PixelBandwidth": 3050,
  "ProcedureStepDescription": "Wager_Wager^1076_spacetop",
  "ProtocolName": "func_run-03_task-social_acq-ap-mb8",
  "PulseSequenceDetails": "%CustomerSeq%\\cmrr_mbep2d_bold",
  "ReceiveCoilActiveElements": "HEA;HEP",
  "ReceiveCoilName": "Head_32",
  "ReconMatrixPE": 82,
  "RepetitionTime": 0.46,
  "SAR": 0.0785377,
  "ScanOptions": "FS",
  "ScanningSequence": "EP",
  "SequenceName": "epfid2d1_82",
  "SequenceVariant": "SK\\SS",
  "SeriesDescription": "func_run-03_task-social_acq-ap-mb8",
  "SeriesNumber": 16,
  "ShimSetting": [4149, -7769, -7271, 598, -85, -165, -15, 59],
  "SliceThickness": 2.7,
  "SliceTiming": [0, 0.25, 0.0625, 0.315, 0.125, 0.3775, 0.1875, 0, 0.25, 0.0625, 0.315, 0.125, 0.3775, 0.1875, 0, 0.25, 0.0625, 0.315, 0.125, 0.3775, 0.1875, 0, 0.25, 0.0625, 0.315, 0.125, 0.3775, 0.1875, 0, 0.25, 0.0625, 0.315, 0.125, 0.3775, 0.1875, 0, 0.25, 0.0625, 0.315, 0.125, 0.3775, 0.1875, 0, 0.25, 0.0625, 0.315, 0.125, 0.3775, 0.1875, 0, 0.25, 0.0625, 0.315, 0.125, 0.3775, 0.1875],
  "SoftwareVersions": "syngo MR E11",
  "SpacingBetweenSlices": 2.7,
  "StationName": "AWP66112",
  "TaskName": "social",
  "TotalReadoutTime": 0.03969,
  "TxRefAmp": 231.122,
  "WipMemBlock": "d7dd4cea-6c11-4773-af24-1f67888ce347||Sequence: R016 ve11e/master r/434b28f1; Aug  7 2019 18:53:46 by eja",
  "dcmmeta_affine": [
    [-2.676077127456665, 0.1603945940732956, 0.10545793175697327, 99.88825988769531],
    [0.17163123190402985, 2.65907621383667, 0.3149668574333191, -110.63965606689453],
    [0.08514877408742905, -0.3188798129558563, 2.6794915199279785, -56.033790588378906],
    [0.0, 0.0, 0.0, 1.0]
],
  "dcmmeta_reorient_transform": [
    [0.0, -1.0, 0.0, 81.0],
    [1.0, 0.0, 0.0, 0.0],
    [0.0, 0.0, 1.0, 0.0],
    [0.0, 0.0, 0.0, 1.0]
],
  "dcmmeta_shape": [82, 82, 56, 872],
  "dcmmeta_slice_dim": 2,
  "dcmmeta_version": 0.6,
  "global": {
    "const": {
      "AccessionNumber": "A003907",
      "AcquisitionMatrix": [82, 0, 0, 82],
      "AngioFlag": "N",
      "BitsAllocated": 16,
      "BitsStored": 16,
      "BodyPartExamined": "BRAIN",
      "Columns": 656,
      "EchoNumbers": 1,
      "EchoTime": 27.2,
      "EchoTrainLength": 82,
      "FlipAngle": 44.0,
      "HighBit": 15,
      "ImageOrientationPatient": [0.99744692828543, -0.0639716414398, 0.03173727060499, 0.05978343660136, 0.99111017659454, 0.1188551999656],
      "ImagePositionPatient": [-926.9476214882, -818.64220312959, -197.81925934175],
      "ImageType": [
        "ORIGINAL",
        "PRIMARY",
        "M",
        "MB",
        "ND",
        "NORM",
        "MOSAIC"
],
      "ImagedNucleus": "1H",
      "ImagingFrequency": 123.252188,
      "InPlanePhaseEncodingDirection": "COL",
      "MRAcquisitionType": "2D",
      "MagneticFieldStrength": 3.0,
      "Manufacturer": "SIEMENS",
      "ManufacturerModelName": "Prisma",
      "Modality": "MR",
      "NumberOfAverages": 1.0,
      "NumberOfPhaseEncodingSteps": 82,
      "PercentPhaseFieldOfView": 100.0,
      "PercentSampling": 100.0,
      "PerformedProcedureStepStartTime": "112222.388000",
      "PhotometricInterpretation": "MONOCHROME2",
      "PixelBandwidth": 3050.0,
      "PixelRepresentation": 0,
      "PixelSpacing": [2.6829268932343, 2.6829268932343],
      "ProtocolName": "func_run-03_task-social_acq-ap-mb8",
      "RepetitionTime": 460.0,
      "Rows": 656,
      "SAR": 0.07853773259866,
      "SamplesPerPixel": 1,
      "ScanOptions": "FS",
      "ScanningSequence": "EP",
      "SequenceName": "epfid2d1_82",
      "SequenceVariant": [
        "SK",
        "SS"
],
      "SeriesDescription": "func_run-03_task-social_acq-ap-mb8",
      "SeriesNumber": 16,
      "SeriesTime": "124834.715000",
      "SliceLocation": -64.613286997272,
      "SliceThickness": 2.7000000476837,
      "SmallestImagePixelValue": 0,
      "SoftwareVersions": "syngo MR E11",
      "SpacingBetweenSlices": 2.7000000306003,
      "SpecificCharacterSet": "ISO_IR 100",
      "StudyID": "1",
      "StudyTime": "112222.231000",
      "TransmitCoilName": "Body",
      "VariableFlipAngleFlag": "N",
      "WindowCenterWidthExplanation": "Algo1"
    },
    "slices": {}
  },
  "time": {
    "samples": {
      "AcquisitionNumber": [1, 2, 3, 4, 5, 6, 7, 8, 9, 10, 11, 12, 13, 14, 15, 16, 17, 18, 19, 20, 21, 22, 23, 24, 25, 26, 27, 28, 29, 30, 31, 32, 33, 34, 35, 36, 37, 38, 39, 40, 41, 42, 43, 44, 45, 46, 47, 48, 49, 50, 51, 52, 53, 54, 55, 56, 57, 58, 59, 60, 61, 62, 63, 64, 65, 66, 67, 68, 69, 70, 71, 72, 73, 74, 75, 76, 77, 78, 79, 80, 81, 82, 83, 84, 85, 86, 87, 88, 89, 90, 91, 92, 93, 94, 95, 96, 97, 98, 99, 100, 101, 102, 103, 104, 105, 106, 107, 108, 109, 110, 111, 112, 113, 114, 115, 116, 117, 118, 119, 120, 121, 122, 123, 124, 125, 126, 127, 128, 129, 130, 131, 132, 133, 134, 135, 136, 137, 138, 139, 140, 141, 142, 143, 144, 145, 146, 147, 148, 149, 150, 151, 152, 153, 154, 155, 156, 157, 158, 159, 160, 161, 162, 163, 164, 165, 166, 167, 168, 169, 170, 171, 172, 173, 174, 175, 176, 177, 178, 179, 180, 181, 182, 183, 184, 185, 186, 187, 188, 189, 190, 191, 192, 193, 194, 195, 196, 197, 198, 199, 200, 201, 202, 203, 204, 205, 206, 207, 208, 209, 210, 211, 212, 213, 214, 215, 216, 217, 218, 219, 220, 221, 222, 223, 224, 225, 226, 227, 228, 229, 230, 231, 232, 233, 234, 235, 236, 237, 238, 239, 240, 241, 242, 243, 244, 245, 246, 247, 248, 249, 250, 251, 252, 253, 254, 255, 256, 257, 258, 259, 260, 261, 262, 263, 264, 265, 266, 267, 268, 269, 270, 271, 272, 273, 274, 275, 276, 277, 278, 279, 280, 281, 282, 283, 284, 285, 286, 287, 288, 289, 290, 291, 292, 293, 294, 295, 296, 297, 298, 299, 300, 301, 302, 303, 304, 305, 306, 307, 308, 309, 310, 311, 312, 313, 314, 315, 316, 317, 318, 319, 320, 321, 322, 323, 324, 325, 326, 327, 328, 329, 330, 331, 332, 333, 334, 335, 336, 337, 338, 339, 340, 341, 342, 343, 344, 345, 346, 347, 348, 349, 350, 351, 352, 353, 354, 355, 356, 357, 358, 359, 360, 361, 362, 363, 364, 365, 366, 367, 368, 369, 370, 371, 372, 373, 374, 375, 376, 377, 378, 379, 380, 381, 382, 383, 384, 385, 386, 387, 388, 389, 390, 391, 392, 393, 394, 395, 396, 397, 398, 399, 400, 401, 402, 403, 404, 405, 406, 407, 408, 409, 410, 411, 412, 413, 414, 415, 416, 417, 418, 419, 420, 421, 422, 423, 424, 425, 426, 427, 428, 429, 430, 431, 432, 433, 434, 435, 436, 437, 438, 439, 440, 441, 442, 443, 444, 445, 446, 447, 448, 449, 450, 451, 452, 453, 454, 455, 456, 457, 458, 459, 460, 461, 462, 463, 464, 465, 466, 467, 468, 469, 470, 471, 472, 473, 474, 475, 476, 477, 478, 479, 480, 481, 482, 483, 484, 485, 486, 487, 488, 489, 490, 491, 492, 493, 494, 495, 496, 497, 498, 499, 500, 501, 502, 503, 504, 505, 506, 507, 508, 509, 510, 511, 512, 513, 514, 515, 516, 517, 518, 519, 520, 521, 522, 523, 524, 525, 526, 527, 528, 529, 530, 531, 532, 533, 534, 535, 536, 537, 538, 539, 540, 541, 542, 543, 544, 545, 546, 547, 548, 549, 550, 551, 552, 553, 554, 555, 556, 557, 558, 559, 560, 561, 562, 563, 564, 565, 566, 567, 568, 569, 570, 571, 572, 573, 574, 575, 576, 577, 578, 579, 580, 581, 582, 583, 584, 585, 586, 587, 588, 589, 590, 591, 592, 593, 594, 595, 596, 597, 598, 599, 600, 601, 602, 603, 604, 605, 606, 607, 608, 609, 610, 611, 612, 613, 614, 615, 616, 617, 618, 619, 620, 621, 622, 623, 624, 625, 626, 627, 628, 629, 630, 631, 632, 633, 634, 635, 636, 637, 638, 639, 640, 641, 642, 643, 644, 645, 646, 647, 648, 649, 650, 651, 652, 653, 654, 655, 656, 657, 658, 659, 660, 661, 662, 663, 664, 665, 666, 667, 668, 669, 670, 671, 672, 673, 674, 675, 676, 677, 678, 679, 680, 681, 682, 683, 684, 685, 686, 687, 688, 689, 690, 691, 692, 693, 694, 695, 696, 697, 698, 699, 700, 701, 702, 703, 704, 705, 706, 707, 708, 709, 710, 711, 712, 713, 714, 715, 716, 717, 718, 719, 720, 721, 722, 723, 724, 725, 726, 727, 728, 729, 730, 731, 732, 733, 734, 735, 736, 737, 738, 739, 740, 741, 742, 743, 744, 745, 746, 747, 748, 749, 750, 751, 752, 753, 754, 755, 756, 757, 758, 759, 760, 761, 762, 763, 764, 765, 766, 767, 768, 769, 770, 771, 772, 773, 774, 775, 776, 777, 778, 779, 780, 781, 782, 783, 784, 785, 786, 787, 788, 789, 790, 791, 792, 793, 794, 795, 796, 797, 798, 799, 800, 801, 802, 803, 804, 805, 806, 807, 808, 809, 810, 811, 812, 813, 814, 815, 816, 817, 818, 819, 820, 821, 822, 823, 824, 825, 826, 827, 828, 829, 830, 831, 832, 833, 834, 835, 836, 837, 838, 839, 840, 841, 842, 843, 844, 845, 846, 847, 848, 849, 850, 851, 852, 853, 854, 855, 856, 857, 858, 859, 860, 861, 862, 863, 864, 865, 866, 867, 868, 869, 870, 871, 872],
      "AcquisitionTime": ["124821.637500", "124822.097500", "124822.557500", "124823.017500", "124823.477500", "124823.937500", "124824.397500", "124824.857500", "124825.317500", "124825.777500", "124826.237500", "124826.697500", "124827.157500", "124827.617500", "124828.077500", "124828.537500", "124828.997500", "124829.457500", "124829.917500", "124830.377500", "124830.837500", "124831.297500", "124831.757500", "124832.217500", "124832.677500", "124833.137500", "124833.597500", "124834.057500", "124834.517500", "124834.977500", "124835.437500", "124835.897500", "124836.357500", "124836.817500", "124837.277500", "124837.737500", "124838.197500", "124838.657500", "124839.117500", "124839.577500", "124840.037500", "124840.497500", "124840.957500", "124841.417500", "124841.877500", "124842.337500", "124842.797500", "124843.257500", "124843.717500", "124844.177500", "124844.637500", "124845.097500", "124845.557500", "124846.017500", "124846.477500", "124846.937500", "124847.397500", "124847.857500", "124848.317500", "124848.777500", "124849.237500", "124849.697500", "124850.157500", "124850.617500", "124851.077500", "124851.537500", "124851.997500", "124852.457500", "124852.917500", "124853.377500", "124853.837500", "124854.297500", "124854.757500", "124855.217500", "124855.677500", "124856.137500", "124856.597500", "124857.057500", "124857.517500", "124857.977500", "124858.437500", "124858.897500", "124859.357500", "124859.817500", "124900.277500", "124900.737500", "124901.197500", "124901.657500", "124902.117500", "124902.577500", "124903.037500", "124903.497500", "124903.957500", "124904.417500", "124904.877500", "124905.337500", "124905.797500", "124906.257500", "124906.717500", "124907.177500", "124907.637500", "124908.097500", "124908.557500", "124909.017500", "124909.477500", "124909.937500", "124910.397500", "124910.857500", "124911.317500", "124911.777500", "124912.237500", "124912.697500", "124913.157500", "124913.617500", "124914.077500", "124914.537500", "124914.997500", "124915.457500", "124915.917500", "124916.377500", "124916.837500", "124917.297500", "124917.757500", "124918.217500", "124918.677500", "124919.137500", "124919.597500", "124920.057500", "124920.517500", "124920.977500", "124921.437500", "124921.897500", "124922.357500", "124922.817500", "124923.277500", "124923.737500", "124924.197500", "124924.657500", "124925.117500", "124925.577500", "124926.037500", "124926.497500", "124926.957500", "124927.417500", "124927.877500", "124928.337500", "124928.797500", "124929.257500", "124929.717500", "124930.177500", "124930.637500", "124931.097500", "124931.557500", "124932.017500", "124932.477500", "124932.937500", "124933.397500", "124933.857500", "124934.317500", "124934.777500", "124935.237500", "124935.697500", "124936.157500", "124936.617500", "124937.077500", "124937.537500", "124937.997500", "124938.457500", "124938.917500", "124939.377500", "124939.837500", "124940.297500", "124940.757500", "124941.217500", "124941.677500", "124942.137500", "124942.597500", "124943.057500", "124943.517500", "124943.977500", "124944.437500", "124944.897500", "124945.357500", "124945.817500", "124946.277500", "124946.737500", "124947.197500", "124947.657500", "124948.117500", "124948.577500", "124949.037500", "124949.497500", "124949.957500", "124950.417500", "124950.877500", "124951.337500", "124951.797500", "124952.257500", "124952.717500", "124953.177500", "124953.637500", "124954.097500", "124954.557500", "124955.017500", "124955.477500", "124955.937500", "124956.397500", "124956.857500", "124957.317500", "124957.777500", "124958.237500", "124958.697500", "124959.157500", "124959.617500", "125000.077500", "125000.537500", "125000.997500", "125001.457500", "125001.917500", "125002.377500", "125002.837500", "125003.297500", "125003.757500", "125004.217500", "125004.677500", "125005.137500", "125005.597500", "125006.057500", "125006.517500", "125006.977500", "125007.437500", "125007.897500", "125008.357500", "125008.817500", "125009.277500", "125009.737500", "125010.197500", "125010.657500", "125011.117500", "125011.577500", "125012.037500", "125012.497500", "125012.957500", "125013.417500", "125013.877500", "125014.337500", "125014.797500", "125015.257500", "125015.717500", "125016.177500", "125016.637500", "125017.097500", "125017.557500", "125018.017500", "125018.477500", "125018.937500", "125019.397500", "125019.857500", "125020.317500", "125020.777500", "125021.237500", "125021.697500", "125022.157500", "125022.617500", "125023.077500", "125023.537500", "125023.997500", "125024.457500", "125024.917500", "125025.377500", "125025.837500", "125026.297500", "125026.757500", "125027.217500", "125027.677500", "125028.137500", "125028.597500", "125029.057500", "125029.517500", "125029.977500", "125030.437500", "125030.897500", "125031.357500", "125031.817500", "125032.277500", "125032.737500", "125033.197500", "125033.657500", "125034.117500", "125034.577500", "125035.037500", "125035.497500", "125035.957500", "125036.417500", "125036.877500", "125037.337500", "125037.797500", "125038.257500", "125038.717500", "125039.177500", "125039.637500", "125040.097500", "125040.557500", "125041.017500", "125041.477500", "125041.937500", "125042.397500", "125042.857500", "125043.317500", "125043.777500", "125044.237500", "125044.697500", "125045.157500", "125045.617500", "125046.077500", "125046.537500", "125046.997500", "125047.457500", "125047.917500", "125048.377500", "125048.837500", "125049.297500", "125049.757500", "125050.217500", "125050.677500", "125051.137500", "125051.597500", "125052.057500", "125052.517500", "125052.977500", "125053.437500", "125053.897500", "125054.357500", "125054.817500", "125055.277500", "125055.737500", "125056.197500", "125056.657500", "125057.117500", "125057.577500", "125058.037500", "125058.497500", "125058.957500", "125059.417500", "125059.877500", "125100.337500", "125100.797500", "125101.257500", "125101.717500", "125102.177500", "125102.637500", "125103.097500", "125103.557500", "125104.017500", "125104.477500", "125104.937500", "125105.397500", "125105.857500", "125106.317500", "125106.777500", "125107.237500", "125107.697500", "125108.157500", "125108.617500", "125109.077500", "125109.537500", "125109.997500", "125110.457500", "125110.917500", "125111.377500", "125111.837500", "125112.297500", "125112.757500", "125113.217500", "125113.677500", "125114.137500", "125114.597500", "125115.057500", "125115.517500", "125115.977500", "125116.437500", "125116.897500", "125117.357500", "125117.817500", "125118.277500", "125118.737500", "125119.197500", "125119.657500", "125120.117500", "125120.577500", "125121.037500", "125121.497500", "125121.957500", "125122.417500", "125122.877500", "125123.337500", "125123.797500", "125124.257500", "125124.717500", "125125.177500", "125125.637500", "125126.097500", "125126.557500", "125127.017500", "125127.477500", "125127.937500", "125128.397500", "125128.857500", "125129.317500", "125129.777500", "125130.237500", "125130.697500", "125131.157500", "125131.617500", "125132.077500", "125132.537500", "125132.997500", "125133.457500", "125133.917500", "125134.377500", "125134.837500", "125135.297500", "125135.757500", "125136.217500", "125136.677500", "125137.137500", "125137.597500", "125138.057500", "125138.517500", "125138.977500", "125139.437500", "125139.897500", "125140.357500", "125140.817500", "125141.277500", "125141.737500", "125142.197500", "125142.657500", "125143.117500", "125143.577500", "125144.037500", "125144.497500", "125144.957500", "125145.417500", "125145.877500", "125146.337500", "125146.797500", "125147.257500", "125147.717500", "125148.177500", "125148.637500", "125149.097500", "125149.557500", "125150.017500", "125150.477500", "125150.937500", "125151.397500", "125151.857500", "125152.317500", "125152.777500", "125153.237500", "125153.697500", "125154.157500", "125154.617500", "125155.077500", "125155.537500", "125155.997500", "125156.457500", "125156.917500", "125157.377500", "125157.837500", "125158.297500", "125158.757500", "125159.217500", "125159.677500", "125200.137500", "125200.597500", "125201.057500", "125201.517500", "125201.977500", "125202.437500", "125202.897500", "125203.357500", "125203.817500", "125204.277500", "125204.737500", "125205.197500", "125205.657500", "125206.117500", "125206.577500", "125207.037500", "125207.497500", "125207.957500", "125208.417500", "125208.877500", "125209.337500", "125209.797500", "125210.257500", "125210.717500", "125211.177500", "125211.637500", "125212.097500", "125212.557500", "125213.017500", "125213.477500", "125213.937500", "125214.397500", "125214.857500", "125215.317500", "125215.777500", "125216.237500", "125216.697500", "125217.157500", "125217.617500", "125218.077500", "125218.537500", "125218.997500", "125219.457500", "125219.917500", "125220.377500", "125220.837500", "125221.297500", "125221.757500", "125222.217500", "125222.677500", "125223.137500", "125223.597500", "125224.057500", "125224.517500", "125224.977500", "125225.437500", "125225.897500", "125226.357500", "125226.817500", "125227.277500", "125227.737500", "125228.197500", "125228.657500", "125229.117500", "125229.577500", "125230.037500", "125230.497500", "125230.957500", "125231.417500", "125231.877500", "125232.337500", "125232.797500", "125233.257500", "125233.717500", "125234.177500", "125234.637500", "125235.097500", "125235.557500", "125236.017500", "125236.477500", "125236.937500", "125237.397500", "125237.857500", "125238.317500", "125238.777500", "125239.237500", "125239.697500", "125240.157500", "125240.617500", "125241.077500", "125241.537500", "125241.997500", "125242.457500", "125242.917500", "125243.377500", "125243.837500", "125244.297500", "125244.757500", "125245.217500", "125245.677500", "125246.137500", "125246.597500", "125247.057500", "125247.517500", "125247.977500", "125248.437500", "125248.897500", "125249.357500", "125249.817500", "125250.277500", "125250.737500", "125251.197500", "125251.657500", "125252.117500", "125252.577500", "125253.037500", "125253.497500", "125253.957500", "125254.417500", "125254.877500", "125255.337500", "125255.797500", "125256.257500", "125256.717500", "125257.177500", "125257.637500", "125258.097500", "125258.557500", "125259.017500", "125259.477500", "125259.937500", "125300.397500", "125300.857500", "125301.317500", "125301.777500", "125302.237500", "125302.697500", "125303.157500", "125303.617500", "125304.077500", "125304.537500", "125304.997500", "125305.457500", "125305.917500", "125306.377500", "125306.837500", "125307.297500", "125307.757500", "125308.217500", "125308.677500", "125309.137500", "125309.597500", "125310.057500", "125310.517500", "125310.977500", "125311.437500", "125311.897500", "125312.357500", "125312.817500", "125313.277500", "125313.737500", "125314.197500", "125314.657500", "125315.117500", "125315.577500", "125316.037500", "125316.497500", "125316.957500", "125317.417500", "125317.877500", "125318.337500", "125318.797500", "125319.257500", "125319.717500", "125320.177500", "125320.637500", "125321.097500", "125321.557500", "125322.017500", "125322.477500", "125322.937500", "125323.397500", "125323.857500", "125324.317500", "125324.777500", "125325.237500", "125325.697500", "125326.157500", "125326.617500", "125327.077500", "125327.537500", "125327.997500", "125328.457500", "125328.917500", "125329.377500", "125329.837500", "125330.297500", "125330.757500", "125331.217500", "125331.677500", "125332.137500", "125332.597500", "125333.057500", "125333.517500", "125333.977500", "125334.437500", "125334.897500", "125335.357500", "125335.817500", "125336.277500", "125336.737500", "125337.197500", "125337.657500", "125338.117500", "125338.577500", "125339.037500", "125339.497500", "125339.957500", "125340.417500", "125340.877500", "125341.337500", "125341.797500", "125342.257500", "125342.717500", "125343.177500", "125343.637500", "125344.097500", "125344.557500", "125345.017500", "125345.477500", "125345.937500", "125346.397500", "125346.857500", "125347.317500", "125347.777500", "125348.237500", "125348.697500", "125349.157500", "125349.617500", "125350.077500", "125350.537500", "125350.997500", "125351.457500", "125351.917500", "125352.377500", "125352.837500", "125353.297500", "125353.757500", "125354.217500", "125354.677500", "125355.137500", "125355.597500", "125356.057500", "125356.517500", "125356.977500", "125357.437500", "125357.897500", "125358.357500", "125358.817500", "125359.277500", "125359.737500", "125400.197500", "125400.657500", "125401.117500", "125401.577500", "125402.037500", "125402.497500", "125402.957500", "125403.417500", "125403.877500", "125404.337500", "125404.797500", "125405.257500", "125405.717500", "125406.177500", "125406.637500", "125407.097500", "125407.557500", "125408.017500", "125408.477500", "125408.937500", "125409.397500", "125409.857500", "125410.317500", "125410.777500", "125411.237500", "125411.697500", "125412.157500", "125412.617500", "125413.077500", "125413.537500", "125413.997500", "125414.457500", "125414.917500", "125415.377500", "125415.837500", "125416.297500", "125416.757500", "125417.217500", "125417.677500", "125418.137500", "125418.597500", "125419.057500", "125419.517500", "125419.977500", "125420.437500", "125420.897500", "125421.357500", "125421.817500", "125422.277500", "125422.737500", "125423.197500", "125423.657500", "125424.117500", "125424.577500", "125425.037500", "125425.497500", "125425.957500", "125426.417500", "125426.877500", "125427.337500", "125427.797500", "125428.257500", "125428.717500", "125429.177500", "125429.637500", "125430.097500", "125430.557500", "125431.017500", "125431.477500", "125431.937500", "125432.397500", "125432.857500", "125433.317500", "125433.777500", "125434.237500", "125434.697500", "125435.157500", "125435.617500", "125436.077500", "125436.537500", "125436.997500", "125437.457500", "125437.917500", "125438.377500", "125438.837500", "125439.297500", "125439.757500", "125440.217500", "125440.677500", "125441.137500", "125441.597500", "125442.057500", "125442.517500", "125442.977500", "125443.437500", "125443.897500", "125444.357500", "125444.817500", "125445.277500", "125445.737500", "125446.197500", "125446.657500", "125447.117500", "125447.577500", "125448.037500", "125448.497500", "125448.957500", "125449.417500", "125449.877500", "125450.337500", "125450.797500", "125451.257500", "125451.717500", "125452.177500", "125452.637500", "125453.097500", "125453.557500", "125454.017500", "125454.477500", "125454.937500", "125455.397500", "125455.857500", "125456.317500", "125456.777500", "125457.237500", "125457.697500", "125458.157500", "125458.617500", "125459.077500", "125459.537500", "125459.997500", "125500.457500", "125500.917500", "125501.377500", "125501.837500", "125502.297500"],
