{
  "AcquisitionMatrixPE": 82,
  "AcquisitionNumber": 1,
  "AcquisitionTime": "14:50:17.652500",
  "BandwidthPerPixelPhaseEncode": 24.888,
  "BaseResolution": 82,
  "BodyPartExamined": "BRAIN",
  "ConsistencyInfo": "N4_VE11E_LATEST_20181129",
  "ConversionSoftware": "dcm2niix",
  "ConversionSoftwareVersion": "v1.0.20201102",
  "DerivedVendorReportedEchoSpacing": 0.00049,
  "DeviceSerialNumber": "66112",
  "DwellTime": 2e-06,
  "EchoTime": 0.0272,
  "EchoTrainLength": 82,
  "EffectiveEchoSpacing": 0.00049,
  "FlipAngle": 44,
  "ImageComments": "Unaliased MB8/PE3",
  "ImageOrientationPatientDICOM": [0.99878, -0.0442532, -0.0219296, 0.0436076, 0.998625, -0.0290892],
  "ImageType": [
    "ORIGINAL",
    "PRIMARY",
    "M",
    "MB",
    "ND",
    "NORM",
    "MOSAIC"
],
  "ImagingFrequency": 123.259,
  "InPlanePhaseEncodingDirectionDICOM": "COL",
  "InstitutionAddress": "Maynard 3,Hanover,NH,US,03755",
  "InstitutionName": "Dartmouth College - PBS",
  "InstitutionalDepartmentName": "Department",
  "MRAcquisitionType": "2D",
  "MagneticFieldStrength": 3,
  "Manufacturer": "Siemens",
  "ManufacturersModelName": "Prisma",
  "Modality": "MR",
  "MultibandAccelerationFactor": 8,
  "PartialFourier": 1,
  "PatientPosition": "HFS",
  "PercentPhaseFOV": 100,
  "PercentSampling": 100,
  "PhaseEncodingDirection": "j-",
  "PhaseEncodingSteps": 82,
  "PhaseResolution": 1,
  "PixelBandwidth": 3050,
  "ProcedureStepDescription": "Wager_Wager^1076_spacetop",
  "ProtocolName": "func_run-01_task-faces_acq-ap-mb8",
  "PulseSequenceDetails": "%CustomerSeq%\\cmrr_mbep2d_bold",
  "ReceiveCoilActiveElements": "HEA;HEP",
  "ReceiveCoilName": "Head_32",
  "ReconMatrixPE": 82,
  "RepetitionTime": 0.46,
  "SAR": 0.100372,
  "ScanOptions": "FS",
  "ScanningSequence": "EP",
  "SequenceName": "epfid2d1_82",
  "SequenceVariant": "SK\\SS",
  "SeriesDescription": "func_run-01_task-faces_acq-ap-mb8",
  "SeriesNumber": 16,
  "ShimSetting": [4212, -7760, -7242, 339, -143, -174, -47, 88],
  "SliceThickness": 2.7,
  "SliceTiming": [0, 0.2525, 0.0625, 0.315, 0.1275, 0.3775, 0.19, 0, 0.2525, 0.0625, 0.315, 0.1275, 0.3775, 0.19, 0, 0.2525, 0.0625, 0.315, 0.1275, 0.3775, 0.19, 0, 0.2525, 0.0625, 0.315, 0.1275, 0.3775, 0.19, 0, 0.2525, 0.0625, 0.315, 0.1275, 0.3775, 0.19, 0, 0.2525, 0.0625, 0.315, 0.1275, 0.3775, 0.19, 0, 0.2525, 0.0625, 0.315, 0.1275, 0.3775, 0.19, 0, 0.2525, 0.0625, 0.315, 0.1275, 0.3775, 0.19],
  "SoftwareVersions": "syngo MR E11",
  "SpacingBetweenSlices": 2.7,
  "StationName": "AWP66112",
  "TaskName": "faces",
  "TotalReadoutTime": 0.03969,
  "TxRefAmp": 252.419,
  "WipMemBlock": "0e25dc5d-ae6e-4e2b-8243-f917c494cee2||Sequence: R016 ve11e/master r/434b28f1; Aug  7 2019 18:53:46 by eja",
  "dcmmeta_affine": [
    [-2.679652690887451, 0.11699603497982025, -0.06260424107313156, 106.34266662597656],
    [0.11872796714305878, 2.6792383193969727, -0.07586295902729034, -105.38307189941406],
    [-0.05883555859327316, 0.07804416865110397, 2.6982078552246094, -77.63072967529297],
    [0.0, 0.0, 0.0, 1.0]
],
  "dcmmeta_reorient_transform": [
    [0.0, -1.0, 0.0, 81.0],
    [1.0, 0.0, 0.0, 0.0],
    [0.0, 0.0, 1.0, 0.0],
    [0.0, 0.0, 0.0, 1.0]
],
  "dcmmeta_shape": [82, 82, 56, 914],
  "dcmmeta_slice_dim": 2,
  "dcmmeta_version": 0.6,
  "global": {
    "const": {
      "AccessionNumber": "A004399",
      "AcquisitionMatrix": [82, 0, 0, 82],
      "AngioFlag": "N",
      "BitsAllocated": 16,
      "BitsStored": 16,
      "BodyPartExamined": "BRAIN",
      "Columns": 656,
      "EchoNumbers": 1,
      "EchoTime": 27.2,
      "EchoTrainLength": 82,
      "FlipAngle": 44.0,
      "HighBit": 15,
      "ImageOrientationPatient": [0.99877963059979, -0.0442531512677, -0.0219296170013, 0.04360761254634, 0.99862515249101, -0.0290891894063],
      "ImagePositionPatient": [-918.45753960362, -846.50168560442, -32.02466816304],
      "ImageType": [
        "ORIGINAL",
        "PRIMARY",
        "M",
        "MB",
        "ND",
        "NORM",
        "MOSAIC"
],
      "ImagedNucleus": "1H",
      "ImagingFrequency": 123.259098,
      "InPlanePhaseEncodingDirection": "COL",
      "MRAcquisitionType": "2D",
      "MagneticFieldStrength": 3.0,
      "Manufacturer": "SIEMENS",
      "ManufacturerModelName": "Prisma",
      "Modality": "MR",
      "NumberOfAverages": 1.0,
      "NumberOfPhaseEncodingSteps": 82,
      "PercentPhaseFieldOfView": 100.0,
      "PercentSampling": 100.0,
      "PerformedProcedureStepStartTime": "140230.416000",
      "PhotometricInterpretation": "MONOCHROME2",
      "PixelBandwidth": 3050.0,
      "PixelRepresentation": 0,
      "PixelSpacing": [2.6829268932343, 2.6829268932343],
      "ProtocolName": "func_run-01_task-faces_acq-ap-mb8",
      "RepetitionTime": 460.0,
      "Rows": 656,
      "SAR": 0.10037202051427,
      "SamplesPerPixel": 1,
      "ScanOptions": "FS",
      "ScanningSequence": "EP",
      "SequenceName": "epfid2d1_82",
      "SequenceVariant": [
        "SK",
        "SS"
],
      "SeriesDescription": "func_run-01_task-faces_acq-ap-mb8",
      "SeriesNumber": 16,
      "SeriesTime": "145043.874000",
      "SliceLocation": -77.083951007916,
      "SliceThickness": 2.7000000476837,
      "SmallestImagePixelValue": 0,
      "SoftwareVersions": "syngo MR E11",
      "SpacingBetweenSlices": 2.6999999509274,
      "SpecificCharacterSet": "ISO_IR 100",
      "StudyID": "3",
      "StudyTime": "140230.380000",
      "TransmitCoilName": "Body",
      "VariableFlipAngleFlag": "N",
      "WindowCenterWidthExplanation": "Algo1"
    },
    "slices": {}
  },
  "time": {
    "samples": {
      "AcquisitionNumber": [1, 2, 3, 4, 5, 6, 7, 8, 9, 10, 11, 12, 13, 14, 15, 16, 17, 18, 19, 20, 21, 22, 23, 24, 25, 26, 27, 28, 29, 30, 31, 32, 33, 34, 35, 36, 37, 38, 39, 40, 41, 42, 43, 44, 45, 46, 47, 48, 49, 50, 51, 52, 53, 54, 55, 56, 57, 58, 59, 60, 61, 62, 63, 64, 65, 66, 67, 68, 69, 70, 71, 72, 73, 74, 75, 76, 77, 78, 79, 80, 81, 82, 83, 84, 85, 86, 87, 88, 89, 90, 91, 92, 93, 94, 95, 96, 97, 98, 99, 100, 101, 102, 103, 104, 105, 106, 107, 108, 109, 110, 111, 112, 113, 114, 115, 116, 117, 118, 119, 120, 121, 122, 123, 124, 125, 126, 127, 128, 129, 130, 131, 132, 133, 134, 135, 136, 137, 138, 139, 140, 141, 142, 143, 144, 145, 146, 147, 148, 149, 150, 151, 152, 153, 154, 155, 156, 157, 158, 159, 160, 161, 162, 163, 164, 165, 166, 167, 168, 169, 170, 171, 172, 173, 174, 175, 176, 177, 178, 179, 180, 181, 182, 183, 184, 185, 186, 187, 188, 189, 190, 191, 192, 193, 194, 195, 196, 197, 198, 199, 200, 201, 202, 203, 204, 205, 206, 207, 208, 209, 210, 211, 212, 213, 214, 215, 216, 217, 218, 219, 220, 221, 222, 223, 224, 225, 226, 227, 228, 229, 230, 231, 232, 233, 234, 235, 236, 237, 238, 239, 240, 241, 242, 243, 244, 245, 246, 247, 248, 249, 250, 251, 252, 253, 254, 255, 256, 257, 258, 259, 260, 261, 262, 263, 264, 265, 266, 267, 268, 269, 270, 271, 272, 273, 274, 275, 276, 277, 278, 279, 280, 281, 282, 283, 284, 285, 286, 287, 288, 289, 290, 291, 292, 293, 294, 295, 296, 297, 298, 299, 300, 301, 302, 303, 304, 305, 306, 307, 308, 309, 310, 311, 312, 313, 314, 315, 316, 317, 318, 319, 320, 321, 322, 323, 324, 325, 326, 327, 328, 329, 330, 331, 332, 333, 334, 335, 336, 337, 338, 339, 340, 341, 342, 343, 344, 345, 346, 347, 348, 349, 350, 351, 352, 353, 354, 355, 356, 357, 358, 359, 360, 361, 362, 363, 364, 365, 366, 367, 368, 369, 370, 371, 372, 373, 374, 375, 376, 377, 378, 379, 380, 381, 382, 383, 384, 385, 386, 387, 388, 389, 390, 391, 392, 393, 394, 395, 396, 397, 398, 399, 400, 401, 402, 403, 404, 405, 406, 407, 408, 409, 410, 411, 412, 413, 414, 415, 416, 417, 418, 419, 420, 421, 422, 423, 424, 425, 426, 427, 428, 429, 430, 431, 432, 433, 434, 435, 436, 437, 438, 439, 440, 441, 442, 443, 444, 445, 446, 447, 448, 449, 450, 451, 452, 453, 454, 455, 456, 457, 458, 459, 460, 461, 462, 463, 464, 465, 466, 467, 468, 469, 470, 471, 472, 473, 474, 475, 476, 477, 478, 479, 480, 481, 482, 483, 484, 485, 486, 487, 488, 489, 490, 491, 492, 493, 494, 495, 496, 497, 498, 499, 500, 501, 502, 503, 504, 505, 506, 507, 508, 509, 510, 511, 512, 513, 514, 515, 516, 517, 518, 519, 520, 521, 522, 523, 524, 525, 526, 527, 528, 529, 530, 531, 532, 533, 534, 535, 536, 537, 538, 539, 540, 541, 542, 543, 544, 545, 546, 547, 548, 549, 550, 551, 552, 553, 554, 555, 556, 557, 558, 559, 560, 561, 562, 563, 564, 565, 566, 567, 568, 569, 570, 571, 572, 573, 574, 575, 576, 577, 578, 579, 580, 581, 582, 583, 584, 585, 586, 587, 588, 589, 590, 591, 592, 593, 594, 595, 596, 597, 598, 599, 600, 601, 602, 603, 604, 605, 606, 607, 608, 609, 610, 611, 612, 613, 614, 615, 616, 617, 618, 619, 620, 621, 622, 623, 624, 625, 626, 627, 628, 629, 630, 631, 632, 633, 634, 635, 636, 637, 638, 639, 640, 641, 642, 643, 644, 645, 646, 647, 648, 649, 650, 651, 652, 653, 654, 655, 656, 657, 658, 659, 660, 661, 662, 663, 664, 665, 666, 667, 668, 669, 670, 671, 672, 673, 674, 675, 676, 677, 678, 679, 680, 681, 682, 683, 684, 685, 686, 687, 688, 689, 690, 691, 692, 693, 694, 695, 696, 697, 698, 699, 700, 701, 702, 703, 704, 705, 706, 707, 708, 709, 710, 711, 712, 713, 714, 715, 716, 717, 718, 719, 720, 721, 722, 723, 724, 725, 726, 727, 728, 729, 730, 731, 732, 733, 734, 735, 736, 737, 738, 739, 740, 741, 742, 743, 744, 745, 746, 747, 748, 749, 750, 751, 752, 753, 754, 755, 756, 757, 758, 759, 760, 761, 762, 763, 764, 765, 766, 767, 768, 769, 770, 771, 772, 773, 774, 775, 776, 777, 778, 779, 780, 781, 782, 783, 784, 785, 786, 787, 788, 789, 790, 791, 792, 793, 794, 795, 796, 797, 798, 799, 800, 801, 802, 803, 804, 805, 806, 807, 808, 809, 810, 811, 812, 813, 814, 815, 816, 817, 818, 819, 820, 821, 822, 823, 824, 825, 826, 827, 828, 829, 830, 831, 832, 833, 834, 835, 836, 837, 838, 839, 840, 841, 842, 843, 844, 845, 846, 847, 848, 849, 850, 851, 852, 853, 854, 855, 856, 857, 858, 859, 860, 861, 862, 863, 864, 865, 866, 867, 868, 869, 870, 871, 872, 873, 874, 875, 876, 877, 878, 879, 880, 881, 882, 883, 884, 885, 886, 887, 888, 889, 890, 891, 892, 893, 894, 895, 896, 897, 898, 899, 900, 901, 902, 903, 904, 905, 906, 907, 908, 909, 910, 911, 912, 913, 914],
      "AcquisitionTime": ["145017.652500", "145018.112500", "145018.572500", "145019.032500", "145019.492500", "145019.952500", "145020.412500", "145020.872500", "145021.332500", "145021.792500", "145022.252500", "145022.712500", "145023.172500", "145023.632500", "145024.092500", "145024.552500", "145025.012500", "145025.472500", "145025.932500", "145026.392500", "145026.852500", "145027.312500", "145027.772500", "145028.232500", "145028.692500", "145029.152500", "145029.612500", "145030.072500", "145030.532500", "145030.992500", "145031.452500", "145031.912500", "145032.372500", "145032.832500", "145033.292500", "145033.752500", "145034.212500", "145034.672500", "145035.132500", "145035.592500", "145036.052500", "145036.512500", "145036.972500", "145037.432500", "145037.892500", "145038.352500", "145038.812500", "145039.272500", "145039.732500", "145040.192500", "145040.652500", "145041.112500", "145041.572500", "145042.032500", "145042.492500", "145042.952500", "145043.412500", "145043.872500", "145044.332500", "145044.792500", "145045.252500", "145045.712500", "145046.172500", "145046.632500", "145047.092500", "145047.552500", "145048.012500", "145048.472500", "145048.932500", "145049.392500", "145049.852500", "145050.312500", "145050.772500", "145051.232500", "145051.692500", "145052.152500", "145052.612500", "145053.072500", "145053.532500", "145053.992500", "145054.452500", "145054.912500", "145055.372500", "145055.832500", "145056.292500", "145056.752500", "145057.212500", "145057.672500", "145058.132500", "145058.592500", "145059.052500", "145059.512500", "145059.972500", "145100.432500", "145100.892500", "145101.352500", "145101.812500", "145102.272500", "145102.732500", "145103.192500", "145103.652500", "145104.112500", "145104.572500", "145105.032500", "145105.492500", "145105.952500", "145106.412500", "145106.872500", "145107.332500", "145107.792500", "145108.252500", "145108.712500", "145109.172500", "145109.632500", "145110.092500", "145110.552500", "145111.012500", "145111.472500", "145111.932500", "145112.392500", "145112.852500", "145113.312500", "145113.772500", "145114.232500", "145114.692500", "145115.152500", "145115.612500", "145116.072500", "145116.532500", "145116.992500", "145117.452500", "145117.912500", "145118.372500", "145118.832500", "145119.292500", "145119.752500", "145120.212500", "145120.672500", "145121.132500", "145121.592500", "145122.052500", "145122.512500", "145122.972500", "145123.432500", "145123.892500", "145124.352500", "145124.812500", "145125.272500", "145125.732500", "145126.192500", "145126.652500", "145127.112500", "145127.572500", "145128.032500", "145128.492500", "145128.952500", "145129.412500", "145129.872500", "145130.332500", "145130.792500", "145131.252500", "145131.712500", "145132.172500", "145132.632500", "145133.092500", "145133.552500", "145134.012500", "145134.472500", "145134.932500", "145135.392500", "145135.852500", "145136.312500", "145136.772500", "145137.232500", "145137.692500", "145138.152500", "145138.612500", "145139.072500", "145139.532500", "145139.992500", "145140.452500", "145140.912500", "145141.372500", "145141.832500", "145142.292500", "145142.752500", "145143.212500", "145143.672500", "145144.132500", "145144.592500", "145145.052500", "145145.512500", "145145.972500", "145146.432500", "145146.892500", "145147.352500", "145147.812500", "145148.272500", "145148.732500", "145149.192500", "145149.652500", "145150.112500", "145150.572500", "145151.032500", "145151.492500", "145151.952500", "145152.412500", "145152.872500", "145153.332500", "145153.792500", "145154.252500", "145154.712500", "145155.172500", "145155.632500", "145156.092500", "145156.552500", "145157.012500", "145157.472500", "145157.932500", "145158.392500", "145158.852500", "145159.312500", "145159.772500", "145200.232500", "145200.692500", "145201.152500", "145201.612500", "145202.072500", "145202.532500", "145202.992500", "145203.452500", "145203.912500", "145204.372500", "145204.832500", "145205.292500", "145205.752500", "145206.212500", "145206.672500", "145207.132500", "145207.592500", "145208.052500", "145208.512500", "145208.972500", "145209.432500", "145209.892500", "145210.352500", "145210.812500", "145211.272500", "145211.732500", "145212.192500", "145212.652500", "145213.112500", "145213.572500", "145214.032500", "145214.492500", "145214.952500", "145215.412500", "145215.872500", "145216.332500", "145216.792500", "145217.252500", "145217.712500", "145218.172500", "145218.632500", "145219.092500", "145219.552500", "145220.012500", "145220.472500", "145220.932500", "145221.392500", "145221.852500", "145222.312500", "145222.772500", "145223.232500", "145223.692500", "145224.152500", "145224.612500", "145225.072500", "145225.532500", "145225.992500", "145226.452500", "145226.912500", "145227.372500", "145227.832500", "145228.292500", "145228.752500", "145229.212500", "145229.672500", "145230.132500", "145230.592500", "145231.052500", "145231.512500", "145231.972500", "145232.432500", "145232.892500", "145233.352500", "145233.812500", "145234.272500", "145234.732500", "145235.192500", "145235.652500", "145236.112500", "145236.572500", "145237.032500", "145237.492500", "145237.952500", "145238.412500", "145238.872500", "145239.332500", "145239.792500", "145240.252500", "145240.712500", "145241.172500", "145241.632500", "145242.092500", "145242.552500", "145243.012500", "145243.472500", "145243.932500", "145244.392500", "145244.852500", "145245.312500", "145245.772500", "145246.232500", "145246.692500", "145247.152500", "145247.612500", "145248.072500", "145248.532500", "145248.992500", "145249.452500", "145249.912500", "145250.372500", "145250.832500", "145251.292500", "145251.752500", "145252.212500", "145252.672500", "145253.132500", "145253.592500", "145254.052500", "145254.512500", "145254.972500", "145255.432500", "145255.892500", "145256.352500", "145256.812500", "145257.272500", "145257.732500", "145258.192500", "145258.652500", "145259.112500", "145259.572500", "145300.032500", "145300.492500", "145300.952500", "145301.412500", "145301.872500", "145302.332500", "145302.792500", "145303.252500", "145303.712500", "145304.172500", "145304.632500", "145305.092500", "145305.552500", "145306.012500", "145306.472500", "145306.932500", "145307.392500", "145307.852500", "145308.312500", "145308.772500", "145309.232500", "145309.692500", "145310.152500", "145310.612500", "145311.072500", "145311.532500", "145311.992500", "145312.452500", "145312.912500", "145313.372500", "145313.832500", "145314.292500", "145314.752500", "145315.212500", "145315.672500", "145316.132500", "145316.592500", "145317.052500", "145317.512500", "145317.972500", "145318.432500", "145318.892500", "145319.352500", "145319.812500", "145320.272500", "145320.732500", "145321.192500", "145321.652500", "145322.112500", "145322.572500", "145323.032500", "145323.492500", "145323.952500", "145324.412500", "145324.872500", "145325.332500", "145325.792500", "145326.252500", "145326.712500", "145327.172500", "145327.632500", "145328.092500", "145328.552500", "145329.012500", "145329.472500", "145329.932500", "145330.392500", "145330.852500", "145331.312500", "145331.772500", "145332.232500", "145332.692500", "145333.152500", "145333.612500", "145334.072500", "145334.532500", "145334.992500", "145335.452500", "145335.912500", "145336.372500", "145336.832500", "145337.292500", "145337.752500", "145338.212500", "145338.672500", "145339.132500", "145339.592500", "145340.052500", "145340.512500", "145340.972500", "145341.432500", "145341.892500", "145342.352500", "145342.812500", "145343.272500", "145343.732500", "145344.192500", "145344.652500", "145345.112500", "145345.572500", "145346.032500", "145346.492500", "145346.952500", "145347.412500", "145347.872500", "145348.332500", "145348.792500", "145349.252500", "145349.712500", "145350.172500", "145350.632500", "145351.092500", "145351.552500", "145352.012500", "145352.472500", "145352.932500", "145353.392500", "145353.852500", "145354.312500", "145354.772500", "145355.232500", "145355.692500", "145356.152500", "145356.612500", "145357.072500", "145357.532500", "145357.992500", "145358.452500", "145358.912500", "145359.372500", "145359.832500", "145400.292500", "145400.752500", "145401.212500", "145401.672500", "145402.132500", "145402.592500", "145403.052500", "145403.512500", "145403.972500", "145404.432500", "145404.892500", "145405.352500", "145405.812500", "145406.272500", "145406.732500", "145407.192500", "145407.652500", "145408.112500", "145408.572500", "145409.032500", "145409.492500", "145409.952500", "145410.412500", "145410.872500", "145411.332500", "145411.792500", "145412.252500", "145412.712500", "145413.172500", "145413.632500", "145414.092500", "145414.552500", "145415.012500", "145415.472500", "145415.932500", "145416.392500", "145416.852500", "145417.312500", "145417.772500", "145418.232500", "145418.692500", "145419.152500", "145419.612500", "145420.072500", "145420.532500", "145420.992500", "145421.452500", "145421.912500", "145422.372500", "145422.832500", "145423.292500", "145423.752500", "145424.212500", "145424.672500", "145425.132500", "145425.592500", "145426.052500", "145426.512500", "145426.972500", "145427.432500", "145427.892500", "145428.352500", "145428.812500", "145429.272500", "145429.732500", "145430.192500", "145430.652500", "145431.112500", "145431.572500", "145432.032500", "145432.492500", "145432.952500", "145433.412500", "145433.872500", "145434.332500", "145434.792500", "145435.252500", "145435.712500", "145436.172500", "145436.632500", "145437.092500", "145437.552500", "145438.012500", "145438.472500", "145438.932500", "145439.392500", "145439.852500", "145440.312500", "145440.772500", "145441.232500", "145441.692500", "145442.152500", "145442.612500", "145443.072500", "145443.532500", "145443.992500", "145444.452500", "145444.912500", "145445.372500", "145445.832500", "145446.292500", "145446.752500", "145447.212500", "145447.672500", "145448.132500", "145448.592500", "145449.052500", "145449.512500", "145449.972500", "145450.432500", "145450.892500", "145451.352500", "145451.812500", "145452.272500", "145452.732500", "145453.192500", "145453.652500", "145454.112500", "145454.572500", "145455.032500", "145455.492500", "145455.952500", "145456.412500", "145456.872500", "145457.332500", "145457.792500", "145458.252500", "145458.712500", "145459.172500", "145459.632500", "145500.092500", "145500.552500", "145501.012500", "145501.472500", "145501.932500", "145502.392500", "145502.852500", "145503.312500", "145503.772500", "145504.232500", "145504.692500", "145505.152500", "145505.612500", "145506.072500", "145506.532500", "145506.992500", "145507.452500", "145507.912500", "145508.372500", "145508.832500", "145509.292500", "145509.752500", "145510.212500", "145510.672500", "145511.132500", "145511.592500", "145512.052500", "145512.512500", "145512.972500", "145513.432500", "145513.892500", "145514.352500", "145514.812500", "145515.272500", "145515.732500", "145516.192500", "145516.652500", "145517.112500", "145517.572500", "145518.032500", "145518.492500", "145518.952500", "145519.412500", "145519.872500", "145520.332500", "145520.792500", "145521.252500", "145521.712500", "145522.172500", "145522.632500", "145523.092500", "145523.552500", "145524.012500", "145524.472500", "145524.932500", "145525.392500", "145525.852500", "145526.312500", "145526.772500", "145527.232500", "145527.692500", "145528.152500", "145528.612500", "145529.072500", "145529.532500", "145529.992500", "145530.452500", "145530.912500", "145531.372500", "145531.832500", "145532.292500", "145532.752500", "145533.212500", "145533.672500", "145534.132500", "145534.592500", "145535.052500", "145535.512500", "145535.972500", "145536.432500", "145536.892500", "145537.352500", "145537.812500", "145538.272500", "145538.732500", "145539.192500", "145539.652500", "145540.112500", "145540.572500", "145541.032500", "145541.492500", "145541.952500", "145542.412500", "145542.872500", "145543.332500", "145543.792500", "145544.252500", "145544.712500", "145545.172500", "145545.632500", "145546.092500", "145546.552500", "145547.012500", "145547.472500", "145547.932500", "145548.392500", "145548.852500", "145549.312500", "145549.772500", "145550.232500", "145550.692500", "145551.152500", "145551.612500", "145552.072500", "145552.532500", "145552.992500", "145553.452500", "145553.912500", "145554.372500", "145554.832500", "145555.292500", "145555.752500", "145556.212500", "145556.672500", "145557.132500", "145557.592500", "145558.052500", "145558.512500", "145558.972500", "145559.432500", "145559.892500", "145600.352500", "145600.812500", "145601.272500", "145601.732500", "145602.192500", "145602.652500", "145603.112500", "145603.572500", "145604.032500", "145604.492500", "145604.952500", "145605.412500", "145605.872500", "145606.332500", "145606.792500", "145607.252500", "145607.712500", "145608.172500", "145608.632500", "145609.092500", "145609.552500", "145610.012500", "145610.472500", "145610.932500", "145611.392500", "145611.852500", "145612.312500", "145612.772500", "145613.232500", "145613.692500", "145614.152500", "145614.612500", "145615.072500", "145615.532500", "145615.992500", "145616.452500", "145616.912500", "145617.372500", "145617.832500", "145618.292500", "145618.752500", "145619.212500", "145619.672500", "145620.132500", "145620.592500", "145621.052500", "145621.512500", "145621.972500", "145622.432500", "145622.892500", "145623.352500", "145623.812500", "145624.272500", "145624.732500", "145625.192500", "145625.652500", "145626.112500", "145626.572500", "145627.032500", "145627.492500", "145627.952500", "145628.412500", "145628.872500", "145629.332500", "145629.792500", "145630.252500", "145630.712500", "145631.172500", "145631.632500", "145632.092500", "145632.552500", "145633.012500", "145633.472500", "145633.932500", "145634.392500", "145634.852500", "145635.312500", "145635.772500", "145636.232500", "145636.692500", "145637.152500", "145637.612500", "145638.072500", "145638.532500", "145638.992500", "145639.452500", "145639.912500", "145640.372500", "145640.832500", "145641.292500", "145641.752500", "145642.212500", "145642.672500", "145643.132500", "145643.592500", "145644.052500", "145644.512500", "145644.972500", "145645.432500", "145645.892500", "145646.352500", "145646.812500", "145647.272500", "145647.732500", "145648.192500", "145648.652500", "145649.112500", "145649.572500", "145650.032500", "145650.492500", "145650.952500", "145651.412500", "145651.872500", "145652.332500", "145652.792500", "145653.252500", "145653.712500", "145654.172500", "145654.632500", "145655.092500", "145655.552500", "145656.012500", "145656.472500", "145656.932500", "145657.392500", "145657.852500", "145658.312500", "145658.772500", "145659.232500", "145659.692500", "145700.152500", "145700.612500", "145701.072500", "145701.532500", "145701.992500", "145702.452500", "145702.912500", "145703.372500", "145703.832500", "145704.292500", "145704.752500", "145705.212500", "145705.672500", "145706.132500", "145706.592500", "145707.052500", "145707.512500", "145707.972500", "145708.432500", "145708.892500", "145709.352500", "145709.812500", "145710.272500", "145710.732500", "145711.192500", "145711.652500", "145712.112500", "145712.572500", "145713.032500", "145713.492500", "145713.952500", "145714.412500", "145714.872500", "145715.332500", "145715.792500", "145716.252500", "145716.712500", "145717.172500", "145717.632500"],
