{
  "AcquisitionMatrixPE": 82,
  "AcquisitionNumber": 1,
  "AcquisitionTime": "14:20:56.140000",
  "BandwidthPerPixelPhaseEncode": 24.888,
  "BaseResolution": 82,
  "BodyPartExamined": "BRAIN",
  "ConsistencyInfo": "N4_VE11E_LATEST_20181129",
  "ConversionSoftware": "dcm2niix",
  "ConversionSoftwareVersion": "v1.0.20201102",
  "DerivedVendorReportedEchoSpacing": 0.00049,
  "DeviceSerialNumber": "66112",
  "DwellTime": 2e-06,
  "EchoTime": 0.0272,
  "EchoTrainLength": 82,
  "EffectiveEchoSpacing": 0.00049,
  "FlipAngle": 44,
  "ImageComments": "Unaliased MB8/PE3",
  "ImageOrientationPatientDICOM": [0.99878, -0.0442532, -0.0219296, 0.0436076, 0.998625, -0.0290892],
  "ImageType": [
    "ORIGINAL",
    "PRIMARY",
    "M",
    "MB",
    "ND",
    "NORM",
    "MOSAIC"
],
  "ImagingFrequency": 123.259,
  "InPlanePhaseEncodingDirectionDICOM": "COL",
  "InstitutionAddress": "Maynard 3,Hanover,NH,US,03755",
  "InstitutionName": "Dartmouth College - PBS",
  "InstitutionalDepartmentName": "Department",
  "MRAcquisitionType": "2D",
  "MagneticFieldStrength": 3,
  "Manufacturer": "Siemens",
  "ManufacturersModelName": "Prisma",
  "Modality": "MR",
  "MultibandAccelerationFactor": 8,
  "PartialFourier": 1,
  "PatientPosition": "HFS",
  "PercentPhaseFOV": 100,
  "PercentSampling": 100,
  "PhaseEncodingDirection": "j-",
  "PhaseEncodingSteps": 82,
  "PhaseResolution": 1,
  "PixelBandwidth": 3050,
  "ProcedureStepDescription": "Wager_Wager^1076_spacetop",
  "ProtocolName": "func_run-02_task-narratives_acq-ap-mb8",
  "PulseSequenceDetails": "%CustomerSeq%\\cmrr_mbep2d_bold",
  "ReceiveCoilActiveElements": "HEA;HEP",
  "ReceiveCoilName": "Head_32",
  "ReconMatrixPE": 82,
  "RepetitionTime": 0.46,
  "SAR": 0.100472,
  "ScanOptions": "FS",
  "ScanningSequence": "EP",
  "SequenceName": "epfid2d1_82",
  "SequenceVariant": "SK\\SS",
  "SeriesDescription": "func_run-02_task-narratives_acq-ap-mb8",
  "SeriesNumber": 10,
  "ShimSetting": [4212, -7760, -7242, 339, -143, -174, -47, 88],
  "SliceThickness": 2.7,
  "SliceTiming": [0, 0.25, 0.0625, 0.315, 0.125, 0.3775, 0.1875, 0, 0.25, 0.0625, 0.315, 0.125, 0.3775, 0.1875, 0, 0.25, 0.0625, 0.315, 0.125, 0.3775, 0.1875, 0, 0.25, 0.0625, 0.315, 0.125, 0.3775, 0.1875, 0, 0.25, 0.0625, 0.315, 0.125, 0.3775, 0.1875, 0, 0.25, 0.0625, 0.315, 0.125, 0.3775, 0.1875, 0, 0.25, 0.0625, 0.315, 0.125, 0.3775, 0.1875, 0, 0.25, 0.0625, 0.315, 0.125, 0.3775, 0.1875],
  "SoftwareVersions": "syngo MR E11",
  "SpacingBetweenSlices": 2.7,
  "StationName": "AWP66112",
  "TaskName": "narratives",
  "TotalReadoutTime": 0.03969,
  "TxRefAmp": 252.419,
  "WipMemBlock": "3a253530-a014-40f4-a7bf-8e5499e6eacf||Sequence: R016 ve11e/master r/434b28f1; Aug  7 2019 18:53:46 by eja",
  "dcmmeta_affine": [
    [-2.679652690887451, 0.11699603497982025, -0.06260424107313156, 106.34266662597656],
    [0.11872796714305878, 2.6792383193969727, -0.07586295902729034, -105.38307189941406],
    [-0.05883555859327316, 0.07804416865110397, 2.6982078552246094, -77.63072967529297],
    [0.0, 0.0, 0.0, 1.0]
],
  "dcmmeta_reorient_transform": [
    [0.0, -1.0, 0.0, 81.0],
    [1.0, 0.0, 0.0, 0.0],
    [0.0, 0.0, 1.0, 0.0],
    [0.0, 0.0, 0.0, 1.0]
],
  "dcmmeta_shape": [82, 82, 56, 1098],
  "dcmmeta_slice_dim": 2,
  "dcmmeta_version": 0.6,
  "global": {
    "const": {
      "AccessionNumber": "A004399",
      "AcquisitionMatrix": [82, 0, 0, 82],
      "AngioFlag": "N",
      "BitsAllocated": 16,
      "BitsStored": 16,
      "BodyPartExamined": "BRAIN",
      "Columns": 656,
      "EchoNumbers": 1,
      "EchoTime": 27.2,
      "EchoTrainLength": 82,
      "FlipAngle": 44.0,
      "HighBit": 15,
      "ImageOrientationPatient": [0.99877963059979, -0.0442531512677, -0.0219296170013, 0.04360761254634, 0.99862515249101, -0.0290891894063],
      "ImagePositionPatient": [-918.45753960362, -846.50168560442, -32.02466816304],
      "ImageType": [
        "ORIGINAL",
        "PRIMARY",
        "M",
        "MB",
        "ND",
        "NORM",
        "MOSAIC"
],
      "ImagedNucleus": "1H",
      "ImagingFrequency": 123.259083,
      "InPlanePhaseEncodingDirection": "COL",
      "MRAcquisitionType": "2D",
      "MagneticFieldStrength": 3.0,
      "Manufacturer": "SIEMENS",
      "ManufacturerModelName": "Prisma",
      "Modality": "MR",
      "NumberOfAverages": 1.0,
      "NumberOfPhaseEncodingSteps": 82,
      "PercentPhaseFieldOfView": 100.0,
      "PercentSampling": 100.0,
      "PerformedProcedureStepStartTime": "140230.416000",
      "PhotometricInterpretation": "MONOCHROME2",
      "PixelBandwidth": 3050.0,
      "PixelRepresentation": 0,
      "PixelSpacing": [2.6829268932343, 2.6829268932343],
      "ProtocolName": "func_run-02_task-narratives_acq-ap-mb8",
      "RepetitionTime": 460.0,
      "Rows": 656,
      "SAR": 0.10047199729509,
      "SamplesPerPixel": 1,
      "ScanOptions": "FS",
      "ScanningSequence": "EP",
      "SequenceName": "epfid2d1_82",
      "SequenceVariant": [
        "SK",
        "SS"
],
      "SeriesDescription": "func_run-02_task-narratives_acq-ap-mb8",
      "SeriesNumber": 10,
      "SeriesTime": "142123.857000",
      "SliceLocation": -77.083951007916,
      "SliceThickness": 2.7000000476837,
      "SmallestImagePixelValue": 0,
      "SoftwareVersions": "syngo MR E11",
      "SpacingBetweenSlices": 2.6999999509274,
      "SpecificCharacterSet": "ISO_IR 100",
      "StudyID": "3",
      "StudyTime": "140230.380000",
      "TransmitCoilName": "Body",
      "VariableFlipAngleFlag": "N",
      "WindowCenterWidthExplanation": "Algo1"
    },
    "slices": {}
  },
  "time": {
    "samples": {
      "AcquisitionNumber": [1, 2, 3, 4, 5, 6, 7, 8, 9, 10, 11, 12, 13, 14, 15, 16, 17, 18, 19, 20, 21, 22, 23, 24, 25, 26, 27, 28, 29, 30, 31, 32, 33, 34, 35, 36, 37, 38, 39, 40, 41, 42, 43, 44, 45, 46, 47, 48, 49, 50, 51, 52, 53, 54, 55, 56, 57, 58, 59, 60, 61, 62, 63, 64, 65, 66, 67, 68, 69, 70, 71, 72, 73, 74, 75, 76, 77, 78, 79, 80, 81, 82, 83, 84, 85, 86, 87, 88, 89, 90, 91, 92, 93, 94, 95, 96, 97, 98, 99, 100, 101, 102, 103, 104, 105, 106, 107, 108, 109, 110, 111, 112, 113, 114, 115, 116, 117, 118, 119, 120, 121, 122, 123, 124, 125, 126, 127, 128, 129, 130, 131, 132, 133, 134, 135, 136, 137, 138, 139, 140, 141, 142, 143, 144, 145, 146, 147, 148, 149, 150, 151, 152, 153, 154, 155, 156, 157, 158, 159, 160, 161, 162, 163, 164, 165, 166, 167, 168, 169, 170, 171, 172, 173, 174, 175, 176, 177, 178, 179, 180, 181, 182, 183, 184, 185, 186, 187, 188, 189, 190, 191, 192, 193, 194, 195, 196, 197, 198, 199, 200, 201, 202, 203, 204, 205, 206, 207, 208, 209, 210, 211, 212, 213, 214, 215, 216, 217, 218, 219, 220, 221, 222, 223, 224, 225, 226, 227, 228, 229, 230, 231, 232, 233, 234, 235, 236, 237, 238, 239, 240, 241, 242, 243, 244, 245, 246, 247, 248, 249, 250, 251, 252, 253, 254, 255, 256, 257, 258, 259, 260, 261, 262, 263, 264, 265, 266, 267, 268, 269, 270, 271, 272, 273, 274, 275, 276, 277, 278, 279, 280, 281, 282, 283, 284, 285, 286, 287, 288, 289, 290, 291, 292, 293, 294, 295, 296, 297, 298, 299, 300, 301, 302, 303, 304, 305, 306, 307, 308, 309, 310, 311, 312, 313, 314, 315, 316, 317, 318, 319, 320, 321, 322, 323, 324, 325, 326, 327, 328, 329, 330, 331, 332, 333, 334, 335, 336, 337, 338, 339, 340, 341, 342, 343, 344, 345, 346, 347, 348, 349, 350, 351, 352, 353, 354, 355, 356, 357, 358, 359, 360, 361, 362, 363, 364, 365, 366, 367, 368, 369, 370, 371, 372, 373, 374, 375, 376, 377, 378, 379, 380, 381, 382, 383, 384, 385, 386, 387, 388, 389, 390, 391, 392, 393, 394, 395, 396, 397, 398, 399, 400, 401, 402, 403, 404, 405, 406, 407, 408, 409, 410, 411, 412, 413, 414, 415, 416, 417, 418, 419, 420, 421, 422, 423, 424, 425, 426, 427, 428, 429, 430, 431, 432, 433, 434, 435, 436, 437, 438, 439, 440, 441, 442, 443, 444, 445, 446, 447, 448, 449, 450, 451, 452, 453, 454, 455, 456, 457, 458, 459, 460, 461, 462, 463, 464, 465, 466, 467, 468, 469, 470, 471, 472, 473, 474, 475, 476, 477, 478, 479, 480, 481, 482, 483, 484, 485, 486, 487, 488, 489, 490, 491, 492, 493, 494, 495, 496, 497, 498, 499, 500, 501, 502, 503, 504, 505, 506, 507, 508, 509, 510, 511, 512, 513, 514, 515, 516, 517, 518, 519, 520, 521, 522, 523, 524, 525, 526, 527, 528, 529, 530, 531, 532, 533, 534, 535, 536, 537, 538, 539, 540, 541, 542, 543, 544, 545, 546, 547, 548, 549, 550, 551, 552, 553, 554, 555, 556, 557, 558, 559, 560, 561, 562, 563, 564, 565, 566, 567, 568, 569, 570, 571, 572, 573, 574, 575, 576, 577, 578, 579, 580, 581, 582, 583, 584, 585, 586, 587, 588, 589, 590, 591, 592, 593, 594, 595, 596, 597, 598, 599, 600, 601, 602, 603, 604, 605, 606, 607, 608, 609, 610, 611, 612, 613, 614, 615, 616, 617, 618, 619, 620, 621, 622, 623, 624, 625, 626, 627, 628, 629, 630, 631, 632, 633, 634, 635, 636, 637, 638, 639, 640, 641, 642, 643, 644, 645, 646, 647, 648, 649, 650, 651, 652, 653, 654, 655, 656, 657, 658, 659, 660, 661, 662, 663, 664, 665, 666, 667, 668, 669, 670, 671, 672, 673, 674, 675, 676, 677, 678, 679, 680, 681, 682, 683, 684, 685, 686, 687, 688, 689, 690, 691, 692, 693, 694, 695, 696, 697, 698, 699, 700, 701, 702, 703, 704, 705, 706, 707, 708, 709, 710, 711, 712, 713, 714, 715, 716, 717, 718, 719, 720, 721, 722, 723, 724, 725, 726, 727, 728, 729, 730, 731, 732, 733, 734, 735, 736, 737, 738, 739, 740, 741, 742, 743, 744, 745, 746, 747, 748, 749, 750, 751, 752, 753, 754, 755, 756, 757, 758, 759, 760, 761, 762, 763, 764, 765, 766, 767, 768, 769, 770, 771, 772, 773, 774, 775, 776, 777, 778, 779, 780, 781, 782, 783, 784, 785, 786, 787, 788, 789, 790, 791, 792, 793, 794, 795, 796, 797, 798, 799, 800, 801, 802, 803, 804, 805, 806, 807, 808, 809, 810, 811, 812, 813, 814, 815, 816, 817, 818, 819, 820, 821, 822, 823, 824, 825, 826, 827, 828, 829, 830, 831, 832, 833, 834, 835, 836, 837, 838, 839, 840, 841, 842, 843, 844, 845, 846, 847, 848, 849, 850, 851, 852, 853, 854, 855, 856, 857, 858, 859, 860, 861, 862, 863, 864, 865, 866, 867, 868, 869, 870, 871, 872, 873, 874, 875, 876, 877, 878, 879, 880, 881, 882, 883, 884, 885, 886, 887, 888, 889, 890, 891, 892, 893, 894, 895, 896, 897, 898, 899, 900, 901, 902, 903, 904, 905, 906, 907, 908, 909, 910, 911, 912, 913, 914, 915, 916, 917, 918, 919, 920, 921, 922, 923, 924, 925, 926, 927, 928, 929, 930, 931, 932, 933, 934, 935, 936, 937, 938, 939, 940, 941, 942, 943, 944, 945, 946, 947, 948, 949, 950, 951, 952, 953, 954, 955, 956, 957, 958, 959, 960, 961, 962, 963, 964, 965, 966, 967, 968, 969, 970, 971, 972, 973, 974, 975, 976, 977, 978, 979, 980, 981, 982, 983, 984, 985, 986, 987, 988, 989, 990, 991, 992, 993, 994, 995, 996, 997, 998, 999, 1000, 1001, 1002, 1003, 1004, 1005, 1006, 1007, 1008, 1009, 1010, 1011, 1012, 1013, 1014, 1015, 1016, 1017, 1018, 1019, 1020, 1021, 1022, 1023, 1024, 1025, 1026, 1027, 1028, 1029, 1030, 1031, 1032, 1033, 1034, 1035, 1036, 1037, 1038, 1039, 1040, 1041, 1042, 1043, 1044, 1045, 1046, 1047, 1048, 1049, 1050, 1051, 1052, 1053, 1054, 1055, 1056, 1057, 1058, 1059, 1060, 1061, 1062, 1063, 1064, 1065, 1066, 1067, 1068, 1069, 1070, 1071, 1072, 1073, 1074, 1075, 1076, 1077, 1078, 1079, 1080, 1081, 1082, 1083, 1084, 1085, 1086, 1087, 1088, 1089, 1090, 1091, 1092, 1093, 1094, 1095, 1096, 1097, 1098],
      "AcquisitionTime": ["142056.140000", "142056.600000", "142057.060000", "142057.520000", "142057.980000", "142058.440000", "142058.900000", "142059.360000", "142059.820000", "142100.280000", "142100.740000", "142101.200000", "142101.660000", "142102.120000", "142102.580000", "142103.040000", "142103.500000", "142103.960000", "142104.420000", "142104.880000", "142105.340000", "142105.800000", "142106.260000", "142106.720000", "142107.180000", "142107.640000", "142108.100000", "142108.560000", "142109.020000", "142109.480000", "142109.940000", "142110.400000", "142110.860000", "142111.320000", "142111.780000", "142112.240000", "142112.700000", "142113.160000", "142113.620000", "142114.080000", "142114.540000", "142115.000000", "142115.460000", "142115.920000", "142116.380000", "142116.840000", "142117.300000", "142117.760000", "142118.220000", "142118.680000", "142119.140000", "142119.600000", "142120.060000", "142120.520000", "142120.980000", "142121.440000", "142121.900000", "142122.360000", "142122.820000", "142123.280000", "142123.740000", "142124.200000", "142124.660000", "142125.120000", "142125.580000", "142126.040000", "142126.500000", "142126.960000", "142127.420000", "142127.880000", "142128.340000", "142128.800000", "142129.260000", "142129.720000", "142130.180000", "142130.640000", "142131.100000", "142131.560000", "142132.020000", "142132.480000", "142132.940000", "142133.400000", "142133.860000", "142134.320000", "142134.780000", "142135.240000", "142135.700000", "142136.160000", "142136.620000", "142137.080000", "142137.540000", "142138.000000", "142138.460000", "142138.920000", "142139.380000", "142139.840000", "142140.300000", "142140.760000", "142141.220000", "142141.680000", "142142.140000", "142142.600000", "142143.060000", "142143.520000", "142143.980000", "142144.440000", "142144.900000", "142145.360000", "142145.820000", "142146.280000", "142146.740000", "142147.200000", "142147.660000", "142148.120000", "142148.580000", "142149.040000", "142149.500000", "142149.960000", "142150.420000", "142150.880000", "142151.340000", "142151.800000", "142152.260000", "142152.720000", "142153.180000", "142153.640000", "142154.100000", "142154.560000", "142155.020000", "142155.480000", "142155.940000", "142156.400000", "142156.860000", "142157.320000", "142157.780000", "142158.240000", "142158.700000", "142159.160000", "142159.620000", "142200.080000", "142200.540000", "142201.000000", "142201.460000", "142201.920000", "142202.380000", "142202.840000", "142203.300000", "142203.760000", "142204.220000", "142204.680000", "142205.140000", "142205.600000", "142206.060000", "142206.520000", "142206.980000", "142207.440000", "142207.900000", "142208.360000", "142208.820000", "142209.280000", "142209.740000", "142210.200000", "142210.660000", "142211.120000", "142211.580000", "142212.040000", "142212.500000", "142212.960000", "142213.420000", "142213.880000", "142214.340000", "142214.800000", "142215.260000", "142215.720000", "142216.180000", "142216.640000", "142217.100000", "142217.560000", "142218.020000", "142218.480000", "142218.940000", "142219.400000", "142219.860000", "142220.320000", "142220.780000", "142221.240000", "142221.700000", "142222.160000", "142222.620000", "142223.080000", "142223.540000", "142224.000000", "142224.460000", "142224.920000", "142225.380000", "142225.840000", "142226.300000", "142226.760000", "142227.220000", "142227.680000", "142228.140000", "142228.600000", "142229.060000", "142229.520000", "142229.980000", "142230.440000", "142230.900000", "142231.360000", "142231.820000", "142232.280000", "142232.740000", "142233.200000", "142233.660000", "142234.120000", "142234.580000", "142235.040000", "142235.500000", "142235.960000", "142236.420000", "142236.880000", "142237.340000", "142237.800000", "142238.260000", "142238.720000", "142239.180000", "142239.640000", "142240.100000", "142240.560000", "142241.020000", "142241.480000", "142241.940000", "142242.400000", "142242.860000", "142243.320000", "142243.780000", "142244.240000", "142244.700000", "142245.160000", "142245.620000", "142246.080000", "142246.540000", "142247.000000", "142247.460000", "142247.920000", "142248.380000", "142248.840000", "142249.300000", "142249.760000", "142250.220000", "142250.680000", "142251.140000", "142251.600000", "142252.060000", "142252.520000", "142252.980000", "142253.440000", "142253.900000", "142254.360000", "142254.820000", "142255.280000", "142255.740000", "142256.200000", "142256.660000", "142257.120000", "142257.580000", "142258.040000", "142258.500000", "142258.960000", "142259.420000", "142259.880000", "142300.340000", "142300.800000", "142301.260000", "142301.720000", "142302.180000", "142302.640000", "142303.100000", "142303.560000", "142304.020000", "142304.480000", "142304.940000", "142305.400000", "142305.860000", "142306.320000", "142306.780000", "142307.240000", "142307.700000", "142308.160000", "142308.620000", "142309.080000", "142309.540000", "142310.000000", "142310.460000", "142310.920000", "142311.380000", "142311.840000", "142312.300000", "142312.760000", "142313.220000", "142313.680000", "142314.140000", "142314.600000", "142315.060000", "142315.520000", "142315.980000", "142316.440000", "142316.900000", "142317.360000", "142317.820000", "142318.280000", "142318.740000", "142319.200000", "142319.660000", "142320.120000", "142320.580000", "142321.040000", "142321.500000", "142321.960000", "142322.420000", "142322.880000", "142323.340000", "142323.800000", "142324.260000", "142324.720000", "142325.180000", "142325.640000", "142326.100000", "142326.560000", "142327.020000", "142327.480000", "142327.940000", "142328.400000", "142328.860000", "142329.320000", "142329.780000", "142330.240000", "142330.700000", "142331.160000", "142331.620000", "142332.080000", "142332.540000", "142333.000000", "142333.460000", "142333.920000", "142334.380000", "142334.840000", "142335.300000", "142335.760000", "142336.220000", "142336.680000", "142337.140000", "142337.600000", "142338.060000", "142338.520000", "142338.980000", "142339.440000", "142339.900000", "142340.360000", "142340.820000", "142341.280000", "142341.740000", "142342.200000", "142342.660000", "142343.120000", "142343.580000", "142344.040000", "142344.500000", "142344.960000", "142345.420000", "142345.880000", "142346.340000", "142346.800000", "142347.260000", "142347.720000", "142348.180000", "142348.640000", "142349.100000", "142349.560000", "142350.020000", "142350.480000", "142350.940000", "142351.400000", "142351.860000", "142352.320000", "142352.780000", "142353.240000", "142353.700000", "142354.160000", "142354.620000", "142355.080000", "142355.540000", "142356.000000", "142356.460000", "142356.920000", "142357.380000", "142357.840000", "142358.300000", "142358.760000", "142359.220000", "142359.680000", "142400.140000", "142400.600000", "142401.060000", "142401.520000", "142401.980000", "142402.440000", "142402.900000", "142403.360000", "142403.820000", "142404.280000", "142404.740000", "142405.200000", "142405.660000", "142406.120000", "142406.580000", "142407.040000", "142407.500000", "142407.960000", "142408.420000", "142408.880000", "142409.340000", "142409.800000", "142410.260000", "142410.720000", "142411.180000", "142411.640000", "142412.100000", "142412.560000", "142413.020000", "142413.480000", "142413.940000", "142414.400000", "142414.860000", "142415.320000", "142415.780000", "142416.240000", "142416.700000", "142417.160000", "142417.620000", "142418.080000", "142418.540000", "142419.000000", "142419.460000", "142419.920000", "142420.380000", "142420.840000", "142421.300000", "142421.760000", "142422.220000", "142422.680000", "142423.140000", "142423.600000", "142424.060000", "142424.520000", "142424.980000", "142425.440000", "142425.900000", "142426.360000", "142426.820000", "142427.280000", "142427.740000", "142428.200000", "142428.660000", "142429.120000", "142429.580000", "142430.040000", "142430.500000", "142430.960000", "142431.420000", "142431.880000", "142432.340000", "142432.800000", "142433.260000", "142433.720000", "142434.180000", "142434.640000", "142435.100000", "142435.560000", "142436.020000", "142436.480000", "142436.940000", "142437.400000", "142437.860000", "142438.320000", "142438.780000", "142439.240000", "142439.700000", "142440.160000", "142440.620000", "142441.080000", "142441.540000", "142442.000000", "142442.460000", "142442.920000", "142443.380000", "142443.840000", "142444.300000", "142444.760000", "142445.220000", "142445.680000", "142446.140000", "142446.600000", "142447.060000", "142447.520000", "142447.980000", "142448.440000", "142448.900000", "142449.360000", "142449.820000", "142450.280000", "142450.740000", "142451.200000", "142451.660000", "142452.120000", "142452.580000", "142453.040000", "142453.500000", "142453.960000", "142454.420000", "142454.880000", "142455.340000", "142455.800000", "142456.260000", "142456.720000", "142457.180000", "142457.640000", "142458.100000", "142458.560000", "142459.020000", "142459.480000", "142459.940000", "142500.400000", "142500.860000", "142501.320000", "142501.780000", "142502.240000", "142502.700000", "142503.160000", "142503.620000", "142504.080000", "142504.540000", "142505.000000", "142505.460000", "142505.920000", "142506.380000", "142506.840000", "142507.300000", "142507.760000", "142508.220000", "142508.680000", "142509.140000", "142509.600000", "142510.060000", "142510.520000", "142510.980000", "142511.440000", "142511.900000", "142512.360000", "142512.820000", "142513.280000", "142513.740000", "142514.200000", "142514.660000", "142515.120000", "142515.580000", "142516.040000", "142516.500000", "142516.960000", "142517.420000", "142517.880000", "142518.340000", "142518.800000", "142519.260000", "142519.720000", "142520.180000", "142520.640000", "142521.100000", "142521.560000", "142522.020000", "142522.480000", "142522.940000", "142523.400000", "142523.860000", "142524.320000", "142524.780000", "142525.240000", "142525.700000", "142526.160000", "142526.620000", "142527.080000", "142527.540000", "142528.000000", "142528.460000", "142528.920000", "142529.380000", "142529.840000", "142530.300000", "142530.760000", "142531.220000", "142531.680000", "142532.140000", "142532.600000", "142533.060000", "142533.520000", "142533.980000", "142534.440000", "142534.900000", "142535.360000", "142535.820000", "142536.280000", "142536.740000", "142537.200000", "142537.660000", "142538.120000", "142538.580000", "142539.040000", "142539.500000", "142539.960000", "142540.420000", "142540.880000", "142541.340000", "142541.800000", "142542.260000", "142542.720000", "142543.180000", "142543.640000", "142544.100000", "142544.560000", "142545.020000", "142545.480000", "142545.940000", "142546.400000", "142546.860000", "142547.320000", "142547.780000", "142548.240000", "142548.700000", "142549.160000", "142549.620000", "142550.080000", "142550.540000", "142551.000000", "142551.460000", "142551.920000", "142552.380000", "142552.840000", "142553.300000", "142553.760000", "142554.220000", "142554.680000", "142555.140000", "142555.600000", "142556.060000", "142556.520000", "142556.980000", "142557.440000", "142557.900000", "142558.360000", "142558.820000", "142559.280000", "142559.740000", "142600.200000", "142600.660000", "142601.120000", "142601.580000", "142602.040000", "142602.500000", "142602.960000", "142603.420000", "142603.880000", "142604.340000", "142604.800000", "142605.260000", "142605.720000", "142606.180000", "142606.640000", "142607.100000", "142607.560000", "142608.020000", "142608.480000", "142608.940000", "142609.400000", "142609.860000", "142610.320000", "142610.780000", "142611.240000", "142611.700000", "142612.160000", "142612.620000", "142613.080000", "142613.540000", "142614.000000", "142614.460000", "142614.920000", "142615.380000", "142615.840000", "142616.300000", "142616.760000", "142617.220000", "142617.680000", "142618.140000", "142618.600000", "142619.060000", "142619.520000", "142619.980000", "142620.440000", "142620.900000", "142621.360000", "142621.820000", "142622.280000", "142622.740000", "142623.200000", "142623.660000", "142624.120000", "142624.580000", "142625.040000", "142625.500000", "142625.960000", "142626.420000", "142626.880000", "142627.340000", "142627.800000", "142628.260000", "142628.720000", "142629.180000", "142629.640000", "142630.100000", "142630.560000", "142631.020000", "142631.480000", "142631.940000", "142632.400000", "142632.860000", "142633.320000", "142633.780000", "142634.240000", "142634.700000", "142635.160000", "142635.620000", "142636.080000", "142636.540000", "142637.000000", "142637.460000", "142637.920000", "142638.380000", "142638.840000", "142639.300000", "142639.760000", "142640.220000", "142640.680000", "142641.140000", "142641.600000", "142642.060000", "142642.520000", "142642.980000", "142643.440000", "142643.900000", "142644.360000", "142644.820000", "142645.280000", "142645.740000", "142646.200000", "142646.660000", "142647.120000", "142647.580000", "142648.040000", "142648.500000", "142648.960000", "142649.420000", "142649.880000", "142650.340000", "142650.800000", "142651.260000", "142651.720000", "142652.180000", "142652.640000", "142653.100000", "142653.560000", "142654.020000", "142654.480000", "142654.940000", "142655.400000", "142655.860000", "142656.320000", "142656.780000", "142657.240000", "142657.700000", "142658.160000", "142658.620000", "142659.080000", "142659.540000", "142700.000000", "142700.460000", "142700.920000", "142701.380000", "142701.840000", "142702.300000", "142702.760000", "142703.220000", "142703.680000", "142704.140000", "142704.600000", "142705.060000", "142705.520000", "142705.980000", "142706.440000", "142706.900000", "142707.360000", "142707.820000", "142708.280000", "142708.740000", "142709.200000", "142709.660000", "142710.120000", "142710.580000", "142711.040000", "142711.500000", "142711.960000", "142712.420000", "142712.880000", "142713.340000", "142713.800000", "142714.260000", "142714.720000", "142715.180000", "142715.640000", "142716.100000", "142716.560000", "142717.020000", "142717.480000", "142717.940000", "142718.400000", "142718.860000", "142719.320000", "142719.780000", "142720.240000", "142720.700000", "142721.160000", "142721.620000", "142722.080000", "142722.540000", "142723.000000", "142723.460000", "142723.920000", "142724.380000", "142724.840000", "142725.300000", "142725.760000", "142726.220000", "142726.680000", "142727.140000", "142727.600000", "142728.060000", "142728.520000", "142728.980000", "142729.440000", "142729.900000", "142730.360000", "142730.820000", "142731.280000", "142731.740000", "142732.200000", "142732.660000", "142733.120000", "142733.580000", "142734.040000", "142734.500000", "142734.960000", "142735.420000", "142735.880000", "142736.340000", "142736.800000", "142737.260000", "142737.720000", "142738.180000", "142738.640000", "142739.100000", "142739.560000", "142740.020000", "142740.480000", "142740.940000", "142741.400000", "142741.860000", "142742.320000", "142742.780000", "142743.240000", "142743.700000", "142744.160000", "142744.620000", "142745.080000", "142745.540000", "142746.000000", "142746.460000", "142746.920000", "142747.380000", "142747.840000", "142748.300000", "142748.760000", "142749.220000", "142749.680000", "142750.140000", "142750.600000", "142751.060000", "142751.520000", "142751.980000", "142752.440000", "142752.900000", "142753.360000", "142753.820000", "142754.280000", "142754.740000", "142755.200000", "142755.660000", "142756.120000", "142756.580000", "142757.040000", "142757.500000", "142757.960000", "142758.420000", "142758.880000", "142759.340000", "142759.800000", "142800.260000", "142800.720000", "142801.180000", "142801.640000", "142802.100000", "142802.560000", "142803.020000", "142803.480000", "142803.940000", "142804.400000", "142804.860000", "142805.320000", "142805.780000", "142806.240000", "142806.700000", "142807.160000", "142807.620000", "142808.080000", "142808.540000", "142809.000000", "142809.460000", "142809.920000", "142810.380000", "142810.840000", "142811.300000", "142811.760000", "142812.220000", "142812.680000", "142813.140000", "142813.600000", "142814.060000", "142814.520000", "142814.980000", "142815.440000", "142815.900000", "142816.360000", "142816.820000", "142817.280000", "142817.740000", "142818.200000", "142818.660000", "142819.120000", "142819.580000", "142820.040000", "142820.500000", "142820.960000", "142821.420000", "142821.880000", "142822.340000", "142822.800000", "142823.260000", "142823.720000", "142824.180000", "142824.640000", "142825.100000", "142825.560000", "142826.020000", "142826.480000", "142826.940000", "142827.400000", "142827.860000", "142828.320000", "142828.780000", "142829.240000", "142829.700000", "142830.160000", "142830.620000", "142831.080000", "142831.540000", "142832.000000", "142832.460000", "142832.920000", "142833.380000", "142833.840000", "142834.300000", "142834.760000", "142835.220000", "142835.680000", "142836.140000", "142836.600000", "142837.060000", "142837.520000", "142837.980000", "142838.440000", "142838.900000", "142839.360000", "142839.820000", "142840.280000", "142840.740000", "142841.200000", "142841.660000", "142842.120000", "142842.580000", "142843.040000", "142843.500000", "142843.960000", "142844.420000", "142844.880000", "142845.340000", "142845.800000", "142846.260000", "142846.720000", "142847.180000", "142847.640000", "142848.100000", "142848.560000", "142849.020000", "142849.480000", "142849.940000", "142850.400000", "142850.860000", "142851.320000", "142851.780000", "142852.240000", "142852.700000", "142853.160000", "142853.620000", "142854.080000", "142854.540000", "142855.000000", "142855.460000", "142855.920000", "142856.380000", "142856.840000", "142857.300000", "142857.760000", "142858.220000", "142858.680000", "142859.140000", "142859.600000", "142900.060000", "142900.520000", "142900.980000", "142901.440000", "142901.900000", "142902.360000", "142902.820000", "142903.280000", "142903.740000", "142904.200000", "142904.660000", "142905.120000", "142905.580000", "142906.040000", "142906.500000", "142906.960000", "142907.420000", "142907.880000", "142908.340000", "142908.800000", "142909.260000", "142909.720000", "142910.180000", "142910.640000", "142911.100000", "142911.560000", "142912.020000", "142912.480000", "142912.940000", "142913.400000", "142913.860000", "142914.320000", "142914.780000", "142915.240000", "142915.700000", "142916.160000", "142916.620000", "142917.080000", "142917.540000", "142918.000000", "142918.460000", "142918.920000", "142919.380000", "142919.840000", "142920.300000", "142920.760000"],
