{
  "AcquisitionMatrixPE": 82,
  "AcquisitionNumber": 1,
  "AcquisitionTime": "15:14:59.487500",
  "BandwidthPerPixelPhaseEncode": 24.888,
  "BaseResolution": 82,
  "BodyPartExamined": "BRAIN",
  "ConsistencyInfo": "N4_VE11E_LATEST_20181129",
  "ConversionSoftware": "dcm2niix",
  "ConversionSoftwareVersion": "v1.0.20201102",
  "DerivedVendorReportedEchoSpacing": 0.00049,
  "DeviceSerialNumber": "66112",
  "DwellTime": 2e-06,
  "EchoTime": 0.0272,
  "EchoTrainLength": 82,
  "EffectiveEchoSpacing": 0.00049,
  "FlipAngle": 44,
  "ImageComments": "Unaliased MB8/PE3",
  "ImageOrientationPatientDICOM": [0.99831, -0.0446385, -0.037201, 0.0456822, 0.998572, 0.0276952],
  "ImageType": [
    "ORIGINAL",
    "PRIMARY",
    "M",
    "MB",
    "ND",
    "NORM",
    "MOSAIC"
],
  "ImagingFrequency": 123.259,
  "InPlanePhaseEncodingDirectionDICOM": "COL",
  "InstitutionAddress": "Maynard 3,Hanover,NH,US,03755",
  "InstitutionName": "Dartmouth College - PBS",
  "InstitutionalDepartmentName": "Department",
  "MRAcquisitionType": "2D",
  "MagneticFieldStrength": 3,
  "Manufacturer": "Siemens",
  "ManufacturersModelName": "Prisma",
  "Modality": "MR",
  "MultibandAccelerationFactor": 8,
  "PartialFourier": 1,
  "PatientPosition": "HFS",
  "PercentPhaseFOV": 100,
  "PercentSampling": 100,
  "PhaseEncodingDirection": "j-",
  "PhaseEncodingSteps": 82,
  "PhaseResolution": 1,
  "PixelBandwidth": 3050,
  "ProcedureStepDescription": "Wager_Wager^1076_spacetop",
  "ProtocolName": "func_run-01_task-alignvideo_acq-ap-mb8",
  "PulseSequenceDetails": "%CustomerSeq%\\cmrr_mbep2d_bold",
  "ReceiveCoilActiveElements": "HEA;HEP",
  "ReceiveCoilName": "Head_32",
  "ReconMatrixPE": 82,
  "RepetitionTime": 0.46,
  "SAR": 0.100319,
  "ScanOptions": "FS",
  "ScanningSequence": "EP",
  "SequenceName": "epfid2d1_82",
  "SequenceVariant": "SK\\SS",
  "SeriesDescription": "func_run-01_task-alignvideo_acq-ap-mb8",
  "SeriesNumber": 28,
  "ShimSetting": [4212, -7760, -7242, 336, -151, -165, -48, 91],
  "SliceThickness": 2.7,
  "SliceTiming": [0, 0.25, 0.0625, 0.315, 0.125, 0.3775, 0.1875, 0, 0.25, 0.0625, 0.315, 0.125, 0.3775, 0.1875, 0, 0.25, 0.0625, 0.315, 0.125, 0.3775, 0.1875, 0, 0.25, 0.0625, 0.315, 0.125, 0.3775, 0.1875, 0, 0.25, 0.0625, 0.315, 0.125, 0.3775, 0.1875, 0, 0.25, 0.0625, 0.315, 0.125, 0.3775, 0.1875, 0, 0.25, 0.0625, 0.315, 0.125, 0.3775, 0.1875, 0, 0.25, 0.0625, 0.315, 0.125, 0.3775, 0.1875],
  "SoftwareVersions": "syngo MR E11",
  "SpacingBetweenSlices": 2.7,
  "StationName": "AWP66112",
  "TaskName": "alignvideo",
  "TotalReadoutTime": 0.03969,
  "TxRefAmp": 252.419,
  "WipMemBlock": "7f4801a3-4eb2-4e74-a7a6-8aa0e660f5a7||Sequence: R016 ve11e/master r/434b28f1; Aug  7 2019 18:53:46 by eja",
  "dcmmeta_affine": [
    [-2.678393602371216, 0.12256203591823578, -0.09696124494075775, 107.48773956298828],
    [0.11976176500320435, 2.67909574508667, 0.07923923432826996, -109.22943115234375],
    [-0.09980747103691101, -0.07430429756641388, 2.697094678878784, -68.86852264404297],
    [0.0, 0.0, 0.0, 1.0]
],
  "dcmmeta_reorient_transform": [
    [0.0, -1.0, 0.0, 81.0],
    [1.0, 0.0, 0.0, 0.0],
    [0.0, 0.0, 1.0, 0.0],
    [0.0, 0.0, 0.0, 1.0]
],
  "dcmmeta_shape": [82, 82, 56, 839],
  "dcmmeta_slice_dim": 2,
  "dcmmeta_version": 0.6,
  "global": {
    "const": {
      "AccessionNumber": "A004399",
      "AcquisitionMatrix": [82, 0, 0, 82],
      "AngioFlag": "N",
      "BitsAllocated": 16,
      "BitsStored": 16,
      "BodyPartExamined": "BRAIN",
      "Columns": 656,
      "EchoNumbers": 1,
      "EchoTime": 27.2,
      "EchoTrainLength": 82,
      "FlipAngle": 44.0,
      "HighBit": 15,
      "ImageOrientationPatient": [0.99831031980678, -0.0446384753813, -0.0372009661558, 0.04568221115153, 0.99857203514234, 0.0276952381466],
      "ImagePositionPatient": [-921.28953399936, -842.306185468, -67.567759445445],
      "ImageType": [
        "ORIGINAL",
        "PRIMARY",
        "M",
        "MB",
        "ND",
        "NORM",
        "MOSAIC"
],
      "ImagedNucleus": "1H",
      "ImagingFrequency": 123.259105,
      "InPlanePhaseEncodingDirection": "COL",
      "MRAcquisitionType": "2D",
      "MagneticFieldStrength": 3.0,
      "Manufacturer": "SIEMENS",
      "ManufacturerModelName": "Prisma",
      "Modality": "MR",
      "NumberOfAverages": 1.0,
      "NumberOfPhaseEncodingSteps": 82,
      "PercentPhaseFieldOfView": 100.0,
      "PercentSampling": 100.0,
      "PerformedProcedureStepStartTime": "140230.416000",
      "PhotometricInterpretation": "MONOCHROME2",
      "PixelBandwidth": 3050.0,
      "PixelRepresentation": 0,
      "PixelSpacing": [2.6829268932343, 2.6829268932343],
      "ProtocolName": "func_run-01_task-alignvideo_acq-ap-mb8",
      "RepetitionTime": 460.0,
      "Rows": 656,
      "SAR": 0.1003189078777,
      "SamplesPerPixel": 1,
      "ScanOptions": "FS",
      "ScanningSequence": "EP",
      "SequenceName": "epfid2d1_82",
      "SequenceVariant": [
        "SK",
        "SS"
],
      "SeriesDescription": "func_run-01_task-alignvideo_acq-ap-mb8",
      "SeriesNumber": 28,
      "SeriesTime": "151523.859000",
      "SliceLocation": -75.860120311013,
      "SliceThickness": 2.7000000476837,
      "SmallestImagePixelValue": 0,
      "SoftwareVersions": "syngo MR E11",
      "SpacingBetweenSlices": 2.7000000560765,
      "SpecificCharacterSet": "ISO_IR 100",
      "StudyID": "3",
      "StudyTime": "140230.380000",
      "TransmitCoilName": "Body",
      "VariableFlipAngleFlag": "N",
      "WindowCenterWidthExplanation": "Algo1"
    },
    "slices": {}
  },
  "time": {
    "samples": {
      "AcquisitionNumber": [1, 2, 3, 4, 5, 6, 7, 8, 9, 10, 11, 12, 13, 14, 15, 16, 17, 18, 19, 20, 21, 22, 23, 24, 25, 26, 27, 28, 29, 30, 31, 32, 33, 34, 35, 36, 37, 38, 39, 40, 41, 42, 43, 44, 45, 46, 47, 48, 49, 50, 51, 52, 53, 54, 55, 56, 57, 58, 59, 60, 61, 62, 63, 64, 65, 66, 67, 68, 69, 70, 71, 72, 73, 74, 75, 76, 77, 78, 79, 80, 81, 82, 83, 84, 85, 86, 87, 88, 89, 90, 91, 92, 93, 94, 95, 96, 97, 98, 99, 100, 101, 102, 103, 104, 105, 106, 107, 108, 109, 110, 111, 112, 113, 114, 115, 116, 117, 118, 119, 120, 121, 122, 123, 124, 125, 126, 127, 128, 129, 130, 131, 132, 133, 134, 135, 136, 137, 138, 139, 140, 141, 142, 143, 144, 145, 146, 147, 148, 149, 150, 151, 152, 153, 154, 155, 156, 157, 158, 159, 160, 161, 162, 163, 164, 165, 166, 167, 168, 169, 170, 171, 172, 173, 174, 175, 176, 177, 178, 179, 180, 181, 182, 183, 184, 185, 186, 187, 188, 189, 190, 191, 192, 193, 194, 195, 196, 197, 198, 199, 200, 201, 202, 203, 204, 205, 206, 207, 208, 209, 210, 211, 212, 213, 214, 215, 216, 217, 218, 219, 220, 221, 222, 223, 224, 225, 226, 227, 228, 229, 230, 231, 232, 233, 234, 235, 236, 237, 238, 239, 240, 241, 242, 243, 244, 245, 246, 247, 248, 249, 250, 251, 252, 253, 254, 255, 256, 257, 258, 259, 260, 261, 262, 263, 264, 265, 266, 267, 268, 269, 270, 271, 272, 273, 274, 275, 276, 277, 278, 279, 280, 281, 282, 283, 284, 285, 286, 287, 288, 289, 290, 291, 292, 293, 294, 295, 296, 297, 298, 299, 300, 301, 302, 303, 304, 305, 306, 307, 308, 309, 310, 311, 312, 313, 314, 315, 316, 317, 318, 319, 320, 321, 322, 323, 324, 325, 326, 327, 328, 329, 330, 331, 332, 333, 334, 335, 336, 337, 338, 339, 340, 341, 342, 343, 344, 345, 346, 347, 348, 349, 350, 351, 352, 353, 354, 355, 356, 357, 358, 359, 360, 361, 362, 363, 364, 365, 366, 367, 368, 369, 370, 371, 372, 373, 374, 375, 376, 377, 378, 379, 380, 381, 382, 383, 384, 385, 386, 387, 388, 389, 390, 391, 392, 393, 394, 395, 396, 397, 398, 399, 400, 401, 402, 403, 404, 405, 406, 407, 408, 409, 410, 411, 412, 413, 414, 415, 416, 417, 418, 419, 420, 421, 422, 423, 424, 425, 426, 427, 428, 429, 430, 431, 432, 433, 434, 435, 436, 437, 438, 439, 440, 441, 442, 443, 444, 445, 446, 447, 448, 449, 450, 451, 452, 453, 454, 455, 456, 457, 458, 459, 460, 461, 462, 463, 464, 465, 466, 467, 468, 469, 470, 471, 472, 473, 474, 475, 476, 477, 478, 479, 480, 481, 482, 483, 484, 485, 486, 487, 488, 489, 490, 491, 492, 493, 494, 495, 496, 497, 498, 499, 500, 501, 502, 503, 504, 505, 506, 507, 508, 509, 510, 511, 512, 513, 514, 515, 516, 517, 518, 519, 520, 521, 522, 523, 524, 525, 526, 527, 528, 529, 530, 531, 532, 533, 534, 535, 536, 537, 538, 539, 540, 541, 542, 543, 544, 545, 546, 547, 548, 549, 550, 551, 552, 553, 554, 555, 556, 557, 558, 559, 560, 561, 562, 563, 564, 565, 566, 567, 568, 569, 570, 571, 572, 573, 574, 575, 576, 577, 578, 579, 580, 581, 582, 583, 584, 585, 586, 587, 588, 589, 590, 591, 592, 593, 594, 595, 596, 597, 598, 599, 600, 601, 602, 603, 604, 605, 606, 607, 608, 609, 610, 611, 612, 613, 614, 615, 616, 617, 618, 619, 620, 621, 622, 623, 624, 625, 626, 627, 628, 629, 630, 631, 632, 633, 634, 635, 636, 637, 638, 639, 640, 641, 642, 643, 644, 645, 646, 647, 648, 649, 650, 651, 652, 653, 654, 655, 656, 657, 658, 659, 660, 661, 662, 663, 664, 665, 666, 667, 668, 669, 670, 671, 672, 673, 674, 675, 676, 677, 678, 679, 680, 681, 682, 683, 684, 685, 686, 687, 688, 689, 690, 691, 692, 693, 694, 695, 696, 697, 698, 699, 700, 701, 702, 703, 704, 705, 706, 707, 708, 709, 710, 711, 712, 713, 714, 715, 716, 717, 718, 719, 720, 721, 722, 723, 724, 725, 726, 727, 728, 729, 730, 731, 732, 733, 734, 735, 736, 737, 738, 739, 740, 741, 742, 743, 744, 745, 746, 747, 748, 749, 750, 751, 752, 753, 754, 755, 756, 757, 758, 759, 760, 761, 762, 763, 764, 765, 766, 767, 768, 769, 770, 771, 772, 773, 774, 775, 776, 777, 778, 779, 780, 781, 782, 783, 784, 785, 786, 787, 788, 789, 790, 791, 792, 793, 794, 795, 796, 797, 798, 799, 800, 801, 802, 803, 804, 805, 806, 807, 808, 809, 810, 811, 812, 813, 814, 815, 816, 817, 818, 819, 820, 821, 822, 823, 824, 825, 826, 827, 828, 829, 830, 831, 832, 833, 834, 835, 836, 837, 838, 839],
      "AcquisitionTime": ["151459.487500", "151459.947500", "151500.407500", "151500.867500", "151501.327500", "151501.787500", "151502.247500", "151502.707500", "151503.167500", "151503.627500", "151504.087500", "151504.547500", "151505.007500", "151505.467500", "151505.927500", "151506.387500", "151506.847500", "151507.307500", "151507.767500", "151508.227500", "151508.687500", "151509.147500", "151509.607500", "151510.067500", "151510.527500", "151510.987500", "151511.447500", "151511.907500", "151512.367500", "151512.827500", "151513.287500", "151513.747500", "151514.207500", "151514.667500", "151515.127500", "151515.587500", "151516.047500", "151516.507500", "151516.967500", "151517.427500", "151517.887500", "151518.347500", "151518.807500", "151519.267500", "151519.727500", "151520.187500", "151520.647500", "151521.107500", "151521.567500", "151522.027500", "151522.487500", "151522.947500", "151523.407500", "151523.867500", "151524.327500", "151524.787500", "151525.247500", "151525.707500", "151526.167500", "151526.627500", "151527.087500", "151527.547500", "151528.007500", "151528.467500", "151528.927500", "151529.387500", "151529.847500", "151530.307500", "151530.767500", "151531.227500", "151531.687500", "151532.147500", "151532.607500", "151533.067500", "151533.527500", "151533.987500", "151534.447500", "151534.907500", "151535.367500", "151535.827500", "151536.287500", "151536.747500", "151537.207500", "151537.667500", "151538.127500", "151538.587500", "151539.047500", "151539.507500", "151539.967500", "151540.427500", "151540.887500", "151541.347500", "151541.807500", "151542.267500", "151542.727500", "151543.187500", "151543.647500", "151544.107500", "151544.567500", "151545.027500", "151545.487500", "151545.947500", "151546.407500", "151546.867500", "151547.327500", "151547.787500", "151548.247500", "151548.707500", "151549.167500", "151549.627500", "151550.087500", "151550.547500", "151551.007500", "151551.467500", "151551.927500", "151552.387500", "151552.847500", "151553.307500", "151553.767500", "151554.227500", "151554.687500", "151555.147500", "151555.607500", "151556.067500", "151556.527500", "151556.987500", "151557.447500", "151557.907500", "151558.367500", "151558.827500", "151559.287500", "151559.747500", "151600.207500", "151600.667500", "151601.127500", "151601.587500", "151602.047500", "151602.507500", "151602.967500", "151603.427500", "151603.887500", "151604.347500", "151604.807500", "151605.267500", "151605.727500", "151606.187500", "151606.647500", "151607.107500", "151607.567500", "151608.027500", "151608.487500", "151608.947500", "151609.407500", "151609.867500", "151610.327500", "151610.787500", "151611.247500", "151611.707500", "151612.167500", "151612.627500", "151613.087500", "151613.547500", "151614.007500", "151614.467500", "151614.927500", "151615.387500", "151615.847500", "151616.307500", "151616.767500", "151617.227500", "151617.687500", "151618.147500", "151618.607500", "151619.067500", "151619.527500", "151619.987500", "151620.447500", "151620.907500", "151621.367500", "151621.827500", "151622.287500", "151622.747500", "151623.207500", "151623.667500", "151624.127500", "151624.587500", "151625.047500", "151625.507500", "151625.967500", "151626.427500", "151626.887500", "151627.347500", "151627.807500", "151628.267500", "151628.727500", "151629.187500", "151629.647500", "151630.107500", "151630.567500", "151631.027500", "151631.487500", "151631.947500", "151632.407500", "151632.867500", "151633.327500", "151633.787500", "151634.247500", "151634.707500", "151635.167500", "151635.627500", "151636.087500", "151636.547500", "151637.007500", "151637.467500", "151637.927500", "151638.387500", "151638.847500", "151639.307500", "151639.767500", "151640.227500", "151640.687500", "151641.147500", "151641.607500", "151642.067500", "151642.527500", "151642.987500", "151643.447500", "151643.907500", "151644.367500", "151644.827500", "151645.287500", "151645.747500", "151646.207500", "151646.667500", "151647.127500", "151647.587500", "151648.047500", "151648.507500", "151648.967500", "151649.427500", "151649.887500", "151650.347500", "151650.807500", "151651.267500", "151651.727500", "151652.187500", "151652.647500", "151653.107500", "151653.567500", "151654.027500", "151654.487500", "151654.947500", "151655.407500", "151655.867500", "151656.327500", "151656.787500", "151657.247500", "151657.707500", "151658.167500", "151658.627500", "151659.087500", "151659.547500", "151700.007500", "151700.467500", "151700.927500", "151701.387500", "151701.847500", "151702.307500", "151702.767500", "151703.227500", "151703.687500", "151704.147500", "151704.607500", "151705.067500", "151705.527500", "151705.987500", "151706.447500", "151706.907500", "151707.367500", "151707.827500", "151708.287500", "151708.747500", "151709.207500", "151709.667500", "151710.127500", "151710.587500", "151711.047500", "151711.507500", "151711.967500", "151712.427500", "151712.887500", "151713.347500", "151713.807500", "151714.267500", "151714.727500", "151715.187500", "151715.647500", "151716.107500", "151716.567500", "151717.027500", "151717.487500", "151717.947500", "151718.407500", "151718.867500", "151719.327500", "151719.787500", "151720.247500", "151720.707500", "151721.167500", "151721.627500", "151722.087500", "151722.547500", "151723.007500", "151723.467500", "151723.927500", "151724.387500", "151724.847500", "151725.307500", "151725.767500", "151726.227500", "151726.687500", "151727.147500", "151727.607500", "151728.067500", "151728.527500", "151728.987500", "151729.447500", "151729.907500", "151730.367500", "151730.827500", "151731.287500", "151731.747500", "151732.207500", "151732.667500", "151733.127500", "151733.587500", "151734.047500", "151734.507500", "151734.967500", "151735.427500", "151735.887500", "151736.347500", "151736.807500", "151737.267500", "151737.727500", "151738.187500", "151738.647500", "151739.107500", "151739.567500", "151740.027500", "151740.487500", "151740.947500", "151741.407500", "151741.867500", "151742.327500", "151742.787500", "151743.247500", "151743.707500", "151744.167500", "151744.627500", "151745.087500", "151745.547500", "151746.007500", "151746.467500", "151746.927500", "151747.387500", "151747.847500", "151748.307500", "151748.767500", "151749.227500", "151749.687500", "151750.147500", "151750.607500", "151751.067500", "151751.527500", "151751.987500", "151752.447500", "151752.907500", "151753.367500", "151753.827500", "151754.287500", "151754.747500", "151755.207500", "151755.667500", "151756.127500", "151756.587500", "151757.047500", "151757.507500", "151757.967500", "151758.427500", "151758.887500", "151759.347500", "151759.807500", "151800.267500", "151800.727500", "151801.187500", "151801.647500", "151802.107500", "151802.567500", "151803.027500", "151803.487500", "151803.947500", "151804.407500", "151804.867500", "151805.327500", "151805.787500", "151806.247500", "151806.707500", "151807.167500", "151807.627500", "151808.087500", "151808.547500", "151809.007500", "151809.467500", "151809.927500", "151810.387500", "151810.847500", "151811.307500", "151811.767500", "151812.227500", "151812.687500", "151813.147500", "151813.607500", "151814.067500", "151814.527500", "151814.987500", "151815.447500", "151815.907500", "151816.367500", "151816.827500", "151817.287500", "151817.747500", "151818.207500", "151818.667500", "151819.127500", "151819.587500", "151820.047500", "151820.507500", "151820.967500", "151821.427500", "151821.887500", "151822.347500", "151822.807500", "151823.267500", "151823.727500", "151824.187500", "151824.647500", "151825.107500", "151825.567500", "151826.027500", "151826.487500", "151826.947500", "151827.407500", "151827.867500", "151828.327500", "151828.787500", "151829.247500", "151829.707500", "151830.167500", "151830.627500", "151831.087500", "151831.547500", "151832.007500", "151832.467500", "151832.927500", "151833.387500", "151833.847500", "151834.307500", "151834.767500", "151835.227500", "151835.687500", "151836.147500", "151836.607500", "151837.067500", "151837.527500", "151837.987500", "151838.447500", "151838.907500", "151839.367500", "151839.827500", "151840.287500", "151840.747500", "151841.207500", "151841.667500", "151842.127500", "151842.587500", "151843.047500", "151843.507500", "151843.967500", "151844.427500", "151844.887500", "151845.347500", "151845.807500", "151846.267500", "151846.727500", "151847.187500", "151847.647500", "151848.107500", "151848.567500", "151849.027500", "151849.487500", "151849.947500", "151850.407500", "151850.867500", "151851.327500", "151851.787500", "151852.247500", "151852.707500", "151853.167500", "151853.627500", "151854.087500", "151854.547500", "151855.007500", "151855.467500", "151855.927500", "151856.387500", "151856.847500", "151857.307500", "151857.767500", "151858.227500", "151858.687500", "151859.147500", "151859.607500", "151900.067500", "151900.527500", "151900.987500", "151901.447500", "151901.907500", "151902.367500", "151902.827500", "151903.287500", "151903.747500", "151904.207500", "151904.667500", "151905.127500", "151905.587500", "151906.047500", "151906.507500", "151906.967500", "151907.427500", "151907.887500", "151908.347500", "151908.807500", "151909.267500", "151909.727500", "151910.187500", "151910.647500", "151911.107500", "151911.567500", "151912.027500", "151912.487500", "151912.947500", "151913.407500", "151913.867500", "151914.327500", "151914.787500", "151915.247500", "151915.707500", "151916.167500", "151916.627500", "151917.087500", "151917.547500", "151918.007500", "151918.467500", "151918.927500", "151919.387500", "151919.847500", "151920.307500", "151920.767500", "151921.227500", "151921.687500", "151922.147500", "151922.607500", "151923.067500", "151923.527500", "151923.987500", "151924.447500", "151924.907500", "151925.367500", "151925.827500", "151926.287500", "151926.747500", "151927.207500", "151927.667500", "151928.127500", "151928.587500", "151929.047500", "151929.507500", "151929.967500", "151930.427500", "151930.887500", "151931.347500", "151931.807500", "151932.267500", "151932.727500", "151933.187500", "151933.647500", "151934.107500", "151934.567500", "151935.027500", "151935.487500", "151935.947500", "151936.407500", "151936.867500", "151937.327500", "151937.787500", "151938.247500", "151938.707500", "151939.167500", "151939.627500", "151940.087500", "151940.547500", "151941.007500", "151941.467500", "151941.927500", "151942.387500", "151942.847500", "151943.307500", "151943.767500", "151944.227500", "151944.687500", "151945.147500", "151945.607500", "151946.067500", "151946.527500", "151946.987500", "151947.447500", "151947.907500", "151948.367500", "151948.827500", "151949.287500", "151949.747500", "151950.207500", "151950.667500", "151951.127500", "151951.587500", "151952.047500", "151952.507500", "151952.967500", "151953.427500", "151953.887500", "151954.347500", "151954.807500", "151955.267500", "151955.727500", "151956.187500", "151956.647500", "151957.107500", "151957.567500", "151958.027500", "151958.487500", "151958.947500", "151959.407500", "151959.867500", "152000.327500", "152000.787500", "152001.247500", "152001.707500", "152002.167500", "152002.627500", "152003.087500", "152003.547500", "152004.007500", "152004.467500", "152004.927500", "152005.387500", "152005.847500", "152006.307500", "152006.767500", "152007.227500", "152007.687500", "152008.147500", "152008.607500", "152009.067500", "152009.527500", "152009.987500", "152010.447500", "152010.907500", "152011.367500", "152011.827500", "152012.287500", "152012.747500", "152013.207500", "152013.667500", "152014.127500", "152014.587500", "152015.047500", "152015.507500", "152015.967500", "152016.427500", "152016.887500", "152017.347500", "152017.807500", "152018.267500", "152018.727500", "152019.187500", "152019.647500", "152020.107500", "152020.567500", "152021.027500", "152021.487500", "152021.947500", "152022.407500", "152022.867500", "152023.327500", "152023.787500", "152024.247500", "152024.707500", "152025.167500", "152025.627500", "152026.087500", "152026.547500", "152027.007500", "152027.467500", "152027.927500", "152028.387500", "152028.847500", "152029.307500", "152029.767500", "152030.227500", "152030.687500", "152031.147500", "152031.607500", "152032.067500", "152032.527500", "152032.987500", "152033.447500", "152033.907500", "152034.367500", "152034.827500", "152035.287500", "152035.747500", "152036.207500", "152036.667500", "152037.127500", "152037.587500", "152038.047500", "152038.507500", "152038.967500", "152039.427500", "152039.887500", "152040.347500", "152040.807500", "152041.267500", "152041.727500", "152042.187500", "152042.647500", "152043.107500", "152043.567500", "152044.027500", "152044.487500", "152044.947500", "152045.407500", "152045.867500", "152046.327500", "152046.787500", "152047.247500", "152047.707500", "152048.167500", "152048.627500", "152049.087500", "152049.547500", "152050.007500", "152050.467500", "152050.927500", "152051.387500", "152051.847500", "152052.307500", "152052.767500", "152053.227500", "152053.687500", "152054.147500", "152054.607500", "152055.067500", "152055.527500", "152055.987500", "152056.447500", "152056.907500", "152057.367500", "152057.827500", "152058.287500", "152058.747500", "152059.207500", "152059.667500", "152100.127500", "152100.587500", "152101.047500", "152101.507500", "152101.967500", "152102.427500", "152102.887500", "152103.347500", "152103.807500", "152104.267500", "152104.727500", "152105.187500", "152105.647500", "152106.107500", "152106.567500", "152107.027500", "152107.487500", "152107.947500", "152108.407500", "152108.867500", "152109.327500", "152109.787500", "152110.247500", "152110.707500", "152111.167500", "152111.627500", "152112.087500", "152112.547500", "152113.007500", "152113.467500", "152113.927500", "152114.387500", "152114.847500", "152115.307500", "152115.767500", "152116.227500", "152116.687500", "152117.147500", "152117.607500", "152118.067500", "152118.527500", "152118.987500", "152119.447500", "152119.907500", "152120.367500", "152120.827500", "152121.287500", "152121.747500", "152122.207500", "152122.667500", "152123.127500", "152123.587500", "152124.047500", "152124.507500", "152124.967500"],
