{
  "AcquisitionMatrixPE": 82,
  "AcquisitionNumber": 1,
  "AcquisitionTime": "14:57:50.925000",
  "BandwidthPerPixelPhaseEncode": 24.888,
  "BaseResolution": 82,
  "BodyPartExamined": "BRAIN",
  "ConsistencyInfo": "N4_VE11E_LATEST_20181129",
  "ConversionSoftware": "dcm2niix",
  "ConversionSoftwareVersion": "v1.0.20201102",
  "DerivedVendorReportedEchoSpacing": 0.00049,
  "DeviceSerialNumber": "66112",
  "DwellTime": 2e-06,
  "EchoTime": 0.0272,
  "EchoTrainLength": 82,
  "EffectiveEchoSpacing": 0.00049,
  "FlipAngle": 44,
  "ImageComments": "Unaliased MB8/PE3",
  "ImageOrientationPatientDICOM": [0.99878, -0.0442532, -0.0219296, 0.0436076, 0.998625, -0.0290892],
  "ImageType": [
    "ORIGINAL",
    "PRIMARY",
    "M",
    "MB",
    "ND",
    "NORM",
    "MOSAIC"
],
  "ImagingFrequency": 123.259,
  "InPlanePhaseEncodingDirectionDICOM": "COL",
  "InstitutionAddress": "Maynard 3,Hanover,NH,US,03755",
  "InstitutionName": "Dartmouth College - PBS",
  "InstitutionalDepartmentName": "Department",
  "MRAcquisitionType": "2D",
  "MagneticFieldStrength": 3,
  "Manufacturer": "Siemens",
  "ManufacturersModelName": "Prisma",
  "Modality": "MR",
  "MultibandAccelerationFactor": 8,
  "PartialFourier": 1,
  "PatientPosition": "HFS",
  "PercentPhaseFOV": 100,
  "PercentSampling": 100,
  "PhaseEncodingDirection": "j-",
  "PhaseEncodingSteps": 82,
  "PhaseResolution": 1,
  "PixelBandwidth": 3050,
  "ProcedureStepDescription": "Wager_Wager^1076_spacetop",
  "ProtocolName": "func_run-02_task-faces_acq-ap-mb8",
  "PulseSequenceDetails": "%CustomerSeq%\\cmrr_mbep2d_bold",
  "ReceiveCoilActiveElements": "HEA;HEP",
  "ReceiveCoilName": "Head_32",
  "ReconMatrixPE": 82,
  "RepetitionTime": 0.46,
  "SAR": 0.100372,
  "ScanOptions": "FS",
  "ScanningSequence": "EP",
  "SequenceName": "epfid2d1_82",
  "SequenceVariant": "SK\\SS",
  "SeriesDescription": "func_run-02_task-faces_acq-ap-mb8",
  "SeriesNumber": 18,
  "ShimSetting": [4212, -7760, -7242, 339, -143, -174, -47, 88],
  "SliceThickness": 2.7,
  "SliceTiming": [0, 0.2525, 0.0625, 0.315, 0.125, 0.3775, 0.19, 0, 0.2525, 0.0625, 0.315, 0.125, 0.3775, 0.19, 0, 0.2525, 0.0625, 0.315, 0.125, 0.3775, 0.19, 0, 0.2525, 0.0625, 0.315, 0.125, 0.3775, 0.19, 0, 0.2525, 0.0625, 0.315, 0.125, 0.3775, 0.19, 0, 0.2525, 0.0625, 0.315, 0.125, 0.3775, 0.19, 0, 0.2525, 0.0625, 0.315, 0.125, 0.3775, 0.19, 0, 0.2525, 0.0625, 0.315, 0.125, 0.3775, 0.19],
  "SoftwareVersions": "syngo MR E11",
  "SpacingBetweenSlices": 2.7,
  "StationName": "AWP66112",
  "TaskName": "faces",
  "TotalReadoutTime": 0.03969,
  "TxRefAmp": 252.419,
  "WipMemBlock": "0f2fa890-dd90-4060-b75d-8d2e321089fe||Sequence: R016 ve11e/master r/434b28f1; Aug  7 2019 18:53:46 by eja",
  "dcmmeta_affine": [
    [-2.679652690887451, 0.11699603497982025, -0.06260424107313156, 106.34266662597656],
    [0.11872796714305878, 2.6792383193969727, -0.07586295902729034, -105.38307189941406],
    [-0.05883555859327316, 0.07804416865110397, 2.6982078552246094, -77.63072967529297],
    [0.0, 0.0, 0.0, 1.0]
],
  "dcmmeta_reorient_transform": [
    [0.0, -1.0, 0.0, 81.0],
    [1.0, 0.0, 0.0, 0.0],
    [0.0, 0.0, 1.0, 0.0],
    [0.0, 0.0, 0.0, 1.0]
],
  "dcmmeta_shape": [82, 82, 56, 914],
  "dcmmeta_slice_dim": 2,
  "dcmmeta_version": 0.6,
  "global": {
    "const": {
      "AccessionNumber": "A004399",
      "AcquisitionMatrix": [82, 0, 0, 82],
      "AngioFlag": "N",
      "BitsAllocated": 16,
      "BitsStored": 16,
      "BodyPartExamined": "BRAIN",
      "Columns": 656,
      "EchoNumbers": 1,
      "EchoTime": 27.2,
      "EchoTrainLength": 82,
      "FlipAngle": 44.0,
      "HighBit": 15,
      "ImageOrientationPatient": [0.99877963059979, -0.0442531512677, -0.0219296170013, 0.04360761254634, 0.99862515249101, -0.0290891894063],
      "ImagePositionPatient": [-918.45753960362, -846.50168560442, -32.02466816304],
      "ImageType": [
        "ORIGINAL",
        "PRIMARY",
        "M",
        "MB",
        "ND",
        "NORM",
        "MOSAIC"
],
      "ImagedNucleus": "1H",
      "ImagingFrequency": 123.259104,
      "InPlanePhaseEncodingDirection": "COL",
      "MRAcquisitionType": "2D",
      "MagneticFieldStrength": 3.0,
      "Manufacturer": "SIEMENS",
      "ManufacturerModelName": "Prisma",
      "Modality": "MR",
      "NumberOfAverages": 1.0,
      "NumberOfPhaseEncodingSteps": 82,
      "PercentPhaseFieldOfView": 100.0,
      "PercentSampling": 100.0,
      "PerformedProcedureStepStartTime": "140230.416000",
      "PhotometricInterpretation": "MONOCHROME2",
      "PixelBandwidth": 3050.0,
      "PixelRepresentation": 0,
      "PixelSpacing": [2.6829268932343, 2.6829268932343],
      "ProtocolName": "func_run-02_task-faces_acq-ap-mb8",
      "RepetitionTime": 460.0,
      "Rows": 656,
      "SAR": 0.10037202051427,
      "SamplesPerPixel": 1,
      "ScanOptions": "FS",
      "ScanningSequence": "EP",
      "SequenceName": "epfid2d1_82",
      "SequenceVariant": [
        "SK",
        "SS"
],
      "SeriesDescription": "func_run-02_task-faces_acq-ap-mb8",
      "SeriesNumber": 18,
      "SeriesTime": "145803.966000",
      "SliceLocation": -77.083951007916,
      "SliceThickness": 2.7000000476837,
      "SmallestImagePixelValue": 0,
      "SoftwareVersions": "syngo MR E11",
      "SpacingBetweenSlices": 2.6999999509274,
      "SpecificCharacterSet": "ISO_IR 100",
      "StudyID": "3",
      "StudyTime": "140230.380000",
      "TransmitCoilName": "Body",
      "VariableFlipAngleFlag": "N",
      "WindowCenterWidthExplanation": "Algo1"
    },
    "slices": {}
  },
  "time": {
    "samples": {
      "AcquisitionNumber": [1, 2, 3, 4, 5, 6, 7, 8, 9, 10, 11, 12, 13, 14, 15, 16, 17, 18, 19, 20, 21, 22, 23, 24, 25, 26, 27, 28, 29, 30, 31, 32, 33, 34, 35, 36, 37, 38, 39, 40, 41, 42, 43, 44, 45, 46, 47, 48, 49, 50, 51, 52, 53, 54, 55, 56, 57, 58, 59, 60, 61, 62, 63, 64, 65, 66, 67, 68, 69, 70, 71, 72, 73, 74, 75, 76, 77, 78, 79, 80, 81, 82, 83, 84, 85, 86, 87, 88, 89, 90, 91, 92, 93, 94, 95, 96, 97, 98, 99, 100, 101, 102, 103, 104, 105, 106, 107, 108, 109, 110, 111, 112, 113, 114, 115, 116, 117, 118, 119, 120, 121, 122, 123, 124, 125, 126, 127, 128, 129, 130, 131, 132, 133, 134, 135, 136, 137, 138, 139, 140, 141, 142, 143, 144, 145, 146, 147, 148, 149, 150, 151, 152, 153, 154, 155, 156, 157, 158, 159, 160, 161, 162, 163, 164, 165, 166, 167, 168, 169, 170, 171, 172, 173, 174, 175, 176, 177, 178, 179, 180, 181, 182, 183, 184, 185, 186, 187, 188, 189, 190, 191, 192, 193, 194, 195, 196, 197, 198, 199, 200, 201, 202, 203, 204, 205, 206, 207, 208, 209, 210, 211, 212, 213, 214, 215, 216, 217, 218, 219, 220, 221, 222, 223, 224, 225, 226, 227, 228, 229, 230, 231, 232, 233, 234, 235, 236, 237, 238, 239, 240, 241, 242, 243, 244, 245, 246, 247, 248, 249, 250, 251, 252, 253, 254, 255, 256, 257, 258, 259, 260, 261, 262, 263, 264, 265, 266, 267, 268, 269, 270, 271, 272, 273, 274, 275, 276, 277, 278, 279, 280, 281, 282, 283, 284, 285, 286, 287, 288, 289, 290, 291, 292, 293, 294, 295, 296, 297, 298, 299, 300, 301, 302, 303, 304, 305, 306, 307, 308, 309, 310, 311, 312, 313, 314, 315, 316, 317, 318, 319, 320, 321, 322, 323, 324, 325, 326, 327, 328, 329, 330, 331, 332, 333, 334, 335, 336, 337, 338, 339, 340, 341, 342, 343, 344, 345, 346, 347, 348, 349, 350, 351, 352, 353, 354, 355, 356, 357, 358, 359, 360, 361, 362, 363, 364, 365, 366, 367, 368, 369, 370, 371, 372, 373, 374, 375, 376, 377, 378, 379, 380, 381, 382, 383, 384, 385, 386, 387, 388, 389, 390, 391, 392, 393, 394, 395, 396, 397, 398, 399, 400, 401, 402, 403, 404, 405, 406, 407, 408, 409, 410, 411, 412, 413, 414, 415, 416, 417, 418, 419, 420, 421, 422, 423, 424, 425, 426, 427, 428, 429, 430, 431, 432, 433, 434, 435, 436, 437, 438, 439, 440, 441, 442, 443, 444, 445, 446, 447, 448, 449, 450, 451, 452, 453, 454, 455, 456, 457, 458, 459, 460, 461, 462, 463, 464, 465, 466, 467, 468, 469, 470, 471, 472, 473, 474, 475, 476, 477, 478, 479, 480, 481, 482, 483, 484, 485, 486, 487, 488, 489, 490, 491, 492, 493, 494, 495, 496, 497, 498, 499, 500, 501, 502, 503, 504, 505, 506, 507, 508, 509, 510, 511, 512, 513, 514, 515, 516, 517, 518, 519, 520, 521, 522, 523, 524, 525, 526, 527, 528, 529, 530, 531, 532, 533, 534, 535, 536, 537, 538, 539, 540, 541, 542, 543, 544, 545, 546, 547, 548, 549, 550, 551, 552, 553, 554, 555, 556, 557, 558, 559, 560, 561, 562, 563, 564, 565, 566, 567, 568, 569, 570, 571, 572, 573, 574, 575, 576, 577, 578, 579, 580, 581, 582, 583, 584, 585, 586, 587, 588, 589, 590, 591, 592, 593, 594, 595, 596, 597, 598, 599, 600, 601, 602, 603, 604, 605, 606, 607, 608, 609, 610, 611, 612, 613, 614, 615, 616, 617, 618, 619, 620, 621, 622, 623, 624, 625, 626, 627, 628, 629, 630, 631, 632, 633, 634, 635, 636, 637, 638, 639, 640, 641, 642, 643, 644, 645, 646, 647, 648, 649, 650, 651, 652, 653, 654, 655, 656, 657, 658, 659, 660, 661, 662, 663, 664, 665, 666, 667, 668, 669, 670, 671, 672, 673, 674, 675, 676, 677, 678, 679, 680, 681, 682, 683, 684, 685, 686, 687, 688, 689, 690, 691, 692, 693, 694, 695, 696, 697, 698, 699, 700, 701, 702, 703, 704, 705, 706, 707, 708, 709, 710, 711, 712, 713, 714, 715, 716, 717, 718, 719, 720, 721, 722, 723, 724, 725, 726, 727, 728, 729, 730, 731, 732, 733, 734, 735, 736, 737, 738, 739, 740, 741, 742, 743, 744, 745, 746, 747, 748, 749, 750, 751, 752, 753, 754, 755, 756, 757, 758, 759, 760, 761, 762, 763, 764, 765, 766, 767, 768, 769, 770, 771, 772, 773, 774, 775, 776, 777, 778, 779, 780, 781, 782, 783, 784, 785, 786, 787, 788, 789, 790, 791, 792, 793, 794, 795, 796, 797, 798, 799, 800, 801, 802, 803, 804, 805, 806, 807, 808, 809, 810, 811, 812, 813, 814, 815, 816, 817, 818, 819, 820, 821, 822, 823, 824, 825, 826, 827, 828, 829, 830, 831, 832, 833, 834, 835, 836, 837, 838, 839, 840, 841, 842, 843, 844, 845, 846, 847, 848, 849, 850, 851, 852, 853, 854, 855, 856, 857, 858, 859, 860, 861, 862, 863, 864, 865, 866, 867, 868, 869, 870, 871, 872, 873, 874, 875, 876, 877, 878, 879, 880, 881, 882, 883, 884, 885, 886, 887, 888, 889, 890, 891, 892, 893, 894, 895, 896, 897, 898, 899, 900, 901, 902, 903, 904, 905, 906, 907, 908, 909, 910, 911, 912, 913, 914],
      "AcquisitionTime": ["145750.925000", "145751.385000", "145751.845000", "145752.305000", "145752.765000", "145753.225000", "145753.685000", "145754.145000", "145754.605000", "145755.065000", "145755.525000", "145755.985000", "145756.445000", "145756.905000", "145757.365000", "145757.825000", "145758.285000", "145758.745000", "145759.205000", "145759.665000", "145800.125000", "145800.585000", "145801.045000", "145801.505000", "145801.965000", "145802.425000", "145802.885000", "145803.345000", "145803.805000", "145804.265000", "145804.725000", "145805.185000", "145805.645000", "145806.105000", "145806.565000", "145807.025000", "145807.485000", "145807.945000", "145808.405000", "145808.865000", "145809.325000", "145809.785000", "145810.245000", "145810.705000", "145811.165000", "145811.625000", "145812.085000", "145812.545000", "145813.005000", "145813.465000", "145813.925000", "145814.385000", "145814.845000", "145815.305000", "145815.765000", "145816.225000", "145816.685000", "145817.145000", "145817.605000", "145818.065000", "145818.525000", "145818.985000", "145819.445000", "145819.905000", "145820.365000", "145820.825000", "145821.285000", "145821.745000", "145822.205000", "145822.665000", "145823.125000", "145823.585000", "145824.045000", "145824.505000", "145824.965000", "145825.425000", "145825.885000", "145826.345000", "145826.805000", "145827.265000", "145827.725000", "145828.185000", "145828.645000", "145829.105000", "145829.565000", "145830.025000", "145830.485000", "145830.945000", "145831.405000", "145831.865000", "145832.325000", "145832.785000", "145833.245000", "145833.705000", "145834.165000", "145834.625000", "145835.085000", "145835.545000", "145836.005000", "145836.465000", "145836.925000", "145837.385000", "145837.845000", "145838.305000", "145838.765000", "145839.225000", "145839.685000", "145840.145000", "145840.605000", "145841.065000", "145841.525000", "145841.985000", "145842.445000", "145842.905000", "145843.365000", "145843.825000", "145844.285000", "145844.745000", "145845.205000", "145845.665000", "145846.125000", "145846.585000", "145847.045000", "145847.505000", "145847.965000", "145848.425000", "145848.885000", "145849.345000", "145849.805000", "145850.265000", "145850.725000", "145851.185000", "145851.645000", "145852.105000", "145852.565000", "145853.025000", "145853.485000", "145853.945000", "145854.405000", "145854.865000", "145855.325000", "145855.785000", "145856.245000", "145856.705000", "145857.165000", "145857.625000", "145858.085000", "145858.545000", "145859.005000", "145859.465000", "145859.925000", "145900.385000", "145900.845000", "145901.305000", "145901.765000", "145902.225000", "145902.685000", "145903.145000", "145903.605000", "145904.065000", "145904.525000", "145904.985000", "145905.445000", "145905.905000", "145906.365000", "145906.825000", "145907.285000", "145907.745000", "145908.205000", "145908.665000", "145909.125000", "145909.585000", "145910.045000", "145910.505000", "145910.965000", "145911.425000", "145911.885000", "145912.345000", "145912.805000", "145913.265000", "145913.725000", "145914.185000", "145914.645000", "145915.105000", "145915.565000", "145916.025000", "145916.485000", "145916.945000", "145917.405000", "145917.865000", "145918.325000", "145918.785000", "145919.245000", "145919.705000", "145920.165000", "145920.625000", "145921.085000", "145921.545000", "145922.005000", "145922.465000", "145922.925000", "145923.385000", "145923.845000", "145924.305000", "145924.765000", "145925.225000", "145925.685000", "145926.145000", "145926.605000", "145927.065000", "145927.525000", "145927.985000", "145928.445000", "145928.905000", "145929.365000", "145929.825000", "145930.285000", "145930.745000", "145931.205000", "145931.665000", "145932.125000", "145932.585000", "145933.045000", "145933.505000", "145933.965000", "145934.425000", "145934.885000", "145935.345000", "145935.805000", "145936.265000", "145936.725000", "145937.185000", "145937.645000", "145938.105000", "145938.565000", "145939.025000", "145939.485000", "145939.945000", "145940.405000", "145940.865000", "145941.325000", "145941.785000", "145942.245000", "145942.705000", "145943.165000", "145943.625000", "145944.085000", "145944.545000", "145945.005000", "145945.465000", "145945.925000", "145946.385000", "145946.845000", "145947.305000", "145947.765000", "145948.225000", "145948.685000", "145949.145000", "145949.605000", "145950.065000", "145950.525000", "145950.985000", "145951.445000", "145951.905000", "145952.365000", "145952.825000", "145953.285000", "145953.745000", "145954.205000", "145954.665000", "145955.125000", "145955.585000", "145956.045000", "145956.505000", "145956.965000", "145957.425000", "145957.885000", "145958.345000", "145958.805000", "145959.265000", "145959.725000", "150000.185000", "150000.645000", "150001.105000", "150001.565000", "150002.025000", "150002.485000", "150002.945000", "150003.405000", "150003.865000", "150004.325000", "150004.785000", "150005.245000", "150005.705000", "150006.165000", "150006.625000", "150007.085000", "150007.545000", "150008.005000", "150008.465000", "150008.925000", "150009.385000", "150009.845000", "150010.305000", "150010.765000", "150011.225000", "150011.685000", "150012.145000", "150012.605000", "150013.065000", "150013.525000", "150013.985000", "150014.445000", "150014.905000", "150015.365000", "150015.825000", "150016.285000", "150016.745000", "150017.205000", "150017.665000", "150018.125000", "150018.585000", "150019.045000", "150019.505000", "150019.965000", "150020.425000", "150020.885000", "150021.345000", "150021.805000", "150022.265000", "150022.725000", "150023.185000", "150023.645000", "150024.105000", "150024.565000", "150025.025000", "150025.485000", "150025.945000", "150026.405000", "150026.865000", "150027.325000", "150027.785000", "150028.245000", "150028.705000", "150029.165000", "150029.625000", "150030.085000", "150030.545000", "150031.005000", "150031.465000", "150031.925000", "150032.385000", "150032.845000", "150033.305000", "150033.765000", "150034.225000", "150034.685000", "150035.145000", "150035.605000", "150036.065000", "150036.525000", "150036.985000", "150037.445000", "150037.905000", "150038.365000", "150038.825000", "150039.285000", "150039.745000", "150040.205000", "150040.665000", "150041.125000", "150041.585000", "150042.045000", "150042.505000", "150042.965000", "150043.425000", "150043.885000", "150044.345000", "150044.805000", "150045.265000", "150045.725000", "150046.185000", "150046.645000", "150047.105000", "150047.565000", "150048.025000", "150048.485000", "150048.945000", "150049.405000", "150049.865000", "150050.325000", "150050.785000", "150051.245000", "150051.705000", "150052.165000", "150052.625000", "150053.085000", "150053.545000", "150054.005000", "150054.465000", "150054.925000", "150055.385000", "150055.845000", "150056.305000", "150056.765000", "150057.225000", "150057.685000", "150058.145000", "150058.605000", "150059.065000", "150059.525000", "150059.985000", "150100.445000", "150100.905000", "150101.365000", "150101.825000", "150102.285000", "150102.745000", "150103.205000", "150103.665000", "150104.125000", "150104.585000", "150105.045000", "150105.505000", "150105.965000", "150106.425000", "150106.885000", "150107.345000", "150107.805000", "150108.265000", "150108.725000", "150109.185000", "150109.645000", "150110.105000", "150110.565000", "150111.025000", "150111.485000", "150111.945000", "150112.405000", "150112.865000", "150113.325000", "150113.785000", "150114.245000", "150114.705000", "150115.165000", "150115.625000", "150116.085000", "150116.545000", "150117.005000", "150117.465000", "150117.925000", "150118.385000", "150118.845000", "150119.305000", "150119.765000", "150120.225000", "150120.685000", "150121.145000", "150121.605000", "150122.065000", "150122.525000", "150122.985000", "150123.445000", "150123.905000", "150124.365000", "150124.825000", "150125.285000", "150125.745000", "150126.205000", "150126.665000", "150127.125000", "150127.585000", "150128.045000", "150128.505000", "150128.965000", "150129.425000", "150129.885000", "150130.345000", "150130.805000", "150131.265000", "150131.725000", "150132.185000", "150132.645000", "150133.105000", "150133.565000", "150134.025000", "150134.485000", "150134.945000", "150135.405000", "150135.865000", "150136.325000", "150136.785000", "150137.245000", "150137.705000", "150138.165000", "150138.625000", "150139.085000", "150139.545000", "150140.005000", "150140.465000", "150140.925000", "150141.385000", "150141.845000", "150142.305000", "150142.765000", "150143.225000", "150143.685000", "150144.145000", "150144.605000", "150145.065000", "150145.525000", "150145.985000", "150146.445000", "150146.905000", "150147.365000", "150147.825000", "150148.285000", "150148.745000", "150149.205000", "150149.665000", "150150.125000", "150150.585000", "150151.045000", "150151.505000", "150151.965000", "150152.425000", "150152.885000", "150153.345000", "150153.805000", "150154.265000", "150154.725000", "150155.185000", "150155.645000", "150156.105000", "150156.565000", "150157.025000", "150157.485000", "150157.945000", "150158.405000", "150158.865000", "150159.325000", "150159.785000", "150200.245000", "150200.705000", "150201.165000", "150201.625000", "150202.085000", "150202.545000", "150203.005000", "150203.465000", "150203.925000", "150204.385000", "150204.845000", "150205.305000", "150205.765000", "150206.225000", "150206.685000", "150207.145000", "150207.605000", "150208.065000", "150208.525000", "150208.985000", "150209.445000", "150209.905000", "150210.365000", "150210.825000", "150211.285000", "150211.745000", "150212.205000", "150212.665000", "150213.125000", "150213.585000", "150214.045000", "150214.505000", "150214.965000", "150215.425000", "150215.885000", "150216.345000", "150216.805000", "150217.265000", "150217.725000", "150218.185000", "150218.645000", "150219.105000", "150219.565000", "150220.025000", "150220.485000", "150220.945000", "150221.405000", "150221.865000", "150222.325000", "150222.785000", "150223.245000", "150223.705000", "150224.165000", "150224.625000", "150225.085000", "150225.545000", "150226.005000", "150226.465000", "150226.925000", "150227.385000", "150227.845000", "150228.305000", "150228.765000", "150229.225000", "150229.685000", "150230.145000", "150230.605000", "150231.065000", "150231.525000", "150231.985000", "150232.445000", "150232.905000", "150233.365000", "150233.825000", "150234.285000", "150234.745000", "150235.205000", "150235.665000", "150236.125000", "150236.585000", "150237.045000", "150237.505000", "150237.965000", "150238.425000", "150238.885000", "150239.345000", "150239.805000", "150240.265000", "150240.725000", "150241.185000", "150241.645000", "150242.105000", "150242.565000", "150243.025000", "150243.485000", "150243.945000", "150244.405000", "150244.865000", "150245.325000", "150245.785000", "150246.245000", "150246.705000", "150247.165000", "150247.625000", "150248.085000", "150248.545000", "150249.005000", "150249.465000", "150249.925000", "150250.385000", "150250.845000", "150251.305000", "150251.765000", "150252.225000", "150252.685000", "150253.145000", "150253.605000", "150254.065000", "150254.525000", "150254.985000", "150255.445000", "150255.905000", "150256.365000", "150256.825000", "150257.285000", "150257.745000", "150258.205000", "150258.665000", "150259.125000", "150259.585000", "150300.045000", "150300.505000", "150300.965000", "150301.425000", "150301.885000", "150302.345000", "150302.805000", "150303.265000", "150303.725000", "150304.185000", "150304.645000", "150305.105000", "150305.565000", "150306.025000", "150306.485000", "150306.945000", "150307.405000", "150307.865000", "150308.325000", "150308.785000", "150309.245000", "150309.705000", "150310.165000", "150310.625000", "150311.085000", "150311.545000", "150312.005000", "150312.465000", "150312.925000", "150313.385000", "150313.845000", "150314.305000", "150314.765000", "150315.225000", "150315.685000", "150316.145000", "150316.605000", "150317.065000", "150317.525000", "150317.985000", "150318.445000", "150318.905000", "150319.365000", "150319.825000", "150320.285000", "150320.745000", "150321.205000", "150321.665000", "150322.125000", "150322.585000", "150323.045000", "150323.505000", "150323.965000", "150324.425000", "150324.885000", "150325.345000", "150325.805000", "150326.265000", "150326.725000", "150327.185000", "150327.645000", "150328.105000", "150328.565000", "150329.025000", "150329.485000", "150329.945000", "150330.405000", "150330.865000", "150331.325000", "150331.785000", "150332.245000", "150332.705000", "150333.165000", "150333.625000", "150334.085000", "150334.545000", "150335.005000", "150335.465000", "150335.925000", "150336.385000", "150336.845000", "150337.305000", "150337.765000", "150338.225000", "150338.685000", "150339.145000", "150339.605000", "150340.065000", "150340.525000", "150340.985000", "150341.445000", "150341.905000", "150342.365000", "150342.825000", "150343.285000", "150343.745000", "150344.205000", "150344.665000", "150345.125000", "150345.585000", "150346.045000", "150346.505000", "150346.965000", "150347.425000", "150347.885000", "150348.345000", "150348.805000", "150349.265000", "150349.725000", "150350.185000", "150350.645000", "150351.105000", "150351.565000", "150352.025000", "150352.485000", "150352.945000", "150353.405000", "150353.865000", "150354.325000", "150354.785000", "150355.245000", "150355.705000", "150356.165000", "150356.625000", "150357.085000", "150357.545000", "150358.005000", "150358.465000", "150358.925000", "150359.385000", "150359.845000", "150400.305000", "150400.765000", "150401.225000", "150401.685000", "150402.145000", "150402.605000", "150403.065000", "150403.525000", "150403.985000", "150404.445000", "150404.905000", "150405.365000", "150405.825000", "150406.285000", "150406.745000", "150407.205000", "150407.665000", "150408.125000", "150408.585000", "150409.045000", "150409.505000", "150409.965000", "150410.425000", "150410.885000", "150411.345000", "150411.805000", "150412.265000", "150412.725000", "150413.185000", "150413.645000", "150414.105000", "150414.565000", "150415.025000", "150415.485000", "150415.945000", "150416.405000", "150416.865000", "150417.325000", "150417.785000", "150418.245000", "150418.705000", "150419.165000", "150419.625000", "150420.085000", "150420.545000", "150421.005000", "150421.465000", "150421.925000", "150422.385000", "150422.845000", "150423.305000", "150423.765000", "150424.225000", "150424.685000", "150425.145000", "150425.605000", "150426.065000", "150426.525000", "150426.985000", "150427.445000", "150427.905000", "150428.365000", "150428.825000", "150429.285000", "150429.745000", "150430.205000", "150430.665000", "150431.125000", "150431.585000", "150432.045000", "150432.505000", "150432.965000", "150433.425000", "150433.885000", "150434.345000", "150434.805000", "150435.265000", "150435.725000", "150436.185000", "150436.645000", "150437.105000", "150437.565000", "150438.025000", "150438.485000", "150438.945000", "150439.405000", "150439.865000", "150440.325000", "150440.785000", "150441.245000", "150441.705000", "150442.165000", "150442.625000", "150443.085000", "150443.545000", "150444.005000", "150444.465000", "150444.925000", "150445.385000", "150445.845000", "150446.305000", "150446.765000", "150447.225000", "150447.685000", "150448.145000", "150448.605000", "150449.065000", "150449.525000", "150449.985000", "150450.445000", "150450.905000"],
