{
  "AcquisitionMatrixPE": 82,
  "AcquisitionNumber": 1,
  "AcquisitionTime": "14:13:4.205000",
  "BandwidthPerPixelPhaseEncode": 24.888,
  "BaseResolution": 82,
  "BodyPartExamined": "BRAIN",
  "ConsistencyInfo": "N4_VE11E_LATEST_20181129",
  "ConversionSoftware": "dcm2niix",
  "ConversionSoftwareVersion": "v1.0.20201102",
  "DerivedVendorReportedEchoSpacing": 0.00049,
  "DeviceSerialNumber": "66112",
  "DwellTime": 2e-06,
  "EchoTime": 0.0272,
  "EchoTrainLength": 82,
  "EffectiveEchoSpacing": 0.00049,
  "FlipAngle": 44,
  "ImageComments": "Unaliased MB8/PE3",
  "ImageOrientationPatientDICOM": [0.99878, -0.0442532, -0.0219296, 0.0436076, 0.998625, -0.0290892],
  "ImageType": [
    "ORIGINAL",
    "PRIMARY",
    "M",
    "MB",
    "ND",
    "NORM",
    "MOSAIC"
],
  "ImagingFrequency": 123.259,
  "InPlanePhaseEncodingDirectionDICOM": "COL",
  "InstitutionAddress": "Maynard 3,Hanover,NH,US,03755",
  "InstitutionName": "Dartmouth College - PBS",
  "InstitutionalDepartmentName": "Department",
  "MRAcquisitionType": "2D",
  "MagneticFieldStrength": 3,
  "Manufacturer": "Siemens",
  "ManufacturersModelName": "Prisma",
  "Modality": "MR",
  "MultibandAccelerationFactor": 8,
  "PartialFourier": 1,
  "PatientPosition": "HFS",
  "PercentPhaseFOV": 100,
  "PercentSampling": 100,
  "PhaseEncodingDirection": "j-",
  "PhaseEncodingSteps": 82,
  "PhaseResolution": 1,
  "PixelBandwidth": 3050,
  "ProcedureStepDescription": "Wager_Wager^1076_spacetop",
  "ProtocolName": "func_run-01_task-narratives_acq-ap-mb8",
  "PulseSequenceDetails": "%CustomerSeq%\\cmrr_mbep2d_bold",
  "ReceiveCoilActiveElements": "HEA;HEP",
  "ReceiveCoilName": "Head_32",
  "ReconMatrixPE": 82,
  "RepetitionTime": 0.46,
  "SAR": 0.100405,
  "ScanOptions": "FS",
  "ScanningSequence": "EP",
  "SequenceName": "epfid2d1_82",
  "SequenceVariant": "SK\\SS",
  "SeriesDescription": "func_run-01_task-narratives_acq-ap-mb8",
  "SeriesNumber": 8,
  "ShimSetting": [4212, -7760, -7242, 339, -143, -174, -47, 88],
  "SliceThickness": 2.7,
  "SliceTiming": [0, 0.25, 0.0625, 0.3125, 0.125, 0.375, 0.1875, 0, 0.25, 0.0625, 0.3125, 0.125, 0.375, 0.1875, 0, 0.25, 0.0625, 0.3125, 0.125, 0.375, 0.1875, 0, 0.25, 0.0625, 0.3125, 0.125, 0.375, 0.1875, 0, 0.25, 0.0625, 0.3125, 0.125, 0.375, 0.1875, 0, 0.25, 0.0625, 0.3125, 0.125, 0.375, 0.1875, 0, 0.25, 0.0625, 0.3125, 0.125, 0.375, 0.1875, 0, 0.25, 0.0625, 0.3125, 0.125, 0.375, 0.1875],
  "SoftwareVersions": "syngo MR E11",
  "SpacingBetweenSlices": 2.7,
  "StationName": "AWP66112",
  "TaskName": "narratives",
  "TotalReadoutTime": 0.03969,
  "TxRefAmp": 252.419,
  "WipMemBlock": "669f0379-660c-4ef5-98c4-e336f5d74de6||Sequence: R016 ve11e/master r/434b28f1; Aug  7 2019 18:53:46 by eja",
  "dcmmeta_affine": [
    [-2.679652690887451, 0.11699603497982025, -0.06260424107313156, 106.34266662597656],
    [0.11872796714305878, 2.6792383193969727, -0.07586295902729034, -105.38307189941406],
    [-0.05883555859327316, 0.07804416865110397, 2.6982078552246094, -77.63072967529297],
    [0.0, 0.0, 0.0, 1.0]
],
  "dcmmeta_reorient_transform": [
    [0.0, -1.0, 0.0, 81.0],
    [1.0, 0.0, 0.0, 0.0],
    [0.0, 0.0, 1.0, 0.0],
    [0.0, 0.0, 0.0, 1.0]
],
  "dcmmeta_shape": [82, 82, 56, 967],
  "dcmmeta_slice_dim": 2,
  "dcmmeta_version": 0.6,
  "global": {
    "const": {
      "AccessionNumber": "A004399",
      "AcquisitionMatrix": [82, 0, 0, 82],
      "AngioFlag": "N",
      "BitsAllocated": 16,
      "BitsStored": 16,
      "BodyPartExamined": "BRAIN",
      "Columns": 656,
      "EchoNumbers": 1,
      "EchoTime": 27.2,
      "EchoTrainLength": 82,
      "FlipAngle": 44.0,
      "HighBit": 15,
      "ImageOrientationPatient": [0.99877963059979, -0.0442531512677, -0.0219296170013, 0.04360761254634, 0.99862515249101, -0.0290891894063],
      "ImagePositionPatient": [-918.45753960362, -846.50168560442, -32.02466816304],
      "ImageType": [
        "ORIGINAL",
        "PRIMARY",
        "M",
        "MB",
        "ND",
        "NORM",
        "MOSAIC"
],
      "ImagedNucleus": "1H",
      "ImagingFrequency": 123.259072,
      "InPlanePhaseEncodingDirection": "COL",
      "MRAcquisitionType": "2D",
      "MagneticFieldStrength": 3.0,
      "Manufacturer": "SIEMENS",
      "ManufacturerModelName": "Prisma",
      "Modality": "MR",
      "NumberOfAverages": 1.0,
      "NumberOfPhaseEncodingSteps": 82,
      "PercentPhaseFieldOfView": 100.0,
      "PercentSampling": 100.0,
      "PerformedProcedureStepStartTime": "140230.416000",
      "PhotometricInterpretation": "MONOCHROME2",
      "PixelBandwidth": 3050.0,
      "PixelRepresentation": 0,
      "PixelSpacing": [2.6829268932343, 2.6829268932343],
      "ProtocolName": "func_run-01_task-narratives_acq-ap-mb8",
      "RepetitionTime": 460.0,
      "Rows": 656,
      "SAR": 0.10040465597477,
      "SamplesPerPixel": 1,
      "ScanOptions": "FS",
      "ScanningSequence": "EP",
      "SequenceName": "epfid2d1_82",
      "SequenceVariant": [
        "SK",
        "SS"
],
      "SeriesDescription": "func_run-01_task-narratives_acq-ap-mb8",
      "SeriesNumber": 8,
      "SeriesTime": "141323.762000",
      "SliceLocation": -77.083951007916,
      "SliceThickness": 2.7000000476837,
      "SmallestImagePixelValue": 0,
      "SoftwareVersions": "syngo MR E11",
      "SpacingBetweenSlices": 2.6999999509274,
      "SpecificCharacterSet": "ISO_IR 100",
      "StudyID": "3",
      "StudyTime": "140230.380000",
      "TransmitCoilName": "Body",
      "VariableFlipAngleFlag": "N",
      "WindowCenterWidthExplanation": "Algo1"
    },
    "slices": {}
  },
  "time": {
    "samples": {
      "AcquisitionNumber": [1, 2, 3, 4, 5, 6, 7, 8, 9, 10, 11, 12, 13, 14, 15, 16, 17, 18, 19, 20, 21, 22, 23, 24, 25, 26, 27, 28, 29, 30, 31, 32, 33, 34, 35, 36, 37, 38, 39, 40, 41, 42, 43, 44, 45, 46, 47, 48, 49, 50, 51, 52, 53, 54, 55, 56, 57, 58, 59, 60, 61, 62, 63, 64, 65, 66, 67, 68, 69, 70, 71, 72, 73, 74, 75, 76, 77, 78, 79, 80, 81, 82, 83, 84, 85, 86, 87, 88, 89, 90, 91, 92, 93, 94, 95, 96, 97, 98, 99, 100, 101, 102, 103, 104, 105, 106, 107, 108, 109, 110, 111, 112, 113, 114, 115, 116, 117, 118, 119, 120, 121, 122, 123, 124, 125, 126, 127, 128, 129, 130, 131, 132, 133, 134, 135, 136, 137, 138, 139, 140, 141, 142, 143, 144, 145, 146, 147, 148, 149, 150, 151, 152, 153, 154, 155, 156, 157, 158, 159, 160, 161, 162, 163, 164, 165, 166, 167, 168, 169, 170, 171, 172, 173, 174, 175, 176, 177, 178, 179, 180, 181, 182, 183, 184, 185, 186, 187, 188, 189, 190, 191, 192, 193, 194, 195, 196, 197, 198, 199, 200, 201, 202, 203, 204, 205, 206, 207, 208, 209, 210, 211, 212, 213, 214, 215, 216, 217, 218, 219, 220, 221, 222, 223, 224, 225, 226, 227, 228, 229, 230, 231, 232, 233, 234, 235, 236, 237, 238, 239, 240, 241, 242, 243, 244, 245, 246, 247, 248, 249, 250, 251, 252, 253, 254, 255, 256, 257, 258, 259, 260, 261, 262, 263, 264, 265, 266, 267, 268, 269, 270, 271, 272, 273, 274, 275, 276, 277, 278, 279, 280, 281, 282, 283, 284, 285, 286, 287, 288, 289, 290, 291, 292, 293, 294, 295, 296, 297, 298, 299, 300, 301, 302, 303, 304, 305, 306, 307, 308, 309, 310, 311, 312, 313, 314, 315, 316, 317, 318, 319, 320, 321, 322, 323, 324, 325, 326, 327, 328, 329, 330, 331, 332, 333, 334, 335, 336, 337, 338, 339, 340, 341, 342, 343, 344, 345, 346, 347, 348, 349, 350, 351, 352, 353, 354, 355, 356, 357, 358, 359, 360, 361, 362, 363, 364, 365, 366, 367, 368, 369, 370, 371, 372, 373, 374, 375, 376, 377, 378, 379, 380, 381, 382, 383, 384, 385, 386, 387, 388, 389, 390, 391, 392, 393, 394, 395, 396, 397, 398, 399, 400, 401, 402, 403, 404, 405, 406, 407, 408, 409, 410, 411, 412, 413, 414, 415, 416, 417, 418, 419, 420, 421, 422, 423, 424, 425, 426, 427, 428, 429, 430, 431, 432, 433, 434, 435, 436, 437, 438, 439, 440, 441, 442, 443, 444, 445, 446, 447, 448, 449, 450, 451, 452, 453, 454, 455, 456, 457, 458, 459, 460, 461, 462, 463, 464, 465, 466, 467, 468, 469, 470, 471, 472, 473, 474, 475, 476, 477, 478, 479, 480, 481, 482, 483, 484, 485, 486, 487, 488, 489, 490, 491, 492, 493, 494, 495, 496, 497, 498, 499, 500, 501, 502, 503, 504, 505, 506, 507, 508, 509, 510, 511, 512, 513, 514, 515, 516, 517, 518, 519, 520, 521, 522, 523, 524, 525, 526, 527, 528, 529, 530, 531, 532, 533, 534, 535, 536, 537, 538, 539, 540, 541, 542, 543, 544, 545, 546, 547, 548, 549, 550, 551, 552, 553, 554, 555, 556, 557, 558, 559, 560, 561, 562, 563, 564, 565, 566, 567, 568, 569, 570, 571, 572, 573, 574, 575, 576, 577, 578, 579, 580, 581, 582, 583, 584, 585, 586, 587, 588, 589, 590, 591, 592, 593, 594, 595, 596, 597, 598, 599, 600, 601, 602, 603, 604, 605, 606, 607, 608, 609, 610, 611, 612, 613, 614, 615, 616, 617, 618, 619, 620, 621, 622, 623, 624, 625, 626, 627, 628, 629, 630, 631, 632, 633, 634, 635, 636, 637, 638, 639, 640, 641, 642, 643, 644, 645, 646, 647, 648, 649, 650, 651, 652, 653, 654, 655, 656, 657, 658, 659, 660, 661, 662, 663, 664, 665, 666, 667, 668, 669, 670, 671, 672, 673, 674, 675, 676, 677, 678, 679, 680, 681, 682, 683, 684, 685, 686, 687, 688, 689, 690, 691, 692, 693, 694, 695, 696, 697, 698, 699, 700, 701, 702, 703, 704, 705, 706, 707, 708, 709, 710, 711, 712, 713, 714, 715, 716, 717, 718, 719, 720, 721, 722, 723, 724, 725, 726, 727, 728, 729, 730, 731, 732, 733, 734, 735, 736, 737, 738, 739, 740, 741, 742, 743, 744, 745, 746, 747, 748, 749, 750, 751, 752, 753, 754, 755, 756, 757, 758, 759, 760, 761, 762, 763, 764, 765, 766, 767, 768, 769, 770, 771, 772, 773, 774, 775, 776, 777, 778, 779, 780, 781, 782, 783, 784, 785, 786, 787, 788, 789, 790, 791, 792, 793, 794, 795, 796, 797, 798, 799, 800, 801, 802, 803, 804, 805, 806, 807, 808, 809, 810, 811, 812, 813, 814, 815, 816, 817, 818, 819, 820, 821, 822, 823, 824, 825, 826, 827, 828, 829, 830, 831, 832, 833, 834, 835, 836, 837, 838, 839, 840, 841, 842, 843, 844, 845, 846, 847, 848, 849, 850, 851, 852, 853, 854, 855, 856, 857, 858, 859, 860, 861, 862, 863, 864, 865, 866, 867, 868, 869, 870, 871, 872, 873, 874, 875, 876, 877, 878, 879, 880, 881, 882, 883, 884, 885, 886, 887, 888, 889, 890, 891, 892, 893, 894, 895, 896, 897, 898, 899, 900, 901, 902, 903, 904, 905, 906, 907, 908, 909, 910, 911, 912, 913, 914, 915, 916, 917, 918, 919, 920, 921, 922, 923, 924, 925, 926, 927, 928, 929, 930, 931, 932, 933, 934, 935, 936, 937, 938, 939, 940, 941, 942, 943, 944, 945, 946, 947, 948, 949, 950, 951, 952, 953, 954, 955, 956, 957, 958, 959, 960, 961, 962, 963, 964, 965, 966, 967],
      "AcquisitionTime": ["141304.205000", "141304.665000", "141305.125000", "141305.585000", "141306.045000", "141306.505000", "141306.965000", "141307.425000", "141307.885000", "141308.345000", "141308.805000", "141309.265000", "141309.725000", "141310.185000", "141310.645000", "141311.105000", "141311.565000", "141312.025000", "141312.485000", "141312.945000", "141313.405000", "141313.865000", "141314.325000", "141314.785000", "141315.245000", "141315.705000", "141316.165000", "141316.625000", "141317.085000", "141317.545000", "141318.005000", "141318.465000", "141318.925000", "141319.385000", "141319.845000", "141320.305000", "141320.765000", "141321.225000", "141321.685000", "141322.145000", "141322.605000", "141323.065000", "141323.525000", "141323.985000", "141324.445000", "141324.905000", "141325.365000", "141325.825000", "141326.285000", "141326.745000", "141327.205000", "141327.665000", "141328.125000", "141328.585000", "141329.045000", "141329.505000", "141329.965000", "141330.425000", "141330.885000", "141331.345000", "141331.805000", "141332.265000", "141332.725000", "141333.185000", "141333.645000", "141334.105000", "141334.565000", "141335.025000", "141335.485000", "141335.945000", "141336.405000", "141336.865000", "141337.325000", "141337.785000", "141338.245000", "141338.705000", "141339.165000", "141339.625000", "141340.085000", "141340.545000", "141341.005000", "141341.465000", "141341.925000", "141342.385000", "141342.845000", "141343.305000", "141343.765000", "141344.225000", "141344.685000", "141345.145000", "141345.605000", "141346.065000", "141346.525000", "141346.985000", "141347.445000", "141347.905000", "141348.365000", "141348.825000", "141349.285000", "141349.745000", "141350.205000", "141350.665000", "141351.125000", "141351.585000", "141352.045000", "141352.505000", "141352.965000", "141353.425000", "141353.885000", "141354.345000", "141354.805000", "141355.265000", "141355.725000", "141356.185000", "141356.645000", "141357.105000", "141357.565000", "141358.025000", "141358.485000", "141358.945000", "141359.405000", "141359.865000", "141400.325000", "141400.785000", "141401.245000", "141401.705000", "141402.165000", "141402.625000", "141403.085000", "141403.545000", "141404.005000", "141404.465000", "141404.925000", "141405.385000", "141405.845000", "141406.305000", "141406.765000", "141407.225000", "141407.685000", "141408.145000", "141408.605000", "141409.065000", "141409.525000", "141409.985000", "141410.445000", "141410.905000", "141411.365000", "141411.825000", "141412.285000", "141412.745000", "141413.205000", "141413.665000", "141414.125000", "141414.585000", "141415.045000", "141415.505000", "141415.965000", "141416.425000", "141416.885000", "141417.345000", "141417.805000", "141418.265000", "141418.725000", "141419.185000", "141419.645000", "141420.105000", "141420.565000", "141421.025000", "141421.485000", "141421.945000", "141422.405000", "141422.865000", "141423.325000", "141423.785000", "141424.245000", "141424.705000", "141425.165000", "141425.625000", "141426.085000", "141426.545000", "141427.005000", "141427.465000", "141427.925000", "141428.385000", "141428.845000", "141429.305000", "141429.765000", "141430.225000", "141430.685000", "141431.145000", "141431.605000", "141432.065000", "141432.525000", "141432.985000", "141433.445000", "141433.905000", "141434.365000", "141434.825000", "141435.285000", "141435.745000", "141436.205000", "141436.665000", "141437.125000", "141437.585000", "141438.045000", "141438.505000", "141438.965000", "141439.425000", "141439.885000", "141440.345000", "141440.805000", "141441.265000", "141441.725000", "141442.185000", "141442.645000", "141443.105000", "141443.565000", "141444.025000", "141444.485000", "141444.945000", "141445.405000", "141445.865000", "141446.325000", "141446.785000", "141447.245000", "141447.705000", "141448.165000", "141448.625000", "141449.085000", "141449.545000", "141450.005000", "141450.465000", "141450.925000", "141451.385000", "141451.845000", "141452.305000", "141452.765000", "141453.225000", "141453.685000", "141454.145000", "141454.605000", "141455.065000", "141455.525000", "141455.985000", "141456.445000", "141456.905000", "141457.365000", "141457.825000", "141458.285000", "141458.745000", "141459.205000", "141459.665000", "141500.125000", "141500.585000", "141501.045000", "141501.505000", "141501.965000", "141502.425000", "141502.885000", "141503.345000", "141503.805000", "141504.265000", "141504.725000", "141505.185000", "141505.645000", "141506.105000", "141506.565000", "141507.025000", "141507.485000", "141507.945000", "141508.405000", "141508.865000", "141509.325000", "141509.785000", "141510.245000", "141510.705000", "141511.165000", "141511.625000", "141512.085000", "141512.545000", "141513.005000", "141513.465000", "141513.925000", "141514.385000", "141514.845000", "141515.305000", "141515.765000", "141516.225000", "141516.685000", "141517.145000", "141517.605000", "141518.065000", "141518.525000", "141518.985000", "141519.445000", "141519.905000", "141520.365000", "141520.825000", "141521.285000", "141521.745000", "141522.205000", "141522.665000", "141523.125000", "141523.585000", "141524.045000", "141524.505000", "141524.965000", "141525.425000", "141525.885000", "141526.345000", "141526.805000", "141527.265000", "141527.725000", "141528.185000", "141528.645000", "141529.105000", "141529.565000", "141530.025000", "141530.485000", "141530.945000", "141531.405000", "141531.865000", "141532.325000", "141532.785000", "141533.245000", "141533.705000", "141534.165000", "141534.625000", "141535.085000", "141535.545000", "141536.005000", "141536.465000", "141536.925000", "141537.385000", "141537.845000", "141538.305000", "141538.765000", "141539.225000", "141539.685000", "141540.145000", "141540.605000", "141541.065000", "141541.525000", "141541.985000", "141542.445000", "141542.905000", "141543.365000", "141543.825000", "141544.285000", "141544.745000", "141545.205000", "141545.665000", "141546.125000", "141546.585000", "141547.045000", "141547.505000", "141547.965000", "141548.425000", "141548.885000", "141549.345000", "141549.805000", "141550.265000", "141550.725000", "141551.185000", "141551.645000", "141552.105000", "141552.565000", "141553.025000", "141553.485000", "141553.945000", "141554.405000", "141554.865000", "141555.325000", "141555.785000", "141556.245000", "141556.705000", "141557.165000", "141557.625000", "141558.085000", "141558.545000", "141559.005000", "141559.465000", "141559.925000", "141600.385000", "141600.845000", "141601.305000", "141601.765000", "141602.225000", "141602.685000", "141603.145000", "141603.605000", "141604.065000", "141604.525000", "141604.985000", "141605.445000", "141605.905000", "141606.365000", "141606.825000", "141607.285000", "141607.745000", "141608.205000", "141608.665000", "141609.125000", "141609.585000", "141610.045000", "141610.505000", "141610.965000", "141611.425000", "141611.885000", "141612.345000", "141612.805000", "141613.265000", "141613.725000", "141614.185000", "141614.645000", "141615.105000", "141615.565000", "141616.025000", "141616.485000", "141616.945000", "141617.405000", "141617.865000", "141618.325000", "141618.785000", "141619.245000", "141619.705000", "141620.165000", "141620.625000", "141621.085000", "141621.545000", "141622.005000", "141622.465000", "141622.925000", "141623.385000", "141623.845000", "141624.305000", "141624.765000", "141625.225000", "141625.685000", "141626.145000", "141626.605000", "141627.065000", "141627.525000", "141627.985000", "141628.445000", "141628.905000", "141629.365000", "141629.825000", "141630.285000", "141630.745000", "141631.205000", "141631.665000", "141632.125000", "141632.585000", "141633.045000", "141633.505000", "141633.965000", "141634.425000", "141634.885000", "141635.345000", "141635.805000", "141636.265000", "141636.725000", "141637.185000", "141637.645000", "141638.105000", "141638.565000", "141639.025000", "141639.485000", "141639.945000", "141640.405000", "141640.865000", "141641.325000", "141641.785000", "141642.245000", "141642.705000", "141643.165000", "141643.625000", "141644.085000", "141644.545000", "141645.005000", "141645.465000", "141645.925000", "141646.385000", "141646.845000", "141647.305000", "141647.765000", "141648.225000", "141648.685000", "141649.145000", "141649.605000", "141650.065000", "141650.525000", "141650.985000", "141651.445000", "141651.905000", "141652.365000", "141652.825000", "141653.285000", "141653.745000", "141654.205000", "141654.665000", "141655.125000", "141655.585000", "141656.045000", "141656.505000", "141656.965000", "141657.425000", "141657.885000", "141658.345000", "141658.805000", "141659.265000", "141659.725000", "141700.185000", "141700.645000", "141701.105000", "141701.565000", "141702.025000", "141702.485000", "141702.945000", "141703.405000", "141703.865000", "141704.325000", "141704.785000", "141705.245000", "141705.705000", "141706.165000", "141706.625000", "141707.085000", "141707.545000", "141708.005000", "141708.465000", "141708.925000", "141709.385000", "141709.845000", "141710.305000", "141710.765000", "141711.225000", "141711.685000", "141712.145000", "141712.605000", "141713.065000", "141713.525000", "141713.985000", "141714.445000", "141714.905000", "141715.365000", "141715.825000", "141716.285000", "141716.745000", "141717.205000", "141717.665000", "141718.125000", "141718.585000", "141719.045000", "141719.505000", "141719.965000", "141720.425000", "141720.885000", "141721.345000", "141721.805000", "141722.265000", "141722.725000", "141723.185000", "141723.645000", "141724.105000", "141724.565000", "141725.025000", "141725.485000", "141725.945000", "141726.405000", "141726.865000", "141727.325000", "141727.785000", "141728.245000", "141728.705000", "141729.165000", "141729.625000", "141730.085000", "141730.545000", "141731.005000", "141731.465000", "141731.925000", "141732.385000", "141732.845000", "141733.305000", "141733.765000", "141734.225000", "141734.685000", "141735.145000", "141735.605000", "141736.065000", "141736.525000", "141736.985000", "141737.445000", "141737.905000", "141738.365000", "141738.825000", "141739.285000", "141739.745000", "141740.205000", "141740.665000", "141741.125000", "141741.585000", "141742.045000", "141742.505000", "141742.965000", "141743.425000", "141743.885000", "141744.345000", "141744.805000", "141745.265000", "141745.725000", "141746.185000", "141746.645000", "141747.105000", "141747.565000", "141748.025000", "141748.485000", "141748.945000", "141749.405000", "141749.865000", "141750.325000", "141750.785000", "141751.245000", "141751.705000", "141752.165000", "141752.625000", "141753.085000", "141753.545000", "141754.005000", "141754.465000", "141754.925000", "141755.385000", "141755.845000", "141756.305000", "141756.765000", "141757.225000", "141757.685000", "141758.145000", "141758.605000", "141759.065000", "141759.525000", "141759.985000", "141800.445000", "141800.905000", "141801.365000", "141801.825000", "141802.285000", "141802.745000", "141803.205000", "141803.665000", "141804.125000", "141804.585000", "141805.045000", "141805.505000", "141805.965000", "141806.425000", "141806.885000", "141807.345000", "141807.805000", "141808.265000", "141808.725000", "141809.185000", "141809.645000", "141810.105000", "141810.565000", "141811.025000", "141811.485000", "141811.945000", "141812.405000", "141812.865000", "141813.325000", "141813.785000", "141814.245000", "141814.705000", "141815.165000", "141815.625000", "141816.085000", "141816.545000", "141817.005000", "141817.465000", "141817.925000", "141818.385000", "141818.845000", "141819.305000", "141819.765000", "141820.225000", "141820.685000", "141821.145000", "141821.605000", "141822.065000", "141822.525000", "141822.985000", "141823.445000", "141823.905000", "141824.365000", "141824.825000", "141825.285000", "141825.745000", "141826.205000", "141826.665000", "141827.125000", "141827.585000", "141828.045000", "141828.505000", "141828.965000", "141829.425000", "141829.885000", "141830.345000", "141830.805000", "141831.265000", "141831.725000", "141832.185000", "141832.645000", "141833.105000", "141833.565000", "141834.025000", "141834.485000", "141834.945000", "141835.405000", "141835.865000", "141836.325000", "141836.785000", "141837.245000", "141837.705000", "141838.165000", "141838.625000", "141839.085000", "141839.545000", "141840.005000", "141840.465000", "141840.925000", "141841.385000", "141841.845000", "141842.305000", "141842.765000", "141843.225000", "141843.685000", "141844.145000", "141844.605000", "141845.065000", "141845.525000", "141845.985000", "141846.445000", "141846.905000", "141847.365000", "141847.825000", "141848.285000", "141848.745000", "141849.205000", "141849.665000", "141850.125000", "141850.585000", "141851.045000", "141851.505000", "141851.965000", "141852.425000", "141852.885000", "141853.345000", "141853.805000", "141854.265000", "141854.725000", "141855.185000", "141855.645000", "141856.105000", "141856.565000", "141857.025000", "141857.485000", "141857.945000", "141858.405000", "141858.865000", "141859.325000", "141859.785000", "141900.245000", "141900.705000", "141901.165000", "141901.625000", "141902.085000", "141902.545000", "141903.005000", "141903.465000", "141903.925000", "141904.385000", "141904.845000", "141905.305000", "141905.765000", "141906.225000", "141906.685000", "141907.145000", "141907.605000", "141908.065000", "141908.525000", "141908.985000", "141909.445000", "141909.905000", "141910.365000", "141910.825000", "141911.285000", "141911.745000", "141912.205000", "141912.665000", "141913.125000", "141913.585000", "141914.045000", "141914.505000", "141914.965000", "141915.425000", "141915.885000", "141916.345000", "141916.805000", "141917.265000", "141917.725000", "141918.185000", "141918.645000", "141919.105000", "141919.565000", "141920.025000", "141920.485000", "141920.945000", "141921.405000", "141921.865000", "141922.325000", "141922.785000", "141923.245000", "141923.705000", "141924.165000", "141924.625000", "141925.085000", "141925.545000", "141926.005000", "141926.465000", "141926.925000", "141927.385000", "141927.845000", "141928.305000", "141928.765000", "141929.225000", "141929.685000", "141930.145000", "141930.605000", "141931.065000", "141931.525000", "141931.985000", "141932.445000", "141932.905000", "141933.365000", "141933.825000", "141934.285000", "141934.745000", "141935.205000", "141935.665000", "141936.125000", "141936.585000", "141937.045000", "141937.505000", "141937.965000", "141938.425000", "141938.885000", "141939.345000", "141939.805000", "141940.265000", "141940.725000", "141941.185000", "141941.645000", "141942.105000", "141942.565000", "141943.025000", "141943.485000", "141943.945000", "141944.405000", "141944.865000", "141945.325000", "141945.785000", "141946.245000", "141946.705000", "141947.165000", "141947.625000", "141948.085000", "141948.545000", "141949.005000", "141949.465000", "141949.925000", "141950.385000", "141950.845000", "141951.305000", "141951.765000", "141952.225000", "141952.685000", "141953.145000", "141953.605000", "141954.065000", "141954.525000", "141954.985000", "141955.445000", "141955.905000", "141956.365000", "141956.825000", "141957.285000", "141957.745000", "141958.205000", "141958.665000", "141959.125000", "141959.585000", "142000.045000", "142000.505000", "142000.965000", "142001.425000", "142001.885000", "142002.345000", "142002.805000", "142003.265000", "142003.725000", "142004.185000", "142004.645000", "142005.105000", "142005.565000", "142006.025000", "142006.485000", "142006.945000", "142007.405000", "142007.865000", "142008.325000", "142008.785000", "142009.245000", "142009.705000", "142010.165000", "142010.625000", "142011.085000", "142011.545000", "142012.005000", "142012.465000", "142012.925000", "142013.385000", "142013.845000", "142014.305000", "142014.765000", "142015.225000", "142015.685000", "142016.145000", "142016.605000", "142017.065000", "142017.525000", "142017.985000", "142018.445000", "142018.905000", "142019.365000", "142019.825000", "142020.285000", "142020.745000", "142021.205000", "142021.665000", "142022.125000", "142022.585000", "142023.045000", "142023.505000", "142023.965000", "142024.425000", "142024.885000", "142025.345000", "142025.805000", "142026.265000", "142026.725000", "142027.185000", "142027.645000", "142028.105000", "142028.565000"],
