{
  "AcquisitionMatrixPE": 82,
  "AcquisitionNumber": 1,
  "AcquisitionTime": "15:05:22.292500",
  "BandwidthPerPixelPhaseEncode": 24.888,
  "BaseResolution": 82,
  "BodyPartExamined": "BRAIN",
  "ConsistencyInfo": "N4_VE11E_LATEST_20181129",
  "ConversionSoftware": "dcm2niix",
  "ConversionSoftwareVersion": "v1.0.20201102",
  "DerivedVendorReportedEchoSpacing": 0.00049,
  "DeviceSerialNumber": "66112",
  "DwellTime": 2e-06,
  "EchoTime": 0.0272,
  "EchoTrainLength": 82,
  "EffectiveEchoSpacing": 0.00049,
  "FlipAngle": 44,
  "ImageComments": "Unaliased MB8/PE3",
  "ImageOrientationPatientDICOM": [0.99878, -0.0442532, -0.0219296, 0.0436076, 0.998625, -0.0290892],
  "ImageType": [
    "ORIGINAL",
    "PRIMARY",
    "M",
    "MB",
    "ND",
    "NORM",
    "MOSAIC"
],
  "ImagingFrequency": 123.259,
  "InPlanePhaseEncodingDirectionDICOM": "COL",
  "InstitutionAddress": "Maynard 3,Hanover,NH,US,03755",
  "InstitutionName": "Dartmouth College - PBS",
  "InstitutionalDepartmentName": "Department",
  "MRAcquisitionType": "2D",
  "MagneticFieldStrength": 3,
  "Manufacturer": "Siemens",
  "ManufacturersModelName": "Prisma",
  "Modality": "MR",
  "MultibandAccelerationFactor": 8,
  "PartialFourier": 1,
  "PatientPosition": "HFS",
  "PercentPhaseFOV": 100,
  "PercentSampling": 100,
  "PhaseEncodingDirection": "j-",
  "PhaseEncodingSteps": 82,
  "PhaseResolution": 1,
  "PixelBandwidth": 3050,
  "ProcedureStepDescription": "Wager_Wager^1076_spacetop",
  "ProtocolName": "func_run-03_task-faces_acq-ap-mb8",
  "PulseSequenceDetails": "%CustomerSeq%\\cmrr_mbep2d_bold",
  "ReceiveCoilActiveElements": "HEA;HEP",
  "ReceiveCoilName": "Head_32",
  "ReconMatrixPE": 82,
  "RepetitionTime": 0.46,
  "SAR": 0.100372,
  "ScanOptions": "FS",
  "ScanningSequence": "EP",
  "SequenceName": "epfid2d1_82",
  "SequenceVariant": "SK\\SS",
  "SeriesDescription": "func_run-03_task-faces_acq-ap-mb8",
  "SeriesNumber": 20,
  "ShimSetting": [4212, -7760, -7242, 339, -143, -174, -47, 88],
  "SliceThickness": 2.7,
  "SliceTiming": [0, 0.25, 0.0625, 0.315, 0.125, 0.3775, 0.1875, 0, 0.25, 0.0625, 0.315, 0.125, 0.3775, 0.1875, 0, 0.25, 0.0625, 0.315, 0.125, 0.3775, 0.1875, 0, 0.25, 0.0625, 0.315, 0.125, 0.3775, 0.1875, 0, 0.25, 0.0625, 0.315, 0.125, 0.3775, 0.1875, 0, 0.25, 0.0625, 0.315, 0.125, 0.3775, 0.1875, 0, 0.25, 0.0625, 0.315, 0.125, 0.3775, 0.1875, 0, 0.25, 0.0625, 0.315, 0.125, 0.3775, 0.1875],
  "SoftwareVersions": "syngo MR E11",
  "SpacingBetweenSlices": 2.7,
  "StationName": "AWP66112",
  "TaskName": "faces",
  "TotalReadoutTime": 0.03969,
  "TxRefAmp": 252.419,
  "WipMemBlock": "0a66637b-721f-4f1d-aa3f-5805725e7b7d||Sequence: R016 ve11e/master r/434b28f1; Aug  7 2019 18:53:46 by eja",
  "dcmmeta_affine": [
    [-2.679652690887451, 0.11699603497982025, -0.06260424107313156, 106.34266662597656],
    [0.11872796714305878, 2.6792383193969727, -0.07586295902729034, -105.38307189941406],
    [-0.05883555859327316, 0.07804416865110397, 2.6982078552246094, -77.63072967529297],
    [0.0, 0.0, 0.0, 1.0]
],
  "dcmmeta_reorient_transform": [
    [0.0, -1.0, 0.0, 81.0],
    [1.0, 0.0, 0.0, 0.0],
    [0.0, 0.0, 1.0, 0.0],
    [0.0, 0.0, 0.0, 1.0]
],
  "dcmmeta_shape": [82, 82, 56, 914],
  "dcmmeta_slice_dim": 2,
  "dcmmeta_version": 0.6,
  "global": {
    "const": {
      "AccessionNumber": "A004399",
      "AcquisitionMatrix": [82, 0, 0, 82],
      "AngioFlag": "N",
      "BitsAllocated": 16,
      "BitsStored": 16,
      "BodyPartExamined": "BRAIN",
      "Columns": 656,
      "EchoNumbers": 1,
      "EchoTime": 27.2,
      "EchoTrainLength": 82,
      "FlipAngle": 44.0,
      "HighBit": 15,
      "ImageOrientationPatient": [0.99877963059979, -0.0442531512677, -0.0219296170013, 0.04360761254634, 0.99862515249101, -0.0290891894063],
      "ImagePositionPatient": [-918.45753960362, -846.50168560442, -32.02466816304],
      "ImageType": [
        "ORIGINAL",
        "PRIMARY",
        "M",
        "MB",
        "ND",
        "NORM",
        "MOSAIC"
],
      "ImagedNucleus": "1H",
      "ImagingFrequency": 123.259107,
      "InPlanePhaseEncodingDirection": "COL",
      "MRAcquisitionType": "2D",
      "MagneticFieldStrength": 3.0,
      "Manufacturer": "SIEMENS",
      "ManufacturerModelName": "Prisma",
      "Modality": "MR",
      "NumberOfAverages": 1.0,
      "NumberOfPhaseEncodingSteps": 82,
      "PercentPhaseFieldOfView": 100.0,
      "PercentSampling": 100.0,
      "PerformedProcedureStepStartTime": "140230.416000",
      "PhotometricInterpretation": "MONOCHROME2",
      "PixelBandwidth": 3050.0,
      "PixelRepresentation": 0,
      "PixelSpacing": [2.6829268932343, 2.6829268932343],
      "ProtocolName": "func_run-03_task-faces_acq-ap-mb8",
      "RepetitionTime": 460.0,
      "Rows": 656,
      "SAR": 0.10037202051427,
      "SamplesPerPixel": 1,
      "ScanOptions": "FS",
      "ScanningSequence": "EP",
      "SequenceName": "epfid2d1_82",
      "SequenceVariant": [
        "SK",
        "SS"
],
      "SeriesDescription": "func_run-03_task-faces_acq-ap-mb8",
      "SeriesNumber": 20,
      "SeriesTime": "150543.771000",
      "SliceLocation": -77.083951007916,
      "SliceThickness": 2.7000000476837,
      "SmallestImagePixelValue": 0,
      "SoftwareVersions": "syngo MR E11",
      "SpacingBetweenSlices": 2.6999999509274,
      "SpecificCharacterSet": "ISO_IR 100",
      "StudyID": "3",
      "StudyTime": "140230.380000",
      "TransmitCoilName": "Body",
      "VariableFlipAngleFlag": "N",
      "WindowCenterWidthExplanation": "Algo1"
    },
    "slices": {}
  },
  "time": {
    "samples": {
      "AcquisitionNumber": [1, 2, 3, 4, 5, 6, 7, 8, 9, 10, 11, 12, 13, 14, 15, 16, 17, 18, 19, 20, 21, 22, 23, 24, 25, 26, 27, 28, 29, 30, 31, 32, 33, 34, 35, 36, 37, 38, 39, 40, 41, 42, 43, 44, 45, 46, 47, 48, 49, 50, 51, 52, 53, 54, 55, 56, 57, 58, 59, 60, 61, 62, 63, 64, 65, 66, 67, 68, 69, 70, 71, 72, 73, 74, 75, 76, 77, 78, 79, 80, 81, 82, 83, 84, 85, 86, 87, 88, 89, 90, 91, 92, 93, 94, 95, 96, 97, 98, 99, 100, 101, 102, 103, 104, 105, 106, 107, 108, 109, 110, 111, 112, 113, 114, 115, 116, 117, 118, 119, 120, 121, 122, 123, 124, 125, 126, 127, 128, 129, 130, 131, 132, 133, 134, 135, 136, 137, 138, 139, 140, 141, 142, 143, 144, 145, 146, 147, 148, 149, 150, 151, 152, 153, 154, 155, 156, 157, 158, 159, 160, 161, 162, 163, 164, 165, 166, 167, 168, 169, 170, 171, 172, 173, 174, 175, 176, 177, 178, 179, 180, 181, 182, 183, 184, 185, 186, 187, 188, 189, 190, 191, 192, 193, 194, 195, 196, 197, 198, 199, 200, 201, 202, 203, 204, 205, 206, 207, 208, 209, 210, 211, 212, 213, 214, 215, 216, 217, 218, 219, 220, 221, 222, 223, 224, 225, 226, 227, 228, 229, 230, 231, 232, 233, 234, 235, 236, 237, 238, 239, 240, 241, 242, 243, 244, 245, 246, 247, 248, 249, 250, 251, 252, 253, 254, 255, 256, 257, 258, 259, 260, 261, 262, 263, 264, 265, 266, 267, 268, 269, 270, 271, 272, 273, 274, 275, 276, 277, 278, 279, 280, 281, 282, 283, 284, 285, 286, 287, 288, 289, 290, 291, 292, 293, 294, 295, 296, 297, 298, 299, 300, 301, 302, 303, 304, 305, 306, 307, 308, 309, 310, 311, 312, 313, 314, 315, 316, 317, 318, 319, 320, 321, 322, 323, 324, 325, 326, 327, 328, 329, 330, 331, 332, 333, 334, 335, 336, 337, 338, 339, 340, 341, 342, 343, 344, 345, 346, 347, 348, 349, 350, 351, 352, 353, 354, 355, 356, 357, 358, 359, 360, 361, 362, 363, 364, 365, 366, 367, 368, 369, 370, 371, 372, 373, 374, 375, 376, 377, 378, 379, 380, 381, 382, 383, 384, 385, 386, 387, 388, 389, 390, 391, 392, 393, 394, 395, 396, 397, 398, 399, 400, 401, 402, 403, 404, 405, 406, 407, 408, 409, 410, 411, 412, 413, 414, 415, 416, 417, 418, 419, 420, 421, 422, 423, 424, 425, 426, 427, 428, 429, 430, 431, 432, 433, 434, 435, 436, 437, 438, 439, 440, 441, 442, 443, 444, 445, 446, 447, 448, 449, 450, 451, 452, 453, 454, 455, 456, 457, 458, 459, 460, 461, 462, 463, 464, 465, 466, 467, 468, 469, 470, 471, 472, 473, 474, 475, 476, 477, 478, 479, 480, 481, 482, 483, 484, 485, 486, 487, 488, 489, 490, 491, 492, 493, 494, 495, 496, 497, 498, 499, 500, 501, 502, 503, 504, 505, 506, 507, 508, 509, 510, 511, 512, 513, 514, 515, 516, 517, 518, 519, 520, 521, 522, 523, 524, 525, 526, 527, 528, 529, 530, 531, 532, 533, 534, 535, 536, 537, 538, 539, 540, 541, 542, 543, 544, 545, 546, 547, 548, 549, 550, 551, 552, 553, 554, 555, 556, 557, 558, 559, 560, 561, 562, 563, 564, 565, 566, 567, 568, 569, 570, 571, 572, 573, 574, 575, 576, 577, 578, 579, 580, 581, 582, 583, 584, 585, 586, 587, 588, 589, 590, 591, 592, 593, 594, 595, 596, 597, 598, 599, 600, 601, 602, 603, 604, 605, 606, 607, 608, 609, 610, 611, 612, 613, 614, 615, 616, 617, 618, 619, 620, 621, 622, 623, 624, 625, 626, 627, 628, 629, 630, 631, 632, 633, 634, 635, 636, 637, 638, 639, 640, 641, 642, 643, 644, 645, 646, 647, 648, 649, 650, 651, 652, 653, 654, 655, 656, 657, 658, 659, 660, 661, 662, 663, 664, 665, 666, 667, 668, 669, 670, 671, 672, 673, 674, 675, 676, 677, 678, 679, 680, 681, 682, 683, 684, 685, 686, 687, 688, 689, 690, 691, 692, 693, 694, 695, 696, 697, 698, 699, 700, 701, 702, 703, 704, 705, 706, 707, 708, 709, 710, 711, 712, 713, 714, 715, 716, 717, 718, 719, 720, 721, 722, 723, 724, 725, 726, 727, 728, 729, 730, 731, 732, 733, 734, 735, 736, 737, 738, 739, 740, 741, 742, 743, 744, 745, 746, 747, 748, 749, 750, 751, 752, 753, 754, 755, 756, 757, 758, 759, 760, 761, 762, 763, 764, 765, 766, 767, 768, 769, 770, 771, 772, 773, 774, 775, 776, 777, 778, 779, 780, 781, 782, 783, 784, 785, 786, 787, 788, 789, 790, 791, 792, 793, 794, 795, 796, 797, 798, 799, 800, 801, 802, 803, 804, 805, 806, 807, 808, 809, 810, 811, 812, 813, 814, 815, 816, 817, 818, 819, 820, 821, 822, 823, 824, 825, 826, 827, 828, 829, 830, 831, 832, 833, 834, 835, 836, 837, 838, 839, 840, 841, 842, 843, 844, 845, 846, 847, 848, 849, 850, 851, 852, 853, 854, 855, 856, 857, 858, 859, 860, 861, 862, 863, 864, 865, 866, 867, 868, 869, 870, 871, 872, 873, 874, 875, 876, 877, 878, 879, 880, 881, 882, 883, 884, 885, 886, 887, 888, 889, 890, 891, 892, 893, 894, 895, 896, 897, 898, 899, 900, 901, 902, 903, 904, 905, 906, 907, 908, 909, 910, 911, 912, 913, 914],
      "AcquisitionTime": ["150522.292500", "150522.752500", "150523.212500", "150523.672500", "150524.132500", "150524.592500", "150525.052500", "150525.512500", "150525.972500", "150526.432500", "150526.892500", "150527.352500", "150527.812500", "150528.272500", "150528.732500", "150529.192500", "150529.652500", "150530.112500", "150530.572500", "150531.032500", "150531.492500", "150531.952500", "150532.412500", "150532.872500", "150533.332500", "150533.792500", "150534.252500", "150534.712500", "150535.172500", "150535.632500", "150536.092500", "150536.552500", "150537.012500", "150537.472500", "150537.932500", "150538.392500", "150538.852500", "150539.312500", "150539.772500", "150540.232500", "150540.692500", "150541.152500", "150541.612500", "150542.072500", "150542.532500", "150542.992500", "150543.452500", "150543.912500", "150544.372500", "150544.832500", "150545.292500", "150545.752500", "150546.212500", "150546.672500", "150547.132500", "150547.592500", "150548.052500", "150548.512500", "150548.972500", "150549.432500", "150549.892500", "150550.352500", "150550.812500", "150551.272500", "150551.732500", "150552.192500", "150552.652500", "150553.112500", "150553.572500", "150554.032500", "150554.492500", "150554.952500", "150555.412500", "150555.872500", "150556.332500", "150556.792500", "150557.252500", "150557.712500", "150558.172500", "150558.632500", "150559.092500", "150559.552500", "150600.012500", "150600.472500", "150600.932500", "150601.392500", "150601.852500", "150602.312500", "150602.772500", "150603.232500", "150603.692500", "150604.152500", "150604.612500", "150605.072500", "150605.532500", "150605.992500", "150606.452500", "150606.912500", "150607.372500", "150607.832500", "150608.292500", "150608.752500", "150609.212500", "150609.672500", "150610.132500", "150610.592500", "150611.052500", "150611.512500", "150611.972500", "150612.432500", "150612.892500", "150613.352500", "150613.812500", "150614.272500", "150614.732500", "150615.192500", "150615.652500", "150616.112500", "150616.572500", "150617.032500", "150617.492500", "150617.952500", "150618.412500", "150618.872500", "150619.332500", "150619.792500", "150620.252500", "150620.712500", "150621.172500", "150621.632500", "150622.092500", "150622.552500", "150623.012500", "150623.472500", "150623.932500", "150624.392500", "150624.852500", "150625.312500", "150625.772500", "150626.232500", "150626.692500", "150627.152500", "150627.612500", "150628.072500", "150628.532500", "150628.992500", "150629.452500", "150629.912500", "150630.372500", "150630.832500", "150631.292500", "150631.752500", "150632.212500", "150632.672500", "150633.132500", "150633.592500", "150634.052500", "150634.512500", "150634.972500", "150635.432500", "150635.892500", "150636.352500", "150636.812500", "150637.272500", "150637.732500", "150638.192500", "150638.652500", "150639.112500", "150639.572500", "150640.032500", "150640.492500", "150640.952500", "150641.412500", "150641.872500", "150642.332500", "150642.792500", "150643.252500", "150643.712500", "150644.172500", "150644.632500", "150645.092500", "150645.552500", "150646.012500", "150646.472500", "150646.932500", "150647.392500", "150647.852500", "150648.312500", "150648.772500", "150649.232500", "150649.692500", "150650.152500", "150650.612500", "150651.072500", "150651.532500", "150651.992500", "150652.452500", "150652.912500", "150653.372500", "150653.832500", "150654.292500", "150654.752500", "150655.212500", "150655.672500", "150656.132500", "150656.592500", "150657.052500", "150657.512500", "150657.972500", "150658.432500", "150658.892500", "150659.352500", "150659.812500", "150700.272500", "150700.732500", "150701.192500", "150701.652500", "150702.112500", "150702.572500", "150703.032500", "150703.492500", "150703.952500", "150704.412500", "150704.872500", "150705.332500", "150705.792500", "150706.252500", "150706.712500", "150707.172500", "150707.632500", "150708.092500", "150708.552500", "150709.012500", "150709.472500", "150709.932500", "150710.392500", "150710.852500", "150711.312500", "150711.772500", "150712.232500", "150712.692500", "150713.152500", "150713.612500", "150714.072500", "150714.532500", "150714.992500", "150715.452500", "150715.912500", "150716.372500", "150716.832500", "150717.292500", "150717.752500", "150718.212500", "150718.672500", "150719.132500", "150719.592500", "150720.052500", "150720.512500", "150720.972500", "150721.432500", "150721.892500", "150722.352500", "150722.812500", "150723.272500", "150723.732500", "150724.192500", "150724.652500", "150725.112500", "150725.572500", "150726.032500", "150726.492500", "150726.952500", "150727.412500", "150727.872500", "150728.332500", "150728.792500", "150729.252500", "150729.712500", "150730.172500", "150730.632500", "150731.092500", "150731.552500", "150732.012500", "150732.472500", "150732.932500", "150733.392500", "150733.852500", "150734.312500", "150734.772500", "150735.232500", "150735.692500", "150736.152500", "150736.612500", "150737.072500", "150737.532500", "150737.992500", "150738.452500", "150738.912500", "150739.372500", "150739.832500", "150740.292500", "150740.752500", "150741.212500", "150741.672500", "150742.132500", "150742.592500", "150743.052500", "150743.512500", "150743.972500", "150744.432500", "150744.892500", "150745.352500", "150745.812500", "150746.272500", "150746.732500", "150747.192500", "150747.652500", "150748.112500", "150748.572500", "150749.032500", "150749.492500", "150749.952500", "150750.412500", "150750.872500", "150751.332500", "150751.792500", "150752.252500", "150752.712500", "150753.172500", "150753.632500", "150754.092500", "150754.552500", "150755.012500", "150755.472500", "150755.932500", "150756.392500", "150756.852500", "150757.312500", "150757.772500", "150758.232500", "150758.692500", "150759.152500", "150759.612500", "150800.072500", "150800.532500", "150800.992500", "150801.452500", "150801.912500", "150802.372500", "150802.832500", "150803.292500", "150803.752500", "150804.212500", "150804.672500", "150805.132500", "150805.592500", "150806.052500", "150806.512500", "150806.972500", "150807.432500", "150807.892500", "150808.352500", "150808.812500", "150809.272500", "150809.732500", "150810.192500", "150810.652500", "150811.112500", "150811.572500", "150812.032500", "150812.492500", "150812.952500", "150813.412500", "150813.872500", "150814.332500", "150814.792500", "150815.252500", "150815.712500", "150816.172500", "150816.632500", "150817.092500", "150817.552500", "150818.012500", "150818.472500", "150818.932500", "150819.392500", "150819.852500", "150820.312500", "150820.772500", "150821.232500", "150821.692500", "150822.152500", "150822.612500", "150823.072500", "150823.532500", "150823.992500", "150824.452500", "150824.912500", "150825.372500", "150825.832500", "150826.292500", "150826.752500", "150827.212500", "150827.672500", "150828.132500", "150828.592500", "150829.052500", "150829.512500", "150829.972500", "150830.432500", "150830.892500", "150831.352500", "150831.812500", "150832.272500", "150832.732500", "150833.192500", "150833.652500", "150834.112500", "150834.572500", "150835.032500", "150835.492500", "150835.952500", "150836.412500", "150836.872500", "150837.332500", "150837.792500", "150838.252500", "150838.712500", "150839.172500", "150839.632500", "150840.092500", "150840.552500", "150841.012500", "150841.472500", "150841.932500", "150842.392500", "150842.852500", "150843.312500", "150843.772500", "150844.232500", "150844.692500", "150845.152500", "150845.612500", "150846.072500", "150846.532500", "150846.992500", "150847.452500", "150847.912500", "150848.372500", "150848.832500", "150849.292500", "150849.752500", "150850.212500", "150850.672500", "150851.132500", "150851.592500", "150852.052500", "150852.512500", "150852.972500", "150853.432500", "150853.892500", "150854.352500", "150854.812500", "150855.272500", "150855.732500", "150856.192500", "150856.652500", "150857.112500", "150857.572500", "150858.032500", "150858.492500", "150858.952500", "150859.412500", "150859.872500", "150900.332500", "150900.792500", "150901.252500", "150901.712500", "150902.172500", "150902.632500", "150903.092500", "150903.552500", "150904.012500", "150904.472500", "150904.932500", "150905.392500", "150905.852500", "150906.312500", "150906.772500", "150907.232500", "150907.692500", "150908.152500", "150908.612500", "150909.072500", "150909.532500", "150909.992500", "150910.452500", "150910.912500", "150911.372500", "150911.832500", "150912.292500", "150912.752500", "150913.212500", "150913.672500", "150914.132500", "150914.592500", "150915.052500", "150915.512500", "150915.972500", "150916.432500", "150916.892500", "150917.352500", "150917.812500", "150918.272500", "150918.732500", "150919.192500", "150919.652500", "150920.112500", "150920.572500", "150921.032500", "150921.492500", "150921.952500", "150922.412500", "150922.872500", "150923.332500", "150923.792500", "150924.252500", "150924.712500", "150925.172500", "150925.632500", "150926.092500", "150926.552500", "150927.012500", "150927.472500", "150927.932500", "150928.392500", "150928.852500", "150929.312500", "150929.772500", "150930.232500", "150930.692500", "150931.152500", "150931.612500", "150932.072500", "150932.532500", "150932.992500", "150933.452500", "150933.912500", "150934.372500", "150934.832500", "150935.292500", "150935.752500", "150936.212500", "150936.672500", "150937.132500", "150937.592500", "150938.052500", "150938.512500", "150938.972500", "150939.432500", "150939.892500", "150940.352500", "150940.812500", "150941.272500", "150941.732500", "150942.192500", "150942.652500", "150943.112500", "150943.572500", "150944.032500", "150944.492500", "150944.952500", "150945.412500", "150945.872500", "150946.332500", "150946.792500", "150947.252500", "150947.712500", "150948.172500", "150948.632500", "150949.092500", "150949.552500", "150950.012500", "150950.472500", "150950.932500", "150951.392500", "150951.852500", "150952.312500", "150952.772500", "150953.232500", "150953.692500", "150954.152500", "150954.612500", "150955.072500", "150955.532500", "150955.992500", "150956.452500", "150956.912500", "150957.372500", "150957.832500", "150958.292500", "150958.752500", "150959.212500", "150959.672500", "151000.132500", "151000.592500", "151001.052500", "151001.512500", "151001.972500", "151002.432500", "151002.892500", "151003.352500", "151003.812500", "151004.272500", "151004.732500", "151005.192500", "151005.652500", "151006.112500", "151006.572500", "151007.032500", "151007.492500", "151007.952500", "151008.412500", "151008.872500", "151009.332500", "151009.792500", "151010.252500", "151010.712500", "151011.172500", "151011.632500", "151012.092500", "151012.552500", "151013.012500", "151013.472500", "151013.932500", "151014.392500", "151014.852500", "151015.312500", "151015.772500", "151016.232500", "151016.692500", "151017.152500", "151017.612500", "151018.072500", "151018.532500", "151018.992500", "151019.452500", "151019.912500", "151020.372500", "151020.832500", "151021.292500", "151021.752500", "151022.212500", "151022.672500", "151023.132500", "151023.592500", "151024.052500", "151024.512500", "151024.972500", "151025.432500", "151025.892500", "151026.352500", "151026.812500", "151027.272500", "151027.732500", "151028.192500", "151028.652500", "151029.112500", "151029.572500", "151030.032500", "151030.492500", "151030.952500", "151031.412500", "151031.872500", "151032.332500", "151032.792500", "151033.252500", "151033.712500", "151034.172500", "151034.632500", "151035.092500", "151035.552500", "151036.012500", "151036.472500", "151036.932500", "151037.392500", "151037.852500", "151038.312500", "151038.772500", "151039.232500", "151039.692500", "151040.152500", "151040.612500", "151041.072500", "151041.532500", "151041.992500", "151042.452500", "151042.912500", "151043.372500", "151043.832500", "151044.292500", "151044.752500", "151045.212500", "151045.672500", "151046.132500", "151046.592500", "151047.052500", "151047.512500", "151047.972500", "151048.432500", "151048.892500", "151049.352500", "151049.812500", "151050.272500", "151050.732500", "151051.192500", "151051.652500", "151052.112500", "151052.572500", "151053.032500", "151053.492500", "151053.952500", "151054.412500", "151054.872500", "151055.332500", "151055.792500", "151056.252500", "151056.712500", "151057.172500", "151057.632500", "151058.092500", "151058.552500", "151059.012500", "151059.472500", "151059.932500", "151100.392500", "151100.852500", "151101.312500", "151101.772500", "151102.232500", "151102.692500", "151103.152500", "151103.612500", "151104.072500", "151104.532500", "151104.992500", "151105.452500", "151105.912500", "151106.372500", "151106.832500", "151107.292500", "151107.752500", "151108.212500", "151108.672500", "151109.132500", "151109.592500", "151110.052500", "151110.512500", "151110.972500", "151111.432500", "151111.892500", "151112.352500", "151112.812500", "151113.272500", "151113.732500", "151114.192500", "151114.652500", "151115.112500", "151115.572500", "151116.032500", "151116.492500", "151116.952500", "151117.412500", "151117.872500", "151118.332500", "151118.792500", "151119.252500", "151119.712500", "151120.172500", "151120.632500", "151121.092500", "151121.552500", "151122.012500", "151122.472500", "151122.932500", "151123.392500", "151123.852500", "151124.312500", "151124.772500", "151125.232500", "151125.692500", "151126.152500", "151126.612500", "151127.072500", "151127.532500", "151127.992500", "151128.452500", "151128.912500", "151129.372500", "151129.832500", "151130.292500", "151130.752500", "151131.212500", "151131.672500", "151132.132500", "151132.592500", "151133.052500", "151133.512500", "151133.972500", "151134.432500", "151134.892500", "151135.352500", "151135.812500", "151136.272500", "151136.732500", "151137.192500", "151137.652500", "151138.112500", "151138.572500", "151139.032500", "151139.492500", "151139.952500", "151140.412500", "151140.872500", "151141.332500", "151141.792500", "151142.252500", "151142.712500", "151143.172500", "151143.632500", "151144.092500", "151144.552500", "151145.012500", "151145.472500", "151145.932500", "151146.392500", "151146.852500", "151147.312500", "151147.772500", "151148.232500", "151148.692500", "151149.152500", "151149.612500", "151150.072500", "151150.532500", "151150.992500", "151151.452500", "151151.912500", "151152.372500", "151152.832500", "151153.292500", "151153.752500", "151154.212500", "151154.672500", "151155.132500", "151155.592500", "151156.052500", "151156.512500", "151156.972500", "151157.432500", "151157.892500", "151158.352500", "151158.812500", "151159.272500", "151159.732500", "151200.192500", "151200.652500", "151201.112500", "151201.572500", "151202.032500", "151202.492500", "151202.952500", "151203.412500", "151203.872500", "151204.332500", "151204.792500", "151205.252500", "151205.712500", "151206.172500", "151206.632500", "151207.092500", "151207.552500", "151208.012500", "151208.472500", "151208.932500", "151209.392500", "151209.852500", "151210.312500", "151210.772500", "151211.232500", "151211.692500", "151212.152500", "151212.612500", "151213.072500", "151213.532500", "151213.992500", "151214.452500", "151214.912500", "151215.372500", "151215.832500", "151216.292500", "151216.752500", "151217.212500", "151217.672500", "151218.132500", "151218.592500", "151219.052500", "151219.512500", "151219.972500", "151220.432500", "151220.892500", "151221.352500", "151221.812500", "151222.272500"],
