{
  "AcquisitionMatrixPE": 82,
  "AcquisitionNumber": 1,
  "AcquisitionTime": "15:45:40.172500",
  "BandwidthPerPixelPhaseEncode": 24.888,
  "BaseResolution": 82,
  "BodyPartExamined": "BRAIN",
  "ConsistencyInfo": "N4_VE11E_LATEST_20181129",
  "ConversionSoftware": "dcm2niix",
  "ConversionSoftwareVersion": "v1.0.20201102",
  "DerivedVendorReportedEchoSpacing": 0.00049,
  "DeviceSerialNumber": "66112",
  "DwellTime": 2e-06,
  "EchoTime": 0.0272,
  "EchoTrainLength": 82,
  "EffectiveEchoSpacing": 0.00049,
  "FlipAngle": 44,
  "ImageComments": "Unaliased MB8/PE3",
  "ImageOrientationPatientDICOM": [0.99831, -0.0446385, -0.037201, 0.0456822, 0.998572, 0.0276952],
  "ImageType": [
    "ORIGINAL",
    "PRIMARY",
    "M",
    "MB",
    "ND",
    "NORM",
    "MOSAIC"
],
  "ImagingFrequency": 123.259,
  "InPlanePhaseEncodingDirectionDICOM": "COL",
  "InstitutionAddress": "Maynard 3,Hanover,NH,US,03755",
  "InstitutionName": "Dartmouth College - PBS",
  "InstitutionalDepartmentName": "Department",
  "MRAcquisitionType": "2D",
  "MagneticFieldStrength": 3,
  "Manufacturer": "Siemens",
  "ManufacturersModelName": "Prisma",
  "Modality": "MR",
  "MultibandAccelerationFactor": 8,
  "PartialFourier": 1,
  "PatientPosition": "HFS",
  "PercentPhaseFOV": 100,
  "PercentSampling": 100,
  "PhaseEncodingDirection": "j-",
  "PhaseEncodingSteps": 82,
  "PhaseResolution": 1,
  "PixelBandwidth": 3050,
  "ProcedureStepDescription": "Wager_Wager^1076_spacetop",
  "ProtocolName": "func_run-04_task-alignvideo_acq-ap-mb8",
  "PulseSequenceDetails": "%CustomerSeq%\\cmrr_mbep2d_bold",
  "ReceiveCoilActiveElements": "HEA;HEP",
  "ReceiveCoilName": "Head_32",
  "ReconMatrixPE": 82,
  "RepetitionTime": 0.46,
  "SAR": 0.100372,
  "ScanOptions": "FS",
  "ScanningSequence": "EP",
  "SequenceName": "epfid2d1_82",
  "SequenceVariant": "SK\\SS",
  "SeriesDescription": "func_run-04_task-alignvideo_acq-ap-mb8",
  "SeriesNumber": 34,
  "ShimSetting": [4212, -7760, -7242, 336, -151, -165, -48, 91],
  "SliceThickness": 2.7,
  "SliceTiming": [0, 0.25, 0.0625, 0.315, 0.125, 0.3775, 0.1875, 0, 0.25, 0.0625, 0.315, 0.125, 0.3775, 0.1875, 0, 0.25, 0.0625, 0.315, 0.125, 0.3775, 0.1875, 0, 0.25, 0.0625, 0.315, 0.125, 0.3775, 0.1875, 0, 0.25, 0.0625, 0.315, 0.125, 0.3775, 0.1875, 0, 0.25, 0.0625, 0.315, 0.125, 0.3775, 0.1875, 0, 0.25, 0.0625, 0.315, 0.125, 0.3775, 0.1875, 0, 0.25, 0.0625, 0.315, 0.125, 0.3775, 0.1875],
  "SoftwareVersions": "syngo MR E11",
  "SpacingBetweenSlices": 2.7,
  "StationName": "AWP66112",
  "TaskName": "alignvideo",
  "TotalReadoutTime": 0.03969,
  "TxRefAmp": 252.419,
  "WipMemBlock": "b691d509-41aa-4210-9961-e7bfeb58baaa||Sequence: R016 ve11e/master r/434b28f1; Aug  7 2019 18:53:46 by eja",
  "dcmmeta_affine": [
    [-2.678393602371216, 0.12256203591823578, -0.09696124494075775, 107.48773956298828],
    [0.11976176500320435, 2.67909574508667, 0.07923923432826996, -109.22943115234375],
    [-0.09980747103691101, -0.07430429756641388, 2.697094678878784, -68.86852264404297],
    [0.0, 0.0, 0.0, 1.0]
],
  "dcmmeta_reorient_transform": [
    [0.0, -1.0, 0.0, 81.0],
    [1.0, 0.0, 0.0, 0.0],
    [0.0, 0.0, 1.0, 0.0],
    [0.0, 0.0, 0.0, 1.0]
],
  "dcmmeta_shape": [82, 82, 56, 914],
  "dcmmeta_slice_dim": 2,
  "dcmmeta_version": 0.6,
  "global": {
    "const": {
      "AccessionNumber": "A004399",
      "AcquisitionMatrix": [82, 0, 0, 82],
      "AngioFlag": "N",
      "BitsAllocated": 16,
      "BitsStored": 16,
      "BodyPartExamined": "BRAIN",
      "Columns": 656,
      "EchoNumbers": 1,
      "EchoTime": 27.2,
      "EchoTrainLength": 82,
      "FlipAngle": 44.0,
      "HighBit": 15,
      "ImageOrientationPatient": [0.99831031980678, -0.0446384753813, -0.0372009661558, 0.04568221115153, 0.99857203514234, 0.0276952381466],
      "ImagePositionPatient": [-921.28953399936, -842.306185468, -67.567759445445],
      "ImageType": [
        "ORIGINAL",
        "PRIMARY",
        "M",
        "MB",
        "ND",
        "NORM",
        "MOSAIC"
],
      "ImagedNucleus": "1H",
      "ImagingFrequency": 123.259111,
      "InPlanePhaseEncodingDirection": "COL",
      "MRAcquisitionType": "2D",
      "MagneticFieldStrength": 3.0,
      "Manufacturer": "SIEMENS",
      "ManufacturerModelName": "Prisma",
      "Modality": "MR",
      "NumberOfAverages": 1.0,
      "NumberOfPhaseEncodingSteps": 82,
      "PercentPhaseFieldOfView": 100.0,
      "PercentSampling": 100.0,
      "PerformedProcedureStepStartTime": "140230.416000",
      "PhotometricInterpretation": "MONOCHROME2",
      "PixelBandwidth": 3050.0,
      "PixelRepresentation": 0,
      "PixelSpacing": [2.6829268932343, 2.6829268932343],
      "ProtocolName": "func_run-04_task-alignvideo_acq-ap-mb8",
      "RepetitionTime": 460.0,
      "Rows": 656,
      "SAR": 0.10037202051427,
      "SamplesPerPixel": 1,
      "ScanOptions": "FS",
      "ScanningSequence": "EP",
      "SequenceName": "epfid2d1_82",
      "SequenceVariant": [
        "SK",
        "SS"
],
      "SeriesDescription": "func_run-04_task-alignvideo_acq-ap-mb8",
      "SeriesNumber": 34,
      "SeriesTime": "154603.848000",
      "SliceLocation": -75.860120311013,
      "SliceThickness": 2.7000000476837,
      "SmallestImagePixelValue": 0,
      "SoftwareVersions": "syngo MR E11",
      "SpacingBetweenSlices": 2.7000000560765,
      "SpecificCharacterSet": "ISO_IR 100",
      "StudyID": "3",
      "StudyTime": "140230.380000",
      "TransmitCoilName": "Body",
      "VariableFlipAngleFlag": "N",
      "WindowCenterWidthExplanation": "Algo1"
    },
    "slices": {}
  },
  "time": {
    "samples": {
      "AcquisitionNumber": [1, 2, 3, 4, 5, 6, 7, 8, 9, 10, 11, 12, 13, 14, 15, 16, 17, 18, 19, 20, 21, 22, 23, 24, 25, 26, 27, 28, 29, 30, 31, 32, 33, 34, 35, 36, 37, 38, 39, 40, 41, 42, 43, 44, 45, 46, 47, 48, 49, 50, 51, 52, 53, 54, 55, 56, 57, 58, 59, 60, 61, 62, 63, 64, 65, 66, 67, 68, 69, 70, 71, 72, 73, 74, 75, 76, 77, 78, 79, 80, 81, 82, 83, 84, 85, 86, 87, 88, 89, 90, 91, 92, 93, 94, 95, 96, 97, 98, 99, 100, 101, 102, 103, 104, 105, 106, 107, 108, 109, 110, 111, 112, 113, 114, 115, 116, 117, 118, 119, 120, 121, 122, 123, 124, 125, 126, 127, 128, 129, 130, 131, 132, 133, 134, 135, 136, 137, 138, 139, 140, 141, 142, 143, 144, 145, 146, 147, 148, 149, 150, 151, 152, 153, 154, 155, 156, 157, 158, 159, 160, 161, 162, 163, 164, 165, 166, 167, 168, 169, 170, 171, 172, 173, 174, 175, 176, 177, 178, 179, 180, 181, 182, 183, 184, 185, 186, 187, 188, 189, 190, 191, 192, 193, 194, 195, 196, 197, 198, 199, 200, 201, 202, 203, 204, 205, 206, 207, 208, 209, 210, 211, 212, 213, 214, 215, 216, 217, 218, 219, 220, 221, 222, 223, 224, 225, 226, 227, 228, 229, 230, 231, 232, 233, 234, 235, 236, 237, 238, 239, 240, 241, 242, 243, 244, 245, 246, 247, 248, 249, 250, 251, 252, 253, 254, 255, 256, 257, 258, 259, 260, 261, 262, 263, 264, 265, 266, 267, 268, 269, 270, 271, 272, 273, 274, 275, 276, 277, 278, 279, 280, 281, 282, 283, 284, 285, 286, 287, 288, 289, 290, 291, 292, 293, 294, 295, 296, 297, 298, 299, 300, 301, 302, 303, 304, 305, 306, 307, 308, 309, 310, 311, 312, 313, 314, 315, 316, 317, 318, 319, 320, 321, 322, 323, 324, 325, 326, 327, 328, 329, 330, 331, 332, 333, 334, 335, 336, 337, 338, 339, 340, 341, 342, 343, 344, 345, 346, 347, 348, 349, 350, 351, 352, 353, 354, 355, 356, 357, 358, 359, 360, 361, 362, 363, 364, 365, 366, 367, 368, 369, 370, 371, 372, 373, 374, 375, 376, 377, 378, 379, 380, 381, 382, 383, 384, 385, 386, 387, 388, 389, 390, 391, 392, 393, 394, 395, 396, 397, 398, 399, 400, 401, 402, 403, 404, 405, 406, 407, 408, 409, 410, 411, 412, 413, 414, 415, 416, 417, 418, 419, 420, 421, 422, 423, 424, 425, 426, 427, 428, 429, 430, 431, 432, 433, 434, 435, 436, 437, 438, 439, 440, 441, 442, 443, 444, 445, 446, 447, 448, 449, 450, 451, 452, 453, 454, 455, 456, 457, 458, 459, 460, 461, 462, 463, 464, 465, 466, 467, 468, 469, 470, 471, 472, 473, 474, 475, 476, 477, 478, 479, 480, 481, 482, 483, 484, 485, 486, 487, 488, 489, 490, 491, 492, 493, 494, 495, 496, 497, 498, 499, 500, 501, 502, 503, 504, 505, 506, 507, 508, 509, 510, 511, 512, 513, 514, 515, 516, 517, 518, 519, 520, 521, 522, 523, 524, 525, 526, 527, 528, 529, 530, 531, 532, 533, 534, 535, 536, 537, 538, 539, 540, 541, 542, 543, 544, 545, 546, 547, 548, 549, 550, 551, 552, 553, 554, 555, 556, 557, 558, 559, 560, 561, 562, 563, 564, 565, 566, 567, 568, 569, 570, 571, 572, 573, 574, 575, 576, 577, 578, 579, 580, 581, 582, 583, 584, 585, 586, 587, 588, 589, 590, 591, 592, 593, 594, 595, 596, 597, 598, 599, 600, 601, 602, 603, 604, 605, 606, 607, 608, 609, 610, 611, 612, 613, 614, 615, 616, 617, 618, 619, 620, 621, 622, 623, 624, 625, 626, 627, 628, 629, 630, 631, 632, 633, 634, 635, 636, 637, 638, 639, 640, 641, 642, 643, 644, 645, 646, 647, 648, 649, 650, 651, 652, 653, 654, 655, 656, 657, 658, 659, 660, 661, 662, 663, 664, 665, 666, 667, 668, 669, 670, 671, 672, 673, 674, 675, 676, 677, 678, 679, 680, 681, 682, 683, 684, 685, 686, 687, 688, 689, 690, 691, 692, 693, 694, 695, 696, 697, 698, 699, 700, 701, 702, 703, 704, 705, 706, 707, 708, 709, 710, 711, 712, 713, 714, 715, 716, 717, 718, 719, 720, 721, 722, 723, 724, 725, 726, 727, 728, 729, 730, 731, 732, 733, 734, 735, 736, 737, 738, 739, 740, 741, 742, 743, 744, 745, 746, 747, 748, 749, 750, 751, 752, 753, 754, 755, 756, 757, 758, 759, 760, 761, 762, 763, 764, 765, 766, 767, 768, 769, 770, 771, 772, 773, 774, 775, 776, 777, 778, 779, 780, 781, 782, 783, 784, 785, 786, 787, 788, 789, 790, 791, 792, 793, 794, 795, 796, 797, 798, 799, 800, 801, 802, 803, 804, 805, 806, 807, 808, 809, 810, 811, 812, 813, 814, 815, 816, 817, 818, 819, 820, 821, 822, 823, 824, 825, 826, 827, 828, 829, 830, 831, 832, 833, 834, 835, 836, 837, 838, 839, 840, 841, 842, 843, 844, 845, 846, 847, 848, 849, 850, 851, 852, 853, 854, 855, 856, 857, 858, 859, 860, 861, 862, 863, 864, 865, 866, 867, 868, 869, 870, 871, 872, 873, 874, 875, 876, 877, 878, 879, 880, 881, 882, 883, 884, 885, 886, 887, 888, 889, 890, 891, 892, 893, 894, 895, 896, 897, 898, 899, 900, 901, 902, 903, 904, 905, 906, 907, 908, 909, 910, 911, 912, 913, 914],
      "AcquisitionTime": ["154540.172500", "154540.632500", "154541.092500", "154541.552500", "154542.012500", "154542.472500", "154542.932500", "154543.392500", "154543.852500", "154544.312500", "154544.772500", "154545.232500", "154545.692500", "154546.152500", "154546.612500", "154547.072500", "154547.532500", "154547.992500", "154548.452500", "154548.912500", "154549.372500", "154549.832500", "154550.292500", "154550.752500", "154551.212500", "154551.672500", "154552.132500", "154552.592500", "154553.052500", "154553.512500", "154553.972500", "154554.432500", "154554.892500", "154555.352500", "154555.812500", "154556.272500", "154556.732500", "154557.192500", "154557.652500", "154558.112500", "154558.572500", "154559.032500", "154559.492500", "154559.952500", "154600.412500", "154600.872500", "154601.332500", "154601.792500", "154602.252500", "154602.712500", "154603.172500", "154603.632500", "154604.092500", "154604.552500", "154605.012500", "154605.472500", "154605.932500", "154606.392500", "154606.852500", "154607.312500", "154607.772500", "154608.232500", "154608.692500", "154609.152500", "154609.612500", "154610.072500", "154610.532500", "154610.992500", "154611.452500", "154611.912500", "154612.372500", "154612.832500", "154613.292500", "154613.752500", "154614.212500", "154614.672500", "154615.132500", "154615.592500", "154616.052500", "154616.512500", "154616.972500", "154617.432500", "154617.892500", "154618.352500", "154618.812500", "154619.272500", "154619.732500", "154620.192500", "154620.652500", "154621.112500", "154621.572500", "154622.032500", "154622.492500", "154622.952500", "154623.412500", "154623.872500", "154624.332500", "154624.792500", "154625.252500", "154625.712500", "154626.172500", "154626.632500", "154627.092500", "154627.552500", "154628.012500", "154628.472500", "154628.932500", "154629.392500", "154629.852500", "154630.312500", "154630.772500", "154631.232500", "154631.692500", "154632.152500", "154632.612500", "154633.072500", "154633.532500", "154633.992500", "154634.452500", "154634.912500", "154635.372500", "154635.832500", "154636.292500", "154636.752500", "154637.212500", "154637.672500", "154638.132500", "154638.592500", "154639.052500", "154639.512500", "154639.972500", "154640.432500", "154640.892500", "154641.352500", "154641.812500", "154642.272500", "154642.732500", "154643.192500", "154643.652500", "154644.112500", "154644.572500", "154645.032500", "154645.492500", "154645.952500", "154646.412500", "154646.872500", "154647.332500", "154647.792500", "154648.252500", "154648.712500", "154649.172500", "154649.632500", "154650.092500", "154650.552500", "154651.012500", "154651.472500", "154651.932500", "154652.392500", "154652.852500", "154653.312500", "154653.772500", "154654.232500", "154654.692500", "154655.152500", "154655.612500", "154656.072500", "154656.532500", "154656.992500", "154657.452500", "154657.912500", "154658.372500", "154658.832500", "154659.292500", "154659.752500", "154700.212500", "154700.672500", "154701.132500", "154701.592500", "154702.052500", "154702.512500", "154702.972500", "154703.432500", "154703.892500", "154704.352500", "154704.812500", "154705.272500", "154705.732500", "154706.192500", "154706.652500", "154707.112500", "154707.572500", "154708.032500", "154708.492500", "154708.952500", "154709.412500", "154709.872500", "154710.332500", "154710.792500", "154711.252500", "154711.712500", "154712.172500", "154712.632500", "154713.092500", "154713.552500", "154714.012500", "154714.472500", "154714.932500", "154715.392500", "154715.852500", "154716.312500", "154716.772500", "154717.232500", "154717.692500", "154718.152500", "154718.612500", "154719.072500", "154719.532500", "154719.992500", "154720.452500", "154720.912500", "154721.372500", "154721.832500", "154722.292500", "154722.752500", "154723.212500", "154723.672500", "154724.132500", "154724.592500", "154725.052500", "154725.512500", "154725.972500", "154726.432500", "154726.892500", "154727.352500", "154727.812500", "154728.272500", "154728.732500", "154729.192500", "154729.652500", "154730.112500", "154730.572500", "154731.032500", "154731.492500", "154731.952500", "154732.412500", "154732.872500", "154733.332500", "154733.792500", "154734.252500", "154734.712500", "154735.172500", "154735.632500", "154736.092500", "154736.552500", "154737.012500", "154737.472500", "154737.932500", "154738.392500", "154738.852500", "154739.312500", "154739.772500", "154740.232500", "154740.692500", "154741.152500", "154741.612500", "154742.072500", "154742.532500", "154742.992500", "154743.452500", "154743.912500", "154744.372500", "154744.832500", "154745.292500", "154745.752500", "154746.212500", "154746.672500", "154747.132500", "154747.592500", "154748.052500", "154748.512500", "154748.972500", "154749.432500", "154749.892500", "154750.352500", "154750.812500", "154751.272500", "154751.732500", "154752.192500", "154752.652500", "154753.112500", "154753.572500", "154754.032500", "154754.492500", "154754.952500", "154755.412500", "154755.872500", "154756.332500", "154756.792500", "154757.252500", "154757.712500", "154758.172500", "154758.632500", "154759.092500", "154759.552500", "154800.012500", "154800.472500", "154800.932500", "154801.392500", "154801.852500", "154802.312500", "154802.772500", "154803.232500", "154803.692500", "154804.152500", "154804.612500", "154805.072500", "154805.532500", "154805.992500", "154806.452500", "154806.912500", "154807.372500", "154807.832500", "154808.292500", "154808.752500", "154809.212500", "154809.672500", "154810.132500", "154810.592500", "154811.052500", "154811.512500", "154811.972500", "154812.432500", "154812.892500", "154813.352500", "154813.812500", "154814.272500", "154814.732500", "154815.192500", "154815.652500", "154816.112500", "154816.572500", "154817.032500", "154817.492500", "154817.952500", "154818.412500", "154818.872500", "154819.332500", "154819.792500", "154820.252500", "154820.712500", "154821.172500", "154821.632500", "154822.092500", "154822.552500", "154823.012500", "154823.472500", "154823.932500", "154824.392500", "154824.852500", "154825.312500", "154825.772500", "154826.232500", "154826.692500", "154827.152500", "154827.612500", "154828.072500", "154828.532500", "154828.992500", "154829.452500", "154829.912500", "154830.372500", "154830.832500", "154831.292500", "154831.752500", "154832.212500", "154832.672500", "154833.132500", "154833.592500", "154834.052500", "154834.512500", "154834.972500", "154835.432500", "154835.892500", "154836.352500", "154836.812500", "154837.272500", "154837.732500", "154838.192500", "154838.652500", "154839.112500", "154839.572500", "154840.032500", "154840.492500", "154840.952500", "154841.412500", "154841.872500", "154842.332500", "154842.792500", "154843.252500", "154843.712500", "154844.172500", "154844.632500", "154845.092500", "154845.552500", "154846.012500", "154846.472500", "154846.932500", "154847.392500", "154847.852500", "154848.312500", "154848.772500", "154849.232500", "154849.692500", "154850.152500", "154850.612500", "154851.072500", "154851.532500", "154851.992500", "154852.452500", "154852.912500", "154853.372500", "154853.832500", "154854.292500", "154854.752500", "154855.212500", "154855.672500", "154856.132500", "154856.592500", "154857.052500", "154857.512500", "154857.972500", "154858.432500", "154858.892500", "154859.352500", "154859.812500", "154900.272500", "154900.732500", "154901.192500", "154901.652500", "154902.112500", "154902.572500", "154903.032500", "154903.492500", "154903.952500", "154904.412500", "154904.872500", "154905.332500", "154905.792500", "154906.252500", "154906.712500", "154907.172500", "154907.632500", "154908.092500", "154908.552500", "154909.012500", "154909.472500", "154909.932500", "154910.392500", "154910.852500", "154911.312500", "154911.772500", "154912.232500", "154912.692500", "154913.152500", "154913.612500", "154914.072500", "154914.532500", "154914.992500", "154915.452500", "154915.912500", "154916.372500", "154916.832500", "154917.292500", "154917.752500", "154918.212500", "154918.672500", "154919.132500", "154919.592500", "154920.052500", "154920.512500", "154920.972500", "154921.432500", "154921.892500", "154922.352500", "154922.812500", "154923.272500", "154923.732500", "154924.192500", "154924.652500", "154925.112500", "154925.572500", "154926.032500", "154926.492500", "154926.952500", "154927.412500", "154927.872500", "154928.332500", "154928.792500", "154929.252500", "154929.712500", "154930.172500", "154930.632500", "154931.092500", "154931.552500", "154932.012500", "154932.472500", "154932.932500", "154933.392500", "154933.852500", "154934.312500", "154934.772500", "154935.232500", "154935.692500", "154936.152500", "154936.612500", "154937.072500", "154937.532500", "154937.992500", "154938.452500", "154938.912500", "154939.372500", "154939.832500", "154940.292500", "154940.752500", "154941.212500", "154941.672500", "154942.132500", "154942.592500", "154943.052500", "154943.512500", "154943.972500", "154944.432500", "154944.892500", "154945.352500", "154945.812500", "154946.272500", "154946.732500", "154947.192500", "154947.652500", "154948.112500", "154948.572500", "154949.032500", "154949.492500", "154949.952500", "154950.412500", "154950.872500", "154951.332500", "154951.792500", "154952.252500", "154952.712500", "154953.172500", "154953.632500", "154954.092500", "154954.552500", "154955.012500", "154955.472500", "154955.932500", "154956.392500", "154956.852500", "154957.312500", "154957.772500", "154958.232500", "154958.692500", "154959.152500", "154959.612500", "155000.072500", "155000.532500", "155000.992500", "155001.452500", "155001.912500", "155002.372500", "155002.832500", "155003.292500", "155003.752500", "155004.212500", "155004.672500", "155005.132500", "155005.592500", "155006.052500", "155006.512500", "155006.972500", "155007.432500", "155007.892500", "155008.352500", "155008.812500", "155009.272500", "155009.732500", "155010.192500", "155010.652500", "155011.112500", "155011.572500", "155012.032500", "155012.492500", "155012.952500", "155013.412500", "155013.872500", "155014.332500", "155014.792500", "155015.252500", "155015.712500", "155016.172500", "155016.632500", "155017.092500", "155017.552500", "155018.012500", "155018.472500", "155018.932500", "155019.392500", "155019.852500", "155020.312500", "155020.772500", "155021.232500", "155021.692500", "155022.152500", "155022.612500", "155023.072500", "155023.532500", "155023.992500", "155024.452500", "155024.912500", "155025.372500", "155025.832500", "155026.292500", "155026.752500", "155027.212500", "155027.672500", "155028.132500", "155028.592500", "155029.052500", "155029.512500", "155029.972500", "155030.432500", "155030.892500", "155031.352500", "155031.812500", "155032.272500", "155032.732500", "155033.192500", "155033.652500", "155034.112500", "155034.572500", "155035.032500", "155035.492500", "155035.952500", "155036.412500", "155036.872500", "155037.332500", "155037.792500", "155038.252500", "155038.712500", "155039.172500", "155039.632500", "155040.092500", "155040.552500", "155041.012500", "155041.472500", "155041.932500", "155042.392500", "155042.852500", "155043.312500", "155043.772500", "155044.232500", "155044.692500", "155045.152500", "155045.612500", "155046.072500", "155046.532500", "155046.992500", "155047.452500", "155047.912500", "155048.372500", "155048.832500", "155049.292500", "155049.752500", "155050.212500", "155050.672500", "155051.132500", "155051.592500", "155052.052500", "155052.512500", "155052.972500", "155053.432500", "155053.892500", "155054.352500", "155054.812500", "155055.272500", "155055.732500", "155056.192500", "155056.652500", "155057.112500", "155057.572500", "155058.032500", "155058.492500", "155058.952500", "155059.412500", "155059.872500", "155100.332500", "155100.792500", "155101.252500", "155101.712500", "155102.172500", "155102.632500", "155103.092500", "155103.552500", "155104.012500", "155104.472500", "155104.932500", "155105.392500", "155105.852500", "155106.312500", "155106.772500", "155107.232500", "155107.692500", "155108.152500", "155108.612500", "155109.072500", "155109.532500", "155109.992500", "155110.452500", "155110.912500", "155111.372500", "155111.832500", "155112.292500", "155112.752500", "155113.212500", "155113.672500", "155114.132500", "155114.592500", "155115.052500", "155115.512500", "155115.972500", "155116.432500", "155116.892500", "155117.352500", "155117.812500", "155118.272500", "155118.732500", "155119.192500", "155119.652500", "155120.112500", "155120.572500", "155121.032500", "155121.492500", "155121.952500", "155122.412500", "155122.872500", "155123.332500", "155123.792500", "155124.252500", "155124.712500", "155125.172500", "155125.632500", "155126.092500", "155126.552500", "155127.012500", "155127.472500", "155127.932500", "155128.392500", "155128.852500", "155129.312500", "155129.772500", "155130.232500", "155130.692500", "155131.152500", "155131.612500", "155132.072500", "155132.532500", "155132.992500", "155133.452500", "155133.912500", "155134.372500", "155134.832500", "155135.292500", "155135.752500", "155136.212500", "155136.672500", "155137.132500", "155137.592500", "155138.052500", "155138.512500", "155138.972500", "155139.432500", "155139.892500", "155140.352500", "155140.812500", "155141.272500", "155141.732500", "155142.192500", "155142.652500", "155143.112500", "155143.572500", "155144.032500", "155144.492500", "155144.952500", "155145.412500", "155145.872500", "155146.332500", "155146.792500", "155147.252500", "155147.712500", "155148.172500", "155148.632500", "155149.092500", "155149.552500", "155150.012500", "155150.472500", "155150.932500", "155151.392500", "155151.852500", "155152.312500", "155152.772500", "155153.232500", "155153.692500", "155154.152500", "155154.612500", "155155.072500", "155155.532500", "155155.992500", "155156.452500", "155156.912500", "155157.372500", "155157.832500", "155158.292500", "155158.752500", "155159.212500", "155159.672500", "155200.132500", "155200.592500", "155201.052500", "155201.512500", "155201.972500", "155202.432500", "155202.892500", "155203.352500", "155203.812500", "155204.272500", "155204.732500", "155205.192500", "155205.652500", "155206.112500", "155206.572500", "155207.032500", "155207.492500", "155207.952500", "155208.412500", "155208.872500", "155209.332500", "155209.792500", "155210.252500", "155210.712500", "155211.172500", "155211.632500", "155212.092500", "155212.552500", "155213.012500", "155213.472500", "155213.932500", "155214.392500", "155214.852500", "155215.312500", "155215.772500", "155216.232500", "155216.692500", "155217.152500", "155217.612500", "155218.072500", "155218.532500", "155218.992500", "155219.452500", "155219.912500", "155220.372500", "155220.832500", "155221.292500", "155221.752500", "155222.212500", "155222.672500", "155223.132500", "155223.592500", "155224.052500", "155224.512500", "155224.972500", "155225.432500", "155225.892500", "155226.352500", "155226.812500", "155227.272500", "155227.732500", "155228.192500", "155228.652500", "155229.112500", "155229.572500", "155230.032500", "155230.492500", "155230.952500", "155231.412500", "155231.872500", "155232.332500", "155232.792500", "155233.252500", "155233.712500", "155234.172500", "155234.632500", "155235.092500", "155235.552500", "155236.012500", "155236.472500", "155236.932500", "155237.392500", "155237.852500", "155238.312500", "155238.772500", "155239.232500", "155239.692500", "155240.152500"],
