{
  "AcquisitionMatrixPE": 82,
  "AcquisitionNumber": 1,
  "AcquisitionTime": "20:03:33.810000",
  "BandwidthPerPixelPhaseEncode": 24.888,
  "BaseResolution": 82,
  "BodyPartExamined": "BRAIN",
  "ConsistencyInfo": "N4_VE11E_LATEST_20181129",
  "ConversionSoftware": "dcm2niix",
  "ConversionSoftwareVersion": "v1.0.20201102",
  "DerivedVendorReportedEchoSpacing": 0.00049,
  "DeviceSerialNumber": "66112",
  "DwellTime": 2e-06,
  "EchoTime": 0.0272,
  "EchoTrainLength": 82,
  "EffectiveEchoSpacing": 0.00049,
  "FlipAngle": 44,
  "ImageComments": "Unaliased MB8/PE3",
  "ImageOrientationPatientDICOM": [0.99653, 0.0385368, 0.0737784, -0.0469951, 0.992069, 0.116577],
  "ImageType": [
    "ORIGINAL",
    "PRIMARY",
    "M",
    "MB",
    "ND",
    "NORM",
    "MOSAIC"
],
  "ImagingFrequency": 123.259,
  "InPlanePhaseEncodingDirectionDICOM": "COL",
  "InstitutionAddress": "Maynard 3,Hanover,NH,US,03755",
  "InstitutionName": "Dartmouth College - PBS",
  "InstitutionalDepartmentName": "Department",
  "MRAcquisitionType": "2D",
  "MagneticFieldStrength": 3,
  "Manufacturer": "Siemens",
  "ManufacturersModelName": "Prisma",
  "Modality": "MR",
  "MultibandAccelerationFactor": 8,
  "PartialFourier": 1,
  "PatientPosition": "HFS",
  "PercentPhaseFOV": 100,
  "PercentSampling": 100,
  "PhaseEncodingDirection": "j-",
  "PhaseEncodingSteps": 82,
  "PhaseResolution": 1,
  "PixelBandwidth": 3050,
  "ProcedureStepDescription": "Wager_Wager^1076_spacetop",
  "ProtocolName": "func_run-01_task-narratives_acq-ap-mb8",
  "PulseSequenceDetails": "%CustomerSeq%\\cmrr_mbep2d_bold",
  "ReceiveCoilActiveElements": "HEA;HEP",
  "ReceiveCoilName": "Head_32",
  "ReconMatrixPE": 82,
  "RepetitionTime": 0.46,
  "SAR": 0.0970338,
  "ScanOptions": "FS",
  "ScanningSequence": "EP",
  "SequenceName": "epfid2d1_82",
  "SequenceVariant": "SK\\SS",
  "SeriesDescription": "func_run-01_task-narratives_acq-ap-mb8",
  "SeriesNumber": 8,
  "ShimSetting": [4231, -7794, -7205, 392, -93, -85, 7, 32],
  "SliceThickness": 2.7,
  "SliceTiming": [0, 0.2525, 0.0625, 0.315, 0.125, 0.3775, 0.1875, 0, 0.2525, 0.0625, 0.315, 0.125, 0.3775, 0.1875, 0, 0.2525, 0.0625, 0.315, 0.125, 0.3775, 0.1875, 0, 0.2525, 0.0625, 0.315, 0.125, 0.3775, 0.1875, 0, 0.2525, 0.0625, 0.315, 0.125, 0.3775, 0.1875, 0, 0.2525, 0.0625, 0.315, 0.125, 0.3775, 0.1875, 0, 0.2525, 0.0625, 0.315, 0.125, 0.3775, 0.1875, 0, 0.2525, 0.0625, 0.315, 0.125, 0.3775, 0.1875],
  "SoftwareVersions": "syngo MR E11",
  "SpacingBetweenSlices": 2.7,
  "StationName": "AWP66112",
  "TaskName": "narratives",
  "TotalReadoutTime": 0.03969,
  "TxRefAmp": 234.082,
  "WipMemBlock": "bfbe531d-cd7a-4407-84b3-21f9e8bde8d2||Sequence: R016 ve11e/master r/434b28f1; Aug  7 2019 18:53:46 by eja",
  "dcmmeta_affine": [
    [-2.673616647720337, -0.1260843724012375, 0.18549208343029022, 114.38056182861328],
    [-0.10339134186506271, 2.661649227142334, 0.3230268657207489, -107.12200164794922],
    [0.19794201850891113, -0.31276729702949524, 2.6741814613342285, -53.06496047973633],
    [0.0, 0.0, 0.0, 1.0]
],
  "dcmmeta_reorient_transform": [
    [0.0, -1.0, 0.0, 81.0],
    [1.0, 0.0, 0.0, 0.0],
    [0.0, 0.0, 1.0, 0.0],
    [0.0, 0.0, 0.0, 1.0]
],
  "dcmmeta_shape": [82, 82, 56, 967],
  "dcmmeta_slice_dim": 2,
  "dcmmeta_version": 0.6,
  "global": {
    "const": {
      "AccessionNumber": "A004785",
      "AcquisitionMatrix": [82, 0, 0, 82],
      "AngioFlag": "N",
      "BitsAllocated": 16,
      "BitsStored": 16,
      "BodyPartExamined": "BRAIN",
      "Columns": 656,
      "EchoNumbers": 1,
      "EchoTime": 27.2,
      "EchoTrainLength": 82,
      "FlipAngle": 44.0,
      "HighBit": 15,
      "ImageOrientationPatient": [0.99652981225398, 0.03853677104774, 0.07377838820594, -0.0469950809601, 0.99206919559768, 0.11657689956298],
      "ImagePositionPatient": [-835.3094923964, -902.03818932035, -224.97268683252],
      "ImageType": [
        "ORIGINAL",
        "PRIMARY",
        "M",
        "MB",
        "ND",
        "NORM",
        "MOSAIC"
],
      "ImagedNucleus": "1H",
      "ImagingFrequency": 123.259078,
      "InPlanePhaseEncodingDirection": "COL",
      "MRAcquisitionType": "2D",
      "MagneticFieldStrength": 3.0,
      "Manufacturer": "SIEMENS",
      "ManufacturerModelName": "Prisma",
      "Modality": "MR",
      "NumberOfAverages": 1.0,
      "NumberOfPhaseEncodingSteps": 82,
      "PercentPhaseFieldOfView": 100.0,
      "PercentSampling": 100.0,
      "PerformedProcedureStepStartTime": "194827.274000",
      "PhotometricInterpretation": "MONOCHROME2",
      "PixelBandwidth": 3050.0,
      "PixelRepresentation": 0,
      "PixelSpacing": [2.6829268932343, 2.6829268932343],
      "ProtocolName": "func_run-01_task-narratives_acq-ap-mb8",
      "RepetitionTime": 460.0,
      "Rows": 656,
      "SAR": 0.09703379875632,
      "SamplesPerPixel": 1,
      "ScanOptions": "FS",
      "ScanningSequence": "EP",
      "SequenceName": "epfid2d1_82",
      "SequenceVariant": [
        "SK",
        "SS"
],
      "SeriesDescription": "func_run-01_task-narratives_acq-ap-mb8",
      "SeriesNumber": 8,
      "SeriesTime": "200348.528000",
      "SliceLocation": -57.51552879757,
      "SliceThickness": 2.7000000476837,
      "SmallestImagePixelValue": 0,
      "SoftwareVersions": "syngo MR E11",
      "SpacingBetweenSlices": 2.7000000001706,
      "SpecificCharacterSet": "ISO_IR 100",
      "StudyID": "2",
      "StudyTime": "194827.222000",
      "TransmitCoilName": "Body",
      "VariableFlipAngleFlag": "N",
      "WindowCenterWidthExplanation": "Algo1"
    },
    "slices": {}
  },
  "time": {
    "samples": {
      "AcquisitionNumber": [1, 2, 3, 4, 5, 6, 7, 8, 9, 10, 11, 12, 13, 14, 15, 16, 17, 18, 19, 20, 21, 22, 23, 24, 25, 26, 27, 28, 29, 30, 31, 32, 33, 34, 35, 36, 37, 38, 39, 40, 41, 42, 43, 44, 45, 46, 47, 48, 49, 50, 51, 52, 53, 54, 55, 56, 57, 58, 59, 60, 61, 62, 63, 64, 65, 66, 67, 68, 69, 70, 71, 72, 73, 74, 75, 76, 77, 78, 79, 80, 81, 82, 83, 84, 85, 86, 87, 88, 89, 90, 91, 92, 93, 94, 95, 96, 97, 98, 99, 100, 101, 102, 103, 104, 105, 106, 107, 108, 109, 110, 111, 112, 113, 114, 115, 116, 117, 118, 119, 120, 121, 122, 123, 124, 125, 126, 127, 128, 129, 130, 131, 132, 133, 134, 135, 136, 137, 138, 139, 140, 141, 142, 143, 144, 145, 146, 147, 148, 149, 150, 151, 152, 153, 154, 155, 156, 157, 158, 159, 160, 161, 162, 163, 164, 165, 166, 167, 168, 169, 170, 171, 172, 173, 174, 175, 176, 177, 178, 179, 180, 181, 182, 183, 184, 185, 186, 187, 188, 189, 190, 191, 192, 193, 194, 195, 196, 197, 198, 199, 200, 201, 202, 203, 204, 205, 206, 207, 208, 209, 210, 211, 212, 213, 214, 215, 216, 217, 218, 219, 220, 221, 222, 223, 224, 225, 226, 227, 228, 229, 230, 231, 232, 233, 234, 235, 236, 237, 238, 239, 240, 241, 242, 243, 244, 245, 246, 247, 248, 249, 250, 251, 252, 253, 254, 255, 256, 257, 258, 259, 260, 261, 262, 263, 264, 265, 266, 267, 268, 269, 270, 271, 272, 273, 274, 275, 276, 277, 278, 279, 280, 281, 282, 283, 284, 285, 286, 287, 288, 289, 290, 291, 292, 293, 294, 295, 296, 297, 298, 299, 300, 301, 302, 303, 304, 305, 306, 307, 308, 309, 310, 311, 312, 313, 314, 315, 316, 317, 318, 319, 320, 321, 322, 323, 324, 325, 326, 327, 328, 329, 330, 331, 332, 333, 334, 335, 336, 337, 338, 339, 340, 341, 342, 343, 344, 345, 346, 347, 348, 349, 350, 351, 352, 353, 354, 355, 356, 357, 358, 359, 360, 361, 362, 363, 364, 365, 366, 367, 368, 369, 370, 371, 372, 373, 374, 375, 376, 377, 378, 379, 380, 381, 382, 383, 384, 385, 386, 387, 388, 389, 390, 391, 392, 393, 394, 395, 396, 397, 398, 399, 400, 401, 402, 403, 404, 405, 406, 407, 408, 409, 410, 411, 412, 413, 414, 415, 416, 417, 418, 419, 420, 421, 422, 423, 424, 425, 426, 427, 428, 429, 430, 431, 432, 433, 434, 435, 436, 437, 438, 439, 440, 441, 442, 443, 444, 445, 446, 447, 448, 449, 450, 451, 452, 453, 454, 455, 456, 457, 458, 459, 460, 461, 462, 463, 464, 465, 466, 467, 468, 469, 470, 471, 472, 473, 474, 475, 476, 477, 478, 479, 480, 481, 482, 483, 484, 485, 486, 487, 488, 489, 490, 491, 492, 493, 494, 495, 496, 497, 498, 499, 500, 501, 502, 503, 504, 505, 506, 507, 508, 509, 510, 511, 512, 513, 514, 515, 516, 517, 518, 519, 520, 521, 522, 523, 524, 525, 526, 527, 528, 529, 530, 531, 532, 533, 534, 535, 536, 537, 538, 539, 540, 541, 542, 543, 544, 545, 546, 547, 548, 549, 550, 551, 552, 553, 554, 555, 556, 557, 558, 559, 560, 561, 562, 563, 564, 565, 566, 567, 568, 569, 570, 571, 572, 573, 574, 575, 576, 577, 578, 579, 580, 581, 582, 583, 584, 585, 586, 587, 588, 589, 590, 591, 592, 593, 594, 595, 596, 597, 598, 599, 600, 601, 602, 603, 604, 605, 606, 607, 608, 609, 610, 611, 612, 613, 614, 615, 616, 617, 618, 619, 620, 621, 622, 623, 624, 625, 626, 627, 628, 629, 630, 631, 632, 633, 634, 635, 636, 637, 638, 639, 640, 641, 642, 643, 644, 645, 646, 647, 648, 649, 650, 651, 652, 653, 654, 655, 656, 657, 658, 659, 660, 661, 662, 663, 664, 665, 666, 667, 668, 669, 670, 671, 672, 673, 674, 675, 676, 677, 678, 679, 680, 681, 682, 683, 684, 685, 686, 687, 688, 689, 690, 691, 692, 693, 694, 695, 696, 697, 698, 699, 700, 701, 702, 703, 704, 705, 706, 707, 708, 709, 710, 711, 712, 713, 714, 715, 716, 717, 718, 719, 720, 721, 722, 723, 724, 725, 726, 727, 728, 729, 730, 731, 732, 733, 734, 735, 736, 737, 738, 739, 740, 741, 742, 743, 744, 745, 746, 747, 748, 749, 750, 751, 752, 753, 754, 755, 756, 757, 758, 759, 760, 761, 762, 763, 764, 765, 766, 767, 768, 769, 770, 771, 772, 773, 774, 775, 776, 777, 778, 779, 780, 781, 782, 783, 784, 785, 786, 787, 788, 789, 790, 791, 792, 793, 794, 795, 796, 797, 798, 799, 800, 801, 802, 803, 804, 805, 806, 807, 808, 809, 810, 811, 812, 813, 814, 815, 816, 817, 818, 819, 820, 821, 822, 823, 824, 825, 826, 827, 828, 829, 830, 831, 832, 833, 834, 835, 836, 837, 838, 839, 840, 841, 842, 843, 844, 845, 846, 847, 848, 849, 850, 851, 852, 853, 854, 855, 856, 857, 858, 859, 860, 861, 862, 863, 864, 865, 866, 867, 868, 869, 870, 871, 872, 873, 874, 875, 876, 877, 878, 879, 880, 881, 882, 883, 884, 885, 886, 887, 888, 889, 890, 891, 892, 893, 894, 895, 896, 897, 898, 899, 900, 901, 902, 903, 904, 905, 906, 907, 908, 909, 910, 911, 912, 913, 914, 915, 916, 917, 918, 919, 920, 921, 922, 923, 924, 925, 926, 927, 928, 929, 930, 931, 932, 933, 934, 935, 936, 937, 938, 939, 940, 941, 942, 943, 944, 945, 946, 947, 948, 949, 950, 951, 952, 953, 954, 955, 956, 957, 958, 959, 960, 961, 962, 963, 964, 965, 966, 967],
      "AcquisitionTime": ["200333.810000", "200334.270000", "200334.730000", "200335.190000", "200335.650000", "200336.110000", "200336.570000", "200337.030000", "200337.490000", "200337.950000", "200338.410000", "200338.870000", "200339.330000", "200339.790000", "200340.250000", "200340.710000", "200341.170000", "200341.630000", "200342.090000", "200342.550000", "200343.010000", "200343.470000", "200343.930000", "200344.390000", "200344.850000", "200345.310000", "200345.770000", "200346.230000", "200346.690000", "200347.150000", "200347.610000", "200348.070000", "200348.530000", "200348.990000", "200349.450000", "200349.910000", "200350.370000", "200350.830000", "200351.290000", "200351.750000", "200352.210000", "200352.670000", "200353.130000", "200353.590000", "200354.050000", "200354.510000", "200354.970000", "200355.430000", "200355.890000", "200356.350000", "200356.810000", "200357.270000", "200357.730000", "200358.190000", "200358.650000", "200359.110000", "200359.570000", "200400.030000", "200400.490000", "200400.950000", "200401.410000", "200401.870000", "200402.330000", "200402.790000", "200403.250000", "200403.710000", "200404.170000", "200404.630000", "200405.090000", "200405.550000", "200406.010000", "200406.470000", "200406.930000", "200407.390000", "200407.850000", "200408.310000", "200408.770000", "200409.230000", "200409.690000", "200410.150000", "200410.610000", "200411.070000", "200411.530000", "200411.990000", "200412.450000", "200412.910000", "200413.370000", "200413.830000", "200414.290000", "200414.750000", "200415.210000", "200415.670000", "200416.130000", "200416.590000", "200417.050000", "200417.510000", "200417.970000", "200418.430000", "200418.890000", "200419.350000", "200419.810000", "200420.270000", "200420.730000", "200421.190000", "200421.650000", "200422.110000", "200422.570000", "200423.030000", "200423.490000", "200423.950000", "200424.410000", "200424.870000", "200425.330000", "200425.790000", "200426.250000", "200426.710000", "200427.170000", "200427.630000", "200428.090000", "200428.550000", "200429.010000", "200429.470000", "200429.930000", "200430.390000", "200430.850000", "200431.310000", "200431.770000", "200432.230000", "200432.690000", "200433.150000", "200433.610000", "200434.070000", "200434.530000", "200434.990000", "200435.450000", "200435.910000", "200436.370000", "200436.830000", "200437.290000", "200437.750000", "200438.210000", "200438.670000", "200439.130000", "200439.590000", "200440.050000", "200440.510000", "200440.970000", "200441.430000", "200441.890000", "200442.350000", "200442.810000", "200443.270000", "200443.730000", "200444.190000", "200444.650000", "200445.110000", "200445.570000", "200446.030000", "200446.490000", "200446.950000", "200447.410000", "200447.870000", "200448.330000", "200448.790000", "200449.250000", "200449.710000", "200450.170000", "200450.630000", "200451.090000", "200451.550000", "200452.010000", "200452.470000", "200452.930000", "200453.390000", "200453.850000", "200454.310000", "200454.770000", "200455.230000", "200455.690000", "200456.150000", "200456.610000", "200457.070000", "200457.530000", "200457.990000", "200458.450000", "200458.910000", "200459.370000", "200459.830000", "200500.290000", "200500.750000", "200501.210000", "200501.670000", "200502.130000", "200502.590000", "200503.050000", "200503.510000", "200503.970000", "200504.430000", "200504.890000", "200505.350000", "200505.810000", "200506.270000", "200506.730000", "200507.190000", "200507.650000", "200508.110000", "200508.570000", "200509.030000", "200509.490000", "200509.950000", "200510.410000", "200510.870000", "200511.330000", "200511.790000", "200512.250000", "200512.710000", "200513.170000", "200513.630000", "200514.090000", "200514.550000", "200515.010000", "200515.470000", "200515.930000", "200516.390000", "200516.850000", "200517.310000", "200517.770000", "200518.230000", "200518.690000", "200519.150000", "200519.610000", "200520.070000", "200520.530000", "200520.990000", "200521.450000", "200521.910000", "200522.370000", "200522.830000", "200523.290000", "200523.750000", "200524.210000", "200524.670000", "200525.130000", "200525.590000", "200526.050000", "200526.510000", "200526.970000", "200527.430000", "200527.890000", "200528.350000", "200528.810000", "200529.270000", "200529.730000", "200530.190000", "200530.650000", "200531.110000", "200531.570000", "200532.030000", "200532.490000", "200532.950000", "200533.410000", "200533.870000", "200534.330000", "200534.790000", "200535.250000", "200535.710000", "200536.170000", "200536.630000", "200537.090000", "200537.550000", "200538.010000", "200538.470000", "200538.930000", "200539.390000", "200539.850000", "200540.310000", "200540.770000", "200541.230000", "200541.690000", "200542.150000", "200542.610000", "200543.070000", "200543.530000", "200543.990000", "200544.450000", "200544.910000", "200545.370000", "200545.830000", "200546.290000", "200546.750000", "200547.210000", "200547.670000", "200548.130000", "200548.590000", "200549.050000", "200549.510000", "200549.970000", "200550.430000", "200550.890000", "200551.350000", "200551.810000", "200552.270000", "200552.730000", "200553.190000", "200553.650000", "200554.110000", "200554.570000", "200555.030000", "200555.490000", "200555.950000", "200556.410000", "200556.870000", "200557.330000", "200557.790000", "200558.250000", "200558.710000", "200559.170000", "200559.630000", "200600.090000", "200600.550000", "200601.010000", "200601.470000", "200601.930000", "200602.390000", "200602.850000", "200603.310000", "200603.770000", "200604.230000", "200604.690000", "200605.150000", "200605.610000", "200606.070000", "200606.530000", "200606.990000", "200607.450000", "200607.910000", "200608.370000", "200608.830000", "200609.290000", "200609.750000", "200610.210000", "200610.670000", "200611.130000", "200611.590000", "200612.050000", "200612.510000", "200612.970000", "200613.430000", "200613.890000", "200614.350000", "200614.810000", "200615.270000", "200615.730000", "200616.190000", "200616.650000", "200617.110000", "200617.570000", "200618.030000", "200618.490000", "200618.950000", "200619.410000", "200619.870000", "200620.330000", "200620.790000", "200621.250000", "200621.710000", "200622.170000", "200622.630000", "200623.090000", "200623.550000", "200624.010000", "200624.470000", "200624.930000", "200625.390000", "200625.850000", "200626.310000", "200626.770000", "200627.230000", "200627.690000", "200628.150000", "200628.610000", "200629.070000", "200629.530000", "200629.990000", "200630.450000", "200630.910000", "200631.370000", "200631.830000", "200632.290000", "200632.750000", "200633.210000", "200633.670000", "200634.130000", "200634.590000", "200635.050000", "200635.510000", "200635.970000", "200636.430000", "200636.890000", "200637.350000", "200637.810000", "200638.270000", "200638.730000", "200639.190000", "200639.650000", "200640.110000", "200640.570000", "200641.030000", "200641.490000", "200641.950000", "200642.410000", "200642.870000", "200643.330000", "200643.790000", "200644.250000", "200644.710000", "200645.170000", "200645.630000", "200646.090000", "200646.550000", "200647.010000", "200647.470000", "200647.930000", "200648.390000", "200648.850000", "200649.310000", "200649.770000", "200650.230000", "200650.690000", "200651.150000", "200651.610000", "200652.070000", "200652.530000", "200652.990000", "200653.450000", "200653.910000", "200654.370000", "200654.830000", "200655.290000", "200655.750000", "200656.210000", "200656.670000", "200657.130000", "200657.590000", "200658.050000", "200658.510000", "200658.970000", "200659.430000", "200659.890000", "200700.350000", "200700.810000", "200701.270000", "200701.730000", "200702.190000", "200702.650000", "200703.110000", "200703.570000", "200704.030000", "200704.490000", "200704.950000", "200705.410000", "200705.870000", "200706.330000", "200706.790000", "200707.250000", "200707.710000", "200708.170000", "200708.630000", "200709.090000", "200709.550000", "200710.010000", "200710.470000", "200710.930000", "200711.390000", "200711.850000", "200712.310000", "200712.770000", "200713.230000", "200713.690000", "200714.150000", "200714.610000", "200715.070000", "200715.530000", "200715.990000", "200716.450000", "200716.910000", "200717.370000", "200717.830000", "200718.290000", "200718.750000", "200719.210000", "200719.670000", "200720.130000", "200720.590000", "200721.050000", "200721.510000", "200721.970000", "200722.430000", "200722.890000", "200723.350000", "200723.810000", "200724.270000", "200724.730000", "200725.190000", "200725.650000", "200726.110000", "200726.570000", "200727.030000", "200727.490000", "200727.950000", "200728.410000", "200728.870000", "200729.330000", "200729.790000", "200730.250000", "200730.710000", "200731.170000", "200731.630000", "200732.090000", "200732.550000", "200733.010000", "200733.470000", "200733.930000", "200734.390000", "200734.850000", "200735.310000", "200735.770000", "200736.230000", "200736.690000", "200737.150000", "200737.610000", "200738.070000", "200738.530000", "200738.990000", "200739.450000", "200739.910000", "200740.370000", "200740.830000", "200741.290000", "200741.750000", "200742.210000", "200742.670000", "200743.130000", "200743.590000", "200744.050000", "200744.510000", "200744.970000", "200745.430000", "200745.890000", "200746.350000", "200746.810000", "200747.270000", "200747.730000", "200748.190000", "200748.650000", "200749.110000", "200749.570000", "200750.030000", "200750.490000", "200750.950000", "200751.410000", "200751.870000", "200752.330000", "200752.790000", "200753.250000", "200753.710000", "200754.170000", "200754.630000", "200755.090000", "200755.550000", "200756.010000", "200756.470000", "200756.930000", "200757.390000", "200757.850000", "200758.310000", "200758.770000", "200759.230000", "200759.690000", "200800.150000", "200800.610000", "200801.070000", "200801.530000", "200801.990000", "200802.450000", "200802.910000", "200803.370000", "200803.830000", "200804.290000", "200804.750000", "200805.210000", "200805.670000", "200806.130000", "200806.590000", "200807.050000", "200807.510000", "200807.970000", "200808.430000", "200808.890000", "200809.350000", "200809.810000", "200810.270000", "200810.730000", "200811.190000", "200811.650000", "200812.110000", "200812.570000", "200813.030000", "200813.490000", "200813.950000", "200814.410000", "200814.870000", "200815.330000", "200815.790000", "200816.250000", "200816.710000", "200817.170000", "200817.630000", "200818.090000", "200818.550000", "200819.010000", "200819.470000", "200819.930000", "200820.390000", "200820.850000", "200821.310000", "200821.770000", "200822.230000", "200822.690000", "200823.150000", "200823.610000", "200824.070000", "200824.530000", "200824.990000", "200825.450000", "200825.910000", "200826.370000", "200826.830000", "200827.290000", "200827.750000", "200828.210000", "200828.670000", "200829.130000", "200829.590000", "200830.050000", "200830.510000", "200830.970000", "200831.430000", "200831.890000", "200832.350000", "200832.810000", "200833.270000", "200833.730000", "200834.190000", "200834.650000", "200835.110000", "200835.570000", "200836.030000", "200836.490000", "200836.950000", "200837.410000", "200837.870000", "200838.330000", "200838.790000", "200839.250000", "200839.710000", "200840.170000", "200840.630000", "200841.090000", "200841.550000", "200842.010000", "200842.470000", "200842.930000", "200843.390000", "200843.850000", "200844.310000", "200844.770000", "200845.230000", "200845.690000", "200846.150000", "200846.610000", "200847.070000", "200847.530000", "200847.990000", "200848.450000", "200848.910000", "200849.370000", "200849.830000", "200850.290000", "200850.750000", "200851.210000", "200851.670000", "200852.130000", "200852.590000", "200853.050000", "200853.510000", "200853.970000", "200854.430000", "200854.890000", "200855.350000", "200855.810000", "200856.270000", "200856.730000", "200857.190000", "200857.650000", "200858.110000", "200858.570000", "200859.030000", "200859.490000", "200859.950000", "200900.410000", "200900.870000", "200901.330000", "200901.790000", "200902.250000", "200902.710000", "200903.170000", "200903.630000", "200904.090000", "200904.550000", "200905.010000", "200905.470000", "200905.930000", "200906.390000", "200906.850000", "200907.310000", "200907.770000", "200908.230000", "200908.690000", "200909.150000", "200909.610000", "200910.070000", "200910.530000", "200910.990000", "200911.450000", "200911.910000", "200912.370000", "200912.830000", "200913.290000", "200913.750000", "200914.210000", "200914.670000", "200915.130000", "200915.590000", "200916.050000", "200916.510000", "200916.970000", "200917.430000", "200917.890000", "200918.350000", "200918.810000", "200919.270000", "200919.730000", "200920.190000", "200920.650000", "200921.110000", "200921.570000", "200922.030000", "200922.490000", "200922.950000", "200923.410000", "200923.870000", "200924.330000", "200924.790000", "200925.250000", "200925.710000", "200926.170000", "200926.630000", "200927.090000", "200927.550000", "200928.010000", "200928.470000", "200928.930000", "200929.390000", "200929.850000", "200930.310000", "200930.770000", "200931.230000", "200931.690000", "200932.150000", "200932.610000", "200933.070000", "200933.530000", "200933.990000", "200934.450000", "200934.910000", "200935.370000", "200935.830000", "200936.290000", "200936.750000", "200937.210000", "200937.670000", "200938.130000", "200938.590000", "200939.050000", "200939.510000", "200939.970000", "200940.430000", "200940.890000", "200941.350000", "200941.810000", "200942.270000", "200942.730000", "200943.190000", "200943.650000", "200944.110000", "200944.570000", "200945.030000", "200945.490000", "200945.950000", "200946.410000", "200946.870000", "200947.330000", "200947.790000", "200948.250000", "200948.710000", "200949.170000", "200949.630000", "200950.090000", "200950.550000", "200951.010000", "200951.470000", "200951.930000", "200952.390000", "200952.850000", "200953.310000", "200953.770000", "200954.230000", "200954.690000", "200955.150000", "200955.610000", "200956.070000", "200956.530000", "200956.990000", "200957.450000", "200957.910000", "200958.370000", "200958.830000", "200959.290000", "200959.750000", "201000.210000", "201000.670000", "201001.130000", "201001.590000", "201002.050000", "201002.510000", "201002.970000", "201003.430000", "201003.890000", "201004.350000", "201004.810000", "201005.270000", "201005.730000", "201006.190000", "201006.650000", "201007.110000", "201007.570000", "201008.030000", "201008.490000", "201008.950000", "201009.410000", "201009.870000", "201010.330000", "201010.790000", "201011.250000", "201011.710000", "201012.170000", "201012.630000", "201013.090000", "201013.550000", "201014.010000", "201014.470000", "201014.930000", "201015.390000", "201015.850000", "201016.310000", "201016.770000", "201017.230000", "201017.690000", "201018.150000", "201018.610000", "201019.070000", "201019.530000", "201019.990000", "201020.450000", "201020.910000", "201021.370000", "201021.830000", "201022.290000", "201022.750000", "201023.210000", "201023.670000", "201024.130000", "201024.590000", "201025.050000", "201025.510000", "201025.970000", "201026.430000", "201026.890000", "201027.350000", "201027.810000", "201028.270000", "201028.730000", "201029.190000", "201029.650000", "201030.110000", "201030.570000", "201031.030000", "201031.490000", "201031.950000", "201032.410000", "201032.870000", "201033.330000", "201033.790000", "201034.250000", "201034.710000", "201035.170000", "201035.630000", "201036.090000", "201036.550000", "201037.010000", "201037.470000", "201037.930000", "201038.390000", "201038.850000", "201039.310000", "201039.770000", "201040.230000", "201040.690000", "201041.150000", "201041.610000", "201042.070000", "201042.530000", "201042.990000", "201043.450000", "201043.910000", "201044.370000", "201044.830000", "201045.290000", "201045.750000", "201046.210000", "201046.670000", "201047.130000", "201047.590000", "201048.050000", "201048.510000", "201048.970000", "201049.430000", "201049.890000", "201050.350000", "201050.810000", "201051.270000", "201051.730000", "201052.190000", "201052.650000", "201053.110000", "201053.570000", "201054.030000", "201054.490000", "201054.950000", "201055.410000", "201055.870000", "201056.330000", "201056.790000", "201057.250000", "201057.710000", "201058.170000"],
