{
  "AcquisitionMatrixPE": 82,
  "AcquisitionNumber": 1,
  "AcquisitionTime": "20:11:37.612500",
  "BandwidthPerPixelPhaseEncode": 24.888,
  "BaseResolution": 82,
  "BodyPartExamined": "BRAIN",
  "ConsistencyInfo": "N4_VE11E_LATEST_20181129",
  "ConversionSoftware": "dcm2niix",
  "ConversionSoftwareVersion": "v1.0.20201102",
  "DerivedVendorReportedEchoSpacing": 0.00049,
  "DeviceSerialNumber": "66112",
  "DwellTime": 2e-06,
  "EchoTime": 0.0272,
  "EchoTrainLength": 82,
  "EffectiveEchoSpacing": 0.00049,
  "FlipAngle": 44,
  "ImageComments": "Unaliased MB8/PE3",
  "ImageOrientationPatientDICOM": [0.99653, 0.0385368, 0.0737784, -0.0469951, 0.992069, 0.116577],
  "ImageType": [
    "ORIGINAL",
    "PRIMARY",
    "M",
    "MB",
    "ND",
    "NORM",
    "MOSAIC"
],
  "ImagingFrequency": 123.259,
  "InPlanePhaseEncodingDirectionDICOM": "COL",
  "InstitutionAddress": "Maynard 3,Hanover,NH,US,03755",
  "InstitutionName": "Dartmouth College - PBS",
  "InstitutionalDepartmentName": "Department",
  "MRAcquisitionType": "2D",
  "MagneticFieldStrength": 3,
  "Manufacturer": "Siemens",
  "ManufacturersModelName": "Prisma",
  "Modality": "MR",
  "MultibandAccelerationFactor": 8,
  "PartialFourier": 1,
  "PatientPosition": "HFS",
  "PercentPhaseFOV": 100,
  "PercentSampling": 100,
  "PhaseEncodingDirection": "j-",
  "PhaseEncodingSteps": 82,
  "PhaseResolution": 1,
  "PixelBandwidth": 3050,
  "ProcedureStepDescription": "Wager_Wager^1076_spacetop",
  "ProtocolName": "func_run-02_task-narratives_acq-ap-mb8",
  "PulseSequenceDetails": "%CustomerSeq%\\cmrr_mbep2d_bold",
  "ReceiveCoilActiveElements": "HEA;HEP",
  "ReceiveCoilName": "Head_32",
  "ReconMatrixPE": 82,
  "RepetitionTime": 0.46,
  "SAR": 0.0970989,
  "ScanOptions": "FS",
  "ScanningSequence": "EP",
  "SequenceName": "epfid2d1_82",
  "SequenceVariant": "SK\\SS",
  "SeriesDescription": "func_run-02_task-narratives_acq-ap-mb8",
  "SeriesNumber": 10,
  "ShimSetting": [4231, -7794, -7205, 392, -93, -85, 7, 32],
  "SliceThickness": 2.7,
  "SliceTiming": [0, 0.2525, 0.0625, 0.315, 0.125, 0.3775, 0.19, 0, 0.2525, 0.0625, 0.315, 0.125, 0.3775, 0.19, 0, 0.2525, 0.0625, 0.315, 0.125, 0.3775, 0.19, 0, 0.2525, 0.0625, 0.315, 0.125, 0.3775, 0.19, 0, 0.2525, 0.0625, 0.315, 0.125, 0.3775, 0.19, 0, 0.2525, 0.0625, 0.315, 0.125, 0.3775, 0.19, 0, 0.2525, 0.0625, 0.315, 0.125, 0.3775, 0.19, 0, 0.2525, 0.0625, 0.315, 0.125, 0.3775, 0.19],
  "SoftwareVersions": "syngo MR E11",
  "SpacingBetweenSlices": 2.7,
  "StationName": "AWP66112",
  "TaskName": "narratives",
  "TotalReadoutTime": 0.03969,
  "TxRefAmp": 234.082,
  "WipMemBlock": "09a2fb03-3b1e-464d-8d6f-2368cf77c844||Sequence: R016 ve11e/master r/434b28f1; Aug  7 2019 18:53:46 by eja",
  "dcmmeta_affine": [
    [-2.673616647720337, -0.1260843724012375, 0.18549208343029022, 114.38056182861328],
    [-0.10339134186506271, 2.661649227142334, 0.3230268657207489, -107.12200164794922],
    [0.19794201850891113, -0.31276729702949524, 2.6741814613342285, -53.06496047973633],
    [0.0, 0.0, 0.0, 1.0]
],
  "dcmmeta_reorient_transform": [
    [0.0, -1.0, 0.0, 81.0],
    [1.0, 0.0, 0.0, 0.0],
    [0.0, 0.0, 1.0, 0.0],
    [0.0, 0.0, 0.0, 1.0]
],
  "dcmmeta_shape": [82, 82, 56, 1098],
  "dcmmeta_slice_dim": 2,
  "dcmmeta_version": 0.6,
  "global": {
    "const": {
      "AccessionNumber": "A004785",
      "AcquisitionMatrix": [82, 0, 0, 82],
      "AngioFlag": "N",
      "BitsAllocated": 16,
      "BitsStored": 16,
      "BodyPartExamined": "BRAIN",
      "Columns": 656,
      "EchoNumbers": 1,
      "EchoTime": 27.2,
      "EchoTrainLength": 82,
      "FlipAngle": 44.0,
      "HighBit": 15,
      "ImageOrientationPatient": [0.99652981225398, 0.03853677104774, 0.07377838820594, -0.0469950809601, 0.99206919559768, 0.11657689956298],
      "ImagePositionPatient": [-835.3094923964, -902.03818932035, -224.97268683252],
      "ImageType": [
        "ORIGINAL",
        "PRIMARY",
        "M",
        "MB",
        "ND",
        "NORM",
        "MOSAIC"
],
      "ImagedNucleus": "1H",
      "ImagingFrequency": 123.259083,
      "InPlanePhaseEncodingDirection": "COL",
      "MRAcquisitionType": "2D",
      "MagneticFieldStrength": 3.0,
      "Manufacturer": "SIEMENS",
      "ManufacturerModelName": "Prisma",
      "Modality": "MR",
      "NumberOfAverages": 1.0,
      "NumberOfPhaseEncodingSteps": 82,
      "PercentPhaseFieldOfView": 100.0,
      "PercentSampling": 100.0,
      "PerformedProcedureStepStartTime": "194827.274000",
      "PhotometricInterpretation": "MONOCHROME2",
      "PixelBandwidth": 3050.0,
      "PixelRepresentation": 0,
      "PixelSpacing": [2.6829268932343, 2.6829268932343],
      "ProtocolName": "func_run-02_task-narratives_acq-ap-mb8",
      "RepetitionTime": 460.0,
      "Rows": 656,
      "SAR": 0.0970988717296,
      "SamplesPerPixel": 1,
      "ScanOptions": "FS",
      "ScanningSequence": "EP",
      "SequenceName": "epfid2d1_82",
      "SequenceVariant": [
        "SK",
        "SS"
],
      "SeriesDescription": "func_run-02_task-narratives_acq-ap-mb8",
      "SeriesNumber": 10,
      "SeriesTime": "201148.601000",
      "SliceLocation": -57.51552879757,
      "SliceThickness": 2.7000000476837,
      "SmallestImagePixelValue": 0,
      "SoftwareVersions": "syngo MR E11",
      "SpacingBetweenSlices": 2.7000000001706,
      "SpecificCharacterSet": "ISO_IR 100",
      "StudyID": "2",
      "StudyTime": "194827.222000",
      "TransmitCoilName": "Body",
      "VariableFlipAngleFlag": "N",
      "WindowCenterWidthExplanation": "Algo1"
    },
    "slices": {}
  },
  "time": {
    "samples": {
      "AcquisitionNumber": [1, 2, 3, 4, 5, 6, 7, 8, 9, 10, 11, 12, 13, 14, 15, 16, 17, 18, 19, 20, 21, 22, 23, 24, 25, 26, 27, 28, 29, 30, 31, 32, 33, 34, 35, 36, 37, 38, 39, 40, 41, 42, 43, 44, 45, 46, 47, 48, 49, 50, 51, 52, 53, 54, 55, 56, 57, 58, 59, 60, 61, 62, 63, 64, 65, 66, 67, 68, 69, 70, 71, 72, 73, 74, 75, 76, 77, 78, 79, 80, 81, 82, 83, 84, 85, 86, 87, 88, 89, 90, 91, 92, 93, 94, 95, 96, 97, 98, 99, 100, 101, 102, 103, 104, 105, 106, 107, 108, 109, 110, 111, 112, 113, 114, 115, 116, 117, 118, 119, 120, 121, 122, 123, 124, 125, 126, 127, 128, 129, 130, 131, 132, 133, 134, 135, 136, 137, 138, 139, 140, 141, 142, 143, 144, 145, 146, 147, 148, 149, 150, 151, 152, 153, 154, 155, 156, 157, 158, 159, 160, 161, 162, 163, 164, 165, 166, 167, 168, 169, 170, 171, 172, 173, 174, 175, 176, 177, 178, 179, 180, 181, 182, 183, 184, 185, 186, 187, 188, 189, 190, 191, 192, 193, 194, 195, 196, 197, 198, 199, 200, 201, 202, 203, 204, 205, 206, 207, 208, 209, 210, 211, 212, 213, 214, 215, 216, 217, 218, 219, 220, 221, 222, 223, 224, 225, 226, 227, 228, 229, 230, 231, 232, 233, 234, 235, 236, 237, 238, 239, 240, 241, 242, 243, 244, 245, 246, 247, 248, 249, 250, 251, 252, 253, 254, 255, 256, 257, 258, 259, 260, 261, 262, 263, 264, 265, 266, 267, 268, 269, 270, 271, 272, 273, 274, 275, 276, 277, 278, 279, 280, 281, 282, 283, 284, 285, 286, 287, 288, 289, 290, 291, 292, 293, 294, 295, 296, 297, 298, 299, 300, 301, 302, 303, 304, 305, 306, 307, 308, 309, 310, 311, 312, 313, 314, 315, 316, 317, 318, 319, 320, 321, 322, 323, 324, 325, 326, 327, 328, 329, 330, 331, 332, 333, 334, 335, 336, 337, 338, 339, 340, 341, 342, 343, 344, 345, 346, 347, 348, 349, 350, 351, 352, 353, 354, 355, 356, 357, 358, 359, 360, 361, 362, 363, 364, 365, 366, 367, 368, 369, 370, 371, 372, 373, 374, 375, 376, 377, 378, 379, 380, 381, 382, 383, 384, 385, 386, 387, 388, 389, 390, 391, 392, 393, 394, 395, 396, 397, 398, 399, 400, 401, 402, 403, 404, 405, 406, 407, 408, 409, 410, 411, 412, 413, 414, 415, 416, 417, 418, 419, 420, 421, 422, 423, 424, 425, 426, 427, 428, 429, 430, 431, 432, 433, 434, 435, 436, 437, 438, 439, 440, 441, 442, 443, 444, 445, 446, 447, 448, 449, 450, 451, 452, 453, 454, 455, 456, 457, 458, 459, 460, 461, 462, 463, 464, 465, 466, 467, 468, 469, 470, 471, 472, 473, 474, 475, 476, 477, 478, 479, 480, 481, 482, 483, 484, 485, 486, 487, 488, 489, 490, 491, 492, 493, 494, 495, 496, 497, 498, 499, 500, 501, 502, 503, 504, 505, 506, 507, 508, 509, 510, 511, 512, 513, 514, 515, 516, 517, 518, 519, 520, 521, 522, 523, 524, 525, 526, 527, 528, 529, 530, 531, 532, 533, 534, 535, 536, 537, 538, 539, 540, 541, 542, 543, 544, 545, 546, 547, 548, 549, 550, 551, 552, 553, 554, 555, 556, 557, 558, 559, 560, 561, 562, 563, 564, 565, 566, 567, 568, 569, 570, 571, 572, 573, 574, 575, 576, 577, 578, 579, 580, 581, 582, 583, 584, 585, 586, 587, 588, 589, 590, 591, 592, 593, 594, 595, 596, 597, 598, 599, 600, 601, 602, 603, 604, 605, 606, 607, 608, 609, 610, 611, 612, 613, 614, 615, 616, 617, 618, 619, 620, 621, 622, 623, 624, 625, 626, 627, 628, 629, 630, 631, 632, 633, 634, 635, 636, 637, 638, 639, 640, 641, 642, 643, 644, 645, 646, 647, 648, 649, 650, 651, 652, 653, 654, 655, 656, 657, 658, 659, 660, 661, 662, 663, 664, 665, 666, 667, 668, 669, 670, 671, 672, 673, 674, 675, 676, 677, 678, 679, 680, 681, 682, 683, 684, 685, 686, 687, 688, 689, 690, 691, 692, 693, 694, 695, 696, 697, 698, 699, 700, 701, 702, 703, 704, 705, 706, 707, 708, 709, 710, 711, 712, 713, 714, 715, 716, 717, 718, 719, 720, 721, 722, 723, 724, 725, 726, 727, 728, 729, 730, 731, 732, 733, 734, 735, 736, 737, 738, 739, 740, 741, 742, 743, 744, 745, 746, 747, 748, 749, 750, 751, 752, 753, 754, 755, 756, 757, 758, 759, 760, 761, 762, 763, 764, 765, 766, 767, 768, 769, 770, 771, 772, 773, 774, 775, 776, 777, 778, 779, 780, 781, 782, 783, 784, 785, 786, 787, 788, 789, 790, 791, 792, 793, 794, 795, 796, 797, 798, 799, 800, 801, 802, 803, 804, 805, 806, 807, 808, 809, 810, 811, 812, 813, 814, 815, 816, 817, 818, 819, 820, 821, 822, 823, 824, 825, 826, 827, 828, 829, 830, 831, 832, 833, 834, 835, 836, 837, 838, 839, 840, 841, 842, 843, 844, 845, 846, 847, 848, 849, 850, 851, 852, 853, 854, 855, 856, 857, 858, 859, 860, 861, 862, 863, 864, 865, 866, 867, 868, 869, 870, 871, 872, 873, 874, 875, 876, 877, 878, 879, 880, 881, 882, 883, 884, 885, 886, 887, 888, 889, 890, 891, 892, 893, 894, 895, 896, 897, 898, 899, 900, 901, 902, 903, 904, 905, 906, 907, 908, 909, 910, 911, 912, 913, 914, 915, 916, 917, 918, 919, 920, 921, 922, 923, 924, 925, 926, 927, 928, 929, 930, 931, 932, 933, 934, 935, 936, 937, 938, 939, 940, 941, 942, 943, 944, 945, 946, 947, 948, 949, 950, 951, 952, 953, 954, 955, 956, 957, 958, 959, 960, 961, 962, 963, 964, 965, 966, 967, 968, 969, 970, 971, 972, 973, 974, 975, 976, 977, 978, 979, 980, 981, 982, 983, 984, 985, 986, 987, 988, 989, 990, 991, 992, 993, 994, 995, 996, 997, 998, 999, 1000, 1001, 1002, 1003, 1004, 1005, 1006, 1007, 1008, 1009, 1010, 1011, 1012, 1013, 1014, 1015, 1016, 1017, 1018, 1019, 1020, 1021, 1022, 1023, 1024, 1025, 1026, 1027, 1028, 1029, 1030, 1031, 1032, 1033, 1034, 1035, 1036, 1037, 1038, 1039, 1040, 1041, 1042, 1043, 1044, 1045, 1046, 1047, 1048, 1049, 1050, 1051, 1052, 1053, 1054, 1055, 1056, 1057, 1058, 1059, 1060, 1061, 1062, 1063, 1064, 1065, 1066, 1067, 1068, 1069, 1070, 1071, 1072, 1073, 1074, 1075, 1076, 1077, 1078, 1079, 1080, 1081, 1082, 1083, 1084, 1085, 1086, 1087, 1088, 1089, 1090, 1091, 1092, 1093, 1094, 1095, 1096, 1097, 1098],
      "AcquisitionTime": ["201137.612500", "201138.072500", "201138.532500", "201138.992500", "201139.452500", "201139.912500", "201140.372500", "201140.832500", "201141.292500", "201141.752500", "201142.212500", "201142.672500", "201143.132500", "201143.592500", "201144.052500", "201144.512500", "201144.972500", "201145.432500", "201145.892500", "201146.352500", "201146.812500", "201147.272500", "201147.732500", "201148.192500", "201148.652500", "201149.112500", "201149.572500", "201150.032500", "201150.492500", "201150.952500", "201151.412500", "201151.872500", "201152.332500", "201152.792500", "201153.252500", "201153.712500", "201154.172500", "201154.632500", "201155.092500", "201155.552500", "201156.012500", "201156.472500", "201156.932500", "201157.392500", "201157.852500", "201158.312500", "201158.772500", "201159.232500", "201159.692500", "201200.152500", "201200.612500", "201201.072500", "201201.532500", "201201.992500", "201202.452500", "201202.912500", "201203.372500", "201203.832500", "201204.292500", "201204.752500", "201205.212500", "201205.672500", "201206.132500", "201206.592500", "201207.052500", "201207.512500", "201207.972500", "201208.432500", "201208.892500", "201209.352500", "201209.812500", "201210.272500", "201210.732500", "201211.192500", "201211.652500", "201212.112500", "201212.572500", "201213.032500", "201213.492500", "201213.952500", "201214.412500", "201214.872500", "201215.332500", "201215.792500", "201216.252500", "201216.712500", "201217.172500", "201217.632500", "201218.092500", "201218.552500", "201219.012500", "201219.472500", "201219.932500", "201220.392500", "201220.852500", "201221.312500", "201221.772500", "201222.232500", "201222.692500", "201223.152500", "201223.612500", "201224.072500", "201224.532500", "201224.992500", "201225.452500", "201225.912500", "201226.372500", "201226.832500", "201227.292500", "201227.752500", "201228.212500", "201228.672500", "201229.132500", "201229.592500", "201230.052500", "201230.512500", "201230.972500", "201231.432500", "201231.892500", "201232.352500", "201232.812500", "201233.272500", "201233.732500", "201234.192500", "201234.652500", "201235.112500", "201235.572500", "201236.032500", "201236.492500", "201236.952500", "201237.412500", "201237.872500", "201238.332500", "201238.792500", "201239.252500", "201239.712500", "201240.172500", "201240.632500", "201241.092500", "201241.552500", "201242.012500", "201242.472500", "201242.932500", "201243.392500", "201243.852500", "201244.312500", "201244.772500", "201245.232500", "201245.692500", "201246.152500", "201246.612500", "201247.072500", "201247.532500", "201247.992500", "201248.452500", "201248.912500", "201249.372500", "201249.832500", "201250.292500", "201250.752500", "201251.212500", "201251.672500", "201252.132500", "201252.592500", "201253.052500", "201253.512500", "201253.972500", "201254.432500", "201254.892500", "201255.352500", "201255.812500", "201256.272500", "201256.732500", "201257.192500", "201257.652500", "201258.112500", "201258.572500", "201259.032500", "201259.492500", "201259.952500", "201300.412500", "201300.872500", "201301.332500", "201301.792500", "201302.252500", "201302.712500", "201303.172500", "201303.632500", "201304.092500", "201304.552500", "201305.012500", "201305.472500", "201305.932500", "201306.392500", "201306.852500", "201307.312500", "201307.772500", "201308.232500", "201308.692500", "201309.152500", "201309.612500", "201310.072500", "201310.532500", "201310.992500", "201311.452500", "201311.912500", "201312.372500", "201312.832500", "201313.292500", "201313.752500", "201314.212500", "201314.672500", "201315.132500", "201315.592500", "201316.052500", "201316.512500", "201316.972500", "201317.432500", "201317.892500", "201318.352500", "201318.812500", "201319.272500", "201319.732500", "201320.192500", "201320.652500", "201321.112500", "201321.572500", "201322.032500", "201322.492500", "201322.952500", "201323.412500", "201323.872500", "201324.332500", "201324.792500", "201325.252500", "201325.712500", "201326.172500", "201326.632500", "201327.092500", "201327.552500", "201328.012500", "201328.472500", "201328.932500", "201329.392500", "201329.852500", "201330.312500", "201330.772500", "201331.232500", "201331.692500", "201332.152500", "201332.612500", "201333.072500", "201333.532500", "201333.992500", "201334.452500", "201334.912500", "201335.372500", "201335.832500", "201336.292500", "201336.752500", "201337.212500", "201337.672500", "201338.132500", "201338.592500", "201339.052500", "201339.512500", "201339.972500", "201340.432500", "201340.892500", "201341.352500", "201341.812500", "201342.272500", "201342.732500", "201343.192500", "201343.652500", "201344.112500", "201344.572500", "201345.032500", "201345.492500", "201345.952500", "201346.412500", "201346.872500", "201347.332500", "201347.792500", "201348.252500", "201348.712500", "201349.172500", "201349.632500", "201350.092500", "201350.552500", "201351.012500", "201351.472500", "201351.932500", "201352.392500", "201352.852500", "201353.312500", "201353.772500", "201354.232500", "201354.692500", "201355.152500", "201355.612500", "201356.072500", "201356.532500", "201356.992500", "201357.452500", "201357.912500", "201358.372500", "201358.832500", "201359.292500", "201359.752500", "201400.212500", "201400.672500", "201401.132500", "201401.592500", "201402.052500", "201402.512500", "201402.972500", "201403.432500", "201403.892500", "201404.352500", "201404.812500", "201405.272500", "201405.732500", "201406.192500", "201406.652500", "201407.112500", "201407.572500", "201408.032500", "201408.492500", "201408.952500", "201409.412500", "201409.872500", "201410.332500", "201410.792500", "201411.252500", "201411.712500", "201412.172500", "201412.632500", "201413.092500", "201413.552500", "201414.012500", "201414.472500", "201414.932500", "201415.392500", "201415.852500", "201416.312500", "201416.772500", "201417.232500", "201417.692500", "201418.152500", "201418.612500", "201419.072500", "201419.532500", "201419.992500", "201420.452500", "201420.912500", "201421.372500", "201421.832500", "201422.292500", "201422.752500", "201423.212500", "201423.672500", "201424.132500", "201424.592500", "201425.052500", "201425.512500", "201425.972500", "201426.432500", "201426.892500", "201427.352500", "201427.812500", "201428.272500", "201428.732500", "201429.192500", "201429.652500", "201430.112500", "201430.572500", "201431.032500", "201431.492500", "201431.952500", "201432.412500", "201432.872500", "201433.332500", "201433.792500", "201434.252500", "201434.712500", "201435.172500", "201435.632500", "201436.092500", "201436.552500", "201437.012500", "201437.472500", "201437.932500", "201438.392500", "201438.852500", "201439.312500", "201439.772500", "201440.232500", "201440.692500", "201441.152500", "201441.612500", "201442.072500", "201442.532500", "201442.992500", "201443.452500", "201443.912500", "201444.372500", "201444.832500", "201445.292500", "201445.752500", "201446.212500", "201446.672500", "201447.132500", "201447.592500", "201448.052500", "201448.512500", "201448.972500", "201449.432500", "201449.892500", "201450.352500", "201450.812500", "201451.272500", "201451.732500", "201452.192500", "201452.652500", "201453.112500", "201453.572500", "201454.032500", "201454.492500", "201454.952500", "201455.412500", "201455.872500", "201456.332500", "201456.792500", "201457.252500", "201457.712500", "201458.172500", "201458.632500", "201459.092500", "201459.552500", "201500.012500", "201500.472500", "201500.932500", "201501.392500", "201501.852500", "201502.312500", "201502.772500", "201503.232500", "201503.692500", "201504.152500", "201504.612500", "201505.072500", "201505.532500", "201505.992500", "201506.452500", "201506.912500", "201507.372500", "201507.832500", "201508.292500", "201508.752500", "201509.212500", "201509.672500", "201510.132500", "201510.592500", "201511.052500", "201511.512500", "201511.972500", "201512.432500", "201512.892500", "201513.352500", "201513.812500", "201514.272500", "201514.732500", "201515.192500", "201515.652500", "201516.112500", "201516.572500", "201517.032500", "201517.492500", "201517.952500", "201518.412500", "201518.872500", "201519.332500", "201519.792500", "201520.252500", "201520.712500", "201521.172500", "201521.632500", "201522.092500", "201522.552500", "201523.012500", "201523.472500", "201523.932500", "201524.392500", "201524.852500", "201525.312500", "201525.772500", "201526.232500", "201526.692500", "201527.152500", "201527.612500", "201528.072500", "201528.532500", "201528.992500", "201529.452500", "201529.912500", "201530.372500", "201530.832500", "201531.292500", "201531.752500", "201532.212500", "201532.672500", "201533.132500", "201533.592500", "201534.052500", "201534.512500", "201534.972500", "201535.432500", "201535.892500", "201536.352500", "201536.812500", "201537.272500", "201537.732500", "201538.192500", "201538.652500", "201539.112500", "201539.572500", "201540.032500", "201540.492500", "201540.952500", "201541.412500", "201541.872500", "201542.332500", "201542.792500", "201543.252500", "201543.712500", "201544.172500", "201544.632500", "201545.092500", "201545.552500", "201546.012500", "201546.472500", "201546.932500", "201547.392500", "201547.852500", "201548.312500", "201548.772500", "201549.232500", "201549.692500", "201550.152500", "201550.612500", "201551.072500", "201551.532500", "201551.992500", "201552.452500", "201552.912500", "201553.372500", "201553.832500", "201554.292500", "201554.752500", "201555.212500", "201555.672500", "201556.132500", "201556.592500", "201557.052500", "201557.512500", "201557.972500", "201558.432500", "201558.892500", "201559.352500", "201559.812500", "201600.272500", "201600.732500", "201601.192500", "201601.652500", "201602.112500", "201602.572500", "201603.032500", "201603.492500", "201603.952500", "201604.412500", "201604.872500", "201605.332500", "201605.792500", "201606.252500", "201606.712500", "201607.172500", "201607.632500", "201608.092500", "201608.552500", "201609.012500", "201609.472500", "201609.932500", "201610.392500", "201610.852500", "201611.312500", "201611.772500", "201612.232500", "201612.692500", "201613.152500", "201613.612500", "201614.072500", "201614.532500", "201614.992500", "201615.452500", "201615.912500", "201616.372500", "201616.832500", "201617.292500", "201617.752500", "201618.212500", "201618.672500", "201619.132500", "201619.592500", "201620.052500", "201620.512500", "201620.972500", "201621.432500", "201621.892500", "201622.352500", "201622.812500", "201623.272500", "201623.732500", "201624.192500", "201624.652500", "201625.112500", "201625.572500", "201626.032500", "201626.492500", "201626.952500", "201627.412500", "201627.872500", "201628.332500", "201628.792500", "201629.252500", "201629.712500", "201630.172500", "201630.632500", "201631.092500", "201631.552500", "201632.012500", "201632.472500", "201632.932500", "201633.392500", "201633.852500", "201634.312500", "201634.772500", "201635.232500", "201635.692500", "201636.152500", "201636.612500", "201637.072500", "201637.532500", "201637.992500", "201638.452500", "201638.912500", "201639.372500", "201639.832500", "201640.292500", "201640.752500", "201641.212500", "201641.672500", "201642.132500", "201642.592500", "201643.052500", "201643.512500", "201643.972500", "201644.432500", "201644.892500", "201645.352500", "201645.812500", "201646.272500", "201646.732500", "201647.192500", "201647.652500", "201648.112500", "201648.572500", "201649.032500", "201649.492500", "201649.952500", "201650.412500", "201650.872500", "201651.332500", "201651.792500", "201652.252500", "201652.712500", "201653.172500", "201653.632500", "201654.092500", "201654.552500", "201655.012500", "201655.472500", "201655.932500", "201656.392500", "201656.852500", "201657.312500", "201657.772500", "201658.232500", "201658.692500", "201659.152500", "201659.612500", "201700.072500", "201700.532500", "201700.992500", "201701.452500", "201701.912500", "201702.372500", "201702.832500", "201703.292500", "201703.752500", "201704.212500", "201704.672500", "201705.132500", "201705.592500", "201706.052500", "201706.512500", "201706.972500", "201707.432500", "201707.892500", "201708.352500", "201708.812500", "201709.272500", "201709.732500", "201710.192500", "201710.652500", "201711.112500", "201711.572500", "201712.032500", "201712.492500", "201712.952500", "201713.412500", "201713.872500", "201714.332500", "201714.792500", "201715.252500", "201715.712500", "201716.172500", "201716.632500", "201717.092500", "201717.552500", "201718.012500", "201718.472500", "201718.932500", "201719.392500", "201719.852500", "201720.312500", "201720.772500", "201721.232500", "201721.692500", "201722.152500", "201722.612500", "201723.072500", "201723.532500", "201723.992500", "201724.452500", "201724.912500", "201725.372500", "201725.832500", "201726.292500", "201726.752500", "201727.212500", "201727.672500", "201728.132500", "201728.592500", "201729.052500", "201729.512500", "201729.972500", "201730.432500", "201730.892500", "201731.352500", "201731.812500", "201732.272500", "201732.732500", "201733.192500", "201733.652500", "201734.112500", "201734.572500", "201735.032500", "201735.492500", "201735.952500", "201736.412500", "201736.872500", "201737.332500", "201737.792500", "201738.252500", "201738.712500", "201739.172500", "201739.632500", "201740.092500", "201740.552500", "201741.012500", "201741.472500", "201741.932500", "201742.392500", "201742.852500", "201743.312500", "201743.772500", "201744.232500", "201744.692500", "201745.152500", "201745.612500", "201746.072500", "201746.532500", "201746.992500", "201747.452500", "201747.912500", "201748.372500", "201748.832500", "201749.292500", "201749.752500", "201750.212500", "201750.672500", "201751.132500", "201751.592500", "201752.052500", "201752.512500", "201752.972500", "201753.432500", "201753.892500", "201754.352500", "201754.812500", "201755.272500", "201755.732500", "201756.192500", "201756.652500", "201757.112500", "201757.572500", "201758.032500", "201758.492500", "201758.952500", "201759.412500", "201759.872500", "201800.332500", "201800.792500", "201801.252500", "201801.712500", "201802.172500", "201802.632500", "201803.092500", "201803.552500", "201804.012500", "201804.472500", "201804.932500", "201805.392500", "201805.852500", "201806.312500", "201806.772500", "201807.232500", "201807.692500", "201808.152500", "201808.612500", "201809.072500", "201809.532500", "201809.992500", "201810.452500", "201810.912500", "201811.372500", "201811.832500", "201812.292500", "201812.752500", "201813.212500", "201813.672500", "201814.132500", "201814.592500", "201815.052500", "201815.512500", "201815.972500", "201816.432500", "201816.892500", "201817.352500", "201817.812500", "201818.272500", "201818.732500", "201819.192500", "201819.652500", "201820.112500", "201820.572500", "201821.032500", "201821.492500", "201821.952500", "201822.412500", "201822.872500", "201823.332500", "201823.792500", "201824.252500", "201824.712500", "201825.172500", "201825.632500", "201826.092500", "201826.552500", "201827.012500", "201827.472500", "201827.932500", "201828.392500", "201828.852500", "201829.312500", "201829.772500", "201830.232500", "201830.692500", "201831.152500", "201831.612500", "201832.072500", "201832.532500", "201832.992500", "201833.452500", "201833.912500", "201834.372500", "201834.832500", "201835.292500", "201835.752500", "201836.212500", "201836.672500", "201837.132500", "201837.592500", "201838.052500", "201838.512500", "201838.972500", "201839.432500", "201839.892500", "201840.352500", "201840.812500", "201841.272500", "201841.732500", "201842.192500", "201842.652500", "201843.112500", "201843.572500", "201844.032500", "201844.492500", "201844.952500", "201845.412500", "201845.872500", "201846.332500", "201846.792500", "201847.252500", "201847.712500", "201848.172500", "201848.632500", "201849.092500", "201849.552500", "201850.012500", "201850.472500", "201850.932500", "201851.392500", "201851.852500", "201852.312500", "201852.772500", "201853.232500", "201853.692500", "201854.152500", "201854.612500", "201855.072500", "201855.532500", "201855.992500", "201856.452500", "201856.912500", "201857.372500", "201857.832500", "201858.292500", "201858.752500", "201859.212500", "201859.672500", "201900.132500", "201900.592500", "201901.052500", "201901.512500", "201901.972500", "201902.432500", "201902.892500", "201903.352500", "201903.812500", "201904.272500", "201904.732500", "201905.192500", "201905.652500", "201906.112500", "201906.572500", "201907.032500", "201907.492500", "201907.952500", "201908.412500", "201908.872500", "201909.332500", "201909.792500", "201910.252500", "201910.712500", "201911.172500", "201911.632500", "201912.092500", "201912.552500", "201913.012500", "201913.472500", "201913.932500", "201914.392500", "201914.852500", "201915.312500", "201915.772500", "201916.232500", "201916.692500", "201917.152500", "201917.612500", "201918.072500", "201918.532500", "201918.992500", "201919.452500", "201919.912500", "201920.372500", "201920.832500", "201921.292500", "201921.752500", "201922.212500", "201922.672500", "201923.132500", "201923.592500", "201924.052500", "201924.512500", "201924.972500", "201925.432500", "201925.892500", "201926.352500", "201926.812500", "201927.272500", "201927.732500", "201928.192500", "201928.652500", "201929.112500", "201929.572500", "201930.032500", "201930.492500", "201930.952500", "201931.412500", "201931.872500", "201932.332500", "201932.792500", "201933.252500", "201933.712500", "201934.172500", "201934.632500", "201935.092500", "201935.552500", "201936.012500", "201936.472500", "201936.932500", "201937.392500", "201937.852500", "201938.312500", "201938.772500", "201939.232500", "201939.692500", "201940.152500", "201940.612500", "201941.072500", "201941.532500", "201941.992500", "201942.452500", "201942.912500", "201943.372500", "201943.832500", "201944.292500", "201944.752500", "201945.212500", "201945.672500", "201946.132500", "201946.592500", "201947.052500", "201947.512500", "201947.972500", "201948.432500", "201948.892500", "201949.352500", "201949.812500", "201950.272500", "201950.732500", "201951.192500", "201951.652500", "201952.112500", "201952.572500", "201953.032500", "201953.492500", "201953.952500", "201954.412500", "201954.872500", "201955.332500", "201955.792500", "201956.252500", "201956.712500", "201957.172500", "201957.632500", "201958.092500", "201958.552500", "201959.012500", "201959.472500", "201959.932500", "202000.392500", "202000.852500", "202001.312500", "202001.772500", "202002.232500"],
