{
  "AcquisitionMatrixPE": 82,
  "AcquisitionNumber": 1,
  "AcquisitionTime": "20:49:0.185000",
  "BandwidthPerPixelPhaseEncode": 24.888,
  "BaseResolution": 82,
  "BodyPartExamined": "BRAIN",
  "ConsistencyInfo": "N4_VE11E_LATEST_20181129",
  "ConversionSoftware": "dcm2niix",
  "ConversionSoftwareVersion": "v1.0.20201102",
  "DerivedVendorReportedEchoSpacing": 0.00049,
  "DeviceSerialNumber": "66112",
  "DwellTime": 2e-06,
  "EchoTime": 0.0272,
  "EchoTrainLength": 82,
  "EffectiveEchoSpacing": 0.00049,
  "FlipAngle": 44,
  "ImageComments": "Unaliased MB8/PE3",
  "ImageOrientationPatientDICOM": [0.99653, 0.0385368, 0.0737784, -0.0469951, 0.992069, 0.116577],
  "ImageType": [
    "ORIGINAL",
    "PRIMARY",
    "M",
    "MB",
    "ND",
    "NORM",
    "MOSAIC"
],
  "ImagingFrequency": 123.259,
  "InPlanePhaseEncodingDirectionDICOM": "COL",
  "InstitutionAddress": "Maynard 3,Hanover,NH,US,03755",
  "InstitutionName": "Dartmouth College - PBS",
  "InstitutionalDepartmentName": "Department",
  "MRAcquisitionType": "2D",
  "MagneticFieldStrength": 3,
  "Manufacturer": "Siemens",
  "ManufacturersModelName": "Prisma",
  "Modality": "MR",
  "MultibandAccelerationFactor": 8,
  "PartialFourier": 1,
  "PatientPosition": "HFS",
  "PercentPhaseFOV": 100,
  "PercentSampling": 100,
  "PhaseEncodingDirection": "j-",
  "PhaseEncodingSteps": 82,
  "PhaseResolution": 1,
  "PixelBandwidth": 3050,
  "ProcedureStepDescription": "Wager_Wager^1076_spacetop",
  "ProtocolName": "func_run-02_task-faces_acq-ap-mb8",
  "PulseSequenceDetails": "%CustomerSeq%\\cmrr_mbep2d_bold",
  "ReceiveCoilActiveElements": "HEA;HEP",
  "ReceiveCoilName": "Head_32",
  "ReconMatrixPE": 82,
  "RepetitionTime": 0.46,
  "SAR": 0.0970023,
  "ScanOptions": "FS",
  "ScanningSequence": "EP",
  "SequenceName": "epfid2d1_82",
  "SequenceVariant": "SK\\SS",
  "SeriesDescription": "func_run-02_task-faces_acq-ap-mb8",
  "SeriesNumber": 18,
  "ShimSetting": [4231, -7794, -7205, 392, -93, -85, 7, 32],
  "SliceThickness": 2.7,
  "SliceTiming": [0, 0.2525, 0.0625, 0.315, 0.125, 0.3775, 0.1875, 0, 0.2525, 0.0625, 0.315, 0.125, 0.3775, 0.1875, 0, 0.2525, 0.0625, 0.315, 0.125, 0.3775, 0.1875, 0, 0.2525, 0.0625, 0.315, 0.125, 0.3775, 0.1875, 0, 0.2525, 0.0625, 0.315, 0.125, 0.3775, 0.1875, 0, 0.2525, 0.0625, 0.315, 0.125, 0.3775, 0.1875, 0, 0.2525, 0.0625, 0.315, 0.125, 0.3775, 0.1875, 0, 0.2525, 0.0625, 0.315, 0.125, 0.3775, 0.1875],
  "SoftwareVersions": "syngo MR E11",
  "SpacingBetweenSlices": 2.7,
  "StationName": "AWP66112",
  "TaskName": "faces",
  "TotalReadoutTime": 0.03969,
  "TxRefAmp": 234.082,
  "WipMemBlock": "01583fa0-7d86-44f0-ae6f-8c8530533e5c||Sequence: R016 ve11e/master r/434b28f1; Aug  7 2019 18:53:46 by eja",
  "dcmmeta_affine": [
    [-2.673616647720337, -0.1260843724012375, 0.18549208343029022, 114.38056182861328],
    [-0.10339134186506271, 2.661649227142334, 0.3230268657207489, -107.12200164794922],
    [0.19794201850891113, -0.31276729702949524, 2.6741814613342285, -53.06496047973633],
    [0.0, 0.0, 0.0, 1.0]
],
  "dcmmeta_reorient_transform": [
    [0.0, -1.0, 0.0, 81.0],
    [1.0, 0.0, 0.0, 0.0],
    [0.0, 0.0, 1.0, 0.0],
    [0.0, 0.0, 0.0, 1.0]
],
  "dcmmeta_shape": [82, 82, 56, 914],
  "dcmmeta_slice_dim": 2,
  "dcmmeta_version": 0.6,
  "global": {
    "const": {
      "AccessionNumber": "A004785",
      "AcquisitionMatrix": [82, 0, 0, 82],
      "AngioFlag": "N",
      "BitsAllocated": 16,
      "BitsStored": 16,
      "BodyPartExamined": "BRAIN",
      "Columns": 656,
      "EchoNumbers": 1,
      "EchoTime": 27.2,
      "EchoTrainLength": 82,
      "FlipAngle": 44.0,
      "HighBit": 15,
      "ImageOrientationPatient": [0.99652981225398, 0.03853677104774, 0.07377838820594, -0.0469950809601, 0.99206919559768, 0.11657689956298],
      "ImagePositionPatient": [-835.3094923964, -902.03818932035, -224.97268683252],
      "ImageType": [
        "ORIGINAL",
        "PRIMARY",
        "M",
        "MB",
        "ND",
        "NORM",
        "MOSAIC"
],
      "ImagedNucleus": "1H",
      "ImagingFrequency": 123.259092,
      "InPlanePhaseEncodingDirection": "COL",
      "MRAcquisitionType": "2D",
      "MagneticFieldStrength": 3.0,
      "Manufacturer": "SIEMENS",
      "ManufacturerModelName": "Prisma",
      "Modality": "MR",
      "NumberOfAverages": 1.0,
      "NumberOfPhaseEncodingSteps": 82,
      "PercentPhaseFieldOfView": 100.0,
      "PercentSampling": 100.0,
      "PerformedProcedureStepStartTime": "194827.274000",
      "PhotometricInterpretation": "MONOCHROME2",
      "PixelBandwidth": 3050.0,
      "PixelRepresentation": 0,
      "PixelSpacing": [2.6829268932343, 2.6829268932343],
      "ProtocolName": "func_run-02_task-faces_acq-ap-mb8",
      "RepetitionTime": 460.0,
      "Rows": 656,
      "SAR": 0.09700225327473,
      "SamplesPerPixel": 1,
      "ScanOptions": "FS",
      "ScanningSequence": "EP",
      "SequenceName": "epfid2d1_82",
      "SequenceVariant": [
        "SK",
        "SS"
],
      "SeriesDescription": "func_run-02_task-faces_acq-ap-mb8",
      "SeriesNumber": 18,
      "SeriesTime": "204928.689000",
      "SliceLocation": -57.51552879757,
      "SliceThickness": 2.7000000476837,
      "SmallestImagePixelValue": 0,
      "SoftwareVersions": "syngo MR E11",
      "SpacingBetweenSlices": 2.7000000001706,
      "SpecificCharacterSet": "ISO_IR 100",
      "StudyID": "2",
      "StudyTime": "194827.222000",
      "TransmitCoilName": "Body",
      "VariableFlipAngleFlag": "N",
      "WindowCenterWidthExplanation": "Algo1"
    },
    "slices": {}
  },
  "time": {
    "samples": {
      "AcquisitionNumber": [1, 2, 3, 4, 5, 6, 7, 8, 9, 10, 11, 12, 13, 14, 15, 16, 17, 18, 19, 20, 21, 22, 23, 24, 25, 26, 27, 28, 29, 30, 31, 32, 33, 34, 35, 36, 37, 38, 39, 40, 41, 42, 43, 44, 45, 46, 47, 48, 49, 50, 51, 52, 53, 54, 55, 56, 57, 58, 59, 60, 61, 62, 63, 64, 65, 66, 67, 68, 69, 70, 71, 72, 73, 74, 75, 76, 77, 78, 79, 80, 81, 82, 83, 84, 85, 86, 87, 88, 89, 90, 91, 92, 93, 94, 95, 96, 97, 98, 99, 100, 101, 102, 103, 104, 105, 106, 107, 108, 109, 110, 111, 112, 113, 114, 115, 116, 117, 118, 119, 120, 121, 122, 123, 124, 125, 126, 127, 128, 129, 130, 131, 132, 133, 134, 135, 136, 137, 138, 139, 140, 141, 142, 143, 144, 145, 146, 147, 148, 149, 150, 151, 152, 153, 154, 155, 156, 157, 158, 159, 160, 161, 162, 163, 164, 165, 166, 167, 168, 169, 170, 171, 172, 173, 174, 175, 176, 177, 178, 179, 180, 181, 182, 183, 184, 185, 186, 187, 188, 189, 190, 191, 192, 193, 194, 195, 196, 197, 198, 199, 200, 201, 202, 203, 204, 205, 206, 207, 208, 209, 210, 211, 212, 213, 214, 215, 216, 217, 218, 219, 220, 221, 222, 223, 224, 225, 226, 227, 228, 229, 230, 231, 232, 233, 234, 235, 236, 237, 238, 239, 240, 241, 242, 243, 244, 245, 246, 247, 248, 249, 250, 251, 252, 253, 254, 255, 256, 257, 258, 259, 260, 261, 262, 263, 264, 265, 266, 267, 268, 269, 270, 271, 272, 273, 274, 275, 276, 277, 278, 279, 280, 281, 282, 283, 284, 285, 286, 287, 288, 289, 290, 291, 292, 293, 294, 295, 296, 297, 298, 299, 300, 301, 302, 303, 304, 305, 306, 307, 308, 309, 310, 311, 312, 313, 314, 315, 316, 317, 318, 319, 320, 321, 322, 323, 324, 325, 326, 327, 328, 329, 330, 331, 332, 333, 334, 335, 336, 337, 338, 339, 340, 341, 342, 343, 344, 345, 346, 347, 348, 349, 350, 351, 352, 353, 354, 355, 356, 357, 358, 359, 360, 361, 362, 363, 364, 365, 366, 367, 368, 369, 370, 371, 372, 373, 374, 375, 376, 377, 378, 379, 380, 381, 382, 383, 384, 385, 386, 387, 388, 389, 390, 391, 392, 393, 394, 395, 396, 397, 398, 399, 400, 401, 402, 403, 404, 405, 406, 407, 408, 409, 410, 411, 412, 413, 414, 415, 416, 417, 418, 419, 420, 421, 422, 423, 424, 425, 426, 427, 428, 429, 430, 431, 432, 433, 434, 435, 436, 437, 438, 439, 440, 441, 442, 443, 444, 445, 446, 447, 448, 449, 450, 451, 452, 453, 454, 455, 456, 457, 458, 459, 460, 461, 462, 463, 464, 465, 466, 467, 468, 469, 470, 471, 472, 473, 474, 475, 476, 477, 478, 479, 480, 481, 482, 483, 484, 485, 486, 487, 488, 489, 490, 491, 492, 493, 494, 495, 496, 497, 498, 499, 500, 501, 502, 503, 504, 505, 506, 507, 508, 509, 510, 511, 512, 513, 514, 515, 516, 517, 518, 519, 520, 521, 522, 523, 524, 525, 526, 527, 528, 529, 530, 531, 532, 533, 534, 535, 536, 537, 538, 539, 540, 541, 542, 543, 544, 545, 546, 547, 548, 549, 550, 551, 552, 553, 554, 555, 556, 557, 558, 559, 560, 561, 562, 563, 564, 565, 566, 567, 568, 569, 570, 571, 572, 573, 574, 575, 576, 577, 578, 579, 580, 581, 582, 583, 584, 585, 586, 587, 588, 589, 590, 591, 592, 593, 594, 595, 596, 597, 598, 599, 600, 601, 602, 603, 604, 605, 606, 607, 608, 609, 610, 611, 612, 613, 614, 615, 616, 617, 618, 619, 620, 621, 622, 623, 624, 625, 626, 627, 628, 629, 630, 631, 632, 633, 634, 635, 636, 637, 638, 639, 640, 641, 642, 643, 644, 645, 646, 647, 648, 649, 650, 651, 652, 653, 654, 655, 656, 657, 658, 659, 660, 661, 662, 663, 664, 665, 666, 667, 668, 669, 670, 671, 672, 673, 674, 675, 676, 677, 678, 679, 680, 681, 682, 683, 684, 685, 686, 687, 688, 689, 690, 691, 692, 693, 694, 695, 696, 697, 698, 699, 700, 701, 702, 703, 704, 705, 706, 707, 708, 709, 710, 711, 712, 713, 714, 715, 716, 717, 718, 719, 720, 721, 722, 723, 724, 725, 726, 727, 728, 729, 730, 731, 732, 733, 734, 735, 736, 737, 738, 739, 740, 741, 742, 743, 744, 745, 746, 747, 748, 749, 750, 751, 752, 753, 754, 755, 756, 757, 758, 759, 760, 761, 762, 763, 764, 765, 766, 767, 768, 769, 770, 771, 772, 773, 774, 775, 776, 777, 778, 779, 780, 781, 782, 783, 784, 785, 786, 787, 788, 789, 790, 791, 792, 793, 794, 795, 796, 797, 798, 799, 800, 801, 802, 803, 804, 805, 806, 807, 808, 809, 810, 811, 812, 813, 814, 815, 816, 817, 818, 819, 820, 821, 822, 823, 824, 825, 826, 827, 828, 829, 830, 831, 832, 833, 834, 835, 836, 837, 838, 839, 840, 841, 842, 843, 844, 845, 846, 847, 848, 849, 850, 851, 852, 853, 854, 855, 856, 857, 858, 859, 860, 861, 862, 863, 864, 865, 866, 867, 868, 869, 870, 871, 872, 873, 874, 875, 876, 877, 878, 879, 880, 881, 882, 883, 884, 885, 886, 887, 888, 889, 890, 891, 892, 893, 894, 895, 896, 897, 898, 899, 900, 901, 902, 903, 904, 905, 906, 907, 908, 909, 910, 911, 912, 913, 914],
      "AcquisitionTime": ["204900.185000", "204900.645000", "204901.105000", "204901.565000", "204902.025000", "204902.485000", "204902.945000", "204903.405000", "204903.865000", "204904.325000", "204904.785000", "204905.245000", "204905.705000", "204906.165000", "204906.625000", "204907.085000", "204907.545000", "204908.005000", "204908.465000", "204908.925000", "204909.385000", "204909.845000", "204910.305000", "204910.765000", "204911.225000", "204911.685000", "204912.145000", "204912.605000", "204913.065000", "204913.525000", "204913.985000", "204914.445000", "204914.905000", "204915.365000", "204915.825000", "204916.285000", "204916.745000", "204917.205000", "204917.665000", "204918.125000", "204918.585000", "204919.045000", "204919.505000", "204919.965000", "204920.425000", "204920.885000", "204921.345000", "204921.805000", "204922.265000", "204922.725000", "204923.185000", "204923.645000", "204924.105000", "204924.565000", "204925.025000", "204925.485000", "204925.945000", "204926.405000", "204926.865000", "204927.325000", "204927.785000", "204928.245000", "204928.705000", "204929.165000", "204929.625000", "204930.085000", "204930.545000", "204931.005000", "204931.465000", "204931.925000", "204932.385000", "204932.845000", "204933.305000", "204933.765000", "204934.225000", "204934.685000", "204935.145000", "204935.605000", "204936.065000", "204936.525000", "204936.985000", "204937.445000", "204937.905000", "204938.365000", "204938.825000", "204939.285000", "204939.745000", "204940.205000", "204940.665000", "204941.125000", "204941.585000", "204942.045000", "204942.505000", "204942.965000", "204943.425000", "204943.885000", "204944.345000", "204944.805000", "204945.265000", "204945.725000", "204946.185000", "204946.645000", "204947.105000", "204947.565000", "204948.025000", "204948.485000", "204948.945000", "204949.405000", "204949.865000", "204950.325000", "204950.785000", "204951.245000", "204951.705000", "204952.165000", "204952.625000", "204953.085000", "204953.545000", "204954.005000", "204954.465000", "204954.925000", "204955.385000", "204955.845000", "204956.305000", "204956.765000", "204957.225000", "204957.685000", "204958.145000", "204958.605000", "204959.065000", "204959.525000", "204959.985000", "205000.445000", "205000.905000", "205001.365000", "205001.825000", "205002.285000", "205002.745000", "205003.205000", "205003.665000", "205004.125000", "205004.585000", "205005.045000", "205005.505000", "205005.965000", "205006.425000", "205006.885000", "205007.345000", "205007.805000", "205008.265000", "205008.725000", "205009.185000", "205009.645000", "205010.105000", "205010.565000", "205011.025000", "205011.485000", "205011.945000", "205012.405000", "205012.865000", "205013.325000", "205013.785000", "205014.245000", "205014.705000", "205015.165000", "205015.625000", "205016.085000", "205016.545000", "205017.005000", "205017.465000", "205017.925000", "205018.385000", "205018.845000", "205019.305000", "205019.765000", "205020.225000", "205020.685000", "205021.145000", "205021.605000", "205022.065000", "205022.525000", "205022.985000", "205023.445000", "205023.905000", "205024.365000", "205024.825000", "205025.285000", "205025.745000", "205026.205000", "205026.665000", "205027.125000", "205027.585000", "205028.045000", "205028.505000", "205028.965000", "205029.425000", "205029.885000", "205030.345000", "205030.805000", "205031.265000", "205031.725000", "205032.185000", "205032.645000", "205033.105000", "205033.565000", "205034.025000", "205034.485000", "205034.945000", "205035.405000", "205035.865000", "205036.325000", "205036.785000", "205037.245000", "205037.705000", "205038.165000", "205038.625000", "205039.085000", "205039.545000", "205040.005000", "205040.465000", "205040.925000", "205041.385000", "205041.845000", "205042.305000", "205042.765000", "205043.225000", "205043.685000", "205044.145000", "205044.605000", "205045.065000", "205045.525000", "205045.985000", "205046.445000", "205046.905000", "205047.365000", "205047.825000", "205048.285000", "205048.745000", "205049.205000", "205049.665000", "205050.125000", "205050.585000", "205051.045000", "205051.505000", "205051.965000", "205052.425000", "205052.885000", "205053.345000", "205053.805000", "205054.265000", "205054.725000", "205055.185000", "205055.645000", "205056.105000", "205056.565000", "205057.025000", "205057.485000", "205057.945000", "205058.405000", "205058.865000", "205059.325000", "205059.785000", "205100.245000", "205100.705000", "205101.165000", "205101.625000", "205102.085000", "205102.545000", "205103.005000", "205103.465000", "205103.925000", "205104.385000", "205104.845000", "205105.305000", "205105.765000", "205106.225000", "205106.685000", "205107.145000", "205107.605000", "205108.065000", "205108.525000", "205108.985000", "205109.445000", "205109.905000", "205110.365000", "205110.825000", "205111.285000", "205111.745000", "205112.205000", "205112.665000", "205113.125000", "205113.585000", "205114.045000", "205114.505000", "205114.965000", "205115.425000", "205115.885000", "205116.345000", "205116.805000", "205117.265000", "205117.725000", "205118.185000", "205118.645000", "205119.105000", "205119.565000", "205120.025000", "205120.485000", "205120.945000", "205121.405000", "205121.865000", "205122.325000", "205122.785000", "205123.245000", "205123.705000", "205124.165000", "205124.625000", "205125.085000", "205125.545000", "205126.005000", "205126.465000", "205126.925000", "205127.385000", "205127.845000", "205128.305000", "205128.765000", "205129.225000", "205129.685000", "205130.145000", "205130.605000", "205131.065000", "205131.525000", "205131.985000", "205132.445000", "205132.905000", "205133.365000", "205133.825000", "205134.285000", "205134.745000", "205135.205000", "205135.665000", "205136.125000", "205136.585000", "205137.045000", "205137.505000", "205137.965000", "205138.425000", "205138.885000", "205139.345000", "205139.805000", "205140.265000", "205140.725000", "205141.185000", "205141.645000", "205142.105000", "205142.565000", "205143.025000", "205143.485000", "205143.945000", "205144.405000", "205144.865000", "205145.325000", "205145.785000", "205146.245000", "205146.705000", "205147.165000", "205147.625000", "205148.085000", "205148.545000", "205149.005000", "205149.465000", "205149.925000", "205150.385000", "205150.845000", "205151.305000", "205151.765000", "205152.225000", "205152.685000", "205153.145000", "205153.605000", "205154.065000", "205154.525000", "205154.985000", "205155.445000", "205155.905000", "205156.365000", "205156.825000", "205157.285000", "205157.745000", "205158.205000", "205158.665000", "205159.125000", "205159.585000", "205200.045000", "205200.505000", "205200.965000", "205201.425000", "205201.885000", "205202.345000", "205202.805000", "205203.265000", "205203.725000", "205204.185000", "205204.645000", "205205.105000", "205205.565000", "205206.025000", "205206.485000", "205206.945000", "205207.405000", "205207.865000", "205208.325000", "205208.785000", "205209.245000", "205209.705000", "205210.165000", "205210.625000", "205211.085000", "205211.545000", "205212.005000", "205212.465000", "205212.925000", "205213.385000", "205213.845000", "205214.305000", "205214.765000", "205215.225000", "205215.685000", "205216.145000", "205216.605000", "205217.065000", "205217.525000", "205217.985000", "205218.445000", "205218.905000", "205219.365000", "205219.825000", "205220.285000", "205220.745000", "205221.205000", "205221.665000", "205222.125000", "205222.585000", "205223.045000", "205223.505000", "205223.965000", "205224.425000", "205224.885000", "205225.345000", "205225.805000", "205226.265000", "205226.725000", "205227.185000", "205227.645000", "205228.105000", "205228.565000", "205229.025000", "205229.485000", "205229.945000", "205230.405000", "205230.865000", "205231.325000", "205231.785000", "205232.245000", "205232.705000", "205233.165000", "205233.625000", "205234.085000", "205234.545000", "205235.005000", "205235.465000", "205235.925000", "205236.385000", "205236.845000", "205237.305000", "205237.765000", "205238.225000", "205238.685000", "205239.145000", "205239.605000", "205240.065000", "205240.525000", "205240.985000", "205241.445000", "205241.905000", "205242.365000", "205242.825000", "205243.285000", "205243.745000", "205244.205000", "205244.665000", "205245.125000", "205245.585000", "205246.045000", "205246.505000", "205246.965000", "205247.425000", "205247.885000", "205248.345000", "205248.805000", "205249.265000", "205249.725000", "205250.185000", "205250.645000", "205251.105000", "205251.565000", "205252.025000", "205252.485000", "205252.945000", "205253.405000", "205253.865000", "205254.325000", "205254.785000", "205255.245000", "205255.705000", "205256.165000", "205256.625000", "205257.085000", "205257.545000", "205258.005000", "205258.465000", "205258.925000", "205259.385000", "205259.845000", "205300.305000", "205300.765000", "205301.225000", "205301.685000", "205302.145000", "205302.605000", "205303.065000", "205303.525000", "205303.985000", "205304.445000", "205304.905000", "205305.365000", "205305.825000", "205306.285000", "205306.745000", "205307.205000", "205307.665000", "205308.125000", "205308.585000", "205309.045000", "205309.505000", "205309.965000", "205310.425000", "205310.885000", "205311.345000", "205311.805000", "205312.265000", "205312.725000", "205313.185000", "205313.645000", "205314.105000", "205314.565000", "205315.025000", "205315.485000", "205315.945000", "205316.405000", "205316.865000", "205317.325000", "205317.785000", "205318.245000", "205318.705000", "205319.165000", "205319.625000", "205320.085000", "205320.545000", "205321.005000", "205321.465000", "205321.925000", "205322.385000", "205322.845000", "205323.305000", "205323.765000", "205324.225000", "205324.685000", "205325.145000", "205325.605000", "205326.065000", "205326.525000", "205326.985000", "205327.445000", "205327.905000", "205328.365000", "205328.825000", "205329.285000", "205329.745000", "205330.205000", "205330.665000", "205331.125000", "205331.585000", "205332.045000", "205332.505000", "205332.965000", "205333.425000", "205333.885000", "205334.345000", "205334.805000", "205335.265000", "205335.725000", "205336.185000", "205336.645000", "205337.105000", "205337.565000", "205338.025000", "205338.485000", "205338.945000", "205339.405000", "205339.865000", "205340.325000", "205340.785000", "205341.245000", "205341.705000", "205342.165000", "205342.625000", "205343.085000", "205343.545000", "205344.005000", "205344.465000", "205344.925000", "205345.385000", "205345.845000", "205346.305000", "205346.765000", "205347.225000", "205347.685000", "205348.145000", "205348.605000", "205349.065000", "205349.525000", "205349.985000", "205350.445000", "205350.905000", "205351.365000", "205351.825000", "205352.285000", "205352.745000", "205353.205000", "205353.665000", "205354.125000", "205354.585000", "205355.045000", "205355.505000", "205355.965000", "205356.425000", "205356.885000", "205357.345000", "205357.805000", "205358.265000", "205358.725000", "205359.185000", "205359.645000", "205400.105000", "205400.565000", "205401.025000", "205401.485000", "205401.945000", "205402.405000", "205402.865000", "205403.325000", "205403.785000", "205404.245000", "205404.705000", "205405.165000", "205405.625000", "205406.085000", "205406.545000", "205407.005000", "205407.465000", "205407.925000", "205408.385000", "205408.845000", "205409.305000", "205409.765000", "205410.225000", "205410.685000", "205411.145000", "205411.605000", "205412.065000", "205412.525000", "205412.985000", "205413.445000", "205413.905000", "205414.365000", "205414.825000", "205415.285000", "205415.745000", "205416.205000", "205416.665000", "205417.125000", "205417.585000", "205418.045000", "205418.505000", "205418.965000", "205419.425000", "205419.885000", "205420.345000", "205420.805000", "205421.265000", "205421.725000", "205422.185000", "205422.645000", "205423.105000", "205423.565000", "205424.025000", "205424.485000", "205424.945000", "205425.405000", "205425.865000", "205426.325000", "205426.785000", "205427.245000", "205427.705000", "205428.165000", "205428.625000", "205429.085000", "205429.545000", "205430.005000", "205430.465000", "205430.925000", "205431.385000", "205431.845000", "205432.305000", "205432.765000", "205433.225000", "205433.685000", "205434.145000", "205434.605000", "205435.065000", "205435.525000", "205435.985000", "205436.445000", "205436.905000", "205437.365000", "205437.825000", "205438.285000", "205438.745000", "205439.205000", "205439.665000", "205440.125000", "205440.585000", "205441.045000", "205441.505000", "205441.965000", "205442.425000", "205442.885000", "205443.345000", "205443.805000", "205444.265000", "205444.725000", "205445.185000", "205445.645000", "205446.105000", "205446.565000", "205447.025000", "205447.485000", "205447.945000", "205448.405000", "205448.865000", "205449.325000", "205449.785000", "205450.245000", "205450.705000", "205451.165000", "205451.625000", "205452.085000", "205452.545000", "205453.005000", "205453.465000", "205453.925000", "205454.385000", "205454.845000", "205455.305000", "205455.765000", "205456.225000", "205456.685000", "205457.145000", "205457.605000", "205458.065000", "205458.525000", "205458.985000", "205459.445000", "205459.905000", "205500.365000", "205500.825000", "205501.285000", "205501.745000", "205502.205000", "205502.665000", "205503.125000", "205503.585000", "205504.045000", "205504.505000", "205504.965000", "205505.425000", "205505.885000", "205506.345000", "205506.805000", "205507.265000", "205507.725000", "205508.185000", "205508.645000", "205509.105000", "205509.565000", "205510.025000", "205510.485000", "205510.945000", "205511.405000", "205511.865000", "205512.325000", "205512.785000", "205513.245000", "205513.705000", "205514.165000", "205514.625000", "205515.085000", "205515.545000", "205516.005000", "205516.465000", "205516.925000", "205517.385000", "205517.845000", "205518.305000", "205518.765000", "205519.225000", "205519.685000", "205520.145000", "205520.605000", "205521.065000", "205521.525000", "205521.985000", "205522.445000", "205522.905000", "205523.365000", "205523.825000", "205524.285000", "205524.745000", "205525.205000", "205525.665000", "205526.125000", "205526.585000", "205527.045000", "205527.505000", "205527.965000", "205528.425000", "205528.885000", "205529.345000", "205529.805000", "205530.265000", "205530.725000", "205531.185000", "205531.645000", "205532.105000", "205532.565000", "205533.025000", "205533.485000", "205533.945000", "205534.405000", "205534.865000", "205535.325000", "205535.785000", "205536.245000", "205536.705000", "205537.165000", "205537.625000", "205538.085000", "205538.545000", "205539.005000", "205539.465000", "205539.925000", "205540.385000", "205540.845000", "205541.305000", "205541.765000", "205542.225000", "205542.685000", "205543.145000", "205543.605000", "205544.065000", "205544.525000", "205544.985000", "205545.445000", "205545.905000", "205546.365000", "205546.825000", "205547.285000", "205547.745000", "205548.205000", "205548.665000", "205549.125000", "205549.585000", "205550.045000", "205550.505000", "205550.965000", "205551.425000", "205551.885000", "205552.345000", "205552.805000", "205553.265000", "205553.725000", "205554.185000", "205554.645000", "205555.105000", "205555.565000", "205556.025000", "205556.485000", "205556.945000", "205557.405000", "205557.865000", "205558.325000", "205558.785000", "205559.245000", "205559.705000", "205600.165000"],
