{
  "AcquisitionMatrixPE": 82,
  "AcquisitionNumber": 1,
  "AcquisitionTime": "20:56:43.587500",
  "BandwidthPerPixelPhaseEncode": 24.888,
  "BaseResolution": 82,
  "BodyPartExamined": "BRAIN",
  "ConsistencyInfo": "N4_VE11E_LATEST_20181129",
  "ConversionSoftware": "dcm2niix",
  "ConversionSoftwareVersion": "v1.0.20201102",
  "DerivedVendorReportedEchoSpacing": 0.00049,
  "DeviceSerialNumber": "66112",
  "DwellTime": 2e-06,
  "EchoTime": 0.0272,
  "EchoTrainLength": 82,
  "EffectiveEchoSpacing": 0.00049,
  "FlipAngle": 44,
  "ImageComments": "Unaliased MB8/PE3",
  "ImageOrientationPatientDICOM": [0.99653, 0.0385368, 0.0737784, -0.0469951, 0.992069, 0.116577],
  "ImageType": [
    "ORIGINAL",
    "PRIMARY",
    "M",
    "MB",
    "ND",
    "NORM",
    "MOSAIC"
],
  "ImagingFrequency": 123.259,
  "InPlanePhaseEncodingDirectionDICOM": "COL",
  "InstitutionAddress": "Maynard 3,Hanover,NH,US,03755",
  "InstitutionName": "Dartmouth College - PBS",
  "InstitutionalDepartmentName": "Department",
  "MRAcquisitionType": "2D",
  "MagneticFieldStrength": 3,
  "Manufacturer": "Siemens",
  "ManufacturersModelName": "Prisma",
  "Modality": "MR",
  "MultibandAccelerationFactor": 8,
  "PartialFourier": 1,
  "PatientPosition": "HFS",
  "PercentPhaseFOV": 100,
  "PercentSampling": 100,
  "PhaseEncodingDirection": "j-",
  "PhaseEncodingSteps": 82,
  "PhaseResolution": 1,
  "PixelBandwidth": 3050,
  "ProcedureStepDescription": "Wager_Wager^1076_spacetop",
  "ProtocolName": "func_run-03_task-faces_acq-ap-mb8",
  "PulseSequenceDetails": "%CustomerSeq%\\cmrr_mbep2d_bold",
  "ReceiveCoilActiveElements": "HEA;HEP",
  "ReceiveCoilName": "Head_32",
  "ReconMatrixPE": 82,
  "RepetitionTime": 0.46,
  "SAR": 0.0970023,
  "ScanOptions": "FS",
  "ScanningSequence": "EP",
  "SequenceName": "epfid2d1_82",
  "SequenceVariant": "SK\\SS",
  "SeriesDescription": "func_run-03_task-faces_acq-ap-mb8",
  "SeriesNumber": 20,
  "ShimSetting": [4231, -7794, -7205, 392, -93, -85, 7, 32],
  "SliceThickness": 2.7,
  "SliceTiming": [0, 0.2525, 0.0625, 0.315, 0.125, 0.3775, 0.1875, 0, 0.2525, 0.0625, 0.315, 0.125, 0.3775, 0.1875, 0, 0.2525, 0.0625, 0.315, 0.125, 0.3775, 0.1875, 0, 0.2525, 0.0625, 0.315, 0.125, 0.3775, 0.1875, 0, 0.2525, 0.0625, 0.315, 0.125, 0.3775, 0.1875, 0, 0.2525, 0.0625, 0.315, 0.125, 0.3775, 0.1875, 0, 0.2525, 0.0625, 0.315, 0.125, 0.3775, 0.1875, 0, 0.2525, 0.0625, 0.315, 0.125, 0.3775, 0.1875],
  "SoftwareVersions": "syngo MR E11",
  "SpacingBetweenSlices": 2.7,
  "StationName": "AWP66112",
  "TaskName": "faces",
  "TotalReadoutTime": 0.03969,
  "TxRefAmp": 234.082,
  "WipMemBlock": "69ac7ef5-c8e6-4aa2-99ae-9e6e5eb6527d||Sequence: R016 ve11e/master r/434b28f1; Aug  7 2019 18:53:46 by eja",
  "dcmmeta_affine": [
    [-2.673616647720337, -0.1260843724012375, 0.18549208343029022, 114.38056182861328],
    [-0.10339134186506271, 2.661649227142334, 0.3230268657207489, -107.12200164794922],
    [0.19794201850891113, -0.31276729702949524, 2.6741814613342285, -53.06496047973633],
    [0.0, 0.0, 0.0, 1.0]
],
  "dcmmeta_reorient_transform": [
    [0.0, -1.0, 0.0, 81.0],
    [1.0, 0.0, 0.0, 0.0],
    [0.0, 0.0, 1.0, 0.0],
    [0.0, 0.0, 0.0, 1.0]
],
  "dcmmeta_shape": [82, 82, 56, 914],
  "dcmmeta_slice_dim": 2,
  "dcmmeta_version": 0.6,
  "global": {
    "const": {
      "AccessionNumber": "A004785",
      "AcquisitionMatrix": [82, 0, 0, 82],
      "AngioFlag": "N",
      "BitsAllocated": 16,
      "BitsStored": 16,
      "BodyPartExamined": "BRAIN",
      "Columns": 656,
      "EchoNumbers": 1,
      "EchoTime": 27.2,
      "EchoTrainLength": 82,
      "FlipAngle": 44.0,
      "HighBit": 15,
      "ImageOrientationPatient": [0.99652981225398, 0.03853677104774, 0.07377838820594, -0.0469950809601, 0.99206919559768, 0.11657689956298],
      "ImagePositionPatient": [-835.3094923964, -902.03818932035, -224.97268683252],
      "ImageType": [
        "ORIGINAL",
        "PRIMARY",
        "M",
        "MB",
        "ND",
        "NORM",
        "MOSAIC"
],
      "ImagedNucleus": "1H",
      "ImagingFrequency": 123.259093,
      "InPlanePhaseEncodingDirection": "COL",
      "MRAcquisitionType": "2D",
      "MagneticFieldStrength": 3.0,
      "Manufacturer": "SIEMENS",
      "ManufacturerModelName": "Prisma",
      "Modality": "MR",
      "NumberOfAverages": 1.0,
      "NumberOfPhaseEncodingSteps": 82,
      "PercentPhaseFieldOfView": 100.0,
      "PercentSampling": 100.0,
      "PerformedProcedureStepStartTime": "194827.274000",
      "PhotometricInterpretation": "MONOCHROME2",
      "PixelBandwidth": 3050.0,
      "PixelRepresentation": 0,
      "PixelSpacing": [2.6829268932343, 2.6829268932343],
      "ProtocolName": "func_run-03_task-faces_acq-ap-mb8",
      "RepetitionTime": 460.0,
      "Rows": 656,
      "SAR": 0.09700225327473,
      "SamplesPerPixel": 1,
      "ScanOptions": "FS",
      "ScanningSequence": "EP",
      "SequenceName": "epfid2d1_82",
      "SequenceVariant": [
        "SK",
        "SS"
],
      "SeriesDescription": "func_run-03_task-faces_acq-ap-mb8",
      "SeriesNumber": 20,
      "SeriesTime": "205708.524000",
      "SliceLocation": -57.51552879757,
      "SliceThickness": 2.7000000476837,
      "SmallestImagePixelValue": 0,
      "SoftwareVersions": "syngo MR E11",
      "SpacingBetweenSlices": 2.7000000001706,
      "SpecificCharacterSet": "ISO_IR 100",
      "StudyID": "2",
      "StudyTime": "194827.222000",
      "TransmitCoilName": "Body",
      "VariableFlipAngleFlag": "N",
      "WindowCenterWidthExplanation": "Algo1"
    },
    "slices": {}
  },
  "time": {
    "samples": {
      "AcquisitionNumber": [1, 2, 3, 4, 5, 6, 7, 8, 9, 10, 11, 12, 13, 14, 15, 16, 17, 18, 19, 20, 21, 22, 23, 24, 25, 26, 27, 28, 29, 30, 31, 32, 33, 34, 35, 36, 37, 38, 39, 40, 41, 42, 43, 44, 45, 46, 47, 48, 49, 50, 51, 52, 53, 54, 55, 56, 57, 58, 59, 60, 61, 62, 63, 64, 65, 66, 67, 68, 69, 70, 71, 72, 73, 74, 75, 76, 77, 78, 79, 80, 81, 82, 83, 84, 85, 86, 87, 88, 89, 90, 91, 92, 93, 94, 95, 96, 97, 98, 99, 100, 101, 102, 103, 104, 105, 106, 107, 108, 109, 110, 111, 112, 113, 114, 115, 116, 117, 118, 119, 120, 121, 122, 123, 124, 125, 126, 127, 128, 129, 130, 131, 132, 133, 134, 135, 136, 137, 138, 139, 140, 141, 142, 143, 144, 145, 146, 147, 148, 149, 150, 151, 152, 153, 154, 155, 156, 157, 158, 159, 160, 161, 162, 163, 164, 165, 166, 167, 168, 169, 170, 171, 172, 173, 174, 175, 176, 177, 178, 179, 180, 181, 182, 183, 184, 185, 186, 187, 188, 189, 190, 191, 192, 193, 194, 195, 196, 197, 198, 199, 200, 201, 202, 203, 204, 205, 206, 207, 208, 209, 210, 211, 212, 213, 214, 215, 216, 217, 218, 219, 220, 221, 222, 223, 224, 225, 226, 227, 228, 229, 230, 231, 232, 233, 234, 235, 236, 237, 238, 239, 240, 241, 242, 243, 244, 245, 246, 247, 248, 249, 250, 251, 252, 253, 254, 255, 256, 257, 258, 259, 260, 261, 262, 263, 264, 265, 266, 267, 268, 269, 270, 271, 272, 273, 274, 275, 276, 277, 278, 279, 280, 281, 282, 283, 284, 285, 286, 287, 288, 289, 290, 291, 292, 293, 294, 295, 296, 297, 298, 299, 300, 301, 302, 303, 304, 305, 306, 307, 308, 309, 310, 311, 312, 313, 314, 315, 316, 317, 318, 319, 320, 321, 322, 323, 324, 325, 326, 327, 328, 329, 330, 331, 332, 333, 334, 335, 336, 337, 338, 339, 340, 341, 342, 343, 344, 345, 346, 347, 348, 349, 350, 351, 352, 353, 354, 355, 356, 357, 358, 359, 360, 361, 362, 363, 364, 365, 366, 367, 368, 369, 370, 371, 372, 373, 374, 375, 376, 377, 378, 379, 380, 381, 382, 383, 384, 385, 386, 387, 388, 389, 390, 391, 392, 393, 394, 395, 396, 397, 398, 399, 400, 401, 402, 403, 404, 405, 406, 407, 408, 409, 410, 411, 412, 413, 414, 415, 416, 417, 418, 419, 420, 421, 422, 423, 424, 425, 426, 427, 428, 429, 430, 431, 432, 433, 434, 435, 436, 437, 438, 439, 440, 441, 442, 443, 444, 445, 446, 447, 448, 449, 450, 451, 452, 453, 454, 455, 456, 457, 458, 459, 460, 461, 462, 463, 464, 465, 466, 467, 468, 469, 470, 471, 472, 473, 474, 475, 476, 477, 478, 479, 480, 481, 482, 483, 484, 485, 486, 487, 488, 489, 490, 491, 492, 493, 494, 495, 496, 497, 498, 499, 500, 501, 502, 503, 504, 505, 506, 507, 508, 509, 510, 511, 512, 513, 514, 515, 516, 517, 518, 519, 520, 521, 522, 523, 524, 525, 526, 527, 528, 529, 530, 531, 532, 533, 534, 535, 536, 537, 538, 539, 540, 541, 542, 543, 544, 545, 546, 547, 548, 549, 550, 551, 552, 553, 554, 555, 556, 557, 558, 559, 560, 561, 562, 563, 564, 565, 566, 567, 568, 569, 570, 571, 572, 573, 574, 575, 576, 577, 578, 579, 580, 581, 582, 583, 584, 585, 586, 587, 588, 589, 590, 591, 592, 593, 594, 595, 596, 597, 598, 599, 600, 601, 602, 603, 604, 605, 606, 607, 608, 609, 610, 611, 612, 613, 614, 615, 616, 617, 618, 619, 620, 621, 622, 623, 624, 625, 626, 627, 628, 629, 630, 631, 632, 633, 634, 635, 636, 637, 638, 639, 640, 641, 642, 643, 644, 645, 646, 647, 648, 649, 650, 651, 652, 653, 654, 655, 656, 657, 658, 659, 660, 661, 662, 663, 664, 665, 666, 667, 668, 669, 670, 671, 672, 673, 674, 675, 676, 677, 678, 679, 680, 681, 682, 683, 684, 685, 686, 687, 688, 689, 690, 691, 692, 693, 694, 695, 696, 697, 698, 699, 700, 701, 702, 703, 704, 705, 706, 707, 708, 709, 710, 711, 712, 713, 714, 715, 716, 717, 718, 719, 720, 721, 722, 723, 724, 725, 726, 727, 728, 729, 730, 731, 732, 733, 734, 735, 736, 737, 738, 739, 740, 741, 742, 743, 744, 745, 746, 747, 748, 749, 750, 751, 752, 753, 754, 755, 756, 757, 758, 759, 760, 761, 762, 763, 764, 765, 766, 767, 768, 769, 770, 771, 772, 773, 774, 775, 776, 777, 778, 779, 780, 781, 782, 783, 784, 785, 786, 787, 788, 789, 790, 791, 792, 793, 794, 795, 796, 797, 798, 799, 800, 801, 802, 803, 804, 805, 806, 807, 808, 809, 810, 811, 812, 813, 814, 815, 816, 817, 818, 819, 820, 821, 822, 823, 824, 825, 826, 827, 828, 829, 830, 831, 832, 833, 834, 835, 836, 837, 838, 839, 840, 841, 842, 843, 844, 845, 846, 847, 848, 849, 850, 851, 852, 853, 854, 855, 856, 857, 858, 859, 860, 861, 862, 863, 864, 865, 866, 867, 868, 869, 870, 871, 872, 873, 874, 875, 876, 877, 878, 879, 880, 881, 882, 883, 884, 885, 886, 887, 888, 889, 890, 891, 892, 893, 894, 895, 896, 897, 898, 899, 900, 901, 902, 903, 904, 905, 906, 907, 908, 909, 910, 911, 912, 913, 914],
      "AcquisitionTime": ["205643.587500", "205644.047500", "205644.507500", "205644.967500", "205645.427500", "205645.887500", "205646.347500", "205646.807500", "205647.267500", "205647.727500", "205648.187500", "205648.647500", "205649.107500", "205649.567500", "205650.027500", "205650.487500", "205650.947500", "205651.407500", "205651.867500", "205652.327500", "205652.787500", "205653.247500", "205653.707500", "205654.167500", "205654.627500", "205655.087500", "205655.547500", "205656.007500", "205656.467500", "205656.927500", "205657.387500", "205657.847500", "205658.307500", "205658.767500", "205659.227500", "205659.687500", "205700.147500", "205700.607500", "205701.067500", "205701.527500", "205701.987500", "205702.447500", "205702.907500", "205703.367500", "205703.827500", "205704.287500", "205704.747500", "205705.207500", "205705.667500", "205706.127500", "205706.587500", "205707.047500", "205707.507500", "205707.967500", "205708.427500", "205708.887500", "205709.347500", "205709.807500", "205710.267500", "205710.727500", "205711.187500", "205711.647500", "205712.107500", "205712.567500", "205713.027500", "205713.487500", "205713.947500", "205714.407500", "205714.867500", "205715.327500", "205715.787500", "205716.247500", "205716.707500", "205717.167500", "205717.627500", "205718.087500", "205718.547500", "205719.007500", "205719.467500", "205719.927500", "205720.387500", "205720.847500", "205721.307500", "205721.767500", "205722.227500", "205722.687500", "205723.147500", "205723.607500", "205724.067500", "205724.527500", "205724.987500", "205725.447500", "205725.907500", "205726.367500", "205726.827500", "205727.287500", "205727.747500", "205728.207500", "205728.667500", "205729.127500", "205729.587500", "205730.047500", "205730.507500", "205730.967500", "205731.427500", "205731.887500", "205732.347500", "205732.807500", "205733.267500", "205733.727500", "205734.187500", "205734.647500", "205735.107500", "205735.567500", "205736.027500", "205736.487500", "205736.947500", "205737.407500", "205737.867500", "205738.327500", "205738.787500", "205739.247500", "205739.707500", "205740.167500", "205740.627500", "205741.087500", "205741.547500", "205742.007500", "205742.467500", "205742.927500", "205743.387500", "205743.847500", "205744.307500", "205744.767500", "205745.227500", "205745.687500", "205746.147500", "205746.607500", "205747.067500", "205747.527500", "205747.987500", "205748.447500", "205748.907500", "205749.367500", "205749.827500", "205750.287500", "205750.747500", "205751.207500", "205751.667500", "205752.127500", "205752.587500", "205753.047500", "205753.507500", "205753.967500", "205754.427500", "205754.887500", "205755.347500", "205755.807500", "205756.267500", "205756.727500", "205757.187500", "205757.647500", "205758.107500", "205758.567500", "205759.027500", "205759.487500", "205759.947500", "205800.407500", "205800.867500", "205801.327500", "205801.787500", "205802.247500", "205802.707500", "205803.167500", "205803.627500", "205804.087500", "205804.547500", "205805.007500", "205805.467500", "205805.927500", "205806.387500", "205806.847500", "205807.307500", "205807.767500", "205808.227500", "205808.687500", "205809.147500", "205809.607500", "205810.067500", "205810.527500", "205810.987500", "205811.447500", "205811.907500", "205812.367500", "205812.827500", "205813.287500", "205813.747500", "205814.207500", "205814.667500", "205815.127500", "205815.587500", "205816.047500", "205816.507500", "205816.967500", "205817.427500", "205817.887500", "205818.347500", "205818.807500", "205819.267500", "205819.727500", "205820.187500", "205820.647500", "205821.107500", "205821.567500", "205822.027500", "205822.487500", "205822.947500", "205823.407500", "205823.867500", "205824.327500", "205824.787500", "205825.247500", "205825.707500", "205826.167500", "205826.627500", "205827.087500", "205827.547500", "205828.007500", "205828.467500", "205828.927500", "205829.387500", "205829.847500", "205830.307500", "205830.767500", "205831.227500", "205831.687500", "205832.147500", "205832.607500", "205833.067500", "205833.527500", "205833.987500", "205834.447500", "205834.907500", "205835.367500", "205835.827500", "205836.287500", "205836.747500", "205837.207500", "205837.667500", "205838.127500", "205838.587500", "205839.047500", "205839.507500", "205839.967500", "205840.427500", "205840.887500", "205841.347500", "205841.807500", "205842.267500", "205842.727500", "205843.187500", "205843.647500", "205844.107500", "205844.567500", "205845.027500", "205845.487500", "205845.947500", "205846.407500", "205846.867500", "205847.327500", "205847.787500", "205848.247500", "205848.707500", "205849.167500", "205849.627500", "205850.087500", "205850.547500", "205851.007500", "205851.467500", "205851.927500", "205852.387500", "205852.847500", "205853.307500", "205853.767500", "205854.227500", "205854.687500", "205855.147500", "205855.607500", "205856.067500", "205856.527500", "205856.987500", "205857.447500", "205857.907500", "205858.367500", "205858.827500", "205859.287500", "205859.747500", "205900.207500", "205900.667500", "205901.127500", "205901.587500", "205902.047500", "205902.507500", "205902.967500", "205903.427500", "205903.887500", "205904.347500", "205904.807500", "205905.267500", "205905.727500", "205906.187500", "205906.647500", "205907.107500", "205907.567500", "205908.027500", "205908.487500", "205908.947500", "205909.407500", "205909.867500", "205910.327500", "205910.787500", "205911.247500", "205911.707500", "205912.167500", "205912.627500", "205913.087500", "205913.547500", "205914.007500", "205914.467500", "205914.927500", "205915.387500", "205915.847500", "205916.307500", "205916.767500", "205917.227500", "205917.687500", "205918.147500", "205918.607500", "205919.067500", "205919.527500", "205919.987500", "205920.447500", "205920.907500", "205921.367500", "205921.827500", "205922.287500", "205922.747500", "205923.207500", "205923.667500", "205924.127500", "205924.587500", "205925.047500", "205925.507500", "205925.967500", "205926.427500", "205926.887500", "205927.347500", "205927.807500", "205928.267500", "205928.727500", "205929.187500", "205929.647500", "205930.107500", "205930.567500", "205931.027500", "205931.487500", "205931.947500", "205932.407500", "205932.867500", "205933.327500", "205933.787500", "205934.247500", "205934.707500", "205935.167500", "205935.627500", "205936.087500", "205936.547500", "205937.007500", "205937.467500", "205937.927500", "205938.387500", "205938.847500", "205939.307500", "205939.767500", "205940.227500", "205940.687500", "205941.147500", "205941.607500", "205942.067500", "205942.527500", "205942.987500", "205943.447500", "205943.907500", "205944.367500", "205944.827500", "205945.287500", "205945.747500", "205946.207500", "205946.667500", "205947.127500", "205947.587500", "205948.047500", "205948.507500", "205948.967500", "205949.427500", "205949.887500", "205950.347500", "205950.807500", "205951.267500", "205951.727500", "205952.187500", "205952.647500", "205953.107500", "205953.567500", "205954.027500", "205954.487500", "205954.947500", "205955.407500", "205955.867500", "205956.327500", "205956.787500", "205957.247500", "205957.707500", "205958.167500", "205958.627500", "205959.087500", "205959.547500", "210000.007500", "210000.467500", "210000.927500", "210001.387500", "210001.847500", "210002.307500", "210002.767500", "210003.227500", "210003.687500", "210004.147500", "210004.607500", "210005.067500", "210005.527500", "210005.987500", "210006.447500", "210006.907500", "210007.367500", "210007.827500", "210008.287500", "210008.747500", "210009.207500", "210009.667500", "210010.127500", "210010.587500", "210011.047500", "210011.507500", "210011.967500", "210012.427500", "210012.887500", "210013.347500", "210013.807500", "210014.267500", "210014.727500", "210015.187500", "210015.647500", "210016.107500", "210016.567500", "210017.027500", "210017.487500", "210017.947500", "210018.407500", "210018.867500", "210019.327500", "210019.787500", "210020.247500", "210020.707500", "210021.167500", "210021.627500", "210022.087500", "210022.547500", "210023.007500", "210023.467500", "210023.927500", "210024.387500", "210024.847500", "210025.307500", "210025.767500", "210026.227500", "210026.687500", "210027.147500", "210027.607500", "210028.067500", "210028.527500", "210028.987500", "210029.447500", "210029.907500", "210030.367500", "210030.827500", "210031.287500", "210031.747500", "210032.207500", "210032.667500", "210033.127500", "210033.587500", "210034.047500", "210034.507500", "210034.967500", "210035.427500", "210035.887500", "210036.347500", "210036.807500", "210037.267500", "210037.727500", "210038.187500", "210038.647500", "210039.107500", "210039.567500", "210040.027500", "210040.487500", "210040.947500", "210041.407500", "210041.867500", "210042.327500", "210042.787500", "210043.247500", "210043.707500", "210044.167500", "210044.627500", "210045.087500", "210045.547500", "210046.007500", "210046.467500", "210046.927500", "210047.387500", "210047.847500", "210048.307500", "210048.767500", "210049.227500", "210049.687500", "210050.147500", "210050.607500", "210051.067500", "210051.527500", "210051.987500", "210052.447500", "210052.907500", "210053.367500", "210053.827500", "210054.287500", "210054.747500", "210055.207500", "210055.667500", "210056.127500", "210056.587500", "210057.047500", "210057.507500", "210057.967500", "210058.427500", "210058.887500", "210059.347500", "210059.807500", "210100.267500", "210100.727500", "210101.187500", "210101.647500", "210102.107500", "210102.567500", "210103.027500", "210103.487500", "210103.947500", "210104.407500", "210104.867500", "210105.327500", "210105.787500", "210106.247500", "210106.707500", "210107.167500", "210107.627500", "210108.087500", "210108.547500", "210109.007500", "210109.467500", "210109.927500", "210110.387500", "210110.847500", "210111.307500", "210111.767500", "210112.227500", "210112.687500", "210113.147500", "210113.607500", "210114.067500", "210114.527500", "210114.987500", "210115.447500", "210115.907500", "210116.367500", "210116.827500", "210117.287500", "210117.747500", "210118.207500", "210118.667500", "210119.127500", "210119.587500", "210120.047500", "210120.507500", "210120.967500", "210121.427500", "210121.887500", "210122.347500", "210122.807500", "210123.267500", "210123.727500", "210124.187500", "210124.647500", "210125.107500", "210125.567500", "210126.027500", "210126.487500", "210126.947500", "210127.407500", "210127.867500", "210128.327500", "210128.787500", "210129.247500", "210129.707500", "210130.167500", "210130.627500", "210131.087500", "210131.547500", "210132.007500", "210132.467500", "210132.927500", "210133.387500", "210133.847500", "210134.307500", "210134.767500", "210135.227500", "210135.687500", "210136.147500", "210136.607500", "210137.067500", "210137.527500", "210137.987500", "210138.447500", "210138.907500", "210139.367500", "210139.827500", "210140.287500", "210140.747500", "210141.207500", "210141.667500", "210142.127500", "210142.587500", "210143.047500", "210143.507500", "210143.967500", "210144.427500", "210144.887500", "210145.347500", "210145.807500", "210146.267500", "210146.727500", "210147.187500", "210147.647500", "210148.107500", "210148.567500", "210149.027500", "210149.487500", "210149.947500", "210150.407500", "210150.867500", "210151.327500", "210151.787500", "210152.247500", "210152.707500", "210153.167500", "210153.627500", "210154.087500", "210154.547500", "210155.007500", "210155.467500", "210155.927500", "210156.387500", "210156.847500", "210157.307500", "210157.767500", "210158.227500", "210158.687500", "210159.147500", "210159.607500", "210200.067500", "210200.527500", "210200.987500", "210201.447500", "210201.907500", "210202.367500", "210202.827500", "210203.287500", "210203.747500", "210204.207500", "210204.667500", "210205.127500", "210205.587500", "210206.047500", "210206.507500", "210206.967500", "210207.427500", "210207.887500", "210208.347500", "210208.807500", "210209.267500", "210209.727500", "210210.187500", "210210.647500", "210211.107500", "210211.567500", "210212.027500", "210212.487500", "210212.947500", "210213.407500", "210213.867500", "210214.327500", "210214.787500", "210215.247500", "210215.707500", "210216.167500", "210216.627500", "210217.087500", "210217.547500", "210218.007500", "210218.467500", "210218.927500", "210219.387500", "210219.847500", "210220.307500", "210220.767500", "210221.227500", "210221.687500", "210222.147500", "210222.607500", "210223.067500", "210223.527500", "210223.987500", "210224.447500", "210224.907500", "210225.367500", "210225.827500", "210226.287500", "210226.747500", "210227.207500", "210227.667500", "210228.127500", "210228.587500", "210229.047500", "210229.507500", "210229.967500", "210230.427500", "210230.887500", "210231.347500", "210231.807500", "210232.267500", "210232.727500", "210233.187500", "210233.647500", "210234.107500", "210234.567500", "210235.027500", "210235.487500", "210235.947500", "210236.407500", "210236.867500", "210237.327500", "210237.787500", "210238.247500", "210238.707500", "210239.167500", "210239.627500", "210240.087500", "210240.547500", "210241.007500", "210241.467500", "210241.927500", "210242.387500", "210242.847500", "210243.307500", "210243.767500", "210244.227500", "210244.687500", "210245.147500", "210245.607500", "210246.067500", "210246.527500", "210246.987500", "210247.447500", "210247.907500", "210248.367500", "210248.827500", "210249.287500", "210249.747500", "210250.207500", "210250.667500", "210251.127500", "210251.587500", "210252.047500", "210252.507500", "210252.967500", "210253.427500", "210253.887500", "210254.347500", "210254.807500", "210255.267500", "210255.727500", "210256.187500", "210256.647500", "210257.107500", "210257.567500", "210258.027500", "210258.487500", "210258.947500", "210259.407500", "210259.867500", "210300.327500", "210300.787500", "210301.247500", "210301.707500", "210302.167500", "210302.627500", "210303.087500", "210303.547500", "210304.007500", "210304.467500", "210304.927500", "210305.387500", "210305.847500", "210306.307500", "210306.767500", "210307.227500", "210307.687500", "210308.147500", "210308.607500", "210309.067500", "210309.527500", "210309.987500", "210310.447500", "210310.907500", "210311.367500", "210311.827500", "210312.287500", "210312.747500", "210313.207500", "210313.667500", "210314.127500", "210314.587500", "210315.047500", "210315.507500", "210315.967500", "210316.427500", "210316.887500", "210317.347500", "210317.807500", "210318.267500", "210318.727500", "210319.187500", "210319.647500", "210320.107500", "210320.567500", "210321.027500", "210321.487500", "210321.947500", "210322.407500", "210322.867500", "210323.327500", "210323.787500", "210324.247500", "210324.707500", "210325.167500", "210325.627500", "210326.087500", "210326.547500", "210327.007500", "210327.467500", "210327.927500", "210328.387500", "210328.847500", "210329.307500", "210329.767500", "210330.227500", "210330.687500", "210331.147500", "210331.607500", "210332.067500", "210332.527500", "210332.987500", "210333.447500", "210333.907500", "210334.367500", "210334.827500", "210335.287500", "210335.747500", "210336.207500", "210336.667500", "210337.127500", "210337.587500", "210338.047500", "210338.507500", "210338.967500", "210339.427500", "210339.887500", "210340.347500", "210340.807500", "210341.267500", "210341.727500", "210342.187500", "210342.647500", "210343.107500", "210343.567500"],
