{
  "AcquisitionMatrixPE": 82,
  "AcquisitionNumber": 1,
  "AcquisitionTime": "20:41:34.227500",
  "BandwidthPerPixelPhaseEncode": 24.888,
  "BaseResolution": 82,
  "BodyPartExamined": "BRAIN",
  "ConsistencyInfo": "N4_VE11E_LATEST_20181129",
  "ConversionSoftware": "dcm2niix",
  "ConversionSoftwareVersion": "v1.0.20201102",
  "DerivedVendorReportedEchoSpacing": 0.00049,
  "DeviceSerialNumber": "66112",
  "DwellTime": 2e-06,
  "EchoTime": 0.0272,
  "EchoTrainLength": 82,
  "EffectiveEchoSpacing": 0.00049,
  "FlipAngle": 44,
  "ImageComments": "Unaliased MB8/PE3",
  "ImageOrientationPatientDICOM": [0.99653, 0.0385368, 0.0737784, -0.0469951, 0.992069, 0.116577],
  "ImageType": [
    "ORIGINAL",
    "PRIMARY",
    "M",
    "MB",
    "ND",
    "NORM",
    "MOSAIC"
],
  "ImagingFrequency": 123.259,
  "InPlanePhaseEncodingDirectionDICOM": "COL",
  "InstitutionAddress": "Maynard 3,Hanover,NH,US,03755",
  "InstitutionName": "Dartmouth College - PBS",
  "InstitutionalDepartmentName": "Department",
  "MRAcquisitionType": "2D",
  "MagneticFieldStrength": 3,
  "Manufacturer": "Siemens",
  "ManufacturersModelName": "Prisma",
  "Modality": "MR",
  "MultibandAccelerationFactor": 8,
  "PartialFourier": 1,
  "PatientPosition": "HFS",
  "PercentPhaseFOV": 100,
  "PercentSampling": 100,
  "PhaseEncodingDirection": "j-",
  "PhaseEncodingSteps": 82,
  "PhaseResolution": 1,
  "PixelBandwidth": 3050,
  "ProcedureStepDescription": "Wager_Wager^1076_spacetop",
  "ProtocolName": "func_run-01_task-faces_acq-ap-mb8",
  "PulseSequenceDetails": "%CustomerSeq%\\cmrr_mbep2d_bold",
  "ReceiveCoilActiveElements": "HEA;HEP",
  "ReceiveCoilName": "Head_32",
  "ReconMatrixPE": 82,
  "RepetitionTime": 0.46,
  "SAR": 0.0970023,
  "ScanOptions": "FS",
  "ScanningSequence": "EP",
  "SequenceName": "epfid2d1_82",
  "SequenceVariant": "SK\\SS",
  "SeriesDescription": "func_run-01_task-faces_acq-ap-mb8",
  "SeriesNumber": 16,
  "ShimSetting": [4231, -7794, -7205, 392, -93, -85, 7, 32],
  "SliceThickness": 2.7,
  "SliceTiming": [0, 0.25, 0.0625, 0.315, 0.125, 0.3775, 0.1875, 0, 0.25, 0.0625, 0.315, 0.125, 0.3775, 0.1875, 0, 0.25, 0.0625, 0.315, 0.125, 0.3775, 0.1875, 0, 0.25, 0.0625, 0.315, 0.125, 0.3775, 0.1875, 0, 0.25, 0.0625, 0.315, 0.125, 0.3775, 0.1875, 0, 0.25, 0.0625, 0.315, 0.125, 0.3775, 0.1875, 0, 0.25, 0.0625, 0.315, 0.125, 0.3775, 0.1875, 0, 0.25, 0.0625, 0.315, 0.125, 0.3775, 0.1875],
  "SoftwareVersions": "syngo MR E11",
  "SpacingBetweenSlices": 2.7,
  "StationName": "AWP66112",
  "TaskName": "faces",
  "TotalReadoutTime": 0.03969,
  "TxRefAmp": 234.082,
  "WipMemBlock": "6af037d1-cbbc-4bc9-ac65-a5491711922d||Sequence: R016 ve11e/master r/434b28f1; Aug  7 2019 18:53:46 by eja",
  "dcmmeta_affine": [
    [-2.673616647720337, -0.1260843724012375, 0.18549208343029022, 114.38056182861328],
    [-0.10339134186506271, 2.661649227142334, 0.3230268657207489, -107.12200164794922],
    [0.19794201850891113, -0.31276729702949524, 2.6741814613342285, -53.06496047973633],
    [0.0, 0.0, 0.0, 1.0]
],
  "dcmmeta_reorient_transform": [
    [0.0, -1.0, 0.0, 81.0],
    [1.0, 0.0, 0.0, 0.0],
    [0.0, 0.0, 1.0, 0.0],
    [0.0, 0.0, 0.0, 1.0]
],
  "dcmmeta_shape": [82, 82, 56, 914],
  "dcmmeta_slice_dim": 2,
  "dcmmeta_version": 0.6,
  "global": {
    "const": {
      "AccessionNumber": "A004785",
      "AcquisitionMatrix": [82, 0, 0, 82],
      "AngioFlag": "N",
      "BitsAllocated": 16,
      "BitsStored": 16,
      "BodyPartExamined": "BRAIN",
      "Columns": 656,
      "EchoNumbers": 1,
      "EchoTime": 27.2,
      "EchoTrainLength": 82,
      "FlipAngle": 44.0,
      "HighBit": 15,
      "ImageOrientationPatient": [0.99652981225398, 0.03853677104774, 0.07377838820594, -0.0469950809601, 0.99206919559768, 0.11657689956298],
      "ImagePositionPatient": [-835.3094923964, -902.03818932035, -224.97268683252],
      "ImageType": [
        "ORIGINAL",
        "PRIMARY",
        "M",
        "MB",
        "ND",
        "NORM",
        "MOSAIC"
],
      "ImagedNucleus": "1H",
      "ImagingFrequency": 123.259089,
      "InPlanePhaseEncodingDirection": "COL",
      "MRAcquisitionType": "2D",
      "MagneticFieldStrength": 3.0,
      "Manufacturer": "SIEMENS",
      "ManufacturerModelName": "Prisma",
      "Modality": "MR",
      "NumberOfAverages": 1.0,
      "NumberOfPhaseEncodingSteps": 82,
      "PercentPhaseFieldOfView": 100.0,
      "PercentSampling": 100.0,
      "PerformedProcedureStepStartTime": "194827.274000",
      "PhotometricInterpretation": "MONOCHROME2",
      "PixelBandwidth": 3050.0,
      "PixelRepresentation": 0,
      "PixelSpacing": [2.6829268932343, 2.6829268932343],
      "ProtocolName": "func_run-01_task-faces_acq-ap-mb8",
      "RepetitionTime": 460.0,
      "Rows": 656,
      "SAR": 0.09700225327473,
      "SamplesPerPixel": 1,
      "ScanOptions": "FS",
      "ScanningSequence": "EP",
      "SequenceName": "epfid2d1_82",
      "SequenceVariant": [
        "SK",
        "SS"
],
      "SeriesDescription": "func_run-01_task-faces_acq-ap-mb8",
      "SeriesNumber": 16,
      "SeriesTime": "204148.610000",
      "SliceLocation": -57.51552879757,
      "SliceThickness": 2.7000000476837,
      "SmallestImagePixelValue": 0,
      "SoftwareVersions": "syngo MR E11",
      "SpacingBetweenSlices": 2.7000000001706,
      "SpecificCharacterSet": "ISO_IR 100",
      "StudyID": "2",
      "StudyTime": "194827.222000",
      "TransmitCoilName": "Body",
      "VariableFlipAngleFlag": "N",
      "WindowCenterWidthExplanation": "Algo1"
    },
    "slices": {}
  },
  "time": {
    "samples": {
      "AcquisitionNumber": [1, 2, 3, 4, 5, 6, 7, 8, 9, 10, 11, 12, 13, 14, 15, 16, 17, 18, 19, 20, 21, 22, 23, 24, 25, 26, 27, 28, 29, 30, 31, 32, 33, 34, 35, 36, 37, 38, 39, 40, 41, 42, 43, 44, 45, 46, 47, 48, 49, 50, 51, 52, 53, 54, 55, 56, 57, 58, 59, 60, 61, 62, 63, 64, 65, 66, 67, 68, 69, 70, 71, 72, 73, 74, 75, 76, 77, 78, 79, 80, 81, 82, 83, 84, 85, 86, 87, 88, 89, 90, 91, 92, 93, 94, 95, 96, 97, 98, 99, 100, 101, 102, 103, 104, 105, 106, 107, 108, 109, 110, 111, 112, 113, 114, 115, 116, 117, 118, 119, 120, 121, 122, 123, 124, 125, 126, 127, 128, 129, 130, 131, 132, 133, 134, 135, 136, 137, 138, 139, 140, 141, 142, 143, 144, 145, 146, 147, 148, 149, 150, 151, 152, 153, 154, 155, 156, 157, 158, 159, 160, 161, 162, 163, 164, 165, 166, 167, 168, 169, 170, 171, 172, 173, 174, 175, 176, 177, 178, 179, 180, 181, 182, 183, 184, 185, 186, 187, 188, 189, 190, 191, 192, 193, 194, 195, 196, 197, 198, 199, 200, 201, 202, 203, 204, 205, 206, 207, 208, 209, 210, 211, 212, 213, 214, 215, 216, 217, 218, 219, 220, 221, 222, 223, 224, 225, 226, 227, 228, 229, 230, 231, 232, 233, 234, 235, 236, 237, 238, 239, 240, 241, 242, 243, 244, 245, 246, 247, 248, 249, 250, 251, 252, 253, 254, 255, 256, 257, 258, 259, 260, 261, 262, 263, 264, 265, 266, 267, 268, 269, 270, 271, 272, 273, 274, 275, 276, 277, 278, 279, 280, 281, 282, 283, 284, 285, 286, 287, 288, 289, 290, 291, 292, 293, 294, 295, 296, 297, 298, 299, 300, 301, 302, 303, 304, 305, 306, 307, 308, 309, 310, 311, 312, 313, 314, 315, 316, 317, 318, 319, 320, 321, 322, 323, 324, 325, 326, 327, 328, 329, 330, 331, 332, 333, 334, 335, 336, 337, 338, 339, 340, 341, 342, 343, 344, 345, 346, 347, 348, 349, 350, 351, 352, 353, 354, 355, 356, 357, 358, 359, 360, 361, 362, 363, 364, 365, 366, 367, 368, 369, 370, 371, 372, 373, 374, 375, 376, 377, 378, 379, 380, 381, 382, 383, 384, 385, 386, 387, 388, 389, 390, 391, 392, 393, 394, 395, 396, 397, 398, 399, 400, 401, 402, 403, 404, 405, 406, 407, 408, 409, 410, 411, 412, 413, 414, 415, 416, 417, 418, 419, 420, 421, 422, 423, 424, 425, 426, 427, 428, 429, 430, 431, 432, 433, 434, 435, 436, 437, 438, 439, 440, 441, 442, 443, 444, 445, 446, 447, 448, 449, 450, 451, 452, 453, 454, 455, 456, 457, 458, 459, 460, 461, 462, 463, 464, 465, 466, 467, 468, 469, 470, 471, 472, 473, 474, 475, 476, 477, 478, 479, 480, 481, 482, 483, 484, 485, 486, 487, 488, 489, 490, 491, 492, 493, 494, 495, 496, 497, 498, 499, 500, 501, 502, 503, 504, 505, 506, 507, 508, 509, 510, 511, 512, 513, 514, 515, 516, 517, 518, 519, 520, 521, 522, 523, 524, 525, 526, 527, 528, 529, 530, 531, 532, 533, 534, 535, 536, 537, 538, 539, 540, 541, 542, 543, 544, 545, 546, 547, 548, 549, 550, 551, 552, 553, 554, 555, 556, 557, 558, 559, 560, 561, 562, 563, 564, 565, 566, 567, 568, 569, 570, 571, 572, 573, 574, 575, 576, 577, 578, 579, 580, 581, 582, 583, 584, 585, 586, 587, 588, 589, 590, 591, 592, 593, 594, 595, 596, 597, 598, 599, 600, 601, 602, 603, 604, 605, 606, 607, 608, 609, 610, 611, 612, 613, 614, 615, 616, 617, 618, 619, 620, 621, 622, 623, 624, 625, 626, 627, 628, 629, 630, 631, 632, 633, 634, 635, 636, 637, 638, 639, 640, 641, 642, 643, 644, 645, 646, 647, 648, 649, 650, 651, 652, 653, 654, 655, 656, 657, 658, 659, 660, 661, 662, 663, 664, 665, 666, 667, 668, 669, 670, 671, 672, 673, 674, 675, 676, 677, 678, 679, 680, 681, 682, 683, 684, 685, 686, 687, 688, 689, 690, 691, 692, 693, 694, 695, 696, 697, 698, 699, 700, 701, 702, 703, 704, 705, 706, 707, 708, 709, 710, 711, 712, 713, 714, 715, 716, 717, 718, 719, 720, 721, 722, 723, 724, 725, 726, 727, 728, 729, 730, 731, 732, 733, 734, 735, 736, 737, 738, 739, 740, 741, 742, 743, 744, 745, 746, 747, 748, 749, 750, 751, 752, 753, 754, 755, 756, 757, 758, 759, 760, 761, 762, 763, 764, 765, 766, 767, 768, 769, 770, 771, 772, 773, 774, 775, 776, 777, 778, 779, 780, 781, 782, 783, 784, 785, 786, 787, 788, 789, 790, 791, 792, 793, 794, 795, 796, 797, 798, 799, 800, 801, 802, 803, 804, 805, 806, 807, 808, 809, 810, 811, 812, 813, 814, 815, 816, 817, 818, 819, 820, 821, 822, 823, 824, 825, 826, 827, 828, 829, 830, 831, 832, 833, 834, 835, 836, 837, 838, 839, 840, 841, 842, 843, 844, 845, 846, 847, 848, 849, 850, 851, 852, 853, 854, 855, 856, 857, 858, 859, 860, 861, 862, 863, 864, 865, 866, 867, 868, 869, 870, 871, 872, 873, 874, 875, 876, 877, 878, 879, 880, 881, 882, 883, 884, 885, 886, 887, 888, 889, 890, 891, 892, 893, 894, 895, 896, 897, 898, 899, 900, 901, 902, 903, 904, 905, 906, 907, 908, 909, 910, 911, 912, 913, 914],
      "AcquisitionTime": ["204134.227500", "204134.687500", "204135.147500", "204135.607500", "204136.067500", "204136.527500", "204136.987500", "204137.447500", "204137.907500", "204138.367500", "204138.827500", "204139.287500", "204139.747500", "204140.207500", "204140.667500", "204141.127500", "204141.587500", "204142.047500", "204142.507500", "204142.967500", "204143.427500", "204143.887500", "204144.347500", "204144.807500", "204145.267500", "204145.727500", "204146.187500", "204146.647500", "204147.107500", "204147.567500", "204148.027500", "204148.487500", "204148.947500", "204149.407500", "204149.867500", "204150.327500", "204150.787500", "204151.247500", "204151.707500", "204152.167500", "204152.627500", "204153.087500", "204153.547500", "204154.007500", "204154.467500", "204154.927500", "204155.387500", "204155.847500", "204156.307500", "204156.767500", "204157.227500", "204157.687500", "204158.147500", "204158.607500", "204159.067500", "204159.527500", "204159.987500", "204200.447500", "204200.907500", "204201.367500", "204201.827500", "204202.287500", "204202.747500", "204203.207500", "204203.667500", "204204.127500", "204204.587500", "204205.047500", "204205.507500", "204205.967500", "204206.427500", "204206.887500", "204207.347500", "204207.807500", "204208.267500", "204208.727500", "204209.187500", "204209.647500", "204210.107500", "204210.567500", "204211.027500", "204211.487500", "204211.947500", "204212.407500", "204212.867500", "204213.327500", "204213.787500", "204214.247500", "204214.707500", "204215.167500", "204215.627500", "204216.087500", "204216.547500", "204217.007500", "204217.467500", "204217.927500", "204218.387500", "204218.847500", "204219.307500", "204219.767500", "204220.227500", "204220.687500", "204221.147500", "204221.607500", "204222.067500", "204222.527500", "204222.987500", "204223.447500", "204223.907500", "204224.367500", "204224.827500", "204225.287500", "204225.747500", "204226.207500", "204226.667500", "204227.127500", "204227.587500", "204228.047500", "204228.507500", "204228.967500", "204229.427500", "204229.887500", "204230.347500", "204230.807500", "204231.267500", "204231.727500", "204232.187500", "204232.647500", "204233.107500", "204233.567500", "204234.027500", "204234.487500", "204234.947500", "204235.407500", "204235.867500", "204236.327500", "204236.787500", "204237.247500", "204237.707500", "204238.167500", "204238.627500", "204239.087500", "204239.547500", "204240.007500", "204240.467500", "204240.927500", "204241.387500", "204241.847500", "204242.307500", "204242.767500", "204243.227500", "204243.687500", "204244.147500", "204244.607500", "204245.067500", "204245.527500", "204245.987500", "204246.447500", "204246.907500", "204247.367500", "204247.827500", "204248.287500", "204248.747500", "204249.207500", "204249.667500", "204250.127500", "204250.587500", "204251.047500", "204251.507500", "204251.967500", "204252.427500", "204252.887500", "204253.347500", "204253.807500", "204254.267500", "204254.727500", "204255.187500", "204255.647500", "204256.107500", "204256.567500", "204257.027500", "204257.487500", "204257.947500", "204258.407500", "204258.867500", "204259.327500", "204259.787500", "204300.247500", "204300.707500", "204301.167500", "204301.627500", "204302.087500", "204302.547500", "204303.007500", "204303.467500", "204303.927500", "204304.387500", "204304.847500", "204305.307500", "204305.767500", "204306.227500", "204306.687500", "204307.147500", "204307.607500", "204308.067500", "204308.527500", "204308.987500", "204309.447500", "204309.907500", "204310.367500", "204310.827500", "204311.287500", "204311.747500", "204312.207500", "204312.667500", "204313.127500", "204313.587500", "204314.047500", "204314.507500", "204314.967500", "204315.427500", "204315.887500", "204316.347500", "204316.807500", "204317.267500", "204317.727500", "204318.187500", "204318.647500", "204319.107500", "204319.567500", "204320.027500", "204320.487500", "204320.947500", "204321.407500", "204321.867500", "204322.327500", "204322.787500", "204323.247500", "204323.707500", "204324.167500", "204324.627500", "204325.087500", "204325.547500", "204326.007500", "204326.467500", "204326.927500", "204327.387500", "204327.847500", "204328.307500", "204328.767500", "204329.227500", "204329.687500", "204330.147500", "204330.607500", "204331.067500", "204331.527500", "204331.987500", "204332.447500", "204332.907500", "204333.367500", "204333.827500", "204334.287500", "204334.747500", "204335.207500", "204335.667500", "204336.127500", "204336.587500", "204337.047500", "204337.507500", "204337.967500", "204338.427500", "204338.887500", "204339.347500", "204339.807500", "204340.267500", "204340.727500", "204341.187500", "204341.647500", "204342.107500", "204342.567500", "204343.027500", "204343.487500", "204343.947500", "204344.407500", "204344.867500", "204345.327500", "204345.787500", "204346.247500", "204346.707500", "204347.167500", "204347.627500", "204348.087500", "204348.547500", "204349.007500", "204349.467500", "204349.927500", "204350.387500", "204350.847500", "204351.307500", "204351.767500", "204352.227500", "204352.687500", "204353.147500", "204353.607500", "204354.067500", "204354.527500", "204354.987500", "204355.447500", "204355.907500", "204356.367500", "204356.827500", "204357.287500", "204357.747500", "204358.207500", "204358.667500", "204359.127500", "204359.587500", "204400.047500", "204400.507500", "204400.967500", "204401.427500", "204401.887500", "204402.347500", "204402.807500", "204403.267500", "204403.727500", "204404.187500", "204404.647500", "204405.107500", "204405.567500", "204406.027500", "204406.487500", "204406.947500", "204407.407500", "204407.867500", "204408.327500", "204408.787500", "204409.247500", "204409.707500", "204410.167500", "204410.627500", "204411.087500", "204411.547500", "204412.007500", "204412.467500", "204412.927500", "204413.387500", "204413.847500", "204414.307500", "204414.767500", "204415.227500", "204415.687500", "204416.147500", "204416.607500", "204417.067500", "204417.527500", "204417.987500", "204418.447500", "204418.907500", "204419.367500", "204419.827500", "204420.287500", "204420.747500", "204421.207500", "204421.667500", "204422.127500", "204422.587500", "204423.047500", "204423.507500", "204423.967500", "204424.427500", "204424.887500", "204425.347500", "204425.807500", "204426.267500", "204426.727500", "204427.187500", "204427.647500", "204428.107500", "204428.567500", "204429.027500", "204429.487500", "204429.947500", "204430.407500", "204430.867500", "204431.327500", "204431.787500", "204432.247500", "204432.707500", "204433.167500", "204433.627500", "204434.087500", "204434.547500", "204435.007500", "204435.467500", "204435.927500", "204436.387500", "204436.847500", "204437.307500", "204437.767500", "204438.227500", "204438.687500", "204439.147500", "204439.607500", "204440.067500", "204440.527500", "204440.987500", "204441.447500", "204441.907500", "204442.367500", "204442.827500", "204443.287500", "204443.747500", "204444.207500", "204444.667500", "204445.127500", "204445.587500", "204446.047500", "204446.507500", "204446.967500", "204447.427500", "204447.887500", "204448.347500", "204448.807500", "204449.267500", "204449.727500", "204450.187500", "204450.647500", "204451.107500", "204451.567500", "204452.027500", "204452.487500", "204452.947500", "204453.407500", "204453.867500", "204454.327500", "204454.787500", "204455.247500", "204455.707500", "204456.167500", "204456.627500", "204457.087500", "204457.547500", "204458.007500", "204458.467500", "204458.927500", "204459.387500", "204459.847500", "204500.307500", "204500.767500", "204501.227500", "204501.687500", "204502.147500", "204502.607500", "204503.067500", "204503.527500", "204503.987500", "204504.447500", "204504.907500", "204505.367500", "204505.827500", "204506.287500", "204506.747500", "204507.207500", "204507.667500", "204508.127500", "204508.587500", "204509.047500", "204509.507500", "204509.967500", "204510.427500", "204510.887500", "204511.347500", "204511.807500", "204512.267500", "204512.727500", "204513.187500", "204513.647500", "204514.107500", "204514.567500", "204515.027500", "204515.487500", "204515.947500", "204516.407500", "204516.867500", "204517.327500", "204517.787500", "204518.247500", "204518.707500", "204519.167500", "204519.627500", "204520.087500", "204520.547500", "204521.007500", "204521.467500", "204521.927500", "204522.387500", "204522.847500", "204523.307500", "204523.767500", "204524.227500", "204524.687500", "204525.147500", "204525.607500", "204526.067500", "204526.527500", "204526.987500", "204527.447500", "204527.907500", "204528.367500", "204528.827500", "204529.287500", "204529.747500", "204530.207500", "204530.667500", "204531.127500", "204531.587500", "204532.047500", "204532.507500", "204532.967500", "204533.427500", "204533.887500", "204534.347500", "204534.807500", "204535.267500", "204535.727500", "204536.187500", "204536.647500", "204537.107500", "204537.567500", "204538.027500", "204538.487500", "204538.947500", "204539.407500", "204539.867500", "204540.327500", "204540.787500", "204541.247500", "204541.707500", "204542.167500", "204542.627500", "204543.087500", "204543.547500", "204544.007500", "204544.467500", "204544.927500", "204545.387500", "204545.847500", "204546.307500", "204546.767500", "204547.227500", "204547.687500", "204548.147500", "204548.607500", "204549.067500", "204549.527500", "204549.987500", "204550.447500", "204550.907500", "204551.367500", "204551.827500", "204552.287500", "204552.747500", "204553.207500", "204553.667500", "204554.127500", "204554.587500", "204555.047500", "204555.507500", "204555.967500", "204556.427500", "204556.887500", "204557.347500", "204557.807500", "204558.267500", "204558.727500", "204559.187500", "204559.647500", "204600.107500", "204600.567500", "204601.027500", "204601.487500", "204601.947500", "204602.407500", "204602.867500", "204603.327500", "204603.787500", "204604.247500", "204604.707500", "204605.167500", "204605.627500", "204606.087500", "204606.547500", "204607.007500", "204607.467500", "204607.927500", "204608.387500", "204608.847500", "204609.307500", "204609.767500", "204610.227500", "204610.687500", "204611.147500", "204611.607500", "204612.067500", "204612.527500", "204612.987500", "204613.447500", "204613.907500", "204614.367500", "204614.827500", "204615.287500", "204615.747500", "204616.207500", "204616.667500", "204617.127500", "204617.587500", "204618.047500", "204618.507500", "204618.967500", "204619.427500", "204619.887500", "204620.347500", "204620.807500", "204621.267500", "204621.727500", "204622.187500", "204622.647500", "204623.107500", "204623.567500", "204624.027500", "204624.487500", "204624.947500", "204625.407500", "204625.867500", "204626.327500", "204626.787500", "204627.247500", "204627.707500", "204628.167500", "204628.627500", "204629.087500", "204629.547500", "204630.007500", "204630.467500", "204630.927500", "204631.387500", "204631.847500", "204632.307500", "204632.767500", "204633.227500", "204633.687500", "204634.147500", "204634.607500", "204635.067500", "204635.527500", "204635.987500", "204636.447500", "204636.907500", "204637.367500", "204637.827500", "204638.287500", "204638.747500", "204639.207500", "204639.667500", "204640.127500", "204640.587500", "204641.047500", "204641.507500", "204641.967500", "204642.427500", "204642.887500", "204643.347500", "204643.807500", "204644.267500", "204644.727500", "204645.187500", "204645.647500", "204646.107500", "204646.567500", "204647.027500", "204647.487500", "204647.947500", "204648.407500", "204648.867500", "204649.327500", "204649.787500", "204650.247500", "204650.707500", "204651.167500", "204651.627500", "204652.087500", "204652.547500", "204653.007500", "204653.467500", "204653.927500", "204654.387500", "204654.847500", "204655.307500", "204655.767500", "204656.227500", "204656.687500", "204657.147500", "204657.607500", "204658.067500", "204658.527500", "204658.987500", "204659.447500", "204659.907500", "204700.367500", "204700.827500", "204701.287500", "204701.747500", "204702.207500", "204702.667500", "204703.127500", "204703.587500", "204704.047500", "204704.507500", "204704.967500", "204705.427500", "204705.887500", "204706.347500", "204706.807500", "204707.267500", "204707.727500", "204708.187500", "204708.647500", "204709.107500", "204709.567500", "204710.027500", "204710.487500", "204710.947500", "204711.407500", "204711.867500", "204712.327500", "204712.787500", "204713.247500", "204713.707500", "204714.167500", "204714.627500", "204715.087500", "204715.547500", "204716.007500", "204716.467500", "204716.927500", "204717.387500", "204717.847500", "204718.307500", "204718.767500", "204719.227500", "204719.687500", "204720.147500", "204720.607500", "204721.067500", "204721.527500", "204721.987500", "204722.447500", "204722.907500", "204723.367500", "204723.827500", "204724.287500", "204724.747500", "204725.207500", "204725.667500", "204726.127500", "204726.587500", "204727.047500", "204727.507500", "204727.967500", "204728.427500", "204728.887500", "204729.347500", "204729.807500", "204730.267500", "204730.727500", "204731.187500", "204731.647500", "204732.107500", "204732.567500", "204733.027500", "204733.487500", "204733.947500", "204734.407500", "204734.867500", "204735.327500", "204735.787500", "204736.247500", "204736.707500", "204737.167500", "204737.627500", "204738.087500", "204738.547500", "204739.007500", "204739.467500", "204739.927500", "204740.387500", "204740.847500", "204741.307500", "204741.767500", "204742.227500", "204742.687500", "204743.147500", "204743.607500", "204744.067500", "204744.527500", "204744.987500", "204745.447500", "204745.907500", "204746.367500", "204746.827500", "204747.287500", "204747.747500", "204748.207500", "204748.667500", "204749.127500", "204749.587500", "204750.047500", "204750.507500", "204750.967500", "204751.427500", "204751.887500", "204752.347500", "204752.807500", "204753.267500", "204753.727500", "204754.187500", "204754.647500", "204755.107500", "204755.567500", "204756.027500", "204756.487500", "204756.947500", "204757.407500", "204757.867500", "204758.327500", "204758.787500", "204759.247500", "204759.707500", "204800.167500", "204800.627500", "204801.087500", "204801.547500", "204802.007500", "204802.467500", "204802.927500", "204803.387500", "204803.847500", "204804.307500", "204804.767500", "204805.227500", "204805.687500", "204806.147500", "204806.607500", "204807.067500", "204807.527500", "204807.987500", "204808.447500", "204808.907500", "204809.367500", "204809.827500", "204810.287500", "204810.747500", "204811.207500", "204811.667500", "204812.127500", "204812.587500", "204813.047500", "204813.507500", "204813.967500", "204814.427500", "204814.887500", "204815.347500", "204815.807500", "204816.267500", "204816.727500", "204817.187500", "204817.647500", "204818.107500", "204818.567500", "204819.027500", "204819.487500", "204819.947500", "204820.407500", "204820.867500", "204821.327500", "204821.787500", "204822.247500", "204822.707500", "204823.167500", "204823.627500", "204824.087500", "204824.547500", "204825.007500", "204825.467500", "204825.927500", "204826.387500", "204826.847500", "204827.307500", "204827.767500", "204828.227500", "204828.687500", "204829.147500", "204829.607500", "204830.067500", "204830.527500", "204830.987500", "204831.447500", "204831.907500", "204832.367500", "204832.827500", "204833.287500", "204833.747500", "204834.207500"],
