{
  "AcquisitionMatrixPE": 82,
  "AcquisitionNumber": 1,
  "AcquisitionTime": "19:14:37.572500",
  "BandwidthPerPixelPhaseEncode": 24.888,
  "BaseResolution": 82,
  "BodyPartExamined": "BRAIN",
  "ConsistencyInfo": "N4_VE11E_LATEST_20181129",
  "ConversionSoftware": "dcm2niix",
  "ConversionSoftwareVersion": "v1.0.20201102",
  "DerivedVendorReportedEchoSpacing": 0.00049,
  "DeviceSerialNumber": "66112",
  "DwellTime": 2e-06,
  "EchoTime": 0.0272,
  "EchoTrainLength": 82,
  "EffectiveEchoSpacing": 0.00049,
  "FlipAngle": 44,
  "ImageComments": "Unaliased MB8/PE3",
  "ImageOrientationPatientDICOM": [0.998695, 0.0067581, -0.0506132, 0.00592648, 0.969163, 0.246348],
  "ImageType": [
    "ORIGINAL",
    "PRIMARY",
    "M",
    "MB",
    "ND",
    "NORM",
    "MOSAIC"
],
  "ImagingFrequency": 123.252,
  "InPlanePhaseEncodingDirectionDICOM": "COL",
  "InstitutionAddress": "Maynard 3,Hanover,NH,US,03755",
  "InstitutionName": "Dartmouth College - PBS",
  "InstitutionalDepartmentName": "Department",
  "MRAcquisitionType": "2D",
  "MagneticFieldStrength": 3,
  "Manufacturer": "Siemens",
  "ManufacturersModelName": "Prisma",
  "Modality": "MR",
  "MultibandAccelerationFactor": 8,
  "PartialFourier": 1,
  "PatientPosition": "HFS",
  "PercentPhaseFOV": 100,
  "PercentSampling": 100,
  "PhaseEncodingDirection": "j-",
  "PhaseEncodingSteps": 82,
  "PhaseResolution": 1,
  "PixelBandwidth": 3050,
  "ProcedureStepDescription": "Wager_Wager^1076_spacetop",
  "ProtocolName": "func_run-01_task-faces_acq-ap-mb8",
  "PulseSequenceDetails": "%CustomerSeq%\\cmrr_mbep2d_bold",
  "ReceiveCoilActiveElements": "HEA;HEP",
  "ReceiveCoilName": "Head_32",
  "ReconMatrixPE": 82,
  "RepetitionTime": 0.46,
  "SAR": 0.0953388,
  "ScanOptions": "FS",
  "ScanningSequence": "EP",
  "SequenceName": "epfid2d1_82",
  "SequenceVariant": "SK\\SS",
  "SeriesDescription": "func_run-01_task-faces_acq-ap-mb8",
  "SeriesNumber": 16,
  "ShimSetting": [4137, -7820, -7282, 572, -100, -284, -127, 98],
  "SliceThickness": 2.7,
  "SliceTiming": [0, 0.25, 0.0625, 0.3125, 0.125, 0.375, 0.1875, 0, 0.25, 0.0625, 0.3125, 0.125, 0.375, 0.1875, 0, 0.25, 0.0625, 0.3125, 0.125, 0.375, 0.1875, 0, 0.25, 0.0625, 0.3125, 0.125, 0.375, 0.1875, 0, 0.25, 0.0625, 0.3125, 0.125, 0.375, 0.1875, 0, 0.25, 0.0625, 0.3125, 0.125, 0.375, 0.1875, 0, 0.25, 0.0625, 0.3125, 0.125, 0.375, 0.1875, 0, 0.25, 0.0625, 0.3125, 0.125, 0.375, 0.1875],
  "SoftwareVersions": "syngo MR E11",
  "SpacingBetweenSlices": 2.7,
  "StationName": "AWP66112",
  "TaskName": "faces",
  "TotalReadoutTime": 0.03969,
  "TxRefAmp": 237.56,
  "WipMemBlock": "6fc05362-e662-46ff-a3fb-edce9e9ab192||Sequence: R016 ve11e/master r/434b28f1; Aug  7 2019 18:53:46 by eja",
  "dcmmeta_affine": [
    [-2.679426908493042, 0.01590031199157238, -0.13693667948246002, 114.54539489746094],
    [-0.018131490796804428, 2.6001944541931152, 0.6650815010070801, -95.25707244873047],
    [-0.13579148054122925, -0.6609333753585815, 2.6132192611694336, -40.2331428527832],
    [0.0, 0.0, 0.0, 1.0]
],
  "dcmmeta_reorient_transform": [
    [0.0, -1.0, 0.0, 81.0],
    [1.0, 0.0, 0.0, 0.0],
    [0.0, 0.0, 1.0, 0.0],
    [0.0, 0.0, 0.0, 1.0]
],
  "dcmmeta_shape": [82, 82, 56, 914],
  "dcmmeta_slice_dim": 2,
  "dcmmeta_version": 0.6,
  "global": {
    "const": {
      "AccessionNumber": "A004044",
      "AcquisitionMatrix": [82, 0, 0, 82],
      "AngioFlag": "N",
      "BitsAllocated": 16,
      "BitsStored": 16,
      "BodyPartExamined": "BRAIN",
      "Columns": 656,
      "EchoNumbers": 1,
      "EchoTime": 27.2,
      "EchoTrainLength": 82,
      "FlipAngle": 44.0,
      "HighBit": 15,
      "ImageOrientationPatient": [0.99869546569621, 0.0067581010337, -0.050613188679, 0.00592647987219, 0.96916334662258, 0.24634789302863],
      "ImagePositionPatient": [-889.39224048085, -866.8182081415, -244.48447423223],
      "ImageType": [
        "ORIGINAL",
        "PRIMARY",
        "M",
        "MB",
        "ND",
        "NORM",
        "MOSAIC"
],
      "ImagedNucleus": "1H",
      "ImagingFrequency": 123.252193,
      "InPlanePhaseEncodingDirection": "COL",
      "MRAcquisitionType": "2D",
      "MagneticFieldStrength": 3.0,
      "Manufacturer": "SIEMENS",
      "ManufacturerModelName": "Prisma",
      "Modality": "MR",
      "NumberOfAverages": 1.0,
      "NumberOfPhaseEncodingSteps": 82,
      "PercentPhaseFieldOfView": 100.0,
      "PercentSampling": 100.0,
      "PerformedProcedureStepStartTime": "181501.204000",
      "PhotometricInterpretation": "MONOCHROME2",
      "PixelBandwidth": 3050.0,
      "PixelRepresentation": 0,
      "PixelSpacing": [2.6829268932343, 2.6829268932343],
      "ProtocolName": "func_run-01_task-faces_acq-ap-mb8",
      "RepetitionTime": 460.0,
      "Rows": 656,
      "SAR": 0.09533882060779,
      "SamplesPerPixel": 1,
      "ScanOptions": "FS",
      "ScanningSequence": "EP",
      "SequenceName": "epfid2d1_82",
      "SequenceVariant": [
        "SK",
        "SS"
],
      "SeriesDescription": "func_run-01_task-faces_acq-ap-mb8",
      "SeriesNumber": 16,
      "SeriesTime": "191452.726000",
      "SliceLocation": -68.213781571621,
      "SliceThickness": 2.7000000476837,
      "SmallestImagePixelValue": 0,
      "SoftwareVersions": "syngo MR E11",
      "SpacingBetweenSlices": 2.6999999747806,
      "SpecificCharacterSet": "ISO_IR 100",
      "StudyID": "2",
      "StudyTime": "181501.162000",
      "TransmitCoilName": "Body",
      "VariableFlipAngleFlag": "N",
      "WindowCenterWidthExplanation": "Algo1"
    },
    "slices": {}
  },
  "time": {
    "samples": {
      "AcquisitionNumber": [1, 2, 3, 4, 5, 6, 7, 8, 9, 10, 11, 12, 13, 14, 15, 16, 17, 18, 19, 20, 21, 22, 23, 24, 25, 26, 27, 28, 29, 30, 31, 32, 33, 34, 35, 36, 37, 38, 39, 40, 41, 42, 43, 44, 45, 46, 47, 48, 49, 50, 51, 52, 53, 54, 55, 56, 57, 58, 59, 60, 61, 62, 63, 64, 65, 66, 67, 68, 69, 70, 71, 72, 73, 74, 75, 76, 77, 78, 79, 80, 81, 82, 83, 84, 85, 86, 87, 88, 89, 90, 91, 92, 93, 94, 95, 96, 97, 98, 99, 100, 101, 102, 103, 104, 105, 106, 107, 108, 109, 110, 111, 112, 113, 114, 115, 116, 117, 118, 119, 120, 121, 122, 123, 124, 125, 126, 127, 128, 129, 130, 131, 132, 133, 134, 135, 136, 137, 138, 139, 140, 141, 142, 143, 144, 145, 146, 147, 148, 149, 150, 151, 152, 153, 154, 155, 156, 157, 158, 159, 160, 161, 162, 163, 164, 165, 166, 167, 168, 169, 170, 171, 172, 173, 174, 175, 176, 177, 178, 179, 180, 181, 182, 183, 184, 185, 186, 187, 188, 189, 190, 191, 192, 193, 194, 195, 196, 197, 198, 199, 200, 201, 202, 203, 204, 205, 206, 207, 208, 209, 210, 211, 212, 213, 214, 215, 216, 217, 218, 219, 220, 221, 222, 223, 224, 225, 226, 227, 228, 229, 230, 231, 232, 233, 234, 235, 236, 237, 238, 239, 240, 241, 242, 243, 244, 245, 246, 247, 248, 249, 250, 251, 252, 253, 254, 255, 256, 257, 258, 259, 260, 261, 262, 263, 264, 265, 266, 267, 268, 269, 270, 271, 272, 273, 274, 275, 276, 277, 278, 279, 280, 281, 282, 283, 284, 285, 286, 287, 288, 289, 290, 291, 292, 293, 294, 295, 296, 297, 298, 299, 300, 301, 302, 303, 304, 305, 306, 307, 308, 309, 310, 311, 312, 313, 314, 315, 316, 317, 318, 319, 320, 321, 322, 323, 324, 325, 326, 327, 328, 329, 330, 331, 332, 333, 334, 335, 336, 337, 338, 339, 340, 341, 342, 343, 344, 345, 346, 347, 348, 349, 350, 351, 352, 353, 354, 355, 356, 357, 358, 359, 360, 361, 362, 363, 364, 365, 366, 367, 368, 369, 370, 371, 372, 373, 374, 375, 376, 377, 378, 379, 380, 381, 382, 383, 384, 385, 386, 387, 388, 389, 390, 391, 392, 393, 394, 395, 396, 397, 398, 399, 400, 401, 402, 403, 404, 405, 406, 407, 408, 409, 410, 411, 412, 413, 414, 415, 416, 417, 418, 419, 420, 421, 422, 423, 424, 425, 426, 427, 428, 429, 430, 431, 432, 433, 434, 435, 436, 437, 438, 439, 440, 441, 442, 443, 444, 445, 446, 447, 448, 449, 450, 451, 452, 453, 454, 455, 456, 457, 458, 459, 460, 461, 462, 463, 464, 465, 466, 467, 468, 469, 470, 471, 472, 473, 474, 475, 476, 477, 478, 479, 480, 481, 482, 483, 484, 485, 486, 487, 488, 489, 490, 491, 492, 493, 494, 495, 496, 497, 498, 499, 500, 501, 502, 503, 504, 505, 506, 507, 508, 509, 510, 511, 512, 513, 514, 515, 516, 517, 518, 519, 520, 521, 522, 523, 524, 525, 526, 527, 528, 529, 530, 531, 532, 533, 534, 535, 536, 537, 538, 539, 540, 541, 542, 543, 544, 545, 546, 547, 548, 549, 550, 551, 552, 553, 554, 555, 556, 557, 558, 559, 560, 561, 562, 563, 564, 565, 566, 567, 568, 569, 570, 571, 572, 573, 574, 575, 576, 577, 578, 579, 580, 581, 582, 583, 584, 585, 586, 587, 588, 589, 590, 591, 592, 593, 594, 595, 596, 597, 598, 599, 600, 601, 602, 603, 604, 605, 606, 607, 608, 609, 610, 611, 612, 613, 614, 615, 616, 617, 618, 619, 620, 621, 622, 623, 624, 625, 626, 627, 628, 629, 630, 631, 632, 633, 634, 635, 636, 637, 638, 639, 640, 641, 642, 643, 644, 645, 646, 647, 648, 649, 650, 651, 652, 653, 654, 655, 656, 657, 658, 659, 660, 661, 662, 663, 664, 665, 666, 667, 668, 669, 670, 671, 672, 673, 674, 675, 676, 677, 678, 679, 680, 681, 682, 683, 684, 685, 686, 687, 688, 689, 690, 691, 692, 693, 694, 695, 696, 697, 698, 699, 700, 701, 702, 703, 704, 705, 706, 707, 708, 709, 710, 711, 712, 713, 714, 715, 716, 717, 718, 719, 720, 721, 722, 723, 724, 725, 726, 727, 728, 729, 730, 731, 732, 733, 734, 735, 736, 737, 738, 739, 740, 741, 742, 743, 744, 745, 746, 747, 748, 749, 750, 751, 752, 753, 754, 755, 756, 757, 758, 759, 760, 761, 762, 763, 764, 765, 766, 767, 768, 769, 770, 771, 772, 773, 774, 775, 776, 777, 778, 779, 780, 781, 782, 783, 784, 785, 786, 787, 788, 789, 790, 791, 792, 793, 794, 795, 796, 797, 798, 799, 800, 801, 802, 803, 804, 805, 806, 807, 808, 809, 810, 811, 812, 813, 814, 815, 816, 817, 818, 819, 820, 821, 822, 823, 824, 825, 826, 827, 828, 829, 830, 831, 832, 833, 834, 835, 836, 837, 838, 839, 840, 841, 842, 843, 844, 845, 846, 847, 848, 849, 850, 851, 852, 853, 854, 855, 856, 857, 858, 859, 860, 861, 862, 863, 864, 865, 866, 867, 868, 869, 870, 871, 872, 873, 874, 875, 876, 877, 878, 879, 880, 881, 882, 883, 884, 885, 886, 887, 888, 889, 890, 891, 892, 893, 894, 895, 896, 897, 898, 899, 900, 901, 902, 903, 904, 905, 906, 907, 908, 909, 910, 911, 912, 913, 914],
      "AcquisitionTime": ["191437.572500", "191438.032500", "191438.492500", "191438.952500", "191439.412500", "191439.872500", "191440.332500", "191440.792500", "191441.252500", "191441.712500", "191442.172500", "191442.632500", "191443.092500", "191443.552500", "191444.012500", "191444.472500", "191444.932500", "191445.392500", "191445.852500", "191446.312500", "191446.772500", "191447.232500", "191447.692500", "191448.152500", "191448.612500", "191449.072500", "191449.532500", "191449.992500", "191450.452500", "191450.912500", "191451.372500", "191451.832500", "191452.292500", "191452.752500", "191453.212500", "191453.672500", "191454.132500", "191454.592500", "191455.052500", "191455.512500", "191455.972500", "191456.432500", "191456.892500", "191457.352500", "191457.812500", "191458.272500", "191458.732500", "191459.192500", "191459.652500", "191500.112500", "191500.572500", "191501.032500", "191501.492500", "191501.952500", "191502.412500", "191502.872500", "191503.332500", "191503.792500", "191504.252500", "191504.712500", "191505.172500", "191505.632500", "191506.092500", "191506.552500", "191507.012500", "191507.472500", "191507.932500", "191508.392500", "191508.852500", "191509.312500", "191509.772500", "191510.232500", "191510.692500", "191511.152500", "191511.612500", "191512.072500", "191512.532500", "191512.992500", "191513.452500", "191513.912500", "191514.372500", "191514.832500", "191515.292500", "191515.752500", "191516.212500", "191516.672500", "191517.132500", "191517.592500", "191518.052500", "191518.512500", "191518.972500", "191519.432500", "191519.892500", "191520.352500", "191520.812500", "191521.272500", "191521.732500", "191522.192500", "191522.652500", "191523.112500", "191523.572500", "191524.032500", "191524.492500", "191524.952500", "191525.412500", "191525.872500", "191526.332500", "191526.792500", "191527.252500", "191527.712500", "191528.172500", "191528.632500", "191529.092500", "191529.552500", "191530.012500", "191530.472500", "191530.932500", "191531.392500", "191531.852500", "191532.312500", "191532.772500", "191533.232500", "191533.692500", "191534.152500", "191534.612500", "191535.072500", "191535.532500", "191535.992500", "191536.452500", "191536.912500", "191537.372500", "191537.832500", "191538.292500", "191538.752500", "191539.212500", "191539.672500", "191540.132500", "191540.592500", "191541.052500", "191541.512500", "191541.972500", "191542.432500", "191542.892500", "191543.352500", "191543.812500", "191544.272500", "191544.732500", "191545.192500", "191545.652500", "191546.112500", "191546.572500", "191547.032500", "191547.492500", "191547.952500", "191548.412500", "191548.872500", "191549.332500", "191549.792500", "191550.252500", "191550.712500", "191551.172500", "191551.632500", "191552.092500", "191552.552500", "191553.012500", "191553.472500", "191553.932500", "191554.392500", "191554.852500", "191555.312500", "191555.772500", "191556.232500", "191556.692500", "191557.152500", "191557.612500", "191558.072500", "191558.532500", "191558.992500", "191559.452500", "191559.912500", "191600.372500", "191600.832500", "191601.292500", "191601.752500", "191602.212500", "191602.672500", "191603.132500", "191603.592500", "191604.052500", "191604.512500", "191604.972500", "191605.432500", "191605.892500", "191606.352500", "191606.812500", "191607.272500", "191607.732500", "191608.192500", "191608.652500", "191609.112500", "191609.572500", "191610.032500", "191610.492500", "191610.952500", "191611.412500", "191611.872500", "191612.332500", "191612.792500", "191613.252500", "191613.712500", "191614.172500", "191614.632500", "191615.092500", "191615.552500", "191616.012500", "191616.472500", "191616.932500", "191617.392500", "191617.852500", "191618.312500", "191618.772500", "191619.232500", "191619.692500", "191620.152500", "191620.612500", "191621.072500", "191621.532500", "191621.992500", "191622.452500", "191622.912500", "191623.372500", "191623.832500", "191624.292500", "191624.752500", "191625.212500", "191625.672500", "191626.132500", "191626.592500", "191627.052500", "191627.512500", "191627.972500", "191628.432500", "191628.892500", "191629.352500", "191629.812500", "191630.272500", "191630.732500", "191631.192500", "191631.652500", "191632.112500", "191632.572500", "191633.032500", "191633.492500", "191633.952500", "191634.412500", "191634.872500", "191635.332500", "191635.792500", "191636.252500", "191636.712500", "191637.172500", "191637.632500", "191638.092500", "191638.552500", "191639.012500", "191639.472500", "191639.932500", "191640.392500", "191640.852500", "191641.312500", "191641.772500", "191642.232500", "191642.692500", "191643.152500", "191643.612500", "191644.072500", "191644.532500", "191644.992500", "191645.452500", "191645.912500", "191646.372500", "191646.832500", "191647.292500", "191647.752500", "191648.212500", "191648.672500", "191649.132500", "191649.592500", "191650.052500", "191650.512500", "191650.972500", "191651.432500", "191651.892500", "191652.352500", "191652.812500", "191653.272500", "191653.732500", "191654.192500", "191654.652500", "191655.112500", "191655.572500", "191656.032500", "191656.492500", "191656.952500", "191657.412500", "191657.872500", "191658.332500", "191658.792500", "191659.252500", "191659.712500", "191700.172500", "191700.632500", "191701.092500", "191701.552500", "191702.012500", "191702.472500", "191702.932500", "191703.392500", "191703.852500", "191704.312500", "191704.772500", "191705.232500", "191705.692500", "191706.152500", "191706.612500", "191707.072500", "191707.532500", "191707.992500", "191708.452500", "191708.912500", "191709.372500", "191709.832500", "191710.292500", "191710.752500", "191711.212500", "191711.672500", "191712.132500", "191712.592500", "191713.052500", "191713.512500", "191713.972500", "191714.432500", "191714.892500", "191715.352500", "191715.812500", "191716.272500", "191716.732500", "191717.192500", "191717.652500", "191718.112500", "191718.572500", "191719.032500", "191719.492500", "191719.952500", "191720.412500", "191720.872500", "191721.332500", "191721.792500", "191722.252500", "191722.712500", "191723.172500", "191723.632500", "191724.092500", "191724.552500", "191725.012500", "191725.472500", "191725.932500", "191726.392500", "191726.852500", "191727.312500", "191727.772500", "191728.232500", "191728.692500", "191729.152500", "191729.612500", "191730.072500", "191730.532500", "191730.992500", "191731.452500", "191731.912500", "191732.372500", "191732.832500", "191733.292500", "191733.752500", "191734.212500", "191734.672500", "191735.132500", "191735.592500", "191736.052500", "191736.512500", "191736.972500", "191737.432500", "191737.892500", "191738.352500", "191738.812500", "191739.272500", "191739.732500", "191740.192500", "191740.652500", "191741.112500", "191741.572500", "191742.032500", "191742.492500", "191742.952500", "191743.412500", "191743.872500", "191744.332500", "191744.792500", "191745.252500", "191745.712500", "191746.172500", "191746.632500", "191747.092500", "191747.552500", "191748.012500", "191748.472500", "191748.932500", "191749.392500", "191749.852500", "191750.312500", "191750.772500", "191751.232500", "191751.692500", "191752.152500", "191752.612500", "191753.072500", "191753.532500", "191753.992500", "191754.452500", "191754.912500", "191755.372500", "191755.832500", "191756.292500", "191756.752500", "191757.212500", "191757.672500", "191758.132500", "191758.592500", "191759.052500", "191759.512500", "191759.972500", "191800.432500", "191800.892500", "191801.352500", "191801.812500", "191802.272500", "191802.732500", "191803.192500", "191803.652500", "191804.112500", "191804.572500", "191805.032500", "191805.492500", "191805.952500", "191806.412500", "191806.872500", "191807.332500", "191807.792500", "191808.252500", "191808.712500", "191809.172500", "191809.632500", "191810.092500", "191810.552500", "191811.012500", "191811.472500", "191811.932500", "191812.392500", "191812.852500", "191813.312500", "191813.772500", "191814.232500", "191814.692500", "191815.152500", "191815.612500", "191816.072500", "191816.532500", "191816.992500", "191817.452500", "191817.912500", "191818.372500", "191818.832500", "191819.292500", "191819.752500", "191820.212500", "191820.672500", "191821.132500", "191821.592500", "191822.052500", "191822.512500", "191822.972500", "191823.432500", "191823.892500", "191824.352500", "191824.812500", "191825.272500", "191825.732500", "191826.192500", "191826.652500", "191827.112500", "191827.572500", "191828.032500", "191828.492500", "191828.952500", "191829.412500", "191829.872500", "191830.332500", "191830.792500", "191831.252500", "191831.712500", "191832.172500", "191832.632500", "191833.092500", "191833.552500", "191834.012500", "191834.472500", "191834.932500", "191835.392500", "191835.852500", "191836.312500", "191836.772500", "191837.232500", "191837.692500", "191838.152500", "191838.612500", "191839.072500", "191839.532500", "191839.992500", "191840.452500", "191840.912500", "191841.372500", "191841.832500", "191842.292500", "191842.752500", "191843.212500", "191843.672500", "191844.132500", "191844.592500", "191845.052500", "191845.512500", "191845.972500", "191846.432500", "191846.892500", "191847.352500", "191847.812500", "191848.272500", "191848.732500", "191849.192500", "191849.652500", "191850.112500", "191850.572500", "191851.032500", "191851.492500", "191851.952500", "191852.412500", "191852.872500", "191853.332500", "191853.792500", "191854.252500", "191854.712500", "191855.172500", "191855.632500", "191856.092500", "191856.552500", "191857.012500", "191857.472500", "191857.932500", "191858.392500", "191858.852500", "191859.312500", "191859.772500", "191900.232500", "191900.692500", "191901.152500", "191901.612500", "191902.072500", "191902.532500", "191902.992500", "191903.452500", "191903.912500", "191904.372500", "191904.832500", "191905.292500", "191905.752500", "191906.212500", "191906.672500", "191907.132500", "191907.592500", "191908.052500", "191908.512500", "191908.972500", "191909.432500", "191909.892500", "191910.352500", "191910.812500", "191911.272500", "191911.732500", "191912.192500", "191912.652500", "191913.112500", "191913.572500", "191914.032500", "191914.492500", "191914.952500", "191915.412500", "191915.872500", "191916.332500", "191916.792500", "191917.252500", "191917.712500", "191918.172500", "191918.632500", "191919.092500", "191919.552500", "191920.012500", "191920.472500", "191920.932500", "191921.392500", "191921.852500", "191922.312500", "191922.772500", "191923.232500", "191923.692500", "191924.152500", "191924.612500", "191925.072500", "191925.532500", "191925.992500", "191926.452500", "191926.912500", "191927.372500", "191927.832500", "191928.292500", "191928.752500", "191929.212500", "191929.672500", "191930.132500", "191930.592500", "191931.052500", "191931.512500", "191931.972500", "191932.432500", "191932.892500", "191933.352500", "191933.812500", "191934.272500", "191934.732500", "191935.192500", "191935.652500", "191936.112500", "191936.572500", "191937.032500", "191937.492500", "191937.952500", "191938.412500", "191938.872500", "191939.332500", "191939.792500", "191940.252500", "191940.712500", "191941.172500", "191941.632500", "191942.092500", "191942.552500", "191943.012500", "191943.472500", "191943.932500", "191944.392500", "191944.852500", "191945.312500", "191945.772500", "191946.232500", "191946.692500", "191947.152500", "191947.612500", "191948.072500", "191948.532500", "191948.992500", "191949.452500", "191949.912500", "191950.372500", "191950.832500", "191951.292500", "191951.752500", "191952.212500", "191952.672500", "191953.132500", "191953.592500", "191954.052500", "191954.512500", "191954.972500", "191955.432500", "191955.892500", "191956.352500", "191956.812500", "191957.272500", "191957.732500", "191958.192500", "191958.652500", "191959.112500", "191959.572500", "192000.032500", "192000.492500", "192000.952500", "192001.412500", "192001.872500", "192002.332500", "192002.792500", "192003.252500", "192003.712500", "192004.172500", "192004.632500", "192005.092500", "192005.552500", "192006.012500", "192006.472500", "192006.932500", "192007.392500", "192007.852500", "192008.312500", "192008.772500", "192009.232500", "192009.692500", "192010.152500", "192010.612500", "192011.072500", "192011.532500", "192011.992500", "192012.452500", "192012.912500", "192013.372500", "192013.832500", "192014.292500", "192014.752500", "192015.212500", "192015.672500", "192016.132500", "192016.592500", "192017.052500", "192017.512500", "192017.972500", "192018.432500", "192018.892500", "192019.352500", "192019.812500", "192020.272500", "192020.732500", "192021.192500", "192021.652500", "192022.112500", "192022.572500", "192023.032500", "192023.492500", "192023.952500", "192024.412500", "192024.872500", "192025.332500", "192025.792500", "192026.252500", "192026.712500", "192027.172500", "192027.632500", "192028.092500", "192028.552500", "192029.012500", "192029.472500", "192029.932500", "192030.392500", "192030.852500", "192031.312500", "192031.772500", "192032.232500", "192032.692500", "192033.152500", "192033.612500", "192034.072500", "192034.532500", "192034.992500", "192035.452500", "192035.912500", "192036.372500", "192036.832500", "192037.292500", "192037.752500", "192038.212500", "192038.672500", "192039.132500", "192039.592500", "192040.052500", "192040.512500", "192040.972500", "192041.432500", "192041.892500", "192042.352500", "192042.812500", "192043.272500", "192043.732500", "192044.192500", "192044.652500", "192045.112500", "192045.572500", "192046.032500", "192046.492500", "192046.952500", "192047.412500", "192047.872500", "192048.332500", "192048.792500", "192049.252500", "192049.712500", "192050.172500", "192050.632500", "192051.092500", "192051.552500", "192052.012500", "192052.472500", "192052.932500", "192053.392500", "192053.852500", "192054.312500", "192054.772500", "192055.232500", "192055.692500", "192056.152500", "192056.612500", "192057.072500", "192057.532500", "192057.992500", "192058.452500", "192058.912500", "192059.372500", "192059.832500", "192100.292500", "192100.752500", "192101.212500", "192101.672500", "192102.132500", "192102.592500", "192103.052500", "192103.512500", "192103.972500", "192104.432500", "192104.892500", "192105.352500", "192105.812500", "192106.272500", "192106.732500", "192107.192500", "192107.652500", "192108.112500", "192108.572500", "192109.032500", "192109.492500", "192109.952500", "192110.412500", "192110.872500", "192111.332500", "192111.792500", "192112.252500", "192112.712500", "192113.172500", "192113.632500", "192114.092500", "192114.552500", "192115.012500", "192115.472500", "192115.932500", "192116.392500", "192116.852500", "192117.312500", "192117.772500", "192118.232500", "192118.692500", "192119.152500", "192119.612500", "192120.072500", "192120.532500", "192120.992500", "192121.452500", "192121.912500", "192122.372500", "192122.832500", "192123.292500", "192123.752500", "192124.212500", "192124.672500", "192125.132500", "192125.592500", "192126.052500", "192126.512500", "192126.972500", "192127.432500", "192127.892500", "192128.352500", "192128.812500", "192129.272500", "192129.732500", "192130.192500", "192130.652500", "192131.112500", "192131.572500", "192132.032500", "192132.492500", "192132.952500", "192133.412500", "192133.872500", "192134.332500", "192134.792500", "192135.252500", "192135.712500", "192136.172500", "192136.632500", "192137.092500", "192137.552500"],
