{
  "AcquisitionMatrixPE": 82,
  "AcquisitionNumber": 1,
  "AcquisitionTime": "18:47:53.987500",
  "BandwidthPerPixelPhaseEncode": 24.888,
  "BaseResolution": 82,
  "BodyPartExamined": "BRAIN",
  "ConsistencyInfo": "N4_VE11E_LATEST_20181129",
  "ConversionSoftware": "dcm2niix",
  "ConversionSoftwareVersion": "v1.0.20201102",
  "DerivedVendorReportedEchoSpacing": 0.00049,
  "DeviceSerialNumber": "66112",
  "DwellTime": 2e-06,
  "EchoTime": 0.0272,
  "EchoTrainLength": 82,
  "EffectiveEchoSpacing": 0.00049,
  "FlipAngle": 44,
  "ImageComments": "Unaliased MB8/PE3",
  "ImageOrientationPatientDICOM": [0.997385, 0.00603919, 0.0720166, -0.000696295, 0.997259, -0.0739851],
  "ImageType": [
    "ORIGINAL",
    "PRIMARY",
    "M",
    "MB",
    "ND",
    "NORM",
    "MOSAIC"
],
  "ImagingFrequency": 123.259,
  "InPlanePhaseEncodingDirectionDICOM": "COL",
  "InstitutionAddress": "Maynard 3,Hanover,NH,US,03755",
  "InstitutionName": "Dartmouth College - PBS",
  "InstitutionalDepartmentName": "Department",
  "MRAcquisitionType": "2D",
  "MagneticFieldStrength": 3,
  "Manufacturer": "Siemens",
  "ManufacturersModelName": "Prisma",
  "Modality": "MR",
  "MultibandAccelerationFactor": 8,
  "PartialFourier": 1,
  "PatientPosition": "HFS",
  "PercentPhaseFOV": 100,
  "PercentSampling": 100,
  "PhaseEncodingDirection": "j-",
  "PhaseEncodingSteps": 82,
  "PhaseResolution": 1,
  "PixelBandwidth": 3050,
  "ProcedureStepDescription": "Wager_Wager^1076_spacetop",
  "ProtocolName": "func_run-01_task-social_acq-ap-mb8",
  "PulseSequenceDetails": "%CustomerSeq%\\cmrr_mbep2d_bold",
  "ReceiveCoilActiveElements": "HEA;HEP",
  "ReceiveCoilName": "Head_32",
  "ReconMatrixPE": 82,
  "RepetitionTime": 0.46,
  "SAR": 0.0890505,
  "ScanOptions": "FS",
  "ScanningSequence": "EP",
  "SequenceName": "epfid2d1_82",
  "SequenceVariant": "SK\\SS",
  "SeriesDescription": "func_run-01_task-social_acq-ap-mb8",
  "SeriesNumber": 14,
  "ShimSetting": [4231, -7758, -7223, 301, -195, 17, -52, 88],
  "SliceThickness": 2.7,
  "SliceTiming": [0, 0.2525, 0.065, 0.315, 0.1275, 0.3775, 0.19, 0, 0.2525, 0.065, 0.315, 0.1275, 0.3775, 0.19, 0, 0.2525, 0.065, 0.315, 0.1275, 0.3775, 0.19, 0, 0.2525, 0.065, 0.315, 0.1275, 0.3775, 0.19, 0, 0.2525, 0.065, 0.315, 0.1275, 0.3775, 0.19, 0, 0.2525, 0.065, 0.315, 0.1275, 0.3775, 0.19, 0, 0.2525, 0.065, 0.315, 0.1275, 0.3775, 0.19, 0, 0.2525, 0.065, 0.315, 0.1275, 0.3775, 0.19],
  "SoftwareVersions": "syngo MR E11",
  "SpacingBetweenSlices": 2.7,
  "StationName": "AWP66112",
  "TaskName": "social",
  "TotalReadoutTime": 0.03969,
  "TxRefAmp": 231.202,
  "WipMemBlock": "2326de3d-d56a-452d-b5f0-46d94a3e39e6||Sequence: R016 ve11e/master r/434b28f1; Aug  7 2019 18:53:46 by eja",
  "dcmmeta_affine": [
    [-2.6759114265441895, -0.0018681081710383296, 0.19511836767196655, 108.96206665039062],
    [-0.016202693805098534, 2.6755733489990234, -0.19910204410552979, -97.02413177490234],
    [0.19321538507938385, 0.19849662482738495, 2.685570240020752, -85.24185180664062],
    [0.0, 0.0, 0.0, 1.0]
],
  "dcmmeta_reorient_transform": [
    [0.0, -1.0, 0.0, 81.0],
    [1.0, 0.0, 0.0, 0.0],
    [0.0, 0.0, 1.0, 0.0],
    [0.0, 0.0, 0.0, 1.0]
],
  "dcmmeta_shape": [82, 82, 56, 872],
  "dcmmeta_slice_dim": 2,
  "dcmmeta_version": 0.6,
  "global": {
    "const": {
      "AccessionNumber": "A004875",
      "AcquisitionMatrix": [82, 0, 0, 82],
      "AngioFlag": "N",
      "BitsAllocated": 16,
      "BitsStored": 16,
      "BodyPartExamined": "BRAIN",
      "Columns": 656,
      "EchoNumbers": 1,
      "EchoTime": 27.2,
      "EchoTrainLength": 82,
      "FlipAngle": 44.0,
      "HighBit": 15,
      "ImageOrientationPatient": [0.99738514700263, 0.00603918565523, 0.07201664234861, -0.0006962948457, 0.99725910356236, -0.0739851034702],
      "ImagePositionPatient": [-876.26118531059, -892.2370015692, -67.647911642436],
      "ImageType": [
        "ORIGINAL",
        "PRIMARY",
        "M",
        "MB",
        "ND",
        "NORM",
        "MOSAIC"
],
      "ImagedNucleus": "1H",
      "ImagingFrequency": 123.259078,
      "InPlanePhaseEncodingDirection": "COL",
      "MRAcquisitionType": "2D",
      "MagneticFieldStrength": 3.0,
      "Manufacturer": "SIEMENS",
      "ManufacturerModelName": "Prisma",
      "Modality": "MR",
      "NumberOfAverages": 1.0,
      "NumberOfPhaseEncodingSteps": 82,
      "PercentPhaseFieldOfView": 100.0,
      "PercentSampling": 100.0,
      "PerformedProcedureStepStartTime": "180501.734000",
      "PhotometricInterpretation": "MONOCHROME2",
      "PixelBandwidth": 3050.0,
      "PixelRepresentation": 0,
      "PixelSpacing": [2.6829268932343, 2.6829268932343],
      "ProtocolName": "func_run-01_task-social_acq-ap-mb8",
      "RepetitionTime": 460.0,
      "Rows": 656,
      "SAR": 0.08905050977224,
      "SamplesPerPixel": 1,
      "ScanOptions": "FS",
      "ScanningSequence": "EP",
      "SequenceName": "epfid2d1_82",
      "SequenceVariant": [
        "SK",
        "SS"
],
      "SeriesDescription": "func_run-01_task-social_acq-ap-mb8",
      "SeriesNumber": 14,
      "SeriesTime": "184808.404000",
      "SliceLocation": -69.757324058885,
      "SliceThickness": 2.7000000476837,
      "SmallestImagePixelValue": 0,
      "SoftwareVersions": "syngo MR E11",
      "SpacingBetweenSlices": 2.6999999970978,
      "SpecificCharacterSet": "ISO_IR 100",
      "StudyID": "1",
      "StudyTime": "180501.624000",
      "TransmitCoilName": "Body",
      "VariableFlipAngleFlag": "N",
      "WindowCenterWidthExplanation": "Algo1"
    },
    "slices": {}
  },
  "time": {
    "samples": {
      "AcquisitionNumber": [1, 2, 3, 4, 5, 6, 7, 8, 9, 10, 11, 12, 13, 14, 15, 16, 17, 18, 19, 20, 21, 22, 23, 24, 25, 26, 27, 28, 29, 30, 31, 32, 33, 34, 35, 36, 37, 38, 39, 40, 41, 42, 43, 44, 45, 46, 47, 48, 49, 50, 51, 52, 53, 54, 55, 56, 57, 58, 59, 60, 61, 62, 63, 64, 65, 66, 67, 68, 69, 70, 71, 72, 73, 74, 75, 76, 77, 78, 79, 80, 81, 82, 83, 84, 85, 86, 87, 88, 89, 90, 91, 92, 93, 94, 95, 96, 97, 98, 99, 100, 101, 102, 103, 104, 105, 106, 107, 108, 109, 110, 111, 112, 113, 114, 115, 116, 117, 118, 119, 120, 121, 122, 123, 124, 125, 126, 127, 128, 129, 130, 131, 132, 133, 134, 135, 136, 137, 138, 139, 140, 141, 142, 143, 144, 145, 146, 147, 148, 149, 150, 151, 152, 153, 154, 155, 156, 157, 158, 159, 160, 161, 162, 163, 164, 165, 166, 167, 168, 169, 170, 171, 172, 173, 174, 175, 176, 177, 178, 179, 180, 181, 182, 183, 184, 185, 186, 187, 188, 189, 190, 191, 192, 193, 194, 195, 196, 197, 198, 199, 200, 201, 202, 203, 204, 205, 206, 207, 208, 209, 210, 211, 212, 213, 214, 215, 216, 217, 218, 219, 220, 221, 222, 223, 224, 225, 226, 227, 228, 229, 230, 231, 232, 233, 234, 235, 236, 237, 238, 239, 240, 241, 242, 243, 244, 245, 246, 247, 248, 249, 250, 251, 252, 253, 254, 255, 256, 257, 258, 259, 260, 261, 262, 263, 264, 265, 266, 267, 268, 269, 270, 271, 272, 273, 274, 275, 276, 277, 278, 279, 280, 281, 282, 283, 284, 285, 286, 287, 288, 289, 290, 291, 292, 293, 294, 295, 296, 297, 298, 299, 300, 301, 302, 303, 304, 305, 306, 307, 308, 309, 310, 311, 312, 313, 314, 315, 316, 317, 318, 319, 320, 321, 322, 323, 324, 325, 326, 327, 328, 329, 330, 331, 332, 333, 334, 335, 336, 337, 338, 339, 340, 341, 342, 343, 344, 345, 346, 347, 348, 349, 350, 351, 352, 353, 354, 355, 356, 357, 358, 359, 360, 361, 362, 363, 364, 365, 366, 367, 368, 369, 370, 371, 372, 373, 374, 375, 376, 377, 378, 379, 380, 381, 382, 383, 384, 385, 386, 387, 388, 389, 390, 391, 392, 393, 394, 395, 396, 397, 398, 399, 400, 401, 402, 403, 404, 405, 406, 407, 408, 409, 410, 411, 412, 413, 414, 415, 416, 417, 418, 419, 420, 421, 422, 423, 424, 425, 426, 427, 428, 429, 430, 431, 432, 433, 434, 435, 436, 437, 438, 439, 440, 441, 442, 443, 444, 445, 446, 447, 448, 449, 450, 451, 452, 453, 454, 455, 456, 457, 458, 459, 460, 461, 462, 463, 464, 465, 466, 467, 468, 469, 470, 471, 472, 473, 474, 475, 476, 477, 478, 479, 480, 481, 482, 483, 484, 485, 486, 487, 488, 489, 490, 491, 492, 493, 494, 495, 496, 497, 498, 499, 500, 501, 502, 503, 504, 505, 506, 507, 508, 509, 510, 511, 512, 513, 514, 515, 516, 517, 518, 519, 520, 521, 522, 523, 524, 525, 526, 527, 528, 529, 530, 531, 532, 533, 534, 535, 536, 537, 538, 539, 540, 541, 542, 543, 544, 545, 546, 547, 548, 549, 550, 551, 552, 553, 554, 555, 556, 557, 558, 559, 560, 561, 562, 563, 564, 565, 566, 567, 568, 569, 570, 571, 572, 573, 574, 575, 576, 577, 578, 579, 580, 581, 582, 583, 584, 585, 586, 587, 588, 589, 590, 591, 592, 593, 594, 595, 596, 597, 598, 599, 600, 601, 602, 603, 604, 605, 606, 607, 608, 609, 610, 611, 612, 613, 614, 615, 616, 617, 618, 619, 620, 621, 622, 623, 624, 625, 626, 627, 628, 629, 630, 631, 632, 633, 634, 635, 636, 637, 638, 639, 640, 641, 642, 643, 644, 645, 646, 647, 648, 649, 650, 651, 652, 653, 654, 655, 656, 657, 658, 659, 660, 661, 662, 663, 664, 665, 666, 667, 668, 669, 670, 671, 672, 673, 674, 675, 676, 677, 678, 679, 680, 681, 682, 683, 684, 685, 686, 687, 688, 689, 690, 691, 692, 693, 694, 695, 696, 697, 698, 699, 700, 701, 702, 703, 704, 705, 706, 707, 708, 709, 710, 711, 712, 713, 714, 715, 716, 717, 718, 719, 720, 721, 722, 723, 724, 725, 726, 727, 728, 729, 730, 731, 732, 733, 734, 735, 736, 737, 738, 739, 740, 741, 742, 743, 744, 745, 746, 747, 748, 749, 750, 751, 752, 753, 754, 755, 756, 757, 758, 759, 760, 761, 762, 763, 764, 765, 766, 767, 768, 769, 770, 771, 772, 773, 774, 775, 776, 777, 778, 779, 780, 781, 782, 783, 784, 785, 786, 787, 788, 789, 790, 791, 792, 793, 794, 795, 796, 797, 798, 799, 800, 801, 802, 803, 804, 805, 806, 807, 808, 809, 810, 811, 812, 813, 814, 815, 816, 817, 818, 819, 820, 821, 822, 823, 824, 825, 826, 827, 828, 829, 830, 831, 832, 833, 834, 835, 836, 837, 838, 839, 840, 841, 842, 843, 844, 845, 846, 847, 848, 849, 850, 851, 852, 853, 854, 855, 856, 857, 858, 859, 860, 861, 862, 863, 864, 865, 866, 867, 868, 869, 870, 871, 872],
      "AcquisitionTime": ["184753.987500", "184754.447500", "184754.907500", "184755.367500", "184755.827500", "184756.287500", "184756.747500", "184757.207500", "184757.667500", "184758.127500", "184758.587500", "184759.047500", "184759.507500", "184759.967500", "184800.427500", "184800.887500", "184801.347500", "184801.807500", "184802.267500", "184802.727500", "184803.187500", "184803.647500", "184804.107500", "184804.567500", "184805.027500", "184805.487500", "184805.947500", "184806.407500", "184806.867500", "184807.327500", "184807.787500", "184808.247500", "184808.707500", "184809.167500", "184809.627500", "184810.087500", "184810.547500", "184811.007500", "184811.467500", "184811.927500", "184812.387500", "184812.847500", "184813.307500", "184813.767500", "184814.227500", "184814.687500", "184815.147500", "184815.607500", "184816.067500", "184816.527500", "184816.987500", "184817.447500", "184817.907500", "184818.367500", "184818.827500", "184819.287500", "184819.747500", "184820.207500", "184820.667500", "184821.127500", "184821.587500", "184822.047500", "184822.507500", "184822.967500", "184823.427500", "184823.887500", "184824.347500", "184824.807500", "184825.267500", "184825.727500", "184826.187500", "184826.647500", "184827.107500", "184827.567500", "184828.027500", "184828.487500", "184828.947500", "184829.407500", "184829.867500", "184830.327500", "184830.787500", "184831.247500", "184831.707500", "184832.167500", "184832.627500", "184833.087500", "184833.547500", "184834.007500", "184834.467500", "184834.927500", "184835.387500", "184835.847500", "184836.307500", "184836.767500", "184837.227500", "184837.687500", "184838.147500", "184838.607500", "184839.067500", "184839.527500", "184839.987500", "184840.447500", "184840.907500", "184841.367500", "184841.827500", "184842.287500", "184842.747500", "184843.207500", "184843.667500", "184844.127500", "184844.587500", "184845.047500", "184845.507500", "184845.967500", "184846.427500", "184846.887500", "184847.347500", "184847.807500", "184848.267500", "184848.727500", "184849.187500", "184849.647500", "184850.107500", "184850.567500", "184851.027500", "184851.487500", "184851.947500", "184852.407500", "184852.867500", "184853.327500", "184853.787500", "184854.247500", "184854.707500", "184855.167500", "184855.627500", "184856.087500", "184856.547500", "184857.007500", "184857.467500", "184857.927500", "184858.387500", "184858.847500", "184859.307500", "184859.767500", "184900.227500", "184900.687500", "184901.147500", "184901.607500", "184902.067500", "184902.527500", "184902.987500", "184903.447500", "184903.907500", "184904.367500", "184904.827500", "184905.287500", "184905.747500", "184906.207500", "184906.667500", "184907.127500", "184907.587500", "184908.047500", "184908.507500", "184908.967500", "184909.427500", "184909.887500", "184910.347500", "184910.807500", "184911.267500", "184911.727500", "184912.187500", "184912.647500", "184913.107500", "184913.567500", "184914.027500", "184914.487500", "184914.947500", "184915.407500", "184915.867500", "184916.327500", "184916.787500", "184917.247500", "184917.707500", "184918.167500", "184918.627500", "184919.087500", "184919.547500", "184920.007500", "184920.467500", "184920.927500", "184921.387500", "184921.847500", "184922.307500", "184922.767500", "184923.227500", "184923.687500", "184924.147500", "184924.607500", "184925.067500", "184925.527500", "184925.987500", "184926.447500", "184926.907500", "184927.367500", "184927.827500", "184928.287500", "184928.747500", "184929.207500", "184929.667500", "184930.127500", "184930.587500", "184931.047500", "184931.507500", "184931.967500", "184932.427500", "184932.887500", "184933.347500", "184933.807500", "184934.267500", "184934.727500", "184935.187500", "184935.647500", "184936.107500", "184936.567500", "184937.027500", "184937.487500", "184937.947500", "184938.407500", "184938.867500", "184939.327500", "184939.787500", "184940.247500", "184940.707500", "184941.167500", "184941.627500", "184942.087500", "184942.547500", "184943.007500", "184943.467500", "184943.927500", "184944.387500", "184944.847500", "184945.307500", "184945.767500", "184946.227500", "184946.687500", "184947.147500", "184947.607500", "184948.067500", "184948.527500", "184948.987500", "184949.447500", "184949.907500", "184950.367500", "184950.827500", "184951.287500", "184951.747500", "184952.207500", "184952.667500", "184953.127500", "184953.587500", "184954.047500", "184954.507500", "184954.967500", "184955.427500", "184955.887500", "184956.347500", "184956.807500", "184957.267500", "184957.727500", "184958.187500", "184958.647500", "184959.107500", "184959.567500", "185000.027500", "185000.487500", "185000.947500", "185001.407500", "185001.867500", "185002.327500", "185002.787500", "185003.247500", "185003.707500", "185004.167500", "185004.627500", "185005.087500", "185005.547500", "185006.007500", "185006.467500", "185006.927500", "185007.387500", "185007.847500", "185008.307500", "185008.767500", "185009.227500", "185009.687500", "185010.147500", "185010.607500", "185011.067500", "185011.527500", "185011.987500", "185012.447500", "185012.907500", "185013.367500", "185013.827500", "185014.287500", "185014.747500", "185015.207500", "185015.667500", "185016.127500", "185016.587500", "185017.047500", "185017.507500", "185017.967500", "185018.427500", "185018.887500", "185019.347500", "185019.807500", "185020.267500", "185020.727500", "185021.187500", "185021.647500", "185022.107500", "185022.567500", "185023.027500", "185023.487500", "185023.947500", "185024.407500", "185024.867500", "185025.327500", "185025.787500", "185026.247500", "185026.707500", "185027.167500", "185027.627500", "185028.087500", "185028.547500", "185029.007500", "185029.467500", "185029.927500", "185030.387500", "185030.847500", "185031.307500", "185031.767500", "185032.227500", "185032.687500", "185033.147500", "185033.607500", "185034.067500", "185034.527500", "185034.987500", "185035.447500", "185035.907500", "185036.367500", "185036.827500", "185037.287500", "185037.747500", "185038.207500", "185038.667500", "185039.127500", "185039.587500", "185040.047500", "185040.507500", "185040.967500", "185041.427500", "185041.887500", "185042.347500", "185042.807500", "185043.267500", "185043.727500", "185044.187500", "185044.647500", "185045.107500", "185045.567500", "185046.027500", "185046.487500", "185046.947500", "185047.407500", "185047.867500", "185048.327500", "185048.787500", "185049.247500", "185049.707500", "185050.167500", "185050.627500", "185051.087500", "185051.547500", "185052.007500", "185052.467500", "185052.927500", "185053.387500", "185053.847500", "185054.307500", "185054.767500", "185055.227500", "185055.687500", "185056.147500", "185056.607500", "185057.067500", "185057.527500", "185057.987500", "185058.447500", "185058.907500", "185059.367500", "185059.827500", "185100.287500", "185100.747500", "185101.207500", "185101.667500", "185102.127500", "185102.587500", "185103.047500", "185103.507500", "185103.967500", "185104.427500", "185104.887500", "185105.347500", "185105.807500", "185106.267500", "185106.727500", "185107.187500", "185107.647500", "185108.107500", "185108.567500", "185109.027500", "185109.487500", "185109.947500", "185110.407500", "185110.867500", "185111.327500", "185111.787500", "185112.247500", "185112.707500", "185113.167500", "185113.627500", "185114.087500", "185114.547500", "185115.007500", "185115.467500", "185115.927500", "185116.387500", "185116.847500", "185117.307500", "185117.767500", "185118.227500", "185118.687500", "185119.147500", "185119.607500", "185120.067500", "185120.527500", "185120.987500", "185121.447500", "185121.907500", "185122.367500", "185122.827500", "185123.287500", "185123.747500", "185124.207500", "185124.667500", "185125.127500", "185125.587500", "185126.047500", "185126.507500", "185126.967500", "185127.427500", "185127.887500", "185128.347500", "185128.807500", "185129.267500", "185129.727500", "185130.187500", "185130.647500", "185131.107500", "185131.567500", "185132.027500", "185132.487500", "185132.947500", "185133.407500", "185133.867500", "185134.327500", "185134.787500", "185135.247500", "185135.707500", "185136.167500", "185136.627500", "185137.087500", "185137.547500", "185138.007500", "185138.467500", "185138.927500", "185139.387500", "185139.847500", "185140.307500", "185140.767500", "185141.227500", "185141.687500", "185142.147500", "185142.607500", "185143.067500", "185143.527500", "185143.987500", "185144.447500", "185144.907500", "185145.367500", "185145.827500", "185146.287500", "185146.747500", "185147.207500", "185147.667500", "185148.127500", "185148.587500", "185149.047500", "185149.507500", "185149.967500", "185150.427500", "185150.887500", "185151.347500", "185151.807500", "185152.267500", "185152.727500", "185153.187500", "185153.647500", "185154.107500", "185154.567500", "185155.027500", "185155.487500", "185155.947500", "185156.407500", "185156.867500", "185157.327500", "185157.787500", "185158.247500", "185158.707500", "185159.167500", "185159.627500", "185200.087500", "185200.547500", "185201.007500", "185201.467500", "185201.927500", "185202.387500", "185202.847500", "185203.307500", "185203.767500", "185204.227500", "185204.687500", "185205.147500", "185205.607500", "185206.067500", "185206.527500", "185206.987500", "185207.447500", "185207.907500", "185208.367500", "185208.827500", "185209.287500", "185209.747500", "185210.207500", "185210.667500", "185211.127500", "185211.587500", "185212.047500", "185212.507500", "185212.967500", "185213.427500", "185213.887500", "185214.347500", "185214.807500", "185215.267500", "185215.727500", "185216.187500", "185216.647500", "185217.107500", "185217.567500", "185218.027500", "185218.487500", "185218.947500", "185219.407500", "185219.867500", "185220.327500", "185220.787500", "185221.247500", "185221.707500", "185222.167500", "185222.627500", "185223.087500", "185223.547500", "185224.007500", "185224.467500", "185224.927500", "185225.387500", "185225.847500", "185226.307500", "185226.767500", "185227.227500", "185227.687500", "185228.147500", "185228.607500", "185229.067500", "185229.527500", "185229.987500", "185230.447500", "185230.907500", "185231.367500", "185231.827500", "185232.287500", "185232.747500", "185233.207500", "185233.667500", "185234.127500", "185234.587500", "185235.047500", "185235.507500", "185235.967500", "185236.427500", "185236.887500", "185237.347500", "185237.807500", "185238.267500", "185238.727500", "185239.187500", "185239.647500", "185240.107500", "185240.567500", "185241.027500", "185241.487500", "185241.947500", "185242.407500", "185242.867500", "185243.327500", "185243.787500", "185244.247500", "185244.707500", "185245.167500", "185245.627500", "185246.087500", "185246.547500", "185247.007500", "185247.467500", "185247.927500", "185248.387500", "185248.847500", "185249.307500", "185249.767500", "185250.227500", "185250.687500", "185251.147500", "185251.607500", "185252.067500", "185252.527500", "185252.987500", "185253.447500", "185253.907500", "185254.367500", "185254.827500", "185255.287500", "185255.747500", "185256.207500", "185256.667500", "185257.127500", "185257.587500", "185258.047500", "185258.507500", "185258.967500", "185259.427500", "185259.887500", "185300.347500", "185300.807500", "185301.267500", "185301.727500", "185302.187500", "185302.647500", "185303.107500", "185303.567500", "185304.027500", "185304.487500", "185304.947500", "185305.407500", "185305.867500", "185306.327500", "185306.787500", "185307.247500", "185307.707500", "185308.167500", "185308.627500", "185309.087500", "185309.547500", "185310.007500", "185310.467500", "185310.927500", "185311.387500", "185311.847500", "185312.307500", "185312.767500", "185313.227500", "185313.687500", "185314.147500", "185314.607500", "185315.067500", "185315.527500", "185315.987500", "185316.447500", "185316.907500", "185317.367500", "185317.827500", "185318.287500", "185318.747500", "185319.207500", "185319.667500", "185320.127500", "185320.587500", "185321.047500", "185321.507500", "185321.967500", "185322.427500", "185322.887500", "185323.347500", "185323.807500", "185324.267500", "185324.727500", "185325.187500", "185325.647500", "185326.107500", "185326.567500", "185327.027500", "185327.487500", "185327.947500", "185328.407500", "185328.867500", "185329.327500", "185329.787500", "185330.247500", "185330.707500", "185331.167500", "185331.627500", "185332.087500", "185332.547500", "185333.007500", "185333.467500", "185333.927500", "185334.387500", "185334.847500", "185335.307500", "185335.767500", "185336.227500", "185336.687500", "185337.147500", "185337.607500", "185338.067500", "185338.527500", "185338.987500", "185339.447500", "185339.907500", "185340.367500", "185340.827500", "185341.287500", "185341.747500", "185342.207500", "185342.667500", "185343.127500", "185343.587500", "185344.047500", "185344.507500", "185344.967500", "185345.427500", "185345.887500", "185346.347500", "185346.807500", "185347.267500", "185347.727500", "185348.187500", "185348.647500", "185349.107500", "185349.567500", "185350.027500", "185350.487500", "185350.947500", "185351.407500", "185351.867500", "185352.327500", "185352.787500", "185353.247500", "185353.707500", "185354.167500", "185354.627500", "185355.087500", "185355.547500", "185356.007500", "185356.467500", "185356.927500", "185357.387500", "185357.847500", "185358.307500", "185358.767500", "185359.227500", "185359.687500", "185400.147500", "185400.607500", "185401.067500", "185401.527500", "185401.987500", "185402.447500", "185402.907500", "185403.367500", "185403.827500", "185404.287500", "185404.747500", "185405.207500", "185405.667500", "185406.127500", "185406.587500", "185407.047500", "185407.507500", "185407.967500", "185408.427500", "185408.887500", "185409.347500", "185409.807500", "185410.267500", "185410.727500", "185411.187500", "185411.647500", "185412.107500", "185412.567500", "185413.027500", "185413.487500", "185413.947500", "185414.407500", "185414.867500", "185415.327500", "185415.787500", "185416.247500", "185416.707500", "185417.167500", "185417.627500", "185418.087500", "185418.547500", "185419.007500", "185419.467500", "185419.927500", "185420.387500", "185420.847500", "185421.307500", "185421.767500", "185422.227500", "185422.687500", "185423.147500", "185423.607500", "185424.067500", "185424.527500", "185424.987500", "185425.447500", "185425.907500", "185426.367500", "185426.827500", "185427.287500", "185427.747500", "185428.207500", "185428.667500", "185429.127500", "185429.587500", "185430.047500", "185430.507500", "185430.967500", "185431.427500", "185431.887500", "185432.347500", "185432.807500", "185433.267500", "185433.727500", "185434.187500", "185434.647500"],
