{
  "AcquisitionMatrixPE": 82,
  "AcquisitionNumber": 1,
  "AcquisitionTime": "19:05:15.675000",
  "BandwidthPerPixelPhaseEncode": 24.888,
  "BaseResolution": 82,
  "BodyPartExamined": "BRAIN",
  "ConsistencyInfo": "N4_VE11E_LATEST_20181129",
  "ConversionSoftware": "dcm2niix",
  "ConversionSoftwareVersion": "v1.0.20201102",
  "DerivedVendorReportedEchoSpacing": 0.00049,
  "DeviceSerialNumber": "66112",
  "DwellTime": 2e-06,
  "EchoTime": 0.0272,
  "EchoTrainLength": 82,
  "EffectiveEchoSpacing": 0.00049,
  "FlipAngle": 44,
  "ImageComments": "Unaliased MB8/PE3",
  "ImageOrientationPatientDICOM": [0.997385, 0.00603919, 0.0720166, -0.000696295, 0.997259, -0.0739851],
  "ImageType": [
    "ORIGINAL",
    "PRIMARY",
    "M",
    "MB",
    "ND",
    "NORM",
    "MOSAIC"
],
  "ImagingFrequency": 123.259,
  "InPlanePhaseEncodingDirectionDICOM": "COL",
  "InstitutionAddress": "Maynard 3,Hanover,NH,US,03755",
  "InstitutionName": "Dartmouth College - PBS",
  "InstitutionalDepartmentName": "Department",
  "MRAcquisitionType": "2D",
  "MagneticFieldStrength": 3,
  "Manufacturer": "Siemens",
  "ManufacturersModelName": "Prisma",
  "Modality": "MR",
  "MultibandAccelerationFactor": 8,
  "PartialFourier": 1,
  "PatientPosition": "HFS",
  "PercentPhaseFOV": 100,
  "PercentSampling": 100,
  "PhaseEncodingDirection": "j-",
  "PhaseEncodingSteps": 82,
  "PhaseResolution": 1,
  "PixelBandwidth": 3050,
  "ProcedureStepDescription": "Wager_Wager^1076_spacetop",
  "ProtocolName": "func_run-03_task-social_acq-ap-mb8",
  "PulseSequenceDetails": "%CustomerSeq%\\cmrr_mbep2d_bold",
  "ReceiveCoilActiveElements": "HEA;HEP",
  "ReceiveCoilName": "Head_32",
  "ReconMatrixPE": 82,
  "RepetitionTime": 0.46,
  "SAR": 0.0890505,
  "ScanOptions": "FS",
  "ScanningSequence": "EP",
  "SequenceName": "epfid2d1_82",
  "SequenceVariant": "SK\\SS",
  "SeriesDescription": "func_run-03_task-social_acq-ap-mb8",
  "SeriesNumber": 18,
  "ShimSetting": [4231, -7758, -7223, 301, -195, 17, -52, 88],
  "SliceThickness": 2.7,
  "SliceTiming": [0, 0.2525, 0.0625, 0.315, 0.1275, 0.3775, 0.19, 0, 0.2525, 0.0625, 0.315, 0.1275, 0.3775, 0.19, 0, 0.2525, 0.0625, 0.315, 0.1275, 0.3775, 0.19, 0, 0.2525, 0.0625, 0.315, 0.1275, 0.3775, 0.19, 0, 0.2525, 0.0625, 0.315, 0.1275, 0.3775, 0.19, 0, 0.2525, 0.0625, 0.315, 0.1275, 0.3775, 0.19, 0, 0.2525, 0.0625, 0.315, 0.1275, 0.3775, 0.19, 0, 0.2525, 0.0625, 0.315, 0.1275, 0.3775, 0.19],
  "SoftwareVersions": "syngo MR E11",
  "SpacingBetweenSlices": 2.7,
  "StationName": "AWP66112",
  "TaskName": "social",
  "TotalReadoutTime": 0.03969,
  "TxRefAmp": 231.202,
  "WipMemBlock": "284b4864-d0d1-4505-a2ac-9ecad878f94c||Sequence: R016 ve11e/master r/434b28f1; Aug  7 2019 18:53:46 by eja",
  "dcmmeta_affine": [
    [-2.6759114265441895, -0.0018681081710383296, 0.19511836767196655, 108.96206665039062],
    [-0.016202693805098534, 2.6755733489990234, -0.19910204410552979, -97.02413177490234],
    [0.19321538507938385, 0.19849662482738495, 2.685570240020752, -85.24185180664062],
    [0.0, 0.0, 0.0, 1.0]
],
  "dcmmeta_reorient_transform": [
    [0.0, -1.0, 0.0, 81.0],
    [1.0, 0.0, 0.0, 0.0],
    [0.0, 0.0, 1.0, 0.0],
    [0.0, 0.0, 0.0, 1.0]
],
  "dcmmeta_shape": [82, 82, 56, 872],
  "dcmmeta_slice_dim": 2,
  "dcmmeta_version": 0.6,
  "global": {
    "const": {
      "AccessionNumber": "A004875",
      "AcquisitionMatrix": [82, 0, 0, 82],
      "AngioFlag": "N",
      "BitsAllocated": 16,
      "BitsStored": 16,
      "BodyPartExamined": "BRAIN",
      "Columns": 656,
      "EchoNumbers": 1,
      "EchoTime": 27.2,
      "EchoTrainLength": 82,
      "FlipAngle": 44.0,
      "HighBit": 15,
      "ImageOrientationPatient": [0.99738514700263, 0.00603918565523, 0.07201664234861, -0.0006962948457, 0.99725910356236, -0.0739851034702],
      "ImagePositionPatient": [-876.26118531059, -892.2370015692, -67.647911642436],
      "ImageType": [
        "ORIGINAL",
        "PRIMARY",
        "M",
        "MB",
        "ND",
        "NORM",
        "MOSAIC"
],
      "ImagedNucleus": "1H",
      "ImagingFrequency": 123.259094,
      "InPlanePhaseEncodingDirection": "COL",
      "MRAcquisitionType": "2D",
      "MagneticFieldStrength": 3.0,
      "Manufacturer": "SIEMENS",
      "ManufacturerModelName": "Prisma",
      "Modality": "MR",
      "NumberOfAverages": 1.0,
      "NumberOfPhaseEncodingSteps": 82,
      "PercentPhaseFieldOfView": 100.0,
      "PercentSampling": 100.0,
      "PerformedProcedureStepStartTime": "180501.734000",
      "PhotometricInterpretation": "MONOCHROME2",
      "PixelBandwidth": 3050.0,
      "PixelRepresentation": 0,
      "PixelSpacing": [2.6829268932343, 2.6829268932343],
      "ProtocolName": "func_run-03_task-social_acq-ap-mb8",
      "RepetitionTime": 460.0,
      "Rows": 656,
      "SAR": 0.08905050977224,
      "SamplesPerPixel": 1,
      "ScanOptions": "FS",
      "ScanningSequence": "EP",
      "SequenceName": "epfid2d1_82",
      "SequenceVariant": [
        "SK",
        "SS"
],
      "SeriesDescription": "func_run-03_task-social_acq-ap-mb8",
      "SeriesNumber": 18,
      "SeriesTime": "190528.311000",
      "SliceLocation": -69.757324058885,
      "SliceThickness": 2.7000000476837,
      "SmallestImagePixelValue": 0,
      "SoftwareVersions": "syngo MR E11",
      "SpacingBetweenSlices": 2.6999999970978,
      "SpecificCharacterSet": "ISO_IR 100",
      "StudyID": "1",
      "StudyTime": "180501.624000",
      "TransmitCoilName": "Body",
      "VariableFlipAngleFlag": "N",
      "WindowCenterWidthExplanation": "Algo1"
    },
    "slices": {}
  },
  "time": {
    "samples": {
      "AcquisitionNumber": [1, 2, 3, 4, 5, 6, 7, 8, 9, 10, 11, 12, 13, 14, 15, 16, 17, 18, 19, 20, 21, 22, 23, 24, 25, 26, 27, 28, 29, 30, 31, 32, 33, 34, 35, 36, 37, 38, 39, 40, 41, 42, 43, 44, 45, 46, 47, 48, 49, 50, 51, 52, 53, 54, 55, 56, 57, 58, 59, 60, 61, 62, 63, 64, 65, 66, 67, 68, 69, 70, 71, 72, 73, 74, 75, 76, 77, 78, 79, 80, 81, 82, 83, 84, 85, 86, 87, 88, 89, 90, 91, 92, 93, 94, 95, 96, 97, 98, 99, 100, 101, 102, 103, 104, 105, 106, 107, 108, 109, 110, 111, 112, 113, 114, 115, 116, 117, 118, 119, 120, 121, 122, 123, 124, 125, 126, 127, 128, 129, 130, 131, 132, 133, 134, 135, 136, 137, 138, 139, 140, 141, 142, 143, 144, 145, 146, 147, 148, 149, 150, 151, 152, 153, 154, 155, 156, 157, 158, 159, 160, 161, 162, 163, 164, 165, 166, 167, 168, 169, 170, 171, 172, 173, 174, 175, 176, 177, 178, 179, 180, 181, 182, 183, 184, 185, 186, 187, 188, 189, 190, 191, 192, 193, 194, 195, 196, 197, 198, 199, 200, 201, 202, 203, 204, 205, 206, 207, 208, 209, 210, 211, 212, 213, 214, 215, 216, 217, 218, 219, 220, 221, 222, 223, 224, 225, 226, 227, 228, 229, 230, 231, 232, 233, 234, 235, 236, 237, 238, 239, 240, 241, 242, 243, 244, 245, 246, 247, 248, 249, 250, 251, 252, 253, 254, 255, 256, 257, 258, 259, 260, 261, 262, 263, 264, 265, 266, 267, 268, 269, 270, 271, 272, 273, 274, 275, 276, 277, 278, 279, 280, 281, 282, 283, 284, 285, 286, 287, 288, 289, 290, 291, 292, 293, 294, 295, 296, 297, 298, 299, 300, 301, 302, 303, 304, 305, 306, 307, 308, 309, 310, 311, 312, 313, 314, 315, 316, 317, 318, 319, 320, 321, 322, 323, 324, 325, 326, 327, 328, 329, 330, 331, 332, 333, 334, 335, 336, 337, 338, 339, 340, 341, 342, 343, 344, 345, 346, 347, 348, 349, 350, 351, 352, 353, 354, 355, 356, 357, 358, 359, 360, 361, 362, 363, 364, 365, 366, 367, 368, 369, 370, 371, 372, 373, 374, 375, 376, 377, 378, 379, 380, 381, 382, 383, 384, 385, 386, 387, 388, 389, 390, 391, 392, 393, 394, 395, 396, 397, 398, 399, 400, 401, 402, 403, 404, 405, 406, 407, 408, 409, 410, 411, 412, 413, 414, 415, 416, 417, 418, 419, 420, 421, 422, 423, 424, 425, 426, 427, 428, 429, 430, 431, 432, 433, 434, 435, 436, 437, 438, 439, 440, 441, 442, 443, 444, 445, 446, 447, 448, 449, 450, 451, 452, 453, 454, 455, 456, 457, 458, 459, 460, 461, 462, 463, 464, 465, 466, 467, 468, 469, 470, 471, 472, 473, 474, 475, 476, 477, 478, 479, 480, 481, 482, 483, 484, 485, 486, 487, 488, 489, 490, 491, 492, 493, 494, 495, 496, 497, 498, 499, 500, 501, 502, 503, 504, 505, 506, 507, 508, 509, 510, 511, 512, 513, 514, 515, 516, 517, 518, 519, 520, 521, 522, 523, 524, 525, 526, 527, 528, 529, 530, 531, 532, 533, 534, 535, 536, 537, 538, 539, 540, 541, 542, 543, 544, 545, 546, 547, 548, 549, 550, 551, 552, 553, 554, 555, 556, 557, 558, 559, 560, 561, 562, 563, 564, 565, 566, 567, 568, 569, 570, 571, 572, 573, 574, 575, 576, 577, 578, 579, 580, 581, 582, 583, 584, 585, 586, 587, 588, 589, 590, 591, 592, 593, 594, 595, 596, 597, 598, 599, 600, 601, 602, 603, 604, 605, 606, 607, 608, 609, 610, 611, 612, 613, 614, 615, 616, 617, 618, 619, 620, 621, 622, 623, 624, 625, 626, 627, 628, 629, 630, 631, 632, 633, 634, 635, 636, 637, 638, 639, 640, 641, 642, 643, 644, 645, 646, 647, 648, 649, 650, 651, 652, 653, 654, 655, 656, 657, 658, 659, 660, 661, 662, 663, 664, 665, 666, 667, 668, 669, 670, 671, 672, 673, 674, 675, 676, 677, 678, 679, 680, 681, 682, 683, 684, 685, 686, 687, 688, 689, 690, 691, 692, 693, 694, 695, 696, 697, 698, 699, 700, 701, 702, 703, 704, 705, 706, 707, 708, 709, 710, 711, 712, 713, 714, 715, 716, 717, 718, 719, 720, 721, 722, 723, 724, 725, 726, 727, 728, 729, 730, 731, 732, 733, 734, 735, 736, 737, 738, 739, 740, 741, 742, 743, 744, 745, 746, 747, 748, 749, 750, 751, 752, 753, 754, 755, 756, 757, 758, 759, 760, 761, 762, 763, 764, 765, 766, 767, 768, 769, 770, 771, 772, 773, 774, 775, 776, 777, 778, 779, 780, 781, 782, 783, 784, 785, 786, 787, 788, 789, 790, 791, 792, 793, 794, 795, 796, 797, 798, 799, 800, 801, 802, 803, 804, 805, 806, 807, 808, 809, 810, 811, 812, 813, 814, 815, 816, 817, 818, 819, 820, 821, 822, 823, 824, 825, 826, 827, 828, 829, 830, 831, 832, 833, 834, 835, 836, 837, 838, 839, 840, 841, 842, 843, 844, 845, 846, 847, 848, 849, 850, 851, 852, 853, 854, 855, 856, 857, 858, 859, 860, 861, 862, 863, 864, 865, 866, 867, 868, 869, 870, 871, 872],
      "AcquisitionTime": ["190515.675000", "190516.135000", "190516.595000", "190517.055000", "190517.515000", "190517.975000", "190518.435000", "190518.895000", "190519.355000", "190519.815000", "190520.275000", "190520.735000", "190521.195000", "190521.655000", "190522.115000", "190522.575000", "190523.035000", "190523.495000", "190523.955000", "190524.415000", "190524.875000", "190525.335000", "190525.795000", "190526.255000", "190526.715000", "190527.175000", "190527.635000", "190528.095000", "190528.555000", "190529.015000", "190529.475000", "190529.935000", "190530.395000", "190530.855000", "190531.315000", "190531.775000", "190532.235000", "190532.695000", "190533.155000", "190533.615000", "190534.075000", "190534.535000", "190534.995000", "190535.455000", "190535.915000", "190536.375000", "190536.835000", "190537.295000", "190537.755000", "190538.215000", "190538.675000", "190539.135000", "190539.595000", "190540.055000", "190540.515000", "190540.975000", "190541.435000", "190541.895000", "190542.355000", "190542.815000", "190543.275000", "190543.735000", "190544.195000", "190544.655000", "190545.115000", "190545.575000", "190546.035000", "190546.495000", "190546.955000", "190547.415000", "190547.875000", "190548.335000", "190548.795000", "190549.255000", "190549.715000", "190550.175000", "190550.635000", "190551.095000", "190551.555000", "190552.015000", "190552.475000", "190552.935000", "190553.395000", "190553.855000", "190554.315000", "190554.775000", "190555.235000", "190555.695000", "190556.155000", "190556.615000", "190557.075000", "190557.535000", "190557.995000", "190558.455000", "190558.915000", "190559.375000", "190559.835000", "190600.295000", "190600.755000", "190601.215000", "190601.675000", "190602.135000", "190602.595000", "190603.055000", "190603.515000", "190603.975000", "190604.435000", "190604.895000", "190605.355000", "190605.815000", "190606.275000", "190606.735000", "190607.195000", "190607.655000", "190608.115000", "190608.575000", "190609.035000", "190609.495000", "190609.955000", "190610.415000", "190610.875000", "190611.335000", "190611.795000", "190612.255000", "190612.715000", "190613.175000", "190613.635000", "190614.095000", "190614.555000", "190615.015000", "190615.475000", "190615.935000", "190616.395000", "190616.855000", "190617.315000", "190617.775000", "190618.235000", "190618.695000", "190619.155000", "190619.615000", "190620.075000", "190620.535000", "190620.995000", "190621.455000", "190621.915000", "190622.375000", "190622.835000", "190623.295000", "190623.755000", "190624.215000", "190624.675000", "190625.135000", "190625.595000", "190626.055000", "190626.515000", "190626.975000", "190627.435000", "190627.895000", "190628.355000", "190628.815000", "190629.275000", "190629.735000", "190630.195000", "190630.655000", "190631.115000", "190631.575000", "190632.035000", "190632.495000", "190632.955000", "190633.415000", "190633.875000", "190634.335000", "190634.795000", "190635.255000", "190635.715000", "190636.175000", "190636.635000", "190637.095000", "190637.555000", "190638.015000", "190638.475000", "190638.935000", "190639.395000", "190639.855000", "190640.315000", "190640.775000", "190641.235000", "190641.695000", "190642.155000", "190642.615000", "190643.075000", "190643.535000", "190643.995000", "190644.455000", "190644.915000", "190645.375000", "190645.835000", "190646.295000", "190646.755000", "190647.215000", "190647.675000", "190648.135000", "190648.595000", "190649.055000", "190649.515000", "190649.975000", "190650.435000", "190650.895000", "190651.355000", "190651.815000", "190652.275000", "190652.735000", "190653.195000", "190653.655000", "190654.115000", "190654.575000", "190655.035000", "190655.495000", "190655.955000", "190656.415000", "190656.875000", "190657.335000", "190657.795000", "190658.255000", "190658.715000", "190659.175000", "190659.635000", "190700.095000", "190700.555000", "190701.015000", "190701.475000", "190701.935000", "190702.395000", "190702.855000", "190703.315000", "190703.775000", "190704.235000", "190704.695000", "190705.155000", "190705.615000", "190706.075000", "190706.535000", "190706.995000", "190707.455000", "190707.915000", "190708.375000", "190708.835000", "190709.295000", "190709.755000", "190710.215000", "190710.675000", "190711.135000", "190711.595000", "190712.055000", "190712.515000", "190712.975000", "190713.435000", "190713.895000", "190714.355000", "190714.815000", "190715.275000", "190715.735000", "190716.195000", "190716.655000", "190717.115000", "190717.575000", "190718.035000", "190718.495000", "190718.955000", "190719.415000", "190719.875000", "190720.335000", "190720.795000", "190721.255000", "190721.715000", "190722.175000", "190722.635000", "190723.095000", "190723.555000", "190724.015000", "190724.475000", "190724.935000", "190725.395000", "190725.855000", "190726.315000", "190726.775000", "190727.235000", "190727.695000", "190728.155000", "190728.615000", "190729.075000", "190729.535000", "190729.995000", "190730.455000", "190730.915000", "190731.375000", "190731.835000", "190732.295000", "190732.755000", "190733.215000", "190733.675000", "190734.135000", "190734.595000", "190735.055000", "190735.515000", "190735.975000", "190736.435000", "190736.895000", "190737.355000", "190737.815000", "190738.275000", "190738.735000", "190739.195000", "190739.655000", "190740.115000", "190740.575000", "190741.035000", "190741.495000", "190741.955000", "190742.415000", "190742.875000", "190743.335000", "190743.795000", "190744.255000", "190744.715000", "190745.175000", "190745.635000", "190746.095000", "190746.555000", "190747.015000", "190747.475000", "190747.935000", "190748.395000", "190748.855000", "190749.315000", "190749.775000", "190750.235000", "190750.695000", "190751.155000", "190751.615000", "190752.075000", "190752.535000", "190752.995000", "190753.455000", "190753.915000", "190754.375000", "190754.835000", "190755.295000", "190755.755000", "190756.215000", "190756.675000", "190757.135000", "190757.595000", "190758.055000", "190758.515000", "190758.975000", "190759.435000", "190759.895000", "190800.355000", "190800.815000", "190801.275000", "190801.735000", "190802.195000", "190802.655000", "190803.115000", "190803.575000", "190804.035000", "190804.495000", "190804.955000", "190805.415000", "190805.875000", "190806.335000", "190806.795000", "190807.255000", "190807.715000", "190808.175000", "190808.635000", "190809.095000", "190809.555000", "190810.015000", "190810.475000", "190810.935000", "190811.395000", "190811.855000", "190812.315000", "190812.775000", "190813.235000", "190813.695000", "190814.155000", "190814.615000", "190815.075000", "190815.535000", "190815.995000", "190816.455000", "190816.915000", "190817.375000", "190817.835000", "190818.295000", "190818.755000", "190819.215000", "190819.675000", "190820.135000", "190820.595000", "190821.055000", "190821.515000", "190821.975000", "190822.435000", "190822.895000", "190823.355000", "190823.815000", "190824.275000", "190824.735000", "190825.195000", "190825.655000", "190826.115000", "190826.575000", "190827.035000", "190827.495000", "190827.955000", "190828.415000", "190828.875000", "190829.335000", "190829.795000", "190830.255000", "190830.715000", "190831.175000", "190831.635000", "190832.095000", "190832.555000", "190833.015000", "190833.475000", "190833.935000", "190834.395000", "190834.855000", "190835.315000", "190835.775000", "190836.235000", "190836.695000", "190837.155000", "190837.615000", "190838.075000", "190838.535000", "190838.995000", "190839.455000", "190839.915000", "190840.375000", "190840.835000", "190841.295000", "190841.755000", "190842.215000", "190842.675000", "190843.135000", "190843.595000", "190844.055000", "190844.515000", "190844.975000", "190845.435000", "190845.895000", "190846.355000", "190846.815000", "190847.275000", "190847.735000", "190848.195000", "190848.655000", "190849.115000", "190849.575000", "190850.035000", "190850.495000", "190850.955000", "190851.415000", "190851.875000", "190852.335000", "190852.795000", "190853.255000", "190853.715000", "190854.175000", "190854.635000", "190855.095000", "190855.555000", "190856.015000", "190856.475000", "190856.935000", "190857.395000", "190857.855000", "190858.315000", "190858.775000", "190859.235000", "190859.695000", "190900.155000", "190900.615000", "190901.075000", "190901.535000", "190901.995000", "190902.455000", "190902.915000", "190903.375000", "190903.835000", "190904.295000", "190904.755000", "190905.215000", "190905.675000", "190906.135000", "190906.595000", "190907.055000", "190907.515000", "190907.975000", "190908.435000", "190908.895000", "190909.355000", "190909.815000", "190910.275000", "190910.735000", "190911.195000", "190911.655000", "190912.115000", "190912.575000", "190913.035000", "190913.495000", "190913.955000", "190914.415000", "190914.875000", "190915.335000", "190915.795000", "190916.255000", "190916.715000", "190917.175000", "190917.635000", "190918.095000", "190918.555000", "190919.015000", "190919.475000", "190919.935000", "190920.395000", "190920.855000", "190921.315000", "190921.775000", "190922.235000", "190922.695000", "190923.155000", "190923.615000", "190924.075000", "190924.535000", "190924.995000", "190925.455000", "190925.915000", "190926.375000", "190926.835000", "190927.295000", "190927.755000", "190928.215000", "190928.675000", "190929.135000", "190929.595000", "190930.055000", "190930.515000", "190930.975000", "190931.435000", "190931.895000", "190932.355000", "190932.815000", "190933.275000", "190933.735000", "190934.195000", "190934.655000", "190935.115000", "190935.575000", "190936.035000", "190936.495000", "190936.955000", "190937.415000", "190937.875000", "190938.335000", "190938.795000", "190939.255000", "190939.715000", "190940.175000", "190940.635000", "190941.095000", "190941.555000", "190942.015000", "190942.475000", "190942.935000", "190943.395000", "190943.855000", "190944.315000", "190944.775000", "190945.235000", "190945.695000", "190946.155000", "190946.615000", "190947.075000", "190947.535000", "190947.995000", "190948.455000", "190948.915000", "190949.375000", "190949.835000", "190950.295000", "190950.755000", "190951.215000", "190951.675000", "190952.135000", "190952.595000", "190953.055000", "190953.515000", "190953.975000", "190954.435000", "190954.895000", "190955.355000", "190955.815000", "190956.275000", "190956.735000", "190957.195000", "190957.655000", "190958.115000", "190958.575000", "190959.035000", "190959.495000", "190959.955000", "191000.415000", "191000.875000", "191001.335000", "191001.795000", "191002.255000", "191002.715000", "191003.175000", "191003.635000", "191004.095000", "191004.555000", "191005.015000", "191005.475000", "191005.935000", "191006.395000", "191006.855000", "191007.315000", "191007.775000", "191008.235000", "191008.695000", "191009.155000", "191009.615000", "191010.075000", "191010.535000", "191010.995000", "191011.455000", "191011.915000", "191012.375000", "191012.835000", "191013.295000", "191013.755000", "191014.215000", "191014.675000", "191015.135000", "191015.595000", "191016.055000", "191016.515000", "191016.975000", "191017.435000", "191017.895000", "191018.355000", "191018.815000", "191019.275000", "191019.735000", "191020.195000", "191020.655000", "191021.115000", "191021.575000", "191022.035000", "191022.495000", "191022.955000", "191023.415000", "191023.875000", "191024.335000", "191024.795000", "191025.255000", "191025.715000", "191026.175000", "191026.635000", "191027.095000", "191027.555000", "191028.015000", "191028.475000", "191028.935000", "191029.395000", "191029.855000", "191030.315000", "191030.775000", "191031.235000", "191031.695000", "191032.155000", "191032.615000", "191033.075000", "191033.535000", "191033.995000", "191034.455000", "191034.915000", "191035.375000", "191035.835000", "191036.295000", "191036.755000", "191037.215000", "191037.675000", "191038.135000", "191038.595000", "191039.055000", "191039.515000", "191039.975000", "191040.435000", "191040.895000", "191041.355000", "191041.815000", "191042.275000", "191042.735000", "191043.195000", "191043.655000", "191044.115000", "191044.575000", "191045.035000", "191045.495000", "191045.955000", "191046.415000", "191046.875000", "191047.335000", "191047.795000", "191048.255000", "191048.715000", "191049.175000", "191049.635000", "191050.095000", "191050.555000", "191051.015000", "191051.475000", "191051.935000", "191052.395000", "191052.855000", "191053.315000", "191053.775000", "191054.235000", "191054.695000", "191055.155000", "191055.615000", "191056.075000", "191056.535000", "191056.995000", "191057.455000", "191057.915000", "191058.375000", "191058.835000", "191059.295000", "191059.755000", "191100.215000", "191100.675000", "191101.135000", "191101.595000", "191102.055000", "191102.515000", "191102.975000", "191103.435000", "191103.895000", "191104.355000", "191104.815000", "191105.275000", "191105.735000", "191106.195000", "191106.655000", "191107.115000", "191107.575000", "191108.035000", "191108.495000", "191108.955000", "191109.415000", "191109.875000", "191110.335000", "191110.795000", "191111.255000", "191111.715000", "191112.175000", "191112.635000", "191113.095000", "191113.555000", "191114.015000", "191114.475000", "191114.935000", "191115.395000", "191115.855000", "191116.315000", "191116.775000", "191117.235000", "191117.695000", "191118.155000", "191118.615000", "191119.075000", "191119.535000", "191119.995000", "191120.455000", "191120.915000", "191121.375000", "191121.835000", "191122.295000", "191122.755000", "191123.215000", "191123.675000", "191124.135000", "191124.595000", "191125.055000", "191125.515000", "191125.975000", "191126.435000", "191126.895000", "191127.355000", "191127.815000", "191128.275000", "191128.735000", "191129.195000", "191129.655000", "191130.115000", "191130.575000", "191131.035000", "191131.495000", "191131.955000", "191132.415000", "191132.875000", "191133.335000", "191133.795000", "191134.255000", "191134.715000", "191135.175000", "191135.635000", "191136.095000", "191136.555000", "191137.015000", "191137.475000", "191137.935000", "191138.395000", "191138.855000", "191139.315000", "191139.775000", "191140.235000", "191140.695000", "191141.155000", "191141.615000", "191142.075000", "191142.535000", "191142.995000", "191143.455000", "191143.915000", "191144.375000", "191144.835000", "191145.295000", "191145.755000", "191146.215000", "191146.675000", "191147.135000", "191147.595000", "191148.055000", "191148.515000", "191148.975000", "191149.435000", "191149.895000", "191150.355000", "191150.815000", "191151.275000", "191151.735000", "191152.195000", "191152.655000", "191153.115000", "191153.575000", "191154.035000", "191154.495000", "191154.955000", "191155.415000", "191155.875000", "191156.335000"],
