{
  "AcquisitionMatrixPE": 82,
  "AcquisitionNumber": 1,
  "AcquisitionTime": "19:12:18.352500",
  "BandwidthPerPixelPhaseEncode": 24.888,
  "BaseResolution": 82,
  "BodyPartExamined": "BRAIN",
  "ConsistencyInfo": "N4_VE11E_LATEST_20181129",
  "ConversionSoftware": "dcm2niix",
  "ConversionSoftwareVersion": "v1.0.20201102",
  "DerivedVendorReportedEchoSpacing": 0.00049,
  "DeviceSerialNumber": "66112",
  "DwellTime": 2e-06,
  "EchoTime": 0.0272,
  "EchoTrainLength": 82,
  "EffectiveEchoSpacing": 0.00049,
  "FlipAngle": 44,
  "ImageComments": "Unaliased MB8/PE3",
  "ImageOrientationPatientDICOM": [0.997385, 0.00603919, 0.0720166, -0.000696295, 0.997259, -0.0739851],
  "ImageType": [
    "ORIGINAL",
    "PRIMARY",
    "M",
    "MB",
    "ND",
    "NORM",
    "MOSAIC"
],
  "ImagingFrequency": 123.259,
  "InPlanePhaseEncodingDirectionDICOM": "COL",
  "InstitutionAddress": "Maynard 3,Hanover,NH,US,03755",
  "InstitutionName": "Dartmouth College - PBS",
  "InstitutionalDepartmentName": "Department",
  "MRAcquisitionType": "2D",
  "MagneticFieldStrength": 3,
  "Manufacturer": "Siemens",
  "ManufacturersModelName": "Prisma",
  "Modality": "MR",
  "MultibandAccelerationFactor": 8,
  "PartialFourier": 1,
  "PatientPosition": "HFS",
  "PercentPhaseFOV": 100,
  "PercentSampling": 100,
  "PhaseEncodingDirection": "j-",
  "PhaseEncodingSteps": 82,
  "PhaseResolution": 1,
  "PixelBandwidth": 3050,
  "ProcedureStepDescription": "Wager_Wager^1076_spacetop",
  "ProtocolName": "func_run-04_task-social_acq-ap-mb8",
  "PulseSequenceDetails": "%CustomerSeq%\\cmrr_mbep2d_bold",
  "ReceiveCoilActiveElements": "HEA;HEP",
  "ReceiveCoilName": "Head_32",
  "ReconMatrixPE": 82,
  "RepetitionTime": 0.46,
  "SAR": 0.0890505,
  "ScanOptions": "FS",
  "ScanningSequence": "EP",
  "SequenceName": "epfid2d1_82",
  "SequenceVariant": "SK\\SS",
  "SeriesDescription": "func_run-04_task-social_acq-ap-mb8",
  "SeriesNumber": 20,
  "ShimSetting": [4231, -7758, -7223, 301, -195, 17, -52, 88],
  "SliceThickness": 2.7,
  "SliceTiming": [0, 0.2525, 0.0625, 0.315, 0.125, 0.3775, 0.19, 0, 0.2525, 0.0625, 0.315, 0.125, 0.3775, 0.19, 0, 0.2525, 0.0625, 0.315, 0.125, 0.3775, 0.19, 0, 0.2525, 0.0625, 0.315, 0.125, 0.3775, 0.19, 0, 0.2525, 0.0625, 0.315, 0.125, 0.3775, 0.19, 0, 0.2525, 0.0625, 0.315, 0.125, 0.3775, 0.19, 0, 0.2525, 0.0625, 0.315, 0.125, 0.3775, 0.19, 0, 0.2525, 0.0625, 0.315, 0.125, 0.3775, 0.19],
  "SoftwareVersions": "syngo MR E11",
  "SpacingBetweenSlices": 2.7,
  "StationName": "AWP66112",
  "TaskName": "social",
  "TotalReadoutTime": 0.03969,
  "TxRefAmp": 231.202,
  "WipMemBlock": "36d7b849-92eb-4221-9c88-e48fe458cc91||Sequence: R016 ve11e/master r/434b28f1; Aug  7 2019 18:53:46 by eja",
  "dcmmeta_affine": [
    [-2.6759114265441895, -0.0018681081710383296, 0.19511836767196655, 108.96206665039062],
    [-0.016202693805098534, 2.6755733489990234, -0.19910204410552979, -97.02413177490234],
    [0.19321538507938385, 0.19849662482738495, 2.685570240020752, -85.24185180664062],
    [0.0, 0.0, 0.0, 1.0]
],
  "dcmmeta_reorient_transform": [
    [0.0, -1.0, 0.0, 81.0],
    [1.0, 0.0, 0.0, 0.0],
    [0.0, 0.0, 1.0, 0.0],
    [0.0, 0.0, 0.0, 1.0]
],
  "dcmmeta_shape": [82, 82, 56, 872],
  "dcmmeta_slice_dim": 2,
  "dcmmeta_version": 0.6,
  "global": {
    "const": {
      "AccessionNumber": "A004875",
      "AcquisitionMatrix": [82, 0, 0, 82],
      "AngioFlag": "N",
      "BitsAllocated": 16,
      "BitsStored": 16,
      "BodyPartExamined": "BRAIN",
      "Columns": 656,
      "EchoNumbers": 1,
      "EchoTime": 27.2,
      "EchoTrainLength": 82,
      "FlipAngle": 44.0,
      "HighBit": 15,
      "ImageOrientationPatient": [0.99738514700263, 0.00603918565523, 0.07201664234861, -0.0006962948457, 0.99725910356236, -0.0739851034702],
      "ImagePositionPatient": [-876.26118531059, -892.2370015692, -67.647911642436],
      "ImageType": [
        "ORIGINAL",
        "PRIMARY",
        "M",
        "MB",
        "ND",
        "NORM",
        "MOSAIC"
],
      "ImagedNucleus": "1H",
      "ImagingFrequency": 123.259098,
      "InPlanePhaseEncodingDirection": "COL",
      "MRAcquisitionType": "2D",
      "MagneticFieldStrength": 3.0,
      "Manufacturer": "SIEMENS",
      "ManufacturerModelName": "Prisma",
      "Modality": "MR",
      "NumberOfAverages": 1.0,
      "NumberOfPhaseEncodingSteps": 82,
      "PercentPhaseFieldOfView": 100.0,
      "PercentSampling": 100.0,
      "PerformedProcedureStepStartTime": "180501.734000",
      "PhotometricInterpretation": "MONOCHROME2",
      "PixelBandwidth": 3050.0,
      "PixelRepresentation": 0,
      "PixelSpacing": [2.6829268932343, 2.6829268932343],
      "ProtocolName": "func_run-04_task-social_acq-ap-mb8",
      "RepetitionTime": 460.0,
      "Rows": 656,
      "SAR": 0.08905050977224,
      "SamplesPerPixel": 1,
      "ScanOptions": "FS",
      "ScanningSequence": "EP",
      "SequenceName": "epfid2d1_82",
      "SequenceVariant": [
        "SK",
        "SS"
],
      "SeriesDescription": "func_run-04_task-social_acq-ap-mb8",
      "SeriesNumber": 20,
      "SeriesTime": "191228.375000",
      "SliceLocation": -69.757324058885,
      "SliceThickness": 2.7000000476837,
      "SmallestImagePixelValue": 0,
      "SoftwareVersions": "syngo MR E11",
      "SpacingBetweenSlices": 2.6999999970978,
      "SpecificCharacterSet": "ISO_IR 100",
      "StudyID": "1",
      "StudyTime": "180501.624000",
      "TransmitCoilName": "Body",
      "VariableFlipAngleFlag": "N",
      "WindowCenterWidthExplanation": "Algo1"
    },
    "slices": {}
  },
  "time": {
    "samples": {
      "AcquisitionNumber": [1, 2, 3, 4, 5, 6, 7, 8, 9, 10, 11, 12, 13, 14, 15, 16, 17, 18, 19, 20, 21, 22, 23, 24, 25, 26, 27, 28, 29, 30, 31, 32, 33, 34, 35, 36, 37, 38, 39, 40, 41, 42, 43, 44, 45, 46, 47, 48, 49, 50, 51, 52, 53, 54, 55, 56, 57, 58, 59, 60, 61, 62, 63, 64, 65, 66, 67, 68, 69, 70, 71, 72, 73, 74, 75, 76, 77, 78, 79, 80, 81, 82, 83, 84, 85, 86, 87, 88, 89, 90, 91, 92, 93, 94, 95, 96, 97, 98, 99, 100, 101, 102, 103, 104, 105, 106, 107, 108, 109, 110, 111, 112, 113, 114, 115, 116, 117, 118, 119, 120, 121, 122, 123, 124, 125, 126, 127, 128, 129, 130, 131, 132, 133, 134, 135, 136, 137, 138, 139, 140, 141, 142, 143, 144, 145, 146, 147, 148, 149, 150, 151, 152, 153, 154, 155, 156, 157, 158, 159, 160, 161, 162, 163, 164, 165, 166, 167, 168, 169, 170, 171, 172, 173, 174, 175, 176, 177, 178, 179, 180, 181, 182, 183, 184, 185, 186, 187, 188, 189, 190, 191, 192, 193, 194, 195, 196, 197, 198, 199, 200, 201, 202, 203, 204, 205, 206, 207, 208, 209, 210, 211, 212, 213, 214, 215, 216, 217, 218, 219, 220, 221, 222, 223, 224, 225, 226, 227, 228, 229, 230, 231, 232, 233, 234, 235, 236, 237, 238, 239, 240, 241, 242, 243, 244, 245, 246, 247, 248, 249, 250, 251, 252, 253, 254, 255, 256, 257, 258, 259, 260, 261, 262, 263, 264, 265, 266, 267, 268, 269, 270, 271, 272, 273, 274, 275, 276, 277, 278, 279, 280, 281, 282, 283, 284, 285, 286, 287, 288, 289, 290, 291, 292, 293, 294, 295, 296, 297, 298, 299, 300, 301, 302, 303, 304, 305, 306, 307, 308, 309, 310, 311, 312, 313, 314, 315, 316, 317, 318, 319, 320, 321, 322, 323, 324, 325, 326, 327, 328, 329, 330, 331, 332, 333, 334, 335, 336, 337, 338, 339, 340, 341, 342, 343, 344, 345, 346, 347, 348, 349, 350, 351, 352, 353, 354, 355, 356, 357, 358, 359, 360, 361, 362, 363, 364, 365, 366, 367, 368, 369, 370, 371, 372, 373, 374, 375, 376, 377, 378, 379, 380, 381, 382, 383, 384, 385, 386, 387, 388, 389, 390, 391, 392, 393, 394, 395, 396, 397, 398, 399, 400, 401, 402, 403, 404, 405, 406, 407, 408, 409, 410, 411, 412, 413, 414, 415, 416, 417, 418, 419, 420, 421, 422, 423, 424, 425, 426, 427, 428, 429, 430, 431, 432, 433, 434, 435, 436, 437, 438, 439, 440, 441, 442, 443, 444, 445, 446, 447, 448, 449, 450, 451, 452, 453, 454, 455, 456, 457, 458, 459, 460, 461, 462, 463, 464, 465, 466, 467, 468, 469, 470, 471, 472, 473, 474, 475, 476, 477, 478, 479, 480, 481, 482, 483, 484, 485, 486, 487, 488, 489, 490, 491, 492, 493, 494, 495, 496, 497, 498, 499, 500, 501, 502, 503, 504, 505, 506, 507, 508, 509, 510, 511, 512, 513, 514, 515, 516, 517, 518, 519, 520, 521, 522, 523, 524, 525, 526, 527, 528, 529, 530, 531, 532, 533, 534, 535, 536, 537, 538, 539, 540, 541, 542, 543, 544, 545, 546, 547, 548, 549, 550, 551, 552, 553, 554, 555, 556, 557, 558, 559, 560, 561, 562, 563, 564, 565, 566, 567, 568, 569, 570, 571, 572, 573, 574, 575, 576, 577, 578, 579, 580, 581, 582, 583, 584, 585, 586, 587, 588, 589, 590, 591, 592, 593, 594, 595, 596, 597, 598, 599, 600, 601, 602, 603, 604, 605, 606, 607, 608, 609, 610, 611, 612, 613, 614, 615, 616, 617, 618, 619, 620, 621, 622, 623, 624, 625, 626, 627, 628, 629, 630, 631, 632, 633, 634, 635, 636, 637, 638, 639, 640, 641, 642, 643, 644, 645, 646, 647, 648, 649, 650, 651, 652, 653, 654, 655, 656, 657, 658, 659, 660, 661, 662, 663, 664, 665, 666, 667, 668, 669, 670, 671, 672, 673, 674, 675, 676, 677, 678, 679, 680, 681, 682, 683, 684, 685, 686, 687, 688, 689, 690, 691, 692, 693, 694, 695, 696, 697, 698, 699, 700, 701, 702, 703, 704, 705, 706, 707, 708, 709, 710, 711, 712, 713, 714, 715, 716, 717, 718, 719, 720, 721, 722, 723, 724, 725, 726, 727, 728, 729, 730, 731, 732, 733, 734, 735, 736, 737, 738, 739, 740, 741, 742, 743, 744, 745, 746, 747, 748, 749, 750, 751, 752, 753, 754, 755, 756, 757, 758, 759, 760, 761, 762, 763, 764, 765, 766, 767, 768, 769, 770, 771, 772, 773, 774, 775, 776, 777, 778, 779, 780, 781, 782, 783, 784, 785, 786, 787, 788, 789, 790, 791, 792, 793, 794, 795, 796, 797, 798, 799, 800, 801, 802, 803, 804, 805, 806, 807, 808, 809, 810, 811, 812, 813, 814, 815, 816, 817, 818, 819, 820, 821, 822, 823, 824, 825, 826, 827, 828, 829, 830, 831, 832, 833, 834, 835, 836, 837, 838, 839, 840, 841, 842, 843, 844, 845, 846, 847, 848, 849, 850, 851, 852, 853, 854, 855, 856, 857, 858, 859, 860, 861, 862, 863, 864, 865, 866, 867, 868, 869, 870, 871, 872],
      "AcquisitionTime": ["191218.352500", "191218.812500", "191219.272500", "191219.732500", "191220.192500", "191220.652500", "191221.112500", "191221.572500", "191222.032500", "191222.492500", "191222.952500", "191223.412500", "191223.872500", "191224.332500", "191224.792500", "191225.252500", "191225.712500", "191226.172500", "191226.632500", "191227.092500", "191227.552500", "191228.012500", "191228.472500", "191228.932500", "191229.392500", "191229.852500", "191230.312500", "191230.772500", "191231.232500", "191231.692500", "191232.152500", "191232.612500", "191233.072500", "191233.532500", "191233.992500", "191234.452500", "191234.912500", "191235.372500", "191235.832500", "191236.292500", "191236.752500", "191237.212500", "191237.672500", "191238.132500", "191238.592500", "191239.052500", "191239.512500", "191239.972500", "191240.432500", "191240.892500", "191241.352500", "191241.812500", "191242.272500", "191242.732500", "191243.192500", "191243.652500", "191244.112500", "191244.572500", "191245.032500", "191245.492500", "191245.952500", "191246.412500", "191246.872500", "191247.332500", "191247.792500", "191248.252500", "191248.712500", "191249.172500", "191249.632500", "191250.092500", "191250.552500", "191251.012500", "191251.472500", "191251.932500", "191252.392500", "191252.852500", "191253.312500", "191253.772500", "191254.232500", "191254.692500", "191255.152500", "191255.612500", "191256.072500", "191256.532500", "191256.992500", "191257.452500", "191257.912500", "191258.372500", "191258.832500", "191259.292500", "191259.752500", "191300.212500", "191300.672500", "191301.132500", "191301.592500", "191302.052500", "191302.512500", "191302.972500", "191303.432500", "191303.892500", "191304.352500", "191304.812500", "191305.272500", "191305.732500", "191306.192500", "191306.652500", "191307.112500", "191307.572500", "191308.032500", "191308.492500", "191308.952500", "191309.412500", "191309.872500", "191310.332500", "191310.792500", "191311.252500", "191311.712500", "191312.172500", "191312.632500", "191313.092500", "191313.552500", "191314.012500", "191314.472500", "191314.932500", "191315.392500", "191315.852500", "191316.312500", "191316.772500", "191317.232500", "191317.692500", "191318.152500", "191318.612500", "191319.072500", "191319.532500", "191319.992500", "191320.452500", "191320.912500", "191321.372500", "191321.832500", "191322.292500", "191322.752500", "191323.212500", "191323.672500", "191324.132500", "191324.592500", "191325.052500", "191325.512500", "191325.972500", "191326.432500", "191326.892500", "191327.352500", "191327.812500", "191328.272500", "191328.732500", "191329.192500", "191329.652500", "191330.112500", "191330.572500", "191331.032500", "191331.492500", "191331.952500", "191332.412500", "191332.872500", "191333.332500", "191333.792500", "191334.252500", "191334.712500", "191335.172500", "191335.632500", "191336.092500", "191336.552500", "191337.012500", "191337.472500", "191337.932500", "191338.392500", "191338.852500", "191339.312500", "191339.772500", "191340.232500", "191340.692500", "191341.152500", "191341.612500", "191342.072500", "191342.532500", "191342.992500", "191343.452500", "191343.912500", "191344.372500", "191344.832500", "191345.292500", "191345.752500", "191346.212500", "191346.672500", "191347.132500", "191347.592500", "191348.052500", "191348.512500", "191348.972500", "191349.432500", "191349.892500", "191350.352500", "191350.812500", "191351.272500", "191351.732500", "191352.192500", "191352.652500", "191353.112500", "191353.572500", "191354.032500", "191354.492500", "191354.952500", "191355.412500", "191355.872500", "191356.332500", "191356.792500", "191357.252500", "191357.712500", "191358.172500", "191358.632500", "191359.092500", "191359.552500", "191400.012500", "191400.472500", "191400.932500", "191401.392500", "191401.852500", "191402.312500", "191402.772500", "191403.232500", "191403.692500", "191404.152500", "191404.612500", "191405.072500", "191405.532500", "191405.992500", "191406.452500", "191406.912500", "191407.372500", "191407.832500", "191408.292500", "191408.752500", "191409.212500", "191409.672500", "191410.132500", "191410.592500", "191411.052500", "191411.512500", "191411.972500", "191412.432500", "191412.892500", "191413.352500", "191413.812500", "191414.272500", "191414.732500", "191415.192500", "191415.652500", "191416.112500", "191416.572500", "191417.032500", "191417.492500", "191417.952500", "191418.412500", "191418.872500", "191419.332500", "191419.792500", "191420.252500", "191420.712500", "191421.172500", "191421.632500", "191422.092500", "191422.552500", "191423.012500", "191423.472500", "191423.932500", "191424.392500", "191424.852500", "191425.312500", "191425.772500", "191426.232500", "191426.692500", "191427.152500", "191427.612500", "191428.072500", "191428.532500", "191428.992500", "191429.452500", "191429.912500", "191430.372500", "191430.832500", "191431.292500", "191431.752500", "191432.212500", "191432.672500", "191433.132500", "191433.592500", "191434.052500", "191434.512500", "191434.972500", "191435.432500", "191435.892500", "191436.352500", "191436.812500", "191437.272500", "191437.732500", "191438.192500", "191438.652500", "191439.112500", "191439.572500", "191440.032500", "191440.492500", "191440.952500", "191441.412500", "191441.872500", "191442.332500", "191442.792500", "191443.252500", "191443.712500", "191444.172500", "191444.632500", "191445.092500", "191445.552500", "191446.012500", "191446.472500", "191446.932500", "191447.392500", "191447.852500", "191448.312500", "191448.772500", "191449.232500", "191449.692500", "191450.152500", "191450.612500", "191451.072500", "191451.532500", "191451.992500", "191452.452500", "191452.912500", "191453.372500", "191453.832500", "191454.292500", "191454.752500", "191455.212500", "191455.672500", "191456.132500", "191456.592500", "191457.052500", "191457.512500", "191457.972500", "191458.432500", "191458.892500", "191459.352500", "191459.812500", "191500.272500", "191500.732500", "191501.192500", "191501.652500", "191502.112500", "191502.572500", "191503.032500", "191503.492500", "191503.952500", "191504.412500", "191504.872500", "191505.332500", "191505.792500", "191506.252500", "191506.712500", "191507.172500", "191507.632500", "191508.092500", "191508.552500", "191509.012500", "191509.472500", "191509.932500", "191510.392500", "191510.852500", "191511.312500", "191511.772500", "191512.232500", "191512.692500", "191513.152500", "191513.612500", "191514.072500", "191514.532500", "191514.992500", "191515.452500", "191515.912500", "191516.372500", "191516.832500", "191517.292500", "191517.752500", "191518.212500", "191518.672500", "191519.132500", "191519.592500", "191520.052500", "191520.512500", "191520.972500", "191521.432500", "191521.892500", "191522.352500", "191522.812500", "191523.272500", "191523.732500", "191524.192500", "191524.652500", "191525.112500", "191525.572500", "191526.032500", "191526.492500", "191526.952500", "191527.412500", "191527.872500", "191528.332500", "191528.792500", "191529.252500", "191529.712500", "191530.172500", "191530.632500", "191531.092500", "191531.552500", "191532.012500", "191532.472500", "191532.932500", "191533.392500", "191533.852500", "191534.312500", "191534.772500", "191535.232500", "191535.692500", "191536.152500", "191536.612500", "191537.072500", "191537.532500", "191537.992500", "191538.452500", "191538.912500", "191539.372500", "191539.832500", "191540.292500", "191540.752500", "191541.212500", "191541.672500", "191542.132500", "191542.592500", "191543.052500", "191543.512500", "191543.972500", "191544.432500", "191544.892500", "191545.352500", "191545.812500", "191546.272500", "191546.732500", "191547.192500", "191547.652500", "191548.112500", "191548.572500", "191549.032500", "191549.492500", "191549.952500", "191550.412500", "191550.872500", "191551.332500", "191551.792500", "191552.252500", "191552.712500", "191553.172500", "191553.632500", "191554.092500", "191554.552500", "191555.012500", "191555.472500", "191555.932500", "191556.392500", "191556.852500", "191557.312500", "191557.772500", "191558.232500", "191558.692500", "191559.152500", "191559.612500", "191600.072500", "191600.532500", "191600.992500", "191601.452500", "191601.912500", "191602.372500", "191602.832500", "191603.292500", "191603.752500", "191604.212500", "191604.672500", "191605.132500", "191605.592500", "191606.052500", "191606.512500", "191606.972500", "191607.432500", "191607.892500", "191608.352500", "191608.812500", "191609.272500", "191609.732500", "191610.192500", "191610.652500", "191611.112500", "191611.572500", "191612.032500", "191612.492500", "191612.952500", "191613.412500", "191613.872500", "191614.332500", "191614.792500", "191615.252500", "191615.712500", "191616.172500", "191616.632500", "191617.092500", "191617.552500", "191618.012500", "191618.472500", "191618.932500", "191619.392500", "191619.852500", "191620.312500", "191620.772500", "191621.232500", "191621.692500", "191622.152500", "191622.612500", "191623.072500", "191623.532500", "191623.992500", "191624.452500", "191624.912500", "191625.372500", "191625.832500", "191626.292500", "191626.752500", "191627.212500", "191627.672500", "191628.132500", "191628.592500", "191629.052500", "191629.512500", "191629.972500", "191630.432500", "191630.892500", "191631.352500", "191631.812500", "191632.272500", "191632.732500", "191633.192500", "191633.652500", "191634.112500", "191634.572500", "191635.032500", "191635.492500", "191635.952500", "191636.412500", "191636.872500", "191637.332500", "191637.792500", "191638.252500", "191638.712500", "191639.172500", "191639.632500", "191640.092500", "191640.552500", "191641.012500", "191641.472500", "191641.932500", "191642.392500", "191642.852500", "191643.312500", "191643.772500", "191644.232500", "191644.692500", "191645.152500", "191645.612500", "191646.072500", "191646.532500", "191646.992500", "191647.452500", "191647.912500", "191648.372500", "191648.832500", "191649.292500", "191649.752500", "191650.212500", "191650.672500", "191651.132500", "191651.592500", "191652.052500", "191652.512500", "191652.972500", "191653.432500", "191653.892500", "191654.352500", "191654.812500", "191655.272500", "191655.732500", "191656.192500", "191656.652500", "191657.112500", "191657.572500", "191658.032500", "191658.492500", "191658.952500", "191659.412500", "191659.872500", "191700.332500", "191700.792500", "191701.252500", "191701.712500", "191702.172500", "191702.632500", "191703.092500", "191703.552500", "191704.012500", "191704.472500", "191704.932500", "191705.392500", "191705.852500", "191706.312500", "191706.772500", "191707.232500", "191707.692500", "191708.152500", "191708.612500", "191709.072500", "191709.532500", "191709.992500", "191710.452500", "191710.912500", "191711.372500", "191711.832500", "191712.292500", "191712.752500", "191713.212500", "191713.672500", "191714.132500", "191714.592500", "191715.052500", "191715.512500", "191715.972500", "191716.432500", "191716.892500", "191717.352500", "191717.812500", "191718.272500", "191718.732500", "191719.192500", "191719.652500", "191720.112500", "191720.572500", "191721.032500", "191721.492500", "191721.952500", "191722.412500", "191722.872500", "191723.332500", "191723.792500", "191724.252500", "191724.712500", "191725.172500", "191725.632500", "191726.092500", "191726.552500", "191727.012500", "191727.472500", "191727.932500", "191728.392500", "191728.852500", "191729.312500", "191729.772500", "191730.232500", "191730.692500", "191731.152500", "191731.612500", "191732.072500", "191732.532500", "191732.992500", "191733.452500", "191733.912500", "191734.372500", "191734.832500", "191735.292500", "191735.752500", "191736.212500", "191736.672500", "191737.132500", "191737.592500", "191738.052500", "191738.512500", "191738.972500", "191739.432500", "191739.892500", "191740.352500", "191740.812500", "191741.272500", "191741.732500", "191742.192500", "191742.652500", "191743.112500", "191743.572500", "191744.032500", "191744.492500", "191744.952500", "191745.412500", "191745.872500", "191746.332500", "191746.792500", "191747.252500", "191747.712500", "191748.172500", "191748.632500", "191749.092500", "191749.552500", "191750.012500", "191750.472500", "191750.932500", "191751.392500", "191751.852500", "191752.312500", "191752.772500", "191753.232500", "191753.692500", "191754.152500", "191754.612500", "191755.072500", "191755.532500", "191755.992500", "191756.452500", "191756.912500", "191757.372500", "191757.832500", "191758.292500", "191758.752500", "191759.212500", "191759.672500", "191800.132500", "191800.592500", "191801.052500", "191801.512500", "191801.972500", "191802.432500", "191802.892500", "191803.352500", "191803.812500", "191804.272500", "191804.732500", "191805.192500", "191805.652500", "191806.112500", "191806.572500", "191807.032500", "191807.492500", "191807.952500", "191808.412500", "191808.872500", "191809.332500", "191809.792500", "191810.252500", "191810.712500", "191811.172500", "191811.632500", "191812.092500", "191812.552500", "191813.012500", "191813.472500", "191813.932500", "191814.392500", "191814.852500", "191815.312500", "191815.772500", "191816.232500", "191816.692500", "191817.152500", "191817.612500", "191818.072500", "191818.532500", "191818.992500", "191819.452500", "191819.912500", "191820.372500", "191820.832500", "191821.292500", "191821.752500", "191822.212500", "191822.672500", "191823.132500", "191823.592500", "191824.052500", "191824.512500", "191824.972500", "191825.432500", "191825.892500", "191826.352500", "191826.812500", "191827.272500", "191827.732500", "191828.192500", "191828.652500", "191829.112500", "191829.572500", "191830.032500", "191830.492500", "191830.952500", "191831.412500", "191831.872500", "191832.332500", "191832.792500", "191833.252500", "191833.712500", "191834.172500", "191834.632500", "191835.092500", "191835.552500", "191836.012500", "191836.472500", "191836.932500", "191837.392500", "191837.852500", "191838.312500", "191838.772500", "191839.232500", "191839.692500", "191840.152500", "191840.612500", "191841.072500", "191841.532500", "191841.992500", "191842.452500", "191842.912500", "191843.372500", "191843.832500", "191844.292500", "191844.752500", "191845.212500", "191845.672500", "191846.132500", "191846.592500", "191847.052500", "191847.512500", "191847.972500", "191848.432500", "191848.892500", "191849.352500", "191849.812500", "191850.272500", "191850.732500", "191851.192500", "191851.652500", "191852.112500", "191852.572500", "191853.032500", "191853.492500", "191853.952500", "191854.412500", "191854.872500", "191855.332500", "191855.792500", "191856.252500", "191856.712500", "191857.172500", "191857.632500", "191858.092500", "191858.552500", "191859.012500"],
