{
  "AcquisitionMatrixPE": 82,
  "AcquisitionNumber": 1,
  "AcquisitionTime": "19:28:4.082500",
  "BandwidthPerPixelPhaseEncode": 24.888,
  "BaseResolution": 82,
  "BodyPartExamined": "BRAIN",
  "ConsistencyInfo": "N4_VE11E_LATEST_20181129",
  "ConversionSoftware": "dcm2niix",
  "ConversionSoftwareVersion": "v1.0.20201102",
  "DerivedVendorReportedEchoSpacing": 0.00049,
  "DeviceSerialNumber": "66112",
  "DwellTime": 2e-06,
  "EchoTime": 0.0272,
  "EchoTrainLength": 82,
  "EffectiveEchoSpacing": 0.00049,
  "FlipAngle": 44,
  "ImageComments": "Unaliased MB8/PE3",
  "ImageOrientationPatientDICOM": [0.997385, 0.00603919, 0.0720166, -0.000696295, 0.997259, -0.0739851],
  "ImageType": [
    "ORIGINAL",
    "PRIMARY",
    "M",
    "MB",
    "ND",
    "NORM",
    "MOSAIC"
],
  "ImagingFrequency": 123.259,
  "InPlanePhaseEncodingDirectionDICOM": "COL",
  "InstitutionAddress": "Maynard 3,Hanover,NH,US,03755",
  "InstitutionName": "Dartmouth College - PBS",
  "InstitutionalDepartmentName": "Department",
  "MRAcquisitionType": "2D",
  "MagneticFieldStrength": 3,
  "Manufacturer": "Siemens",
  "ManufacturersModelName": "Prisma",
  "Modality": "MR",
  "MultibandAccelerationFactor": 8,
  "PartialFourier": 1,
  "PatientPosition": "HFS",
  "PercentPhaseFOV": 100,
  "PercentSampling": 100,
  "PhaseEncodingDirection": "j-",
  "PhaseEncodingSteps": 82,
  "PhaseResolution": 1,
  "PixelBandwidth": 3050,
  "ProcedureStepDescription": "Wager_Wager^1076_spacetop",
  "ProtocolName": "func_run-06_task-social_acq-ap-mb8",
  "PulseSequenceDetails": "%CustomerSeq%\\cmrr_mbep2d_bold",
  "ReceiveCoilActiveElements": "HEA;HEP",
  "ReceiveCoilName": "Head_32",
  "ReconMatrixPE": 82,
  "RepetitionTime": 0.46,
  "SAR": 0.0890505,
  "ScanOptions": "FS",
  "ScanningSequence": "EP",
  "SequenceName": "epfid2d1_82",
  "SequenceVariant": "SK\\SS",
  "SeriesDescription": "func_run-06_task-social_acq-ap-mb8",
  "SeriesNumber": 24,
  "ShimSetting": [4231, -7758, -7223, 301, -195, 17, -52, 88],
  "SliceThickness": 2.7,
  "SliceTiming": [0, 0.25, 0.0625, 0.315, 0.125, 0.3775, 0.1875, 0, 0.25, 0.0625, 0.315, 0.125, 0.3775, 0.1875, 0, 0.25, 0.0625, 0.315, 0.125, 0.3775, 0.1875, 0, 0.25, 0.0625, 0.315, 0.125, 0.3775, 0.1875, 0, 0.25, 0.0625, 0.315, 0.125, 0.3775, 0.1875, 0, 0.25, 0.0625, 0.315, 0.125, 0.3775, 0.1875, 0, 0.25, 0.0625, 0.315, 0.125, 0.3775, 0.1875, 0, 0.25, 0.0625, 0.315, 0.125, 0.3775, 0.1875],
  "SoftwareVersions": "syngo MR E11",
  "SpacingBetweenSlices": 2.7,
  "StationName": "AWP66112",
  "TaskName": "social",
  "TotalReadoutTime": 0.03969,
  "TxRefAmp": 231.202,
  "WipMemBlock": "7a267198-dac9-48e9-b4b9-4f65741206c1||Sequence: R016 ve11e/master r/434b28f1; Aug  7 2019 18:53:46 by eja",
  "dcmmeta_affine": [
    [-2.6759114265441895, -0.0018681081710383296, 0.19511836767196655, 108.96206665039062],
    [-0.016202693805098534, 2.6755733489990234, -0.19910204410552979, -97.02413177490234],
    [0.19321538507938385, 0.19849662482738495, 2.685570240020752, -85.24185180664062],
    [0.0, 0.0, 0.0, 1.0]
],
  "dcmmeta_reorient_transform": [
    [0.0, -1.0, 0.0, 81.0],
    [1.0, 0.0, 0.0, 0.0],
    [0.0, 0.0, 1.0, 0.0],
    [0.0, 0.0, 0.0, 1.0]
],
  "dcmmeta_shape": [82, 82, 56, 872],
  "dcmmeta_slice_dim": 2,
  "dcmmeta_version": 0.6,
  "global": {
    "const": {
      "AccessionNumber": "A004875",
      "AcquisitionMatrix": [82, 0, 0, 82],
      "AngioFlag": "N",
      "BitsAllocated": 16,
      "BitsStored": 16,
      "BodyPartExamined": "BRAIN",
      "Columns": 656,
      "EchoNumbers": 1,
      "EchoTime": 27.2,
      "EchoTrainLength": 82,
      "FlipAngle": 44.0,
      "HighBit": 15,
      "ImageOrientationPatient": [0.99738514700263, 0.00603918565523, 0.07201664234861, -0.0006962948457, 0.99725910356236, -0.0739851034702],
      "ImagePositionPatient": [-876.26118531059, -892.2370015692, -67.647911642436],
      "ImageType": [
        "ORIGINAL",
        "PRIMARY",
        "M",
        "MB",
        "ND",
        "NORM",
        "MOSAIC"
],
      "ImagedNucleus": "1H",
      "ImagingFrequency": 123.259102,
      "InPlanePhaseEncodingDirection": "COL",
      "MRAcquisitionType": "2D",
      "MagneticFieldStrength": 3.0,
      "Manufacturer": "SIEMENS",
      "ManufacturerModelName": "Prisma",
      "Modality": "MR",
      "NumberOfAverages": 1.0,
      "NumberOfPhaseEncodingSteps": 82,
      "PercentPhaseFieldOfView": 100.0,
      "PercentSampling": 100.0,
      "PerformedProcedureStepStartTime": "180501.734000",
      "PhotometricInterpretation": "MONOCHROME2",
      "PixelBandwidth": 3050.0,
      "PixelRepresentation": 0,
      "PixelSpacing": [2.6829268932343, 2.6829268932343],
      "ProtocolName": "func_run-06_task-social_acq-ap-mb8",
      "RepetitionTime": 460.0,
      "Rows": 656,
      "SAR": 0.08905050977224,
      "SamplesPerPixel": 1,
      "ScanOptions": "FS",
      "ScanningSequence": "EP",
      "SequenceName": "epfid2d1_82",
      "SequenceVariant": [
        "SK",
        "SS"
],
      "SeriesDescription": "func_run-06_task-social_acq-ap-mb8",
      "SeriesNumber": 24,
      "SeriesTime": "192828.288000",
      "SliceLocation": -69.757324058885,
      "SliceThickness": 2.7000000476837,
      "SmallestImagePixelValue": 0,
      "SoftwareVersions": "syngo MR E11",
      "SpacingBetweenSlices": 2.6999999970978,
      "SpecificCharacterSet": "ISO_IR 100",
      "StudyID": "1",
      "StudyTime": "180501.624000",
      "TransmitCoilName": "Body",
      "VariableFlipAngleFlag": "N",
      "WindowCenterWidthExplanation": "Algo1"
    },
    "slices": {}
  },
  "time": {
    "samples": {
      "AcquisitionNumber": [1, 2, 3, 4, 5, 6, 7, 8, 9, 10, 11, 12, 13, 14, 15, 16, 17, 18, 19, 20, 21, 22, 23, 24, 25, 26, 27, 28, 29, 30, 31, 32, 33, 34, 35, 36, 37, 38, 39, 40, 41, 42, 43, 44, 45, 46, 47, 48, 49, 50, 51, 52, 53, 54, 55, 56, 57, 58, 59, 60, 61, 62, 63, 64, 65, 66, 67, 68, 69, 70, 71, 72, 73, 74, 75, 76, 77, 78, 79, 80, 81, 82, 83, 84, 85, 86, 87, 88, 89, 90, 91, 92, 93, 94, 95, 96, 97, 98, 99, 100, 101, 102, 103, 104, 105, 106, 107, 108, 109, 110, 111, 112, 113, 114, 115, 116, 117, 118, 119, 120, 121, 122, 123, 124, 125, 126, 127, 128, 129, 130, 131, 132, 133, 134, 135, 136, 137, 138, 139, 140, 141, 142, 143, 144, 145, 146, 147, 148, 149, 150, 151, 152, 153, 154, 155, 156, 157, 158, 159, 160, 161, 162, 163, 164, 165, 166, 167, 168, 169, 170, 171, 172, 173, 174, 175, 176, 177, 178, 179, 180, 181, 182, 183, 184, 185, 186, 187, 188, 189, 190, 191, 192, 193, 194, 195, 196, 197, 198, 199, 200, 201, 202, 203, 204, 205, 206, 207, 208, 209, 210, 211, 212, 213, 214, 215, 216, 217, 218, 219, 220, 221, 222, 223, 224, 225, 226, 227, 228, 229, 230, 231, 232, 233, 234, 235, 236, 237, 238, 239, 240, 241, 242, 243, 244, 245, 246, 247, 248, 249, 250, 251, 252, 253, 254, 255, 256, 257, 258, 259, 260, 261, 262, 263, 264, 265, 266, 267, 268, 269, 270, 271, 272, 273, 274, 275, 276, 277, 278, 279, 280, 281, 282, 283, 284, 285, 286, 287, 288, 289, 290, 291, 292, 293, 294, 295, 296, 297, 298, 299, 300, 301, 302, 303, 304, 305, 306, 307, 308, 309, 310, 311, 312, 313, 314, 315, 316, 317, 318, 319, 320, 321, 322, 323, 324, 325, 326, 327, 328, 329, 330, 331, 332, 333, 334, 335, 336, 337, 338, 339, 340, 341, 342, 343, 344, 345, 346, 347, 348, 349, 350, 351, 352, 353, 354, 355, 356, 357, 358, 359, 360, 361, 362, 363, 364, 365, 366, 367, 368, 369, 370, 371, 372, 373, 374, 375, 376, 377, 378, 379, 380, 381, 382, 383, 384, 385, 386, 387, 388, 389, 390, 391, 392, 393, 394, 395, 396, 397, 398, 399, 400, 401, 402, 403, 404, 405, 406, 407, 408, 409, 410, 411, 412, 413, 414, 415, 416, 417, 418, 419, 420, 421, 422, 423, 424, 425, 426, 427, 428, 429, 430, 431, 432, 433, 434, 435, 436, 437, 438, 439, 440, 441, 442, 443, 444, 445, 446, 447, 448, 449, 450, 451, 452, 453, 454, 455, 456, 457, 458, 459, 460, 461, 462, 463, 464, 465, 466, 467, 468, 469, 470, 471, 472, 473, 474, 475, 476, 477, 478, 479, 480, 481, 482, 483, 484, 485, 486, 487, 488, 489, 490, 491, 492, 493, 494, 495, 496, 497, 498, 499, 500, 501, 502, 503, 504, 505, 506, 507, 508, 509, 510, 511, 512, 513, 514, 515, 516, 517, 518, 519, 520, 521, 522, 523, 524, 525, 526, 527, 528, 529, 530, 531, 532, 533, 534, 535, 536, 537, 538, 539, 540, 541, 542, 543, 544, 545, 546, 547, 548, 549, 550, 551, 552, 553, 554, 555, 556, 557, 558, 559, 560, 561, 562, 563, 564, 565, 566, 567, 568, 569, 570, 571, 572, 573, 574, 575, 576, 577, 578, 579, 580, 581, 582, 583, 584, 585, 586, 587, 588, 589, 590, 591, 592, 593, 594, 595, 596, 597, 598, 599, 600, 601, 602, 603, 604, 605, 606, 607, 608, 609, 610, 611, 612, 613, 614, 615, 616, 617, 618, 619, 620, 621, 622, 623, 624, 625, 626, 627, 628, 629, 630, 631, 632, 633, 634, 635, 636, 637, 638, 639, 640, 641, 642, 643, 644, 645, 646, 647, 648, 649, 650, 651, 652, 653, 654, 655, 656, 657, 658, 659, 660, 661, 662, 663, 664, 665, 666, 667, 668, 669, 670, 671, 672, 673, 674, 675, 676, 677, 678, 679, 680, 681, 682, 683, 684, 685, 686, 687, 688, 689, 690, 691, 692, 693, 694, 695, 696, 697, 698, 699, 700, 701, 702, 703, 704, 705, 706, 707, 708, 709, 710, 711, 712, 713, 714, 715, 716, 717, 718, 719, 720, 721, 722, 723, 724, 725, 726, 727, 728, 729, 730, 731, 732, 733, 734, 735, 736, 737, 738, 739, 740, 741, 742, 743, 744, 745, 746, 747, 748, 749, 750, 751, 752, 753, 754, 755, 756, 757, 758, 759, 760, 761, 762, 763, 764, 765, 766, 767, 768, 769, 770, 771, 772, 773, 774, 775, 776, 777, 778, 779, 780, 781, 782, 783, 784, 785, 786, 787, 788, 789, 790, 791, 792, 793, 794, 795, 796, 797, 798, 799, 800, 801, 802, 803, 804, 805, 806, 807, 808, 809, 810, 811, 812, 813, 814, 815, 816, 817, 818, 819, 820, 821, 822, 823, 824, 825, 826, 827, 828, 829, 830, 831, 832, 833, 834, 835, 836, 837, 838, 839, 840, 841, 842, 843, 844, 845, 846, 847, 848, 849, 850, 851, 852, 853, 854, 855, 856, 857, 858, 859, 860, 861, 862, 863, 864, 865, 866, 867, 868, 869, 870, 871, 872],
      "AcquisitionTime": ["192804.082500", "192804.542500", "192805.002500", "192805.462500", "192805.922500", "192806.382500", "192806.842500", "192807.302500", "192807.762500", "192808.222500", "192808.682500", "192809.142500", "192809.602500", "192810.062500", "192810.522500", "192810.982500", "192811.442500", "192811.902500", "192812.362500", "192812.822500", "192813.282500", "192813.742500", "192814.202500", "192814.662500", "192815.122500", "192815.582500", "192816.042500", "192816.502500", "192816.962500", "192817.422500", "192817.882500", "192818.342500", "192818.802500", "192819.262500", "192819.722500", "192820.182500", "192820.642500", "192821.102500", "192821.562500", "192822.022500", "192822.482500", "192822.942500", "192823.402500", "192823.862500", "192824.322500", "192824.782500", "192825.242500", "192825.702500", "192826.162500", "192826.622500", "192827.082500", "192827.542500", "192828.002500", "192828.462500", "192828.922500", "192829.382500", "192829.842500", "192830.302500", "192830.762500", "192831.222500", "192831.682500", "192832.142500", "192832.602500", "192833.062500", "192833.522500", "192833.982500", "192834.442500", "192834.902500", "192835.362500", "192835.822500", "192836.282500", "192836.742500", "192837.202500", "192837.662500", "192838.122500", "192838.582500", "192839.042500", "192839.502500", "192839.962500", "192840.422500", "192840.882500", "192841.342500", "192841.802500", "192842.262500", "192842.722500", "192843.182500", "192843.642500", "192844.102500", "192844.562500", "192845.022500", "192845.482500", "192845.942500", "192846.402500", "192846.862500", "192847.322500", "192847.782500", "192848.242500", "192848.702500", "192849.162500", "192849.622500", "192850.082500", "192850.542500", "192851.002500", "192851.462500", "192851.922500", "192852.382500", "192852.842500", "192853.302500", "192853.762500", "192854.222500", "192854.682500", "192855.142500", "192855.602500", "192856.062500", "192856.522500", "192856.982500", "192857.442500", "192857.902500", "192858.362500", "192858.822500", "192859.282500", "192859.742500", "192900.202500", "192900.662500", "192901.122500", "192901.582500", "192902.042500", "192902.502500", "192902.962500", "192903.422500", "192903.882500", "192904.342500", "192904.802500", "192905.262500", "192905.722500", "192906.182500", "192906.642500", "192907.102500", "192907.562500", "192908.022500", "192908.482500", "192908.942500", "192909.402500", "192909.862500", "192910.322500", "192910.782500", "192911.242500", "192911.702500", "192912.162500", "192912.622500", "192913.082500", "192913.542500", "192914.002500", "192914.462500", "192914.922500", "192915.382500", "192915.842500", "192916.302500", "192916.762500", "192917.222500", "192917.682500", "192918.142500", "192918.602500", "192919.062500", "192919.522500", "192919.982500", "192920.442500", "192920.902500", "192921.362500", "192921.822500", "192922.282500", "192922.742500", "192923.202500", "192923.662500", "192924.122500", "192924.582500", "192925.042500", "192925.502500", "192925.962500", "192926.422500", "192926.882500", "192927.342500", "192927.802500", "192928.262500", "192928.722500", "192929.182500", "192929.642500", "192930.102500", "192930.562500", "192931.022500", "192931.482500", "192931.942500", "192932.402500", "192932.862500", "192933.322500", "192933.782500", "192934.242500", "192934.702500", "192935.162500", "192935.622500", "192936.082500", "192936.542500", "192937.002500", "192937.462500", "192937.922500", "192938.382500", "192938.842500", "192939.302500", "192939.762500", "192940.222500", "192940.682500", "192941.142500", "192941.602500", "192942.062500", "192942.522500", "192942.982500", "192943.442500", "192943.902500", "192944.362500", "192944.822500", "192945.282500", "192945.742500", "192946.202500", "192946.662500", "192947.122500", "192947.582500", "192948.042500", "192948.502500", "192948.962500", "192949.422500", "192949.882500", "192950.342500", "192950.802500", "192951.262500", "192951.722500", "192952.182500", "192952.642500", "192953.102500", "192953.562500", "192954.022500", "192954.482500", "192954.942500", "192955.402500", "192955.862500", "192956.322500", "192956.782500", "192957.242500", "192957.702500", "192958.162500", "192958.622500", "192959.082500", "192959.542500", "193000.002500", "193000.462500", "193000.922500", "193001.382500", "193001.842500", "193002.302500", "193002.762500", "193003.222500", "193003.682500", "193004.142500", "193004.602500", "193005.062500", "193005.522500", "193005.982500", "193006.442500", "193006.902500", "193007.362500", "193007.822500", "193008.282500", "193008.742500", "193009.202500", "193009.662500", "193010.122500", "193010.582500", "193011.042500", "193011.502500", "193011.962500", "193012.422500", "193012.882500", "193013.342500", "193013.802500", "193014.262500", "193014.722500", "193015.182500", "193015.642500", "193016.102500", "193016.562500", "193017.022500", "193017.482500", "193017.942500", "193018.402500", "193018.862500", "193019.322500", "193019.782500", "193020.242500", "193020.702500", "193021.162500", "193021.622500", "193022.082500", "193022.542500", "193023.002500", "193023.462500", "193023.922500", "193024.382500", "193024.842500", "193025.302500", "193025.762500", "193026.222500", "193026.682500", "193027.142500", "193027.602500", "193028.062500", "193028.522500", "193028.982500", "193029.442500", "193029.902500", "193030.362500", "193030.822500", "193031.282500", "193031.742500", "193032.202500", "193032.662500", "193033.122500", "193033.582500", "193034.042500", "193034.502500", "193034.962500", "193035.422500", "193035.882500", "193036.342500", "193036.802500", "193037.262500", "193037.722500", "193038.182500", "193038.642500", "193039.102500", "193039.562500", "193040.022500", "193040.482500", "193040.942500", "193041.402500", "193041.862500", "193042.322500", "193042.782500", "193043.242500", "193043.702500", "193044.162500", "193044.622500", "193045.082500", "193045.542500", "193046.002500", "193046.462500", "193046.922500", "193047.382500", "193047.842500", "193048.302500", "193048.762500", "193049.222500", "193049.682500", "193050.142500", "193050.602500", "193051.062500", "193051.522500", "193051.982500", "193052.442500", "193052.902500", "193053.362500", "193053.822500", "193054.282500", "193054.742500", "193055.202500", "193055.662500", "193056.122500", "193056.582500", "193057.042500", "193057.502500", "193057.962500", "193058.422500", "193058.882500", "193059.342500", "193059.802500", "193100.262500", "193100.722500", "193101.182500", "193101.642500", "193102.102500", "193102.562500", "193103.022500", "193103.482500", "193103.942500", "193104.402500", "193104.862500", "193105.322500", "193105.782500", "193106.242500", "193106.702500", "193107.162500", "193107.622500", "193108.082500", "193108.542500", "193109.002500", "193109.462500", "193109.922500", "193110.382500", "193110.842500", "193111.302500", "193111.762500", "193112.222500", "193112.682500", "193113.142500", "193113.602500", "193114.062500", "193114.522500", "193114.982500", "193115.442500", "193115.902500", "193116.362500", "193116.822500", "193117.282500", "193117.742500", "193118.202500", "193118.662500", "193119.122500", "193119.582500", "193120.042500", "193120.502500", "193120.962500", "193121.422500", "193121.882500", "193122.342500", "193122.802500", "193123.262500", "193123.722500", "193124.182500", "193124.642500", "193125.102500", "193125.562500", "193126.022500", "193126.482500", "193126.942500", "193127.402500", "193127.862500", "193128.322500", "193128.782500", "193129.242500", "193129.702500", "193130.162500", "193130.622500", "193131.082500", "193131.542500", "193132.002500", "193132.462500", "193132.922500", "193133.382500", "193133.842500", "193134.302500", "193134.762500", "193135.222500", "193135.682500", "193136.142500", "193136.602500", "193137.062500", "193137.522500", "193137.982500", "193138.442500", "193138.902500", "193139.362500", "193139.822500", "193140.282500", "193140.742500", "193141.202500", "193141.662500", "193142.122500", "193142.582500", "193143.042500", "193143.502500", "193143.962500", "193144.422500", "193144.882500", "193145.342500", "193145.802500", "193146.262500", "193146.722500", "193147.182500", "193147.642500", "193148.102500", "193148.562500", "193149.022500", "193149.482500", "193149.942500", "193150.402500", "193150.862500", "193151.322500", "193151.782500", "193152.242500", "193152.702500", "193153.162500", "193153.622500", "193154.082500", "193154.542500", "193155.002500", "193155.462500", "193155.922500", "193156.382500", "193156.842500", "193157.302500", "193157.762500", "193158.222500", "193158.682500", "193159.142500", "193159.602500", "193200.062500", "193200.522500", "193200.982500", "193201.442500", "193201.902500", "193202.362500", "193202.822500", "193203.282500", "193203.742500", "193204.202500", "193204.662500", "193205.122500", "193205.582500", "193206.042500", "193206.502500", "193206.962500", "193207.422500", "193207.882500", "193208.342500", "193208.802500", "193209.262500", "193209.722500", "193210.182500", "193210.642500", "193211.102500", "193211.562500", "193212.022500", "193212.482500", "193212.942500", "193213.402500", "193213.862500", "193214.322500", "193214.782500", "193215.242500", "193215.702500", "193216.162500", "193216.622500", "193217.082500", "193217.542500", "193218.002500", "193218.462500", "193218.922500", "193219.382500", "193219.842500", "193220.302500", "193220.762500", "193221.222500", "193221.682500", "193222.142500", "193222.602500", "193223.062500", "193223.522500", "193223.982500", "193224.442500", "193224.902500", "193225.362500", "193225.822500", "193226.282500", "193226.742500", "193227.202500", "193227.662500", "193228.122500", "193228.582500", "193229.042500", "193229.502500", "193229.962500", "193230.422500", "193230.882500", "193231.342500", "193231.802500", "193232.262500", "193232.722500", "193233.182500", "193233.642500", "193234.102500", "193234.562500", "193235.022500", "193235.482500", "193235.942500", "193236.402500", "193236.862500", "193237.322500", "193237.782500", "193238.242500", "193238.702500", "193239.162500", "193239.622500", "193240.082500", "193240.542500", "193241.002500", "193241.462500", "193241.922500", "193242.382500", "193242.842500", "193243.302500", "193243.762500", "193244.222500", "193244.682500", "193245.142500", "193245.602500", "193246.062500", "193246.522500", "193246.982500", "193247.442500", "193247.902500", "193248.362500", "193248.822500", "193249.282500", "193249.742500", "193250.202500", "193250.662500", "193251.122500", "193251.582500", "193252.042500", "193252.502500", "193252.962500", "193253.422500", "193253.882500", "193254.342500", "193254.802500", "193255.262500", "193255.722500", "193256.182500", "193256.642500", "193257.102500", "193257.562500", "193258.022500", "193258.482500", "193258.942500", "193259.402500", "193259.862500", "193300.322500", "193300.782500", "193301.242500", "193301.702500", "193302.162500", "193302.622500", "193303.082500", "193303.542500", "193304.002500", "193304.462500", "193304.922500", "193305.382500", "193305.842500", "193306.302500", "193306.762500", "193307.222500", "193307.682500", "193308.142500", "193308.602500", "193309.062500", "193309.522500", "193309.982500", "193310.442500", "193310.902500", "193311.362500", "193311.822500", "193312.282500", "193312.742500", "193313.202500", "193313.662500", "193314.122500", "193314.582500", "193315.042500", "193315.502500", "193315.962500", "193316.422500", "193316.882500", "193317.342500", "193317.802500", "193318.262500", "193318.722500", "193319.182500", "193319.642500", "193320.102500", "193320.562500", "193321.022500", "193321.482500", "193321.942500", "193322.402500", "193322.862500", "193323.322500", "193323.782500", "193324.242500", "193324.702500", "193325.162500", "193325.622500", "193326.082500", "193326.542500", "193327.002500", "193327.462500", "193327.922500", "193328.382500", "193328.842500", "193329.302500", "193329.762500", "193330.222500", "193330.682500", "193331.142500", "193331.602500", "193332.062500", "193332.522500", "193332.982500", "193333.442500", "193333.902500", "193334.362500", "193334.822500", "193335.282500", "193335.742500", "193336.202500", "193336.662500", "193337.122500", "193337.582500", "193338.042500", "193338.502500", "193338.962500", "193339.422500", "193339.882500", "193340.342500", "193340.802500", "193341.262500", "193341.722500", "193342.182500", "193342.642500", "193343.102500", "193343.562500", "193344.022500", "193344.482500", "193344.942500", "193345.402500", "193345.862500", "193346.322500", "193346.782500", "193347.242500", "193347.702500", "193348.162500", "193348.622500", "193349.082500", "193349.542500", "193350.002500", "193350.462500", "193350.922500", "193351.382500", "193351.842500", "193352.302500", "193352.762500", "193353.222500", "193353.682500", "193354.142500", "193354.602500", "193355.062500", "193355.522500", "193355.982500", "193356.442500", "193356.902500", "193357.362500", "193357.822500", "193358.282500", "193358.742500", "193359.202500", "193359.662500", "193400.122500", "193400.582500", "193401.042500", "193401.502500", "193401.962500", "193402.422500", "193402.882500", "193403.342500", "193403.802500", "193404.262500", "193404.722500", "193405.182500", "193405.642500", "193406.102500", "193406.562500", "193407.022500", "193407.482500", "193407.942500", "193408.402500", "193408.862500", "193409.322500", "193409.782500", "193410.242500", "193410.702500", "193411.162500", "193411.622500", "193412.082500", "193412.542500", "193413.002500", "193413.462500", "193413.922500", "193414.382500", "193414.842500", "193415.302500", "193415.762500", "193416.222500", "193416.682500", "193417.142500", "193417.602500", "193418.062500", "193418.522500", "193418.982500", "193419.442500", "193419.902500", "193420.362500", "193420.822500", "193421.282500", "193421.742500", "193422.202500", "193422.662500", "193423.122500", "193423.582500", "193424.042500", "193424.502500", "193424.962500", "193425.422500", "193425.882500", "193426.342500", "193426.802500", "193427.262500", "193427.722500", "193428.182500", "193428.642500", "193429.102500", "193429.562500", "193430.022500", "193430.482500", "193430.942500", "193431.402500", "193431.862500", "193432.322500", "193432.782500", "193433.242500", "193433.702500", "193434.162500", "193434.622500", "193435.082500", "193435.542500", "193436.002500", "193436.462500", "193436.922500", "193437.382500", "193437.842500", "193438.302500", "193438.762500", "193439.222500", "193439.682500", "193440.142500", "193440.602500", "193441.062500", "193441.522500", "193441.982500", "193442.442500", "193442.902500", "193443.362500", "193443.822500", "193444.282500", "193444.742500"],
