{
  "AcquisitionMatrixPE": 82,
  "AcquisitionNumber": 1,
  "AcquisitionTime": "17:12:3.315000",
  "BandwidthPerPixelPhaseEncode": 24.888,
  "BaseResolution": 82,
  "BodyPartExamined": "BRAIN",
  "ConsistencyInfo": "N4_VE11E_LATEST_20181129",
  "ConversionSoftware": "dcm2niix",
  "ConversionSoftwareVersion": "v1.0.20201102",
  "DerivedVendorReportedEchoSpacing": 0.00049,
  "DeviceSerialNumber": "66112",
  "DwellTime": 2e-06,
  "EchoTime": 0.0272,
  "EchoTrainLength": 82,
  "EffectiveEchoSpacing": 0.00049,
  "FlipAngle": 44,
  "ImageComments": "Unaliased MB8/PE3",
  "ImageOrientationPatientDICOM": [0.999862, -0.0100209, 0.013271, 0.00855113, 0.994274, 0.106513],
  "ImageType": [
    "ORIGINAL",
    "PRIMARY",
    "M",
    "MB",
    "ND",
    "NORM",
    "MOSAIC"
],
  "ImagingFrequency": 123.259,
  "InPlanePhaseEncodingDirectionDICOM": "COL",
  "InstitutionAddress": "Maynard 3,Hanover,NH,US,03755",
  "InstitutionName": "Dartmouth College - PBS",
  "InstitutionalDepartmentName": "Department",
  "MRAcquisitionType": "2D",
  "MagneticFieldStrength": 3,
  "Manufacturer": "Siemens",
  "ManufacturersModelName": "Prisma",
  "Modality": "MR",
  "MultibandAccelerationFactor": 8,
  "PartialFourier": 1,
  "PatientPosition": "HFS",
  "PercentPhaseFOV": 100,
  "PercentSampling": 100,
  "PhaseEncodingDirection": "j-",
  "PhaseEncodingSteps": 82,
  "PhaseResolution": 1,
  "PixelBandwidth": 3050,
  "ProcedureStepDescription": "Wager_Wager^1076_spacetop",
  "ProtocolName": "func_run-06_task-social_acq-ap-mb8",
  "PulseSequenceDetails": "%CustomerSeq%\\cmrr_mbep2d_bold",
  "ReceiveCoilActiveElements": "HEA;HEP",
  "ReceiveCoilName": "Head_32",
  "ReconMatrixPE": 82,
  "RepetitionTime": 0.46,
  "SAR": 0.0923893,
  "ScanOptions": "FS",
  "ScanningSequence": "EP",
  "SequenceName": "epfid2d1_82",
  "SequenceVariant": "SK\\SS",
  "SeriesDescription": "func_run-06_task-social_acq-ap-mb8",
  "SeriesNumber": 18,
  "ShimSetting": [4235, -7784, -7210, 386, -86, 40, 50, 65],
  "SliceThickness": 2.7,
  "SliceTiming": [0, 0.25, 0.0625, 0.315, 0.125, 0.3775, 0.1875, 0, 0.25, 0.0625, 0.315, 0.125, 0.3775, 0.1875, 0, 0.25, 0.0625, 0.315, 0.125, 0.3775, 0.1875, 0, 0.25, 0.0625, 0.315, 0.125, 0.3775, 0.1875, 0, 0.25, 0.0625, 0.315, 0.125, 0.3775, 0.1875, 0, 0.25, 0.0625, 0.315, 0.125, 0.3775, 0.1875, 0, 0.25, 0.0625, 0.315, 0.125, 0.3775, 0.1875, 0, 0.25, 0.0625, 0.315, 0.125, 0.3775, 0.1875],
  "SoftwareVersions": "syngo MR E11",
  "SpacingBetweenSlices": 2.7,
  "StationName": "AWP66112",
  "TaskName": "social",
  "TotalReadoutTime": 0.03969,
  "TxRefAmp": 237.436,
  "WipMemBlock": "2a0710fd-96d0-4d89-8eb9-ccc47b3801ce||Sequence: R016 ve11e/master r/434b28f1; Aug  7 2019 18:53:46 by eja",
  "dcmmeta_affine": [
    [-2.682555913925171, 0.02294205129146576, 0.03850828856229782, 110.25814056396484],
    [0.026885224506258965, 2.6675658226013184, 0.287240207195282, -114.78016662597656],
    [0.03560500591993332, -0.28576788306236267, 2.684401273727417, -56.71669006347656],
    [0.0, 0.0, 0.0, 1.0]
],
  "dcmmeta_reorient_transform": [
    [0.0, -1.0, 0.0, 81.0],
    [1.0, 0.0, 0.0, 0.0],
    [0.0, 0.0, 1.0, 0.0],
    [0.0, 0.0, 0.0, 1.0]
],
  "dcmmeta_shape": [82, 82, 56, 872],
  "dcmmeta_slice_dim": 2,
  "dcmmeta_version": 0.6,
  "global": {
    "const": {
      "AccessionNumber": "A004524",
      "AcquisitionMatrix": [82, 0, 0, 82],
      "AngioFlag": "N",
      "BitsAllocated": 16,
      "BitsStored": 16,
      "BodyPartExamined": "BRAIN",
      "Columns": 656,
      "EchoNumbers": 1,
      "EchoTime": 27.2,
      "EchoTrainLength": 82,
      "FlipAngle": 44.0,
      "HighBit": 15,
      "ImageOrientationPatient": [0.99986172252005, -0.0100208558217, 0.01327095655306, 0.00855112799569, 0.99427448798212, 0.1065134768839],
      "ImagePositionPatient": [-888.59435951747, -859.16797862839, -172.09790311983],
      "ImageType": [
        "ORIGINAL",
        "PRIMARY",
        "M",
        "MB",
        "ND",
        "NORM",
        "MOSAIC"
],
      "ImagedNucleus": "1H",
      "ImagingFrequency": 123.259083,
      "InPlanePhaseEncodingDirection": "COL",
      "MRAcquisitionType": "2D",
      "MagneticFieldStrength": 3.0,
      "Manufacturer": "SIEMENS",
      "ManufacturerModelName": "Prisma",
      "Modality": "MR",
      "NumberOfAverages": 1.0,
      "NumberOfPhaseEncodingSteps": 82,
      "PercentPhaseFieldOfView": 100.0,
      "PercentSampling": 100.0,
      "PerformedProcedureStepStartTime": "162327.396000",
      "PhotometricInterpretation": "MONOCHROME2",
      "PixelBandwidth": 3050.0,
      "PixelRepresentation": 0,
      "PixelSpacing": [2.6829268932343, 2.6829268932343],
      "ProtocolName": "func_run-06_task-social_acq-ap-mb8",
      "RepetitionTime": 460.0,
      "Rows": 656,
      "SAR": 0.09238925565305,
      "SamplesPerPixel": 1,
      "ScanOptions": "FS",
      "ScanningSequence": "EP",
      "SequenceName": "epfid2d1_82",
      "SequenceVariant": [
        "SK",
        "SS"
],
      "SeriesDescription": "func_run-06_task-social_acq-ap-mb8",
      "SeriesNumber": 18,
      "SeriesTime": "171231.971000",
      "SliceLocation": -67.027400099605,
      "SliceThickness": 2.7000000476837,
      "SmallestImagePixelValue": 0,
      "SoftwareVersions": "syngo MR E11",
      "SpacingBetweenSlices": 2.6999999485549,
      "SpecificCharacterSet": "ISO_IR 100",
      "StudyID": "3",
      "StudyTime": "162327.355000",
      "TransmitCoilName": "Body",
      "VariableFlipAngleFlag": "N",
      "WindowCenterWidthExplanation": "Algo1"
    },
    "slices": {}
  },
  "time": {
    "samples": {
      "AcquisitionNumber": [1, 2, 3, 4, 5, 6, 7, 8, 9, 10, 11, 12, 13, 14, 15, 16, 17, 18, 19, 20, 21, 22, 23, 24, 25, 26, 27, 28, 29, 30, 31, 32, 33, 34, 35, 36, 37, 38, 39, 40, 41, 42, 43, 44, 45, 46, 47, 48, 49, 50, 51, 52, 53, 54, 55, 56, 57, 58, 59, 60, 61, 62, 63, 64, 65, 66, 67, 68, 69, 70, 71, 72, 73, 74, 75, 76, 77, 78, 79, 80, 81, 82, 83, 84, 85, 86, 87, 88, 89, 90, 91, 92, 93, 94, 95, 96, 97, 98, 99, 100, 101, 102, 103, 104, 105, 106, 107, 108, 109, 110, 111, 112, 113, 114, 115, 116, 117, 118, 119, 120, 121, 122, 123, 124, 125, 126, 127, 128, 129, 130, 131, 132, 133, 134, 135, 136, 137, 138, 139, 140, 141, 142, 143, 144, 145, 146, 147, 148, 149, 150, 151, 152, 153, 154, 155, 156, 157, 158, 159, 160, 161, 162, 163, 164, 165, 166, 167, 168, 169, 170, 171, 172, 173, 174, 175, 176, 177, 178, 179, 180, 181, 182, 183, 184, 185, 186, 187, 188, 189, 190, 191, 192, 193, 194, 195, 196, 197, 198, 199, 200, 201, 202, 203, 204, 205, 206, 207, 208, 209, 210, 211, 212, 213, 214, 215, 216, 217, 218, 219, 220, 221, 222, 223, 224, 225, 226, 227, 228, 229, 230, 231, 232, 233, 234, 235, 236, 237, 238, 239, 240, 241, 242, 243, 244, 245, 246, 247, 248, 249, 250, 251, 252, 253, 254, 255, 256, 257, 258, 259, 260, 261, 262, 263, 264, 265, 266, 267, 268, 269, 270, 271, 272, 273, 274, 275, 276, 277, 278, 279, 280, 281, 282, 283, 284, 285, 286, 287, 288, 289, 290, 291, 292, 293, 294, 295, 296, 297, 298, 299, 300, 301, 302, 303, 304, 305, 306, 307, 308, 309, 310, 311, 312, 313, 314, 315, 316, 317, 318, 319, 320, 321, 322, 323, 324, 325, 326, 327, 328, 329, 330, 331, 332, 333, 334, 335, 336, 337, 338, 339, 340, 341, 342, 343, 344, 345, 346, 347, 348, 349, 350, 351, 352, 353, 354, 355, 356, 357, 358, 359, 360, 361, 362, 363, 364, 365, 366, 367, 368, 369, 370, 371, 372, 373, 374, 375, 376, 377, 378, 379, 380, 381, 382, 383, 384, 385, 386, 387, 388, 389, 390, 391, 392, 393, 394, 395, 396, 397, 398, 399, 400, 401, 402, 403, 404, 405, 406, 407, 408, 409, 410, 411, 412, 413, 414, 415, 416, 417, 418, 419, 420, 421, 422, 423, 424, 425, 426, 427, 428, 429, 430, 431, 432, 433, 434, 435, 436, 437, 438, 439, 440, 441, 442, 443, 444, 445, 446, 447, 448, 449, 450, 451, 452, 453, 454, 455, 456, 457, 458, 459, 460, 461, 462, 463, 464, 465, 466, 467, 468, 469, 470, 471, 472, 473, 474, 475, 476, 477, 478, 479, 480, 481, 482, 483, 484, 485, 486, 487, 488, 489, 490, 491, 492, 493, 494, 495, 496, 497, 498, 499, 500, 501, 502, 503, 504, 505, 506, 507, 508, 509, 510, 511, 512, 513, 514, 515, 516, 517, 518, 519, 520, 521, 522, 523, 524, 525, 526, 527, 528, 529, 530, 531, 532, 533, 534, 535, 536, 537, 538, 539, 540, 541, 542, 543, 544, 545, 546, 547, 548, 549, 550, 551, 552, 553, 554, 555, 556, 557, 558, 559, 560, 561, 562, 563, 564, 565, 566, 567, 568, 569, 570, 571, 572, 573, 574, 575, 576, 577, 578, 579, 580, 581, 582, 583, 584, 585, 586, 587, 588, 589, 590, 591, 592, 593, 594, 595, 596, 597, 598, 599, 600, 601, 602, 603, 604, 605, 606, 607, 608, 609, 610, 611, 612, 613, 614, 615, 616, 617, 618, 619, 620, 621, 622, 623, 624, 625, 626, 627, 628, 629, 630, 631, 632, 633, 634, 635, 636, 637, 638, 639, 640, 641, 642, 643, 644, 645, 646, 647, 648, 649, 650, 651, 652, 653, 654, 655, 656, 657, 658, 659, 660, 661, 662, 663, 664, 665, 666, 667, 668, 669, 670, 671, 672, 673, 674, 675, 676, 677, 678, 679, 680, 681, 682, 683, 684, 685, 686, 687, 688, 689, 690, 691, 692, 693, 694, 695, 696, 697, 698, 699, 700, 701, 702, 703, 704, 705, 706, 707, 708, 709, 710, 711, 712, 713, 714, 715, 716, 717, 718, 719, 720, 721, 722, 723, 724, 725, 726, 727, 728, 729, 730, 731, 732, 733, 734, 735, 736, 737, 738, 739, 740, 741, 742, 743, 744, 745, 746, 747, 748, 749, 750, 751, 752, 753, 754, 755, 756, 757, 758, 759, 760, 761, 762, 763, 764, 765, 766, 767, 768, 769, 770, 771, 772, 773, 774, 775, 776, 777, 778, 779, 780, 781, 782, 783, 784, 785, 786, 787, 788, 789, 790, 791, 792, 793, 794, 795, 796, 797, 798, 799, 800, 801, 802, 803, 804, 805, 806, 807, 808, 809, 810, 811, 812, 813, 814, 815, 816, 817, 818, 819, 820, 821, 822, 823, 824, 825, 826, 827, 828, 829, 830, 831, 832, 833, 834, 835, 836, 837, 838, 839, 840, 841, 842, 843, 844, 845, 846, 847, 848, 849, 850, 851, 852, 853, 854, 855, 856, 857, 858, 859, 860, 861, 862, 863, 864, 865, 866, 867, 868, 869, 870, 871, 872],
      "AcquisitionTime": ["171203.315000", "171203.775000", "171204.235000", "171204.695000", "171205.155000", "171205.615000", "171206.075000", "171206.535000", "171206.995000", "171207.455000", "171207.915000", "171208.375000", "171208.835000", "171209.295000", "171209.755000", "171210.215000", "171210.675000", "171211.135000", "171211.595000", "171212.055000", "171212.515000", "171212.975000", "171213.435000", "171213.895000", "171214.355000", "171214.815000", "171215.275000", "171215.735000", "171216.195000", "171216.655000", "171217.115000", "171217.575000", "171218.035000", "171218.495000", "171218.955000", "171219.415000", "171219.875000", "171220.335000", "171220.795000", "171221.255000", "171221.715000", "171222.175000", "171222.635000", "171223.095000", "171223.555000", "171224.015000", "171224.475000", "171224.935000", "171225.395000", "171225.855000", "171226.315000", "171226.775000", "171227.235000", "171227.695000", "171228.155000", "171228.615000", "171229.075000", "171229.535000", "171229.995000", "171230.455000", "171230.915000", "171231.375000", "171231.835000", "171232.295000", "171232.755000", "171233.215000", "171233.675000", "171234.135000", "171234.595000", "171235.055000", "171235.515000", "171235.975000", "171236.435000", "171236.895000", "171237.355000", "171237.815000", "171238.275000", "171238.735000", "171239.195000", "171239.655000", "171240.115000", "171240.575000", "171241.035000", "171241.495000", "171241.955000", "171242.415000", "171242.875000", "171243.335000", "171243.795000", "171244.255000", "171244.715000", "171245.175000", "171245.635000", "171246.095000", "171246.555000", "171247.015000", "171247.475000", "171247.935000", "171248.395000", "171248.855000", "171249.315000", "171249.775000", "171250.235000", "171250.695000", "171251.155000", "171251.615000", "171252.075000", "171252.535000", "171252.995000", "171253.455000", "171253.915000", "171254.375000", "171254.835000", "171255.295000", "171255.755000", "171256.215000", "171256.675000", "171257.135000", "171257.595000", "171258.055000", "171258.515000", "171258.975000", "171259.435000", "171259.895000", "171300.355000", "171300.815000", "171301.275000", "171301.735000", "171302.195000", "171302.655000", "171303.115000", "171303.575000", "171304.035000", "171304.495000", "171304.955000", "171305.415000", "171305.875000", "171306.335000", "171306.795000", "171307.255000", "171307.715000", "171308.175000", "171308.635000", "171309.095000", "171309.555000", "171310.015000", "171310.475000", "171310.935000", "171311.395000", "171311.855000", "171312.315000", "171312.775000", "171313.235000", "171313.695000", "171314.155000", "171314.615000", "171315.075000", "171315.535000", "171315.995000", "171316.455000", "171316.915000", "171317.375000", "171317.835000", "171318.295000", "171318.755000", "171319.215000", "171319.675000", "171320.135000", "171320.595000", "171321.055000", "171321.515000", "171321.975000", "171322.435000", "171322.895000", "171323.355000", "171323.815000", "171324.275000", "171324.735000", "171325.195000", "171325.655000", "171326.115000", "171326.575000", "171327.035000", "171327.495000", "171327.955000", "171328.415000", "171328.875000", "171329.335000", "171329.795000", "171330.255000", "171330.715000", "171331.175000", "171331.635000", "171332.095000", "171332.555000", "171333.015000", "171333.475000", "171333.935000", "171334.395000", "171334.855000", "171335.315000", "171335.775000", "171336.235000", "171336.695000", "171337.155000", "171337.615000", "171338.075000", "171338.535000", "171338.995000", "171339.455000", "171339.915000", "171340.375000", "171340.835000", "171341.295000", "171341.755000", "171342.215000", "171342.675000", "171343.135000", "171343.595000", "171344.055000", "171344.515000", "171344.975000", "171345.435000", "171345.895000", "171346.355000", "171346.815000", "171347.275000", "171347.735000", "171348.195000", "171348.655000", "171349.115000", "171349.575000", "171350.035000", "171350.495000", "171350.955000", "171351.415000", "171351.875000", "171352.335000", "171352.795000", "171353.255000", "171353.715000", "171354.175000", "171354.635000", "171355.095000", "171355.555000", "171356.015000", "171356.475000", "171356.935000", "171357.395000", "171357.855000", "171358.315000", "171358.775000", "171359.235000", "171359.695000", "171400.155000", "171400.615000", "171401.075000", "171401.535000", "171401.995000", "171402.455000", "171402.915000", "171403.375000", "171403.835000", "171404.295000", "171404.755000", "171405.215000", "171405.675000", "171406.135000", "171406.595000", "171407.055000", "171407.515000", "171407.975000", "171408.435000", "171408.895000", "171409.355000", "171409.815000", "171410.275000", "171410.735000", "171411.195000", "171411.655000", "171412.115000", "171412.575000", "171413.035000", "171413.495000", "171413.955000", "171414.415000", "171414.875000", "171415.335000", "171415.795000", "171416.255000", "171416.715000", "171417.175000", "171417.635000", "171418.095000", "171418.555000", "171419.015000", "171419.475000", "171419.935000", "171420.395000", "171420.855000", "171421.315000", "171421.775000", "171422.235000", "171422.695000", "171423.155000", "171423.615000", "171424.075000", "171424.535000", "171424.995000", "171425.455000", "171425.915000", "171426.375000", "171426.835000", "171427.295000", "171427.755000", "171428.215000", "171428.675000", "171429.135000", "171429.595000", "171430.055000", "171430.515000", "171430.975000", "171431.435000", "171431.895000", "171432.355000", "171432.815000", "171433.275000", "171433.735000", "171434.195000", "171434.655000", "171435.115000", "171435.575000", "171436.035000", "171436.495000", "171436.955000", "171437.415000", "171437.875000", "171438.335000", "171438.795000", "171439.255000", "171439.715000", "171440.175000", "171440.635000", "171441.095000", "171441.555000", "171442.015000", "171442.475000", "171442.935000", "171443.395000", "171443.855000", "171444.315000", "171444.775000", "171445.235000", "171445.695000", "171446.155000", "171446.615000", "171447.075000", "171447.535000", "171447.995000", "171448.455000", "171448.915000", "171449.375000", "171449.835000", "171450.295000", "171450.755000", "171451.215000", "171451.675000", "171452.135000", "171452.595000", "171453.055000", "171453.515000", "171453.975000", "171454.435000", "171454.895000", "171455.355000", "171455.815000", "171456.275000", "171456.735000", "171457.195000", "171457.655000", "171458.115000", "171458.575000", "171459.035000", "171459.495000", "171459.955000", "171500.415000", "171500.875000", "171501.335000", "171501.795000", "171502.255000", "171502.715000", "171503.175000", "171503.635000", "171504.095000", "171504.555000", "171505.015000", "171505.475000", "171505.935000", "171506.395000", "171506.855000", "171507.315000", "171507.775000", "171508.235000", "171508.695000", "171509.155000", "171509.615000", "171510.075000", "171510.535000", "171510.995000", "171511.455000", "171511.915000", "171512.375000", "171512.835000", "171513.295000", "171513.755000", "171514.215000", "171514.675000", "171515.135000", "171515.595000", "171516.055000", "171516.515000", "171516.975000", "171517.435000", "171517.895000", "171518.355000", "171518.815000", "171519.275000", "171519.735000", "171520.195000", "171520.655000", "171521.115000", "171521.575000", "171522.035000", "171522.495000", "171522.955000", "171523.415000", "171523.875000", "171524.335000", "171524.795000", "171525.255000", "171525.715000", "171526.175000", "171526.635000", "171527.095000", "171527.555000", "171528.015000", "171528.475000", "171528.935000", "171529.395000", "171529.855000", "171530.315000", "171530.775000", "171531.235000", "171531.695000", "171532.155000", "171532.615000", "171533.075000", "171533.535000", "171533.995000", "171534.455000", "171534.915000", "171535.375000", "171535.835000", "171536.295000", "171536.755000", "171537.215000", "171537.675000", "171538.135000", "171538.595000", "171539.055000", "171539.515000", "171539.975000", "171540.435000", "171540.895000", "171541.355000", "171541.815000", "171542.275000", "171542.735000", "171543.195000", "171543.655000", "171544.115000", "171544.575000", "171545.035000", "171545.495000", "171545.955000", "171546.415000", "171546.875000", "171547.335000", "171547.795000", "171548.255000", "171548.715000", "171549.175000", "171549.635000", "171550.095000", "171550.555000", "171551.015000", "171551.475000", "171551.935000", "171552.395000", "171552.855000", "171553.315000", "171553.775000", "171554.235000", "171554.695000", "171555.155000", "171555.615000", "171556.075000", "171556.535000", "171556.995000", "171557.455000", "171557.915000", "171558.375000", "171558.835000", "171559.295000", "171559.755000", "171600.215000", "171600.675000", "171601.135000", "171601.595000", "171602.055000", "171602.515000", "171602.975000", "171603.435000", "171603.895000", "171604.355000", "171604.815000", "171605.275000", "171605.735000", "171606.195000", "171606.655000", "171607.115000", "171607.575000", "171608.035000", "171608.495000", "171608.955000", "171609.415000", "171609.875000", "171610.335000", "171610.795000", "171611.255000", "171611.715000", "171612.175000", "171612.635000", "171613.095000", "171613.555000", "171614.015000", "171614.475000", "171614.935000", "171615.395000", "171615.855000", "171616.315000", "171616.775000", "171617.235000", "171617.695000", "171618.155000", "171618.615000", "171619.075000", "171619.535000", "171619.995000", "171620.455000", "171620.915000", "171621.375000", "171621.835000", "171622.295000", "171622.755000", "171623.215000", "171623.675000", "171624.135000", "171624.595000", "171625.055000", "171625.515000", "171625.975000", "171626.435000", "171626.895000", "171627.355000", "171627.815000", "171628.275000", "171628.735000", "171629.195000", "171629.655000", "171630.115000", "171630.575000", "171631.035000", "171631.495000", "171631.955000", "171632.415000", "171632.875000", "171633.335000", "171633.795000", "171634.255000", "171634.715000", "171635.175000", "171635.635000", "171636.095000", "171636.555000", "171637.015000", "171637.475000", "171637.935000", "171638.395000", "171638.855000", "171639.315000", "171639.775000", "171640.235000", "171640.695000", "171641.155000", "171641.615000", "171642.075000", "171642.535000", "171642.995000", "171643.455000", "171643.915000", "171644.375000", "171644.835000", "171645.295000", "171645.755000", "171646.215000", "171646.675000", "171647.135000", "171647.595000", "171648.055000", "171648.515000", "171648.975000", "171649.435000", "171649.895000", "171650.355000", "171650.815000", "171651.275000", "171651.735000", "171652.195000", "171652.655000", "171653.115000", "171653.575000", "171654.035000", "171654.495000", "171654.955000", "171655.415000", "171655.875000", "171656.335000", "171656.795000", "171657.255000", "171657.715000", "171658.175000", "171658.635000", "171659.095000", "171659.555000", "171700.015000", "171700.475000", "171700.935000", "171701.395000", "171701.855000", "171702.315000", "171702.775000", "171703.235000", "171703.695000", "171704.155000", "171704.615000", "171705.075000", "171705.535000", "171705.995000", "171706.455000", "171706.915000", "171707.375000", "171707.835000", "171708.295000", "171708.755000", "171709.215000", "171709.675000", "171710.135000", "171710.595000", "171711.055000", "171711.515000", "171711.975000", "171712.435000", "171712.895000", "171713.355000", "171713.815000", "171714.275000", "171714.735000", "171715.195000", "171715.655000", "171716.115000", "171716.575000", "171717.035000", "171717.495000", "171717.955000", "171718.415000", "171718.875000", "171719.335000", "171719.795000", "171720.255000", "171720.715000", "171721.175000", "171721.635000", "171722.095000", "171722.555000", "171723.015000", "171723.475000", "171723.935000", "171724.395000", "171724.855000", "171725.315000", "171725.775000", "171726.235000", "171726.695000", "171727.155000", "171727.615000", "171728.075000", "171728.535000", "171728.995000", "171729.455000", "171729.915000", "171730.375000", "171730.835000", "171731.295000", "171731.755000", "171732.215000", "171732.675000", "171733.135000", "171733.595000", "171734.055000", "171734.515000", "171734.975000", "171735.435000", "171735.895000", "171736.355000", "171736.815000", "171737.275000", "171737.735000", "171738.195000", "171738.655000", "171739.115000", "171739.575000", "171740.035000", "171740.495000", "171740.955000", "171741.415000", "171741.875000", "171742.335000", "171742.795000", "171743.255000", "171743.715000", "171744.175000", "171744.635000", "171745.095000", "171745.555000", "171746.015000", "171746.475000", "171746.935000", "171747.395000", "171747.855000", "171748.315000", "171748.775000", "171749.235000", "171749.695000", "171750.155000", "171750.615000", "171751.075000", "171751.535000", "171751.995000", "171752.455000", "171752.915000", "171753.375000", "171753.835000", "171754.295000", "171754.755000", "171755.215000", "171755.675000", "171756.135000", "171756.595000", "171757.055000", "171757.515000", "171757.975000", "171758.435000", "171758.895000", "171759.355000", "171759.815000", "171800.275000", "171800.735000", "171801.195000", "171801.655000", "171802.115000", "171802.575000", "171803.035000", "171803.495000", "171803.955000", "171804.415000", "171804.875000", "171805.335000", "171805.795000", "171806.255000", "171806.715000", "171807.175000", "171807.635000", "171808.095000", "171808.555000", "171809.015000", "171809.475000", "171809.935000", "171810.395000", "171810.855000", "171811.315000", "171811.775000", "171812.235000", "171812.695000", "171813.155000", "171813.615000", "171814.075000", "171814.535000", "171814.995000", "171815.455000", "171815.915000", "171816.375000", "171816.835000", "171817.295000", "171817.755000", "171818.215000", "171818.675000", "171819.135000", "171819.595000", "171820.055000", "171820.515000", "171820.975000", "171821.435000", "171821.895000", "171822.355000", "171822.815000", "171823.275000", "171823.735000", "171824.195000", "171824.655000", "171825.115000", "171825.575000", "171826.035000", "171826.495000", "171826.955000", "171827.415000", "171827.875000", "171828.335000", "171828.795000", "171829.255000", "171829.715000", "171830.175000", "171830.635000", "171831.095000", "171831.555000", "171832.015000", "171832.475000", "171832.935000", "171833.395000", "171833.855000", "171834.315000", "171834.775000", "171835.235000", "171835.695000", "171836.155000", "171836.615000", "171837.075000", "171837.535000", "171837.995000", "171838.455000", "171838.915000", "171839.375000", "171839.835000", "171840.295000", "171840.755000", "171841.215000", "171841.675000", "171842.135000", "171842.595000", "171843.055000", "171843.515000", "171843.975000"],
