{
  "AcquisitionMatrixPE": 82,
  "AcquisitionNumber": 1,
  "AcquisitionTime": "19:02:32.412500",
  "BandwidthPerPixelPhaseEncode": 24.888,
  "BaseResolution": 82,
  "BodyPartExamined": "BRAIN",
  "ConsistencyInfo": "N4_VE11E_LATEST_20181129",
  "ConversionSoftware": "dcm2niix",
  "ConversionSoftwareVersion": "v1.0.20201102",
  "DerivedVendorReportedEchoSpacing": 0.00049,
  "DeviceSerialNumber": "66112",
  "DwellTime": 2e-06,
  "EchoTime": 0.0272,
  "EchoTrainLength": 82,
  "EffectiveEchoSpacing": 0.00049,
  "FlipAngle": 44,
  "ImageComments": "Unaliased MB8/PE3",
  "ImageOrientationPatientDICOM": [0.999841, 0.0125398, 0.0126645, -0.012565, 0.999919, 0.00191324],
  "ImageType": [
    "ORIGINAL",
    "PRIMARY",
    "M",
    "MB",
    "ND",
    "NORM",
    "MOSAIC"
],
  "ImagingFrequency": 123.252,
  "InPlanePhaseEncodingDirectionDICOM": "COL",
  "InstitutionAddress": "Maynard 3,Hanover,NH,US,03755",
  "InstitutionName": "Dartmouth College - PBS",
  "InstitutionalDepartmentName": "Department",
  "MRAcquisitionType": "2D",
  "MagneticFieldStrength": 3,
  "Manufacturer": "Siemens",
  "ManufacturersModelName": "Prisma",
  "Modality": "MR",
  "MultibandAccelerationFactor": 8,
  "PartialFourier": 1,
  "PatientPosition": "HFS",
  "PercentPhaseFOV": 100,
  "PercentSampling": 100,
  "PhaseEncodingDirection": "j-",
  "PhaseEncodingSteps": 82,
  "PhaseResolution": 1,
  "PixelBandwidth": 3050,
  "ProcedureStepDescription": "Wager_Wager^1076_spacetop",
  "ProtocolName": "func_run-04_task-social_acq-ap-mb8",
  "PulseSequenceDetails": "%CustomerSeq%\\cmrr_mbep2d_bold",
  "ReceiveCoilActiveElements": "HEA;HEP",
  "ReceiveCoilName": "Head_32",
  "ReconMatrixPE": 82,
  "RepetitionTime": 0.46,
  "SAR": 0.090673,
  "ScanOptions": "FS",
  "ScanningSequence": "EP",
  "SequenceName": "epfid2d1_82",
  "SequenceVariant": "SK\\SS",
  "SeriesDescription": "func_run-04_task-social_acq-ap-mb8",
  "SeriesNumber": 18,
  "ShimSetting": [4155, -7743, -7282, 517, -81, -262, -6, 57],
  "SliceThickness": 2.7,
  "SliceTiming": [0, 0.25, 0.0625, 0.3125, 0.125, 0.375, 0.1875, 0, 0.25, 0.0625, 0.3125, 0.125, 0.375, 0.1875, 0, 0.25, 0.0625, 0.3125, 0.125, 0.375, 0.1875, 0, 0.25, 0.0625, 0.3125, 0.125, 0.375, 0.1875, 0, 0.25, 0.0625, 0.3125, 0.125, 0.375, 0.1875, 0, 0.25, 0.0625, 0.3125, 0.125, 0.375, 0.1875, 0, 0.25, 0.0625, 0.3125, 0.125, 0.375, 0.1875, 0, 0.25, 0.0625, 0.3125, 0.125, 0.375, 0.1875],
  "SoftwareVersions": "syngo MR E11",
  "SpacingBetweenSlices": 2.7,
  "StationName": "AWP66112",
  "TaskName": "social",
  "TotalReadoutTime": 0.03969,
  "TxRefAmp": 259.308,
  "WipMemBlock": "c03a0109-793f-4baa-a330-c36352e13812||Sequence: R016 ve11e/master r/434b28f1; Aug  7 2019 18:53:46 by eja",
  "dcmmeta_affine": [
    [-2.6825008392333984, -0.03371106833219528, 0.03412650525569916, 110.6178207397461],
    [-0.03364342451095581, 2.6827101707458496, 0.005594583228230476, -84.4381332397461],
    [0.033977821469306946, -0.005133089143782854, 2.6997785568237305, -83.8866958618164],
    [0.0, 0.0, 0.0, 1.0]
],
  "dcmmeta_reorient_transform": [
    [0.0, -1.0, 0.0, 81.0],
    [1.0, 0.0, 0.0, 0.0],
    [0.0, 0.0, 1.0, 0.0],
    [0.0, 0.0, 0.0, 1.0]
],
  "dcmmeta_shape": [82, 82, 56, 872],
  "dcmmeta_slice_dim": 2,
  "dcmmeta_version": 0.6,
  "global": {
    "const": {
      "AccessionNumber": "A003860",
      "AcquisitionMatrix": [82, 0, 0, 82],
      "AngioFlag": "N",
      "BitsAllocated": 16,
      "BitsStored": 16,
      "BodyPartExamined": "BRAIN",
      "Columns": 656,
      "EchoNumbers": 1,
      "EchoTime": 27.2,
      "EchoTrainLength": 82,
      "FlipAngle": 44.0,
      "HighBit": 15,
      "ImageOrientationPatient": [0.99984116954287, 0.01253982160256, 0.01266446056199, -0.0125650346091, 0.9999192264423, 0.00191324235339],
      "ImagePositionPatient": [-868.08986961002, -912.45487783934, -95.527307704391],
      "ImageType": [
        "ORIGINAL",
        "PRIMARY",
        "M",
        "MB",
        "ND",
        "NORM",
        "MOSAIC"
],
      "ImagedNucleus": "1H",
      "ImagingFrequency": 123.25232,
      "InPlanePhaseEncodingDirection": "COL",
      "MRAcquisitionType": "2D",
      "MagneticFieldStrength": 3.0,
      "Manufacturer": "SIEMENS",
      "ManufacturerModelName": "Prisma",
      "Modality": "MR",
      "NumberOfAverages": 1.0,
      "NumberOfPhaseEncodingSteps": 82,
      "PercentPhaseFieldOfView": 100.0,
      "PercentSampling": 100.0,
      "PerformedProcedureStepStartTime": "180133.330000",
      "PhotometricInterpretation": "MONOCHROME2",
      "PixelBandwidth": 3050.0,
      "PixelRepresentation": 0,
      "PixelSpacing": [2.6829268932343, 2.6829268932343],
      "ProtocolName": "func_run-04_task-social_acq-ap-mb8",
      "RepetitionTime": 460.0,
      "Rows": 656,
      "SAR": 0.09067295610691,
      "SamplesPerPixel": 1,
      "ScanOptions": "FS",
      "ScanningSequence": "EP",
      "SequenceName": "epfid2d1_82",
      "SequenceVariant": [
        "SK",
        "SS"
],
      "SeriesDescription": "func_run-04_task-social_acq-ap-mb8",
      "SeriesNumber": 18,
      "SeriesTime": "190249.241000",
      "SliceLocation": -82.656628441655,
      "SliceThickness": 2.7000000476837,
      "SmallestImagePixelValue": 0,
      "SoftwareVersions": "syngo MR E11",
      "SpacingBetweenSlices": 2.7000000841378,
      "SpecificCharacterSet": "ISO_IR 100",
      "StudyID": "1",
      "StudyTime": "180133.270000",
      "TransmitCoilName": "Body",
      "VariableFlipAngleFlag": "N",
      "WindowCenterWidthExplanation": "Algo1"
    },
    "slices": {}
  },
  "time": {
    "samples": {
      "AcquisitionNumber": [1, 2, 3, 4, 5, 6, 7, 8, 9, 10, 11, 12, 13, 14, 15, 16, 17, 18, 19, 20, 21, 22, 23, 24, 25, 26, 27, 28, 29, 30, 31, 32, 33, 34, 35, 36, 37, 38, 39, 40, 41, 42, 43, 44, 45, 46, 47, 48, 49, 50, 51, 52, 53, 54, 55, 56, 57, 58, 59, 60, 61, 62, 63, 64, 65, 66, 67, 68, 69, 70, 71, 72, 73, 74, 75, 76, 77, 78, 79, 80, 81, 82, 83, 84, 85, 86, 87, 88, 89, 90, 91, 92, 93, 94, 95, 96, 97, 98, 99, 100, 101, 102, 103, 104, 105, 106, 107, 108, 109, 110, 111, 112, 113, 114, 115, 116, 117, 118, 119, 120, 121, 122, 123, 124, 125, 126, 127, 128, 129, 130, 131, 132, 133, 134, 135, 136, 137, 138, 139, 140, 141, 142, 143, 144, 145, 146, 147, 148, 149, 150, 151, 152, 153, 154, 155, 156, 157, 158, 159, 160, 161, 162, 163, 164, 165, 166, 167, 168, 169, 170, 171, 172, 173, 174, 175, 176, 177, 178, 179, 180, 181, 182, 183, 184, 185, 186, 187, 188, 189, 190, 191, 192, 193, 194, 195, 196, 197, 198, 199, 200, 201, 202, 203, 204, 205, 206, 207, 208, 209, 210, 211, 212, 213, 214, 215, 216, 217, 218, 219, 220, 221, 222, 223, 224, 225, 226, 227, 228, 229, 230, 231, 232, 233, 234, 235, 236, 237, 238, 239, 240, 241, 242, 243, 244, 245, 246, 247, 248, 249, 250, 251, 252, 253, 254, 255, 256, 257, 258, 259, 260, 261, 262, 263, 264, 265, 266, 267, 268, 269, 270, 271, 272, 273, 274, 275, 276, 277, 278, 279, 280, 281, 282, 283, 284, 285, 286, 287, 288, 289, 290, 291, 292, 293, 294, 295, 296, 297, 298, 299, 300, 301, 302, 303, 304, 305, 306, 307, 308, 309, 310, 311, 312, 313, 314, 315, 316, 317, 318, 319, 320, 321, 322, 323, 324, 325, 326, 327, 328, 329, 330, 331, 332, 333, 334, 335, 336, 337, 338, 339, 340, 341, 342, 343, 344, 345, 346, 347, 348, 349, 350, 351, 352, 353, 354, 355, 356, 357, 358, 359, 360, 361, 362, 363, 364, 365, 366, 367, 368, 369, 370, 371, 372, 373, 374, 375, 376, 377, 378, 379, 380, 381, 382, 383, 384, 385, 386, 387, 388, 389, 390, 391, 392, 393, 394, 395, 396, 397, 398, 399, 400, 401, 402, 403, 404, 405, 406, 407, 408, 409, 410, 411, 412, 413, 414, 415, 416, 417, 418, 419, 420, 421, 422, 423, 424, 425, 426, 427, 428, 429, 430, 431, 432, 433, 434, 435, 436, 437, 438, 439, 440, 441, 442, 443, 444, 445, 446, 447, 448, 449, 450, 451, 452, 453, 454, 455, 456, 457, 458, 459, 460, 461, 462, 463, 464, 465, 466, 467, 468, 469, 470, 471, 472, 473, 474, 475, 476, 477, 478, 479, 480, 481, 482, 483, 484, 485, 486, 487, 488, 489, 490, 491, 492, 493, 494, 495, 496, 497, 498, 499, 500, 501, 502, 503, 504, 505, 506, 507, 508, 509, 510, 511, 512, 513, 514, 515, 516, 517, 518, 519, 520, 521, 522, 523, 524, 525, 526, 527, 528, 529, 530, 531, 532, 533, 534, 535, 536, 537, 538, 539, 540, 541, 542, 543, 544, 545, 546, 547, 548, 549, 550, 551, 552, 553, 554, 555, 556, 557, 558, 559, 560, 561, 562, 563, 564, 565, 566, 567, 568, 569, 570, 571, 572, 573, 574, 575, 576, 577, 578, 579, 580, 581, 582, 583, 584, 585, 586, 587, 588, 589, 590, 591, 592, 593, 594, 595, 596, 597, 598, 599, 600, 601, 602, 603, 604, 605, 606, 607, 608, 609, 610, 611, 612, 613, 614, 615, 616, 617, 618, 619, 620, 621, 622, 623, 624, 625, 626, 627, 628, 629, 630, 631, 632, 633, 634, 635, 636, 637, 638, 639, 640, 641, 642, 643, 644, 645, 646, 647, 648, 649, 650, 651, 652, 653, 654, 655, 656, 657, 658, 659, 660, 661, 662, 663, 664, 665, 666, 667, 668, 669, 670, 671, 672, 673, 674, 675, 676, 677, 678, 679, 680, 681, 682, 683, 684, 685, 686, 687, 688, 689, 690, 691, 692, 693, 694, 695, 696, 697, 698, 699, 700, 701, 702, 703, 704, 705, 706, 707, 708, 709, 710, 711, 712, 713, 714, 715, 716, 717, 718, 719, 720, 721, 722, 723, 724, 725, 726, 727, 728, 729, 730, 731, 732, 733, 734, 735, 736, 737, 738, 739, 740, 741, 742, 743, 744, 745, 746, 747, 748, 749, 750, 751, 752, 753, 754, 755, 756, 757, 758, 759, 760, 761, 762, 763, 764, 765, 766, 767, 768, 769, 770, 771, 772, 773, 774, 775, 776, 777, 778, 779, 780, 781, 782, 783, 784, 785, 786, 787, 788, 789, 790, 791, 792, 793, 794, 795, 796, 797, 798, 799, 800, 801, 802, 803, 804, 805, 806, 807, 808, 809, 810, 811, 812, 813, 814, 815, 816, 817, 818, 819, 820, 821, 822, 823, 824, 825, 826, 827, 828, 829, 830, 831, 832, 833, 834, 835, 836, 837, 838, 839, 840, 841, 842, 843, 844, 845, 846, 847, 848, 849, 850, 851, 852, 853, 854, 855, 856, 857, 858, 859, 860, 861, 862, 863, 864, 865, 866, 867, 868, 869, 870, 871, 872],
      "AcquisitionTime": ["190232.412500", "190232.872500", "190233.332500", "190233.792500", "190234.252500", "190234.712500", "190235.172500", "190235.632500", "190236.092500", "190236.552500", "190237.012500", "190237.472500", "190237.932500", "190238.392500", "190238.852500", "190239.312500", "190239.772500", "190240.232500", "190240.692500", "190241.152500", "190241.612500", "190242.072500", "190242.532500", "190242.992500", "190243.452500", "190243.912500", "190244.372500", "190244.832500", "190245.292500", "190245.752500", "190246.212500", "190246.672500", "190247.132500", "190247.592500", "190248.052500", "190248.512500", "190248.972500", "190249.432500", "190249.892500", "190250.352500", "190250.812500", "190251.272500", "190251.732500", "190252.192500", "190252.652500", "190253.112500", "190253.572500", "190254.032500", "190254.492500", "190254.952500", "190255.412500", "190255.872500", "190256.332500", "190256.792500", "190257.252500", "190257.712500", "190258.172500", "190258.632500", "190259.092500", "190259.552500", "190300.012500", "190300.472500", "190300.932500", "190301.392500", "190301.852500", "190302.312500", "190302.772500", "190303.232500", "190303.692500", "190304.152500", "190304.612500", "190305.072500", "190305.532500", "190305.992500", "190306.452500", "190306.912500", "190307.372500", "190307.832500", "190308.292500", "190308.752500", "190309.212500", "190309.672500", "190310.132500", "190310.592500", "190311.052500", "190311.512500", "190311.972500", "190312.432500", "190312.892500", "190313.352500", "190313.812500", "190314.272500", "190314.732500", "190315.192500", "190315.652500", "190316.112500", "190316.572500", "190317.032500", "190317.492500", "190317.952500", "190318.412500", "190318.872500", "190319.332500", "190319.792500", "190320.252500", "190320.712500", "190321.172500", "190321.632500", "190322.092500", "190322.552500", "190323.012500", "190323.472500", "190323.932500", "190324.392500", "190324.852500", "190325.312500", "190325.772500", "190326.232500", "190326.692500", "190327.152500", "190327.612500", "190328.072500", "190328.532500", "190328.992500", "190329.452500", "190329.912500", "190330.372500", "190330.832500", "190331.292500", "190331.752500", "190332.212500", "190332.672500", "190333.132500", "190333.592500", "190334.052500", "190334.512500", "190334.972500", "190335.432500", "190335.892500", "190336.352500", "190336.812500", "190337.272500", "190337.732500", "190338.192500", "190338.652500", "190339.112500", "190339.572500", "190340.032500", "190340.492500", "190340.952500", "190341.412500", "190341.872500", "190342.332500", "190342.792500", "190343.252500", "190343.712500", "190344.172500", "190344.632500", "190345.092500", "190345.552500", "190346.012500", "190346.472500", "190346.932500", "190347.392500", "190347.852500", "190348.312500", "190348.772500", "190349.232500", "190349.692500", "190350.152500", "190350.612500", "190351.072500", "190351.532500", "190351.992500", "190352.452500", "190352.912500", "190353.372500", "190353.832500", "190354.292500", "190354.752500", "190355.212500", "190355.672500", "190356.132500", "190356.592500", "190357.052500", "190357.512500", "190357.972500", "190358.432500", "190358.892500", "190359.352500", "190359.812500", "190400.272500", "190400.732500", "190401.192500", "190401.652500", "190402.112500", "190402.572500", "190403.032500", "190403.492500", "190403.952500", "190404.412500", "190404.872500", "190405.332500", "190405.792500", "190406.252500", "190406.712500", "190407.172500", "190407.632500", "190408.092500", "190408.552500", "190409.012500", "190409.472500", "190409.932500", "190410.392500", "190410.852500", "190411.312500", "190411.772500", "190412.232500", "190412.692500", "190413.152500", "190413.612500", "190414.072500", "190414.532500", "190414.992500", "190415.452500", "190415.912500", "190416.372500", "190416.832500", "190417.292500", "190417.752500", "190418.212500", "190418.672500", "190419.132500", "190419.592500", "190420.052500", "190420.512500", "190420.972500", "190421.432500", "190421.892500", "190422.352500", "190422.812500", "190423.272500", "190423.732500", "190424.192500", "190424.652500", "190425.112500", "190425.572500", "190426.032500", "190426.492500", "190426.952500", "190427.412500", "190427.872500", "190428.332500", "190428.792500", "190429.252500", "190429.712500", "190430.172500", "190430.632500", "190431.092500", "190431.552500", "190432.012500", "190432.472500", "190432.932500", "190433.392500", "190433.852500", "190434.312500", "190434.772500", "190435.232500", "190435.692500", "190436.152500", "190436.612500", "190437.072500", "190437.532500", "190437.992500", "190438.452500", "190438.912500", "190439.372500", "190439.832500", "190440.292500", "190440.752500", "190441.212500", "190441.672500", "190442.132500", "190442.592500", "190443.052500", "190443.512500", "190443.972500", "190444.432500", "190444.892500", "190445.352500", "190445.812500", "190446.272500", "190446.732500", "190447.192500", "190447.652500", "190448.112500", "190448.572500", "190449.032500", "190449.492500", "190449.952500", "190450.412500", "190450.872500", "190451.332500", "190451.792500", "190452.252500", "190452.712500", "190453.172500", "190453.632500", "190454.092500", "190454.552500", "190455.012500", "190455.472500", "190455.932500", "190456.392500", "190456.852500", "190457.312500", "190457.772500", "190458.232500", "190458.692500", "190459.152500", "190459.612500", "190500.072500", "190500.532500", "190500.992500", "190501.452500", "190501.912500", "190502.372500", "190502.832500", "190503.292500", "190503.752500", "190504.212500", "190504.672500", "190505.132500", "190505.592500", "190506.052500", "190506.512500", "190506.972500", "190507.432500", "190507.892500", "190508.352500", "190508.812500", "190509.272500", "190509.732500", "190510.192500", "190510.652500", "190511.112500", "190511.572500", "190512.032500", "190512.492500", "190512.952500", "190513.412500", "190513.872500", "190514.332500", "190514.792500", "190515.252500", "190515.712500", "190516.172500", "190516.632500", "190517.092500", "190517.552500", "190518.012500", "190518.472500", "190518.932500", "190519.392500", "190519.852500", "190520.312500", "190520.772500", "190521.232500", "190521.692500", "190522.152500", "190522.612500", "190523.072500", "190523.532500", "190523.992500", "190524.452500", "190524.912500", "190525.372500", "190525.832500", "190526.292500", "190526.752500", "190527.212500", "190527.672500", "190528.132500", "190528.592500", "190529.052500", "190529.512500", "190529.972500", "190530.432500", "190530.892500", "190531.352500", "190531.812500", "190532.272500", "190532.732500", "190533.192500", "190533.652500", "190534.112500", "190534.572500", "190535.032500", "190535.492500", "190535.952500", "190536.412500", "190536.872500", "190537.332500", "190537.792500", "190538.252500", "190538.712500", "190539.172500", "190539.632500", "190540.092500", "190540.552500", "190541.012500", "190541.472500", "190541.932500", "190542.392500", "190542.852500", "190543.312500", "190543.772500", "190544.232500", "190544.692500", "190545.152500", "190545.612500", "190546.072500", "190546.532500", "190546.992500", "190547.452500", "190547.912500", "190548.372500", "190548.832500", "190549.292500", "190549.752500", "190550.212500", "190550.672500", "190551.132500", "190551.592500", "190552.052500", "190552.512500", "190552.972500", "190553.432500", "190553.892500", "190554.352500", "190554.812500", "190555.272500", "190555.732500", "190556.192500", "190556.652500", "190557.112500", "190557.572500", "190558.032500", "190558.492500", "190558.952500", "190559.412500", "190559.872500", "190600.332500", "190600.792500", "190601.252500", "190601.712500", "190602.172500", "190602.632500", "190603.092500", "190603.552500", "190604.012500", "190604.472500", "190604.932500", "190605.392500", "190605.852500", "190606.312500", "190606.772500", "190607.232500", "190607.692500", "190608.152500", "190608.612500", "190609.072500", "190609.532500", "190609.992500", "190610.452500", "190610.912500", "190611.372500", "190611.832500", "190612.292500", "190612.752500", "190613.212500", "190613.672500", "190614.132500", "190614.592500", "190615.052500", "190615.512500", "190615.972500", "190616.432500", "190616.892500", "190617.352500", "190617.812500", "190618.272500", "190618.732500", "190619.192500", "190619.652500", "190620.112500", "190620.572500", "190621.032500", "190621.492500", "190621.952500", "190622.412500", "190622.872500", "190623.332500", "190623.792500", "190624.252500", "190624.712500", "190625.172500", "190625.632500", "190626.092500", "190626.552500", "190627.012500", "190627.472500", "190627.932500", "190628.392500", "190628.852500", "190629.312500", "190629.772500", "190630.232500", "190630.692500", "190631.152500", "190631.612500", "190632.072500", "190632.532500", "190632.992500", "190633.452500", "190633.912500", "190634.372500", "190634.832500", "190635.292500", "190635.752500", "190636.212500", "190636.672500", "190637.132500", "190637.592500", "190638.052500", "190638.512500", "190638.972500", "190639.432500", "190639.892500", "190640.352500", "190640.812500", "190641.272500", "190641.732500", "190642.192500", "190642.652500", "190643.112500", "190643.572500", "190644.032500", "190644.492500", "190644.952500", "190645.412500", "190645.872500", "190646.332500", "190646.792500", "190647.252500", "190647.712500", "190648.172500", "190648.632500", "190649.092500", "190649.552500", "190650.012500", "190650.472500", "190650.932500", "190651.392500", "190651.852500", "190652.312500", "190652.772500", "190653.232500", "190653.692500", "190654.152500", "190654.612500", "190655.072500", "190655.532500", "190655.992500", "190656.452500", "190656.912500", "190657.372500", "190657.832500", "190658.292500", "190658.752500", "190659.212500", "190659.672500", "190700.132500", "190700.592500", "190701.052500", "190701.512500", "190701.972500", "190702.432500", "190702.892500", "190703.352500", "190703.812500", "190704.272500", "190704.732500", "190705.192500", "190705.652500", "190706.112500", "190706.572500", "190707.032500", "190707.492500", "190707.952500", "190708.412500", "190708.872500", "190709.332500", "190709.792500", "190710.252500", "190710.712500", "190711.172500", "190711.632500", "190712.092500", "190712.552500", "190713.012500", "190713.472500", "190713.932500", "190714.392500", "190714.852500", "190715.312500", "190715.772500", "190716.232500", "190716.692500", "190717.152500", "190717.612500", "190718.072500", "190718.532500", "190718.992500", "190719.452500", "190719.912500", "190720.372500", "190720.832500", "190721.292500", "190721.752500", "190722.212500", "190722.672500", "190723.132500", "190723.592500", "190724.052500", "190724.512500", "190724.972500", "190725.432500", "190725.892500", "190726.352500", "190726.812500", "190727.272500", "190727.732500", "190728.192500", "190728.652500", "190729.112500", "190729.572500", "190730.032500", "190730.492500", "190730.952500", "190731.412500", "190731.872500", "190732.332500", "190732.792500", "190733.252500", "190733.712500", "190734.172500", "190734.632500", "190735.092500", "190735.552500", "190736.012500", "190736.472500", "190736.932500", "190737.392500", "190737.852500", "190738.312500", "190738.772500", "190739.232500", "190739.692500", "190740.152500", "190740.612500", "190741.072500", "190741.532500", "190741.992500", "190742.452500", "190742.912500", "190743.372500", "190743.832500", "190744.292500", "190744.752500", "190745.212500", "190745.672500", "190746.132500", "190746.592500", "190747.052500", "190747.512500", "190747.972500", "190748.432500", "190748.892500", "190749.352500", "190749.812500", "190750.272500", "190750.732500", "190751.192500", "190751.652500", "190752.112500", "190752.572500", "190753.032500", "190753.492500", "190753.952500", "190754.412500", "190754.872500", "190755.332500", "190755.792500", "190756.252500", "190756.712500", "190757.172500", "190757.632500", "190758.092500", "190758.552500", "190759.012500", "190759.472500", "190759.932500", "190800.392500", "190800.852500", "190801.312500", "190801.772500", "190802.232500", "190802.692500", "190803.152500", "190803.612500", "190804.072500", "190804.532500", "190804.992500", "190805.452500", "190805.912500", "190806.372500", "190806.832500", "190807.292500", "190807.752500", "190808.212500", "190808.672500", "190809.132500", "190809.592500", "190810.052500", "190810.512500", "190810.972500", "190811.432500", "190811.892500", "190812.352500", "190812.812500", "190813.272500", "190813.732500", "190814.192500", "190814.652500", "190815.112500", "190815.572500", "190816.032500", "190816.492500", "190816.952500", "190817.412500", "190817.872500", "190818.332500", "190818.792500", "190819.252500", "190819.712500", "190820.172500", "190820.632500", "190821.092500", "190821.552500", "190822.012500", "190822.472500", "190822.932500", "190823.392500", "190823.852500", "190824.312500", "190824.772500", "190825.232500", "190825.692500", "190826.152500", "190826.612500", "190827.072500", "190827.532500", "190827.992500", "190828.452500", "190828.912500", "190829.372500", "190829.832500", "190830.292500", "190830.752500", "190831.212500", "190831.672500", "190832.132500", "190832.592500", "190833.052500", "190833.512500", "190833.972500", "190834.432500", "190834.892500", "190835.352500", "190835.812500", "190836.272500", "190836.732500", "190837.192500", "190837.652500", "190838.112500", "190838.572500", "190839.032500", "190839.492500", "190839.952500", "190840.412500", "190840.872500", "190841.332500", "190841.792500", "190842.252500", "190842.712500", "190843.172500", "190843.632500", "190844.092500", "190844.552500", "190845.012500", "190845.472500", "190845.932500", "190846.392500", "190846.852500", "190847.312500", "190847.772500", "190848.232500", "190848.692500", "190849.152500", "190849.612500", "190850.072500", "190850.532500", "190850.992500", "190851.452500", "190851.912500", "190852.372500", "190852.832500", "190853.292500", "190853.752500", "190854.212500", "190854.672500", "190855.132500", "190855.592500", "190856.052500", "190856.512500", "190856.972500", "190857.432500", "190857.892500", "190858.352500", "190858.812500", "190859.272500", "190859.732500", "190900.192500", "190900.652500", "190901.112500", "190901.572500", "190902.032500", "190902.492500", "190902.952500", "190903.412500", "190903.872500", "190904.332500", "190904.792500", "190905.252500", "190905.712500", "190906.172500", "190906.632500", "190907.092500", "190907.552500", "190908.012500", "190908.472500", "190908.932500", "190909.392500", "190909.852500", "190910.312500", "190910.772500", "190911.232500", "190911.692500", "190912.152500", "190912.612500", "190913.072500"],
