{
  "AcquisitionMatrixPE": 82,
  "AcquisitionNumber": 1,
  "AcquisitionTime": "19:37:50.487500",
  "BandwidthPerPixelPhaseEncode": 24.888,
  "BaseResolution": 82,
  "BodyPartExamined": "BRAIN",
  "ConsistencyInfo": "N4_VE11E_LATEST_20181129",
  "ConversionSoftware": "dcm2niix",
  "ConversionSoftwareVersion": "v1.0.20201102",
  "DerivedVendorReportedEchoSpacing": 0.00049,
  "DeviceSerialNumber": "66112",
  "DwellTime": 2e-06,
  "EchoTime": 0.0272,
  "EchoTrainLength": 82,
  "EffectiveEchoSpacing": 0.00049,
  "FlipAngle": 44,
  "ImageComments": "Unaliased MB8/PE3",
  "ImageOrientationPatientDICOM": [0.999687, 0.0116365, 0.0221555, -0.0125631, 0.999032, 0.0421546],
  "ImageType": [
    "ORIGINAL",
    "PRIMARY",
    "M",
    "MB",
    "ND",
    "NORM",
    "MOSAIC"
],
  "ImagingFrequency": 123.252,
  "InPlanePhaseEncodingDirectionDICOM": "COL",
  "InstitutionAddress": "Maynard 3,Hanover,NH,US,03755",
  "InstitutionName": "Dartmouth College - PBS",
  "InstitutionalDepartmentName": "Department",
  "MRAcquisitionType": "2D",
  "MagneticFieldStrength": 3,
  "Manufacturer": "Siemens",
  "ManufacturersModelName": "Prisma",
  "Modality": "MR",
  "MultibandAccelerationFactor": 8,
  "PartialFourier": 1,
  "PatientPosition": "HFS",
  "PercentPhaseFOV": 100,
  "PercentSampling": 100,
  "PhaseEncodingDirection": "j-",
  "PhaseEncodingSteps": 82,
  "PhaseResolution": 1,
  "PixelBandwidth": 3050,
  "ProcedureStepDescription": "Wager_Wager^1076_spacetop",
  "ProtocolName": "func_run-02_task-alignvideo_acq-ap-mb8",
  "PulseSequenceDetails": "%CustomerSeq%\\cmrr_mbep2d_bold",
  "ReceiveCoilActiveElements": "HEA;HEP",
  "ReceiveCoilName": "Head_32",
  "ReconMatrixPE": 82,
  "RepetitionTime": 0.46,
  "SAR": 0.0907058,
  "ScanOptions": "FS",
  "ScanningSequence": "EP",
  "SequenceName": "epfid2d1_82",
  "SequenceVariant": "SK\\SS",
  "SeriesDescription": "func_run-02_task-alignvideo_acq-ap-mb8",
  "SeriesNumber": 32,
  "ShimSetting": [4155, -7744, -7285, 512, -84, -241, -9, 59],
  "SliceThickness": 2.7,
  "SliceTiming": [0, 0.25, 0.0625, 0.3125, 0.125, 0.375, 0.1875, 0, 0.25, 0.0625, 0.3125, 0.125, 0.375, 0.1875, 0, 0.25, 0.0625, 0.3125, 0.125, 0.375, 0.1875, 0, 0.25, 0.0625, 0.3125, 0.125, 0.375, 0.1875, 0, 0.25, 0.0625, 0.3125, 0.125, 0.375, 0.1875, 0, 0.25, 0.0625, 0.3125, 0.125, 0.375, 0.1875, 0, 0.25, 0.0625, 0.3125, 0.125, 0.375, 0.1875, 0, 0.25, 0.0625, 0.3125, 0.125, 0.375, 0.1875],
  "SoftwareVersions": "syngo MR E11",
  "SpacingBetweenSlices": 2.7,
  "StationName": "AWP66112",
  "TaskName": "alignvideo",
  "TotalReadoutTime": 0.03969,
  "TxRefAmp": 259.308,
  "WipMemBlock": "57f12fb7-496a-4fc6-af4f-87917ba4d845||Sequence: R016 ve11e/master r/434b28f1; Aug  7 2019 18:53:46 by eja",
  "dcmmeta_affine": [
    [-2.682086706161499, -0.03370597958564758, 0.05843759700655937, 110.10537719726562],
    [-0.031219903379678726, 2.6803300380706787, 0.11453323811292648, -86.8233413696289],
    [0.05944167077541351, -0.1130976527929306, 2.69693660736084, -78.40235137939453],
    [0.0, 0.0, 0.0, 1.0]
],
  "dcmmeta_reorient_transform": [
    [0.0, -1.0, 0.0, 81.0],
    [1.0, 0.0, 0.0, 0.0],
    [0.0, 0.0, 1.0, 0.0],
    [0.0, 0.0, 0.0, 1.0]
],
  "dcmmeta_shape": [82, 82, 56, 926],
  "dcmmeta_slice_dim": 2,
  "dcmmeta_version": 0.6,
  "global": {
    "const": {
      "AccessionNumber": "A003860",
      "AcquisitionMatrix": [82, 0, 0, 82],
      "AngioFlag": "N",
      "BitsAllocated": 16,
      "BitsStored": 16,
      "BodyPartExamined": "BRAIN",
      "Columns": 656,
      "EchoNumbers": 1,
      "EchoTime": 27.2,
      "EchoTrainLength": 82,
      "FlipAngle": 44.0,
      "HighBit": 15,
      "ImageOrientationPatient": [0.99968681299709, 0.0116365093275, 0.02215553137222, -0.0125631381673, 0.99903211115129, 0.04215457801943],
      "ImagePositionPatient": [-867.46043941029, -908.49825524846, -137.0820486149],
      "ImageType": [
        "ORIGINAL",
        "PRIMARY",
        "M",
        "MB",
        "ND",
        "NORM",
        "MOSAIC"
],
      "ImagedNucleus": "1H",
      "ImagingFrequency": 123.25232,
      "InPlanePhaseEncodingDirection": "COL",
      "MRAcquisitionType": "2D",
      "MagneticFieldStrength": 3.0,
      "Manufacturer": "SIEMENS",
      "ManufacturerModelName": "Prisma",
      "Modality": "MR",
      "NumberOfAverages": 1.0,
      "NumberOfPhaseEncodingSteps": 82,
      "PercentPhaseFieldOfView": 100.0,
      "PercentSampling": 100.0,
      "PerformedProcedureStepStartTime": "180133.330000",
      "PhotometricInterpretation": "MONOCHROME2",
      "PixelBandwidth": 3050.0,
      "PixelRepresentation": 0,
      "PixelSpacing": [2.6829268932343, 2.6829268932343],
      "ProtocolName": "func_run-02_task-alignvideo_acq-ap-mb8",
      "RepetitionTime": 460.0,
      "Rows": 656,
      "SAR": 0.09070580472357,
      "SamplesPerPixel": 1,
      "ScanOptions": "FS",
      "ScanningSequence": "EP",
      "SequenceName": "epfid2d1_82",
      "SequenceVariant": [
        "SK",
        "SS"
],
      "SeriesDescription": "func_run-02_task-alignvideo_acq-ap-mb8",
      "SeriesNumber": 32,
      "SeriesTime": "193809.327000",
      "SliceLocation": -79.613349508849,
      "SliceThickness": 2.7000000476837,
      "SmallestImagePixelValue": 0,
      "SoftwareVersions": "syngo MR E11",
      "SpacingBetweenSlices": 2.6999999602621,
      "SpecificCharacterSet": "ISO_IR 100",
      "StudyID": "1",
      "StudyTime": "180133.270000",
      "TransmitCoilName": "Body",
      "VariableFlipAngleFlag": "N",
      "WindowCenterWidthExplanation": "Algo1"
    },
    "slices": {}
  },
  "time": {
    "samples": {
      "AcquisitionNumber": [1, 2, 3, 4, 5, 6, 7, 8, 9, 10, 11, 12, 13, 14, 15, 16, 17, 18, 19, 20, 21, 22, 23, 24, 25, 26, 27, 28, 29, 30, 31, 32, 33, 34, 35, 36, 37, 38, 39, 40, 41, 42, 43, 44, 45, 46, 47, 48, 49, 50, 51, 52, 53, 54, 55, 56, 57, 58, 59, 60, 61, 62, 63, 64, 65, 66, 67, 68, 69, 70, 71, 72, 73, 74, 75, 76, 77, 78, 79, 80, 81, 82, 83, 84, 85, 86, 87, 88, 89, 90, 91, 92, 93, 94, 95, 96, 97, 98, 99, 100, 101, 102, 103, 104, 105, 106, 107, 108, 109, 110, 111, 112, 113, 114, 115, 116, 117, 118, 119, 120, 121, 122, 123, 124, 125, 126, 127, 128, 129, 130, 131, 132, 133, 134, 135, 136, 137, 138, 139, 140, 141, 142, 143, 144, 145, 146, 147, 148, 149, 150, 151, 152, 153, 154, 155, 156, 157, 158, 159, 160, 161, 162, 163, 164, 165, 166, 167, 168, 169, 170, 171, 172, 173, 174, 175, 176, 177, 178, 179, 180, 181, 182, 183, 184, 185, 186, 187, 188, 189, 190, 191, 192, 193, 194, 195, 196, 197, 198, 199, 200, 201, 202, 203, 204, 205, 206, 207, 208, 209, 210, 211, 212, 213, 214, 215, 216, 217, 218, 219, 220, 221, 222, 223, 224, 225, 226, 227, 228, 229, 230, 231, 232, 233, 234, 235, 236, 237, 238, 239, 240, 241, 242, 243, 244, 245, 246, 247, 248, 249, 250, 251, 252, 253, 254, 255, 256, 257, 258, 259, 260, 261, 262, 263, 264, 265, 266, 267, 268, 269, 270, 271, 272, 273, 274, 275, 276, 277, 278, 279, 280, 281, 282, 283, 284, 285, 286, 287, 288, 289, 290, 291, 292, 293, 294, 295, 296, 297, 298, 299, 300, 301, 302, 303, 304, 305, 306, 307, 308, 309, 310, 311, 312, 313, 314, 315, 316, 317, 318, 319, 320, 321, 322, 323, 324, 325, 326, 327, 328, 329, 330, 331, 332, 333, 334, 335, 336, 337, 338, 339, 340, 341, 342, 343, 344, 345, 346, 347, 348, 349, 350, 351, 352, 353, 354, 355, 356, 357, 358, 359, 360, 361, 362, 363, 364, 365, 366, 367, 368, 369, 370, 371, 372, 373, 374, 375, 376, 377, 378, 379, 380, 381, 382, 383, 384, 385, 386, 387, 388, 389, 390, 391, 392, 393, 394, 395, 396, 397, 398, 399, 400, 401, 402, 403, 404, 405, 406, 407, 408, 409, 410, 411, 412, 413, 414, 415, 416, 417, 418, 419, 420, 421, 422, 423, 424, 425, 426, 427, 428, 429, 430, 431, 432, 433, 434, 435, 436, 437, 438, 439, 440, 441, 442, 443, 444, 445, 446, 447, 448, 449, 450, 451, 452, 453, 454, 455, 456, 457, 458, 459, 460, 461, 462, 463, 464, 465, 466, 467, 468, 469, 470, 471, 472, 473, 474, 475, 476, 477, 478, 479, 480, 481, 482, 483, 484, 485, 486, 487, 488, 489, 490, 491, 492, 493, 494, 495, 496, 497, 498, 499, 500, 501, 502, 503, 504, 505, 506, 507, 508, 509, 510, 511, 512, 513, 514, 515, 516, 517, 518, 519, 520, 521, 522, 523, 524, 525, 526, 527, 528, 529, 530, 531, 532, 533, 534, 535, 536, 537, 538, 539, 540, 541, 542, 543, 544, 545, 546, 547, 548, 549, 550, 551, 552, 553, 554, 555, 556, 557, 558, 559, 560, 561, 562, 563, 564, 565, 566, 567, 568, 569, 570, 571, 572, 573, 574, 575, 576, 577, 578, 579, 580, 581, 582, 583, 584, 585, 586, 587, 588, 589, 590, 591, 592, 593, 594, 595, 596, 597, 598, 599, 600, 601, 602, 603, 604, 605, 606, 607, 608, 609, 610, 611, 612, 613, 614, 615, 616, 617, 618, 619, 620, 621, 622, 623, 624, 625, 626, 627, 628, 629, 630, 631, 632, 633, 634, 635, 636, 637, 638, 639, 640, 641, 642, 643, 644, 645, 646, 647, 648, 649, 650, 651, 652, 653, 654, 655, 656, 657, 658, 659, 660, 661, 662, 663, 664, 665, 666, 667, 668, 669, 670, 671, 672, 673, 674, 675, 676, 677, 678, 679, 680, 681, 682, 683, 684, 685, 686, 687, 688, 689, 690, 691, 692, 693, 694, 695, 696, 697, 698, 699, 700, 701, 702, 703, 704, 705, 706, 707, 708, 709, 710, 711, 712, 713, 714, 715, 716, 717, 718, 719, 720, 721, 722, 723, 724, 725, 726, 727, 728, 729, 730, 731, 732, 733, 734, 735, 736, 737, 738, 739, 740, 741, 742, 743, 744, 745, 746, 747, 748, 749, 750, 751, 752, 753, 754, 755, 756, 757, 758, 759, 760, 761, 762, 763, 764, 765, 766, 767, 768, 769, 770, 771, 772, 773, 774, 775, 776, 777, 778, 779, 780, 781, 782, 783, 784, 785, 786, 787, 788, 789, 790, 791, 792, 793, 794, 795, 796, 797, 798, 799, 800, 801, 802, 803, 804, 805, 806, 807, 808, 809, 810, 811, 812, 813, 814, 815, 816, 817, 818, 819, 820, 821, 822, 823, 824, 825, 826, 827, 828, 829, 830, 831, 832, 833, 834, 835, 836, 837, 838, 839, 840, 841, 842, 843, 844, 845, 846, 847, 848, 849, 850, 851, 852, 853, 854, 855, 856, 857, 858, 859, 860, 861, 862, 863, 864, 865, 866, 867, 868, 869, 870, 871, 872, 873, 874, 875, 876, 877, 878, 879, 880, 881, 882, 883, 884, 885, 886, 887, 888, 889, 890, 891, 892, 893, 894, 895, 896, 897, 898, 899, 900, 901, 902, 903, 904, 905, 906, 907, 908, 909, 910, 911, 912, 913, 914, 915, 916, 917, 918, 919, 920, 921, 922, 923, 924, 925, 926],
      "AcquisitionTime": ["193750.487500", "193750.947500", "193751.407500", "193751.867500", "193752.327500", "193752.787500", "193753.247500", "193753.707500", "193754.167500", "193754.627500", "193755.087500", "193755.547500", "193756.007500", "193756.467500", "193756.927500", "193757.387500", "193757.847500", "193758.307500", "193758.767500", "193759.227500", "193759.687500", "193800.147500", "193800.607500", "193801.067500", "193801.527500", "193801.987500", "193802.447500", "193802.907500", "193803.367500", "193803.827500", "193804.287500", "193804.747500", "193805.207500", "193805.667500", "193806.127500", "193806.587500", "193807.047500", "193807.507500", "193807.967500", "193808.427500", "193808.887500", "193809.347500", "193809.807500", "193810.267500", "193810.727500", "193811.187500", "193811.647500", "193812.107500", "193812.567500", "193813.027500", "193813.487500", "193813.947500", "193814.407500", "193814.867500", "193815.327500", "193815.787500", "193816.247500", "193816.707500", "193817.167500", "193817.627500", "193818.087500", "193818.547500", "193819.007500", "193819.467500", "193819.927500", "193820.387500", "193820.847500", "193821.307500", "193821.767500", "193822.227500", "193822.687500", "193823.147500", "193823.607500", "193824.067500", "193824.527500", "193824.987500", "193825.447500", "193825.907500", "193826.367500", "193826.827500", "193827.287500", "193827.747500", "193828.207500", "193828.667500", "193829.127500", "193829.587500", "193830.047500", "193830.507500", "193830.967500", "193831.427500", "193831.887500", "193832.347500", "193832.807500", "193833.267500", "193833.727500", "193834.187500", "193834.647500", "193835.107500", "193835.567500", "193836.027500", "193836.487500", "193836.947500", "193837.407500", "193837.867500", "193838.327500", "193838.787500", "193839.247500", "193839.707500", "193840.167500", "193840.627500", "193841.087500", "193841.547500", "193842.007500", "193842.467500", "193842.927500", "193843.387500", "193843.847500", "193844.307500", "193844.767500", "193845.227500", "193845.687500", "193846.147500", "193846.607500", "193847.067500", "193847.527500", "193847.987500", "193848.447500", "193848.907500", "193849.367500", "193849.827500", "193850.287500", "193850.747500", "193851.207500", "193851.667500", "193852.127500", "193852.587500", "193853.047500", "193853.507500", "193853.967500", "193854.427500", "193854.887500", "193855.347500", "193855.807500", "193856.267500", "193856.727500", "193857.187500", "193857.647500", "193858.107500", "193858.567500", "193859.027500", "193859.487500", "193859.947500", "193900.407500", "193900.867500", "193901.327500", "193901.787500", "193902.247500", "193902.707500", "193903.167500", "193903.627500", "193904.087500", "193904.547500", "193905.007500", "193905.467500", "193905.927500", "193906.387500", "193906.847500", "193907.307500", "193907.767500", "193908.227500", "193908.687500", "193909.147500", "193909.607500", "193910.067500", "193910.527500", "193910.987500", "193911.447500", "193911.907500", "193912.367500", "193912.827500", "193913.287500", "193913.747500", "193914.207500", "193914.667500", "193915.127500", "193915.587500", "193916.047500", "193916.507500", "193916.967500", "193917.427500", "193917.887500", "193918.347500", "193918.807500", "193919.267500", "193919.727500", "193920.187500", "193920.647500", "193921.107500", "193921.567500", "193922.027500", "193922.487500", "193922.947500", "193923.407500", "193923.867500", "193924.327500", "193924.787500", "193925.247500", "193925.707500", "193926.167500", "193926.627500", "193927.087500", "193927.547500", "193928.007500", "193928.467500", "193928.927500", "193929.387500", "193929.847500", "193930.307500", "193930.767500", "193931.227500", "193931.687500", "193932.147500", "193932.607500", "193933.067500", "193933.527500", "193933.987500", "193934.447500", "193934.907500", "193935.367500", "193935.827500", "193936.287500", "193936.747500", "193937.207500", "193937.667500", "193938.127500", "193938.587500", "193939.047500", "193939.507500", "193939.967500", "193940.427500", "193940.887500", "193941.347500", "193941.807500", "193942.267500", "193942.727500", "193943.187500", "193943.647500", "193944.107500", "193944.567500", "193945.027500", "193945.487500", "193945.947500", "193946.407500", "193946.867500", "193947.327500", "193947.787500", "193948.247500", "193948.707500", "193949.167500", "193949.627500", "193950.087500", "193950.547500", "193951.007500", "193951.467500", "193951.927500", "193952.387500", "193952.847500", "193953.307500", "193953.767500", "193954.227500", "193954.687500", "193955.147500", "193955.607500", "193956.067500", "193956.527500", "193956.987500", "193957.447500", "193957.907500", "193958.367500", "193958.827500", "193959.287500", "193959.747500", "194000.207500", "194000.667500", "194001.127500", "194001.587500", "194002.047500", "194002.507500", "194002.967500", "194003.427500", "194003.887500", "194004.347500", "194004.807500", "194005.267500", "194005.727500", "194006.187500", "194006.647500", "194007.107500", "194007.567500", "194008.027500", "194008.487500", "194008.947500", "194009.407500", "194009.867500", "194010.327500", "194010.787500", "194011.247500", "194011.707500", "194012.167500", "194012.627500", "194013.087500", "194013.547500", "194014.007500", "194014.467500", "194014.927500", "194015.387500", "194015.847500", "194016.307500", "194016.767500", "194017.227500", "194017.687500", "194018.147500", "194018.607500", "194019.067500", "194019.527500", "194019.987500", "194020.447500", "194020.907500", "194021.367500", "194021.827500", "194022.287500", "194022.747500", "194023.207500", "194023.667500", "194024.127500", "194024.587500", "194025.047500", "194025.507500", "194025.967500", "194026.427500", "194026.887500", "194027.347500", "194027.807500", "194028.267500", "194028.727500", "194029.187500", "194029.647500", "194030.107500", "194030.567500", "194031.027500", "194031.487500", "194031.947500", "194032.407500", "194032.867500", "194033.327500", "194033.787500", "194034.247500", "194034.707500", "194035.167500", "194035.627500", "194036.087500", "194036.547500", "194037.007500", "194037.467500", "194037.927500", "194038.387500", "194038.847500", "194039.307500", "194039.767500", "194040.227500", "194040.687500", "194041.147500", "194041.607500", "194042.067500", "194042.527500", "194042.987500", "194043.447500", "194043.907500", "194044.367500", "194044.827500", "194045.287500", "194045.747500", "194046.207500", "194046.667500", "194047.127500", "194047.587500", "194048.047500", "194048.507500", "194048.967500", "194049.427500", "194049.887500", "194050.347500", "194050.807500", "194051.267500", "194051.727500", "194052.187500", "194052.647500", "194053.107500", "194053.567500", "194054.027500", "194054.487500", "194054.947500", "194055.407500", "194055.867500", "194056.327500", "194056.787500", "194057.247500", "194057.707500", "194058.167500", "194058.627500", "194059.087500", "194059.547500", "194100.007500", "194100.467500", "194100.927500", "194101.387500", "194101.847500", "194102.307500", "194102.767500", "194103.227500", "194103.687500", "194104.147500", "194104.607500", "194105.067500", "194105.527500", "194105.987500", "194106.447500", "194106.907500", "194107.367500", "194107.827500", "194108.287500", "194108.747500", "194109.207500", "194109.667500", "194110.127500", "194110.587500", "194111.047500", "194111.507500", "194111.967500", "194112.427500", "194112.887500", "194113.347500", "194113.807500", "194114.267500", "194114.727500", "194115.187500", "194115.647500", "194116.107500", "194116.567500", "194117.027500", "194117.487500", "194117.947500", "194118.407500", "194118.867500", "194119.327500", "194119.787500", "194120.247500", "194120.707500", "194121.167500", "194121.627500", "194122.087500", "194122.547500", "194123.007500", "194123.467500", "194123.927500", "194124.387500", "194124.847500", "194125.307500", "194125.767500", "194126.227500", "194126.687500", "194127.147500", "194127.607500", "194128.067500", "194128.527500", "194128.987500", "194129.447500", "194129.907500", "194130.367500", "194130.827500", "194131.287500", "194131.747500", "194132.207500", "194132.667500", "194133.127500", "194133.587500", "194134.047500", "194134.507500", "194134.967500", "194135.427500", "194135.887500", "194136.347500", "194136.807500", "194137.267500", "194137.727500", "194138.187500", "194138.647500", "194139.107500", "194139.567500", "194140.027500", "194140.487500", "194140.947500", "194141.407500", "194141.867500", "194142.327500", "194142.787500", "194143.247500", "194143.707500", "194144.167500", "194144.627500", "194145.087500", "194145.547500", "194146.007500", "194146.467500", "194146.927500", "194147.387500", "194147.847500", "194148.307500", "194148.767500", "194149.227500", "194149.687500", "194150.147500", "194150.607500", "194151.067500", "194151.527500", "194151.987500", "194152.447500", "194152.907500", "194153.367500", "194153.827500", "194154.287500", "194154.747500", "194155.207500", "194155.667500", "194156.127500", "194156.587500", "194157.047500", "194157.507500", "194157.967500", "194158.427500", "194158.887500", "194159.347500", "194159.807500", "194200.267500", "194200.727500", "194201.187500", "194201.647500", "194202.107500", "194202.567500", "194203.027500", "194203.487500", "194203.947500", "194204.407500", "194204.867500", "194205.327500", "194205.787500", "194206.247500", "194206.707500", "194207.167500", "194207.627500", "194208.087500", "194208.547500", "194209.007500", "194209.467500", "194209.927500", "194210.387500", "194210.847500", "194211.307500", "194211.767500", "194212.227500", "194212.687500", "194213.147500", "194213.607500", "194214.067500", "194214.527500", "194214.987500", "194215.447500", "194215.907500", "194216.367500", "194216.827500", "194217.287500", "194217.747500", "194218.207500", "194218.667500", "194219.127500", "194219.587500", "194220.047500", "194220.507500", "194220.967500", "194221.427500", "194221.887500", "194222.347500", "194222.807500", "194223.267500", "194223.727500", "194224.187500", "194224.647500", "194225.107500", "194225.567500", "194226.027500", "194226.487500", "194226.947500", "194227.407500", "194227.867500", "194228.327500", "194228.787500", "194229.247500", "194229.707500", "194230.167500", "194230.627500", "194231.087500", "194231.547500", "194232.007500", "194232.467500", "194232.927500", "194233.387500", "194233.847500", "194234.307500", "194234.767500", "194235.227500", "194235.687500", "194236.147500", "194236.607500", "194237.067500", "194237.527500", "194237.987500", "194238.447500", "194238.907500", "194239.367500", "194239.827500", "194240.287500", "194240.747500", "194241.207500", "194241.667500", "194242.127500", "194242.587500", "194243.047500", "194243.507500", "194243.967500", "194244.427500", "194244.887500", "194245.347500", "194245.807500", "194246.267500", "194246.727500", "194247.187500", "194247.647500", "194248.107500", "194248.567500", "194249.027500", "194249.487500", "194249.947500", "194250.407500", "194250.867500", "194251.327500", "194251.787500", "194252.247500", "194252.707500", "194253.167500", "194253.627500", "194254.087500", "194254.547500", "194255.007500", "194255.467500", "194255.927500", "194256.387500", "194256.847500", "194257.307500", "194257.767500", "194258.227500", "194258.687500", "194259.147500", "194259.607500", "194300.067500", "194300.527500", "194300.987500", "194301.447500", "194301.907500", "194302.367500", "194302.827500", "194303.287500", "194303.747500", "194304.207500", "194304.667500", "194305.127500", "194305.587500", "194306.047500", "194306.507500", "194306.967500", "194307.427500", "194307.887500", "194308.347500", "194308.807500", "194309.267500", "194309.727500", "194310.187500", "194310.647500", "194311.107500", "194311.567500", "194312.027500", "194312.487500", "194312.947500", "194313.407500", "194313.867500", "194314.327500", "194314.787500", "194315.247500", "194315.707500", "194316.167500", "194316.627500", "194317.087500", "194317.547500", "194318.007500", "194318.467500", "194318.927500", "194319.387500", "194319.847500", "194320.307500", "194320.767500", "194321.227500", "194321.687500", "194322.147500", "194322.607500", "194323.067500", "194323.527500", "194323.987500", "194324.447500", "194324.907500", "194325.367500", "194325.827500", "194326.287500", "194326.747500", "194327.207500", "194327.667500", "194328.127500", "194328.587500", "194329.047500", "194329.507500", "194329.967500", "194330.427500", "194330.887500", "194331.347500", "194331.807500", "194332.267500", "194332.727500", "194333.187500", "194333.647500", "194334.107500", "194334.567500", "194335.027500", "194335.487500", "194335.947500", "194336.407500", "194336.867500", "194337.327500", "194337.787500", "194338.247500", "194338.707500", "194339.167500", "194339.627500", "194340.087500", "194340.547500", "194341.007500", "194341.467500", "194341.927500", "194342.387500", "194342.847500", "194343.307500", "194343.767500", "194344.227500", "194344.687500", "194345.147500", "194345.607500", "194346.067500", "194346.527500", "194346.987500", "194347.447500", "194347.907500", "194348.367500", "194348.827500", "194349.287500", "194349.747500", "194350.207500", "194350.667500", "194351.127500", "194351.587500", "194352.047500", "194352.507500", "194352.967500", "194353.427500", "194353.887500", "194354.347500", "194354.807500", "194355.267500", "194355.727500", "194356.187500", "194356.647500", "194357.107500", "194357.567500", "194358.027500", "194358.487500", "194358.947500", "194359.407500", "194359.867500", "194400.327500", "194400.787500", "194401.247500", "194401.707500", "194402.167500", "194402.627500", "194403.087500", "194403.547500", "194404.007500", "194404.467500", "194404.927500", "194405.387500", "194405.847500", "194406.307500", "194406.767500", "194407.227500", "194407.687500", "194408.147500", "194408.607500", "194409.067500", "194409.527500", "194409.987500", "194410.447500", "194410.907500", "194411.367500", "194411.827500", "194412.287500", "194412.747500", "194413.207500", "194413.667500", "194414.127500", "194414.587500", "194415.047500", "194415.507500", "194415.967500", "194416.427500", "194416.887500", "194417.347500", "194417.807500", "194418.267500", "194418.727500", "194419.187500", "194419.647500", "194420.107500", "194420.567500", "194421.027500", "194421.487500", "194421.947500", "194422.407500", "194422.867500", "194423.327500", "194423.787500", "194424.247500", "194424.707500", "194425.167500", "194425.627500", "194426.087500", "194426.547500", "194427.007500", "194427.467500", "194427.927500", "194428.387500", "194428.847500", "194429.307500", "194429.767500", "194430.227500", "194430.687500", "194431.147500", "194431.607500", "194432.067500", "194432.527500", "194432.987500", "194433.447500", "194433.907500", "194434.367500", "194434.827500", "194435.287500", "194435.747500", "194436.207500", "194436.667500", "194437.127500", "194437.587500", "194438.047500", "194438.507500", "194438.967500", "194439.427500", "194439.887500", "194440.347500", "194440.807500", "194441.267500", "194441.727500", "194442.187500", "194442.647500", "194443.107500", "194443.567500", "194444.027500", "194444.487500", "194444.947500", "194445.407500", "194445.867500", "194446.327500", "194446.787500", "194447.247500", "194447.707500", "194448.167500", "194448.627500", "194449.087500", "194449.547500", "194450.007500", "194450.467500", "194450.927500", "194451.387500", "194451.847500", "194452.307500", "194452.767500", "194453.227500", "194453.687500", "194454.147500", "194454.607500", "194455.067500", "194455.527500", "194455.987500"],
