{
  "AcquisitionMatrixPE": 82,
  "AcquisitionNumber": 1,
  "AcquisitionTime": "10:19:32.420000",
  "BandwidthPerPixelPhaseEncode": 24.888,
  "BaseResolution": 82,
  "BodyPartExamined": "BRAIN",
  "ConsistencyInfo": "N4_VE11E_LATEST_20181129",
  "ConversionSoftware": "dcm2niix",
  "ConversionSoftwareVersion": "v1.0.20201102",
  "DerivedVendorReportedEchoSpacing": 0.00049,
  "DeviceSerialNumber": "66112",
  "DwellTime": 2e-06,
  "EchoTime": 0.0272,
  "EchoTrainLength": 82,
  "EffectiveEchoSpacing": 0.00049,
  "FlipAngle": 44,
  "ImageComments": "Unaliased MB8/PE3",
  "ImageOrientationPatientDICOM": [0.999564, -0.024909, -0.0158329, 0.0253017, 0.999364, 0.0251074],
  "ImageType": [
    "ORIGINAL",
    "PRIMARY",
    "M",
    "MB",
    "ND",
    "NORM",
    "MOSAIC"
],
  "ImagingFrequency": 123.252,
  "InPlanePhaseEncodingDirectionDICOM": "COL",
  "InstitutionAddress": "Maynard 3,Hanover,NH,US,03755",
  "InstitutionName": "Dartmouth College - PBS",
  "InstitutionalDepartmentName": "Department",
  "MRAcquisitionType": "2D",
  "MagneticFieldStrength": 3,
  "Manufacturer": "Siemens",
  "ManufacturersModelName": "Prisma",
  "Modality": "MR",
  "MultibandAccelerationFactor": 8,
  "PartialFourier": 1,
  "PatientPosition": "HFS",
  "PercentPhaseFOV": 100,
  "PercentSampling": 100,
  "PhaseEncodingDirection": "j-",
  "PhaseEncodingSteps": 82,
  "PhaseResolution": 1,
  "PixelBandwidth": 3050,
  "ProcedureStepDescription": "Wager_Wager^1076_spacetop",
  "ProtocolName": "func_run-04_task-alignvideo_acq-ap-mb8",
  "PulseSequenceDetails": "%CustomerSeq%\\cmrr_mbep2d_bold",
  "ReceiveCoilActiveElements": "HEA;HEP",
  "ReceiveCoilName": "Head_32",
  "ReconMatrixPE": 82,
  "RepetitionTime": 0.46,
  "SAR": 0.0815369,
  "ScanOptions": "FS",
  "ScanningSequence": "EP",
  "SequenceName": "epfid2d1_82",
  "SequenceVariant": "SK\\SS",
  "SeriesDescription": "func_run-04_task-alignvideo_acq-ap-mb8",
  "SeriesNumber": 34,
  "ShimSetting": [4152, -7778, -7192, 512, -10, -125, -15, 76],
  "SliceThickness": 2.7,
  "SliceTiming": [0, 0.2525, 0.0625, 0.315, 0.1275, 0.3775, 0.19, 0, 0.2525, 0.0625, 0.315, 0.1275, 0.3775, 0.19, 0, 0.2525, 0.0625, 0.315, 0.1275, 0.3775, 0.19, 0, 0.2525, 0.0625, 0.315, 0.1275, 0.3775, 0.19, 0, 0.2525, 0.0625, 0.315, 0.1275, 0.3775, 0.19, 0, 0.2525, 0.0625, 0.315, 0.1275, 0.3775, 0.19, 0, 0.2525, 0.0625, 0.315, 0.1275, 0.3775, 0.19, 0, 0.2525, 0.0625, 0.315, 0.1275, 0.3775, 0.19],
  "SoftwareVersions": "syngo MR E11",
  "SpacingBetweenSlices": 2.7,
  "StationName": "AWP66112",
  "TaskName": "alignvideo",
  "TotalReadoutTime": 0.03969,
  "TxRefAmp": 247.857,
  "WipMemBlock": "281c6a49-90df-481d-a3b6-18bc55a91599||Sequence: R016 ve11e/master r/434b28f1; Aug  7 2019 18:53:46 by eja",
  "dcmmeta_affine": [
    [-2.681757926940918, 0.06788259744644165, -0.041033126413822174, 113.50041198730469],
    [0.06682896614074707, 2.6812219619750977, 0.0688420906662941, -94.45052337646484],
    [-0.04247855767607689, -0.06736134737730026, 2.698810338973999, -56.20964431762695],
    [0.0, 0.0, 0.0, 1.0]
],
  "dcmmeta_reorient_transform": [
    [0.0, -1.0, 0.0, 81.0],
    [1.0, 0.0, 0.0, 0.0],
    [0.0, 0.0, 1.0, 0.0],
    [0.0, 0.0, 0.0, 1.0]
],
  "dcmmeta_shape": [82, 82, 56, 914],
  "dcmmeta_slice_dim": 2,
  "dcmmeta_version": 0.6,
  "global": {
    "const": {
      "AccessionNumber": "A004146",
      "AcquisitionMatrix": [82, 0, 0, 82],
      "AngioFlag": "N",
      "BitsAllocated": 16,
      "BitsStored": 16,
      "BodyPartExamined": "BRAIN",
      "Columns": 656,
      "EchoNumbers": 1,
      "EchoTime": 27.2,
      "EchoTrainLength": 82,
      "FlipAngle": 44.0,
      "HighBit": 15,
      "ImageOrientationPatient": [0.99956433591594, -0.0249089769313, -0.0158329161298, 0.02530169432317, 0.99936451917546, 0.02510741080978],
      "ImagePositionPatient": [-908.14576374834, -873.05924104932, -68.80727313383],
      "ImageType": [
        "ORIGINAL",
        "PRIMARY",
        "M",
        "MB",
        "ND",
        "NORM",
        "MOSAIC"
],
      "ImagedNucleus": "1H",
      "ImagingFrequency": 123.252156,
      "InPlanePhaseEncodingDirection": "COL",
      "MRAcquisitionType": "2D",
      "MagneticFieldStrength": 3.0,
      "Manufacturer": "SIEMENS",
      "ManufacturerModelName": "Prisma",
      "Modality": "MR",
      "NumberOfAverages": 1.0,
      "NumberOfPhaseEncodingSteps": 82,
      "PercentPhaseFieldOfView": 100.0,
      "PercentSampling": 100.0,
      "PerformedProcedureStepStartTime": "082517.669000",
      "PhotometricInterpretation": "MONOCHROME2",
      "PixelBandwidth": 3050.0,
      "PixelRepresentation": 0,
      "PixelSpacing": [2.6829268932343, 2.6829268932343],
      "ProtocolName": "func_run-04_task-alignvideo_acq-ap-mb8",
      "RepetitionTime": 460.0,
      "Rows": 656,
      "SAR": 0.08153685550461,
      "SamplesPerPixel": 1,
      "ScanOptions": "FS",
      "ScanningSequence": "EP",
      "SequenceName": "epfid2d1_82",
      "SequenceVariant": [
        "SK",
        "SS"
],
      "SeriesDescription": "func_run-04_task-alignvideo_acq-ap-mb8",
      "SeriesNumber": 34,
      "SeriesTime": "101959.049000",
      "SliceLocation": -60.318004432551,
      "SliceThickness": 2.7000000476837,
      "SmallestImagePixelValue": 0,
      "SoftwareVersions": "syngo MR E11",
      "SpacingBetweenSlices": 2.6999999977656,
      "SpecificCharacterSet": "ISO_IR 100",
      "StudyID": "2",
      "StudyTime": "082517.524000",
      "TransmitCoilName": "Body",
      "VariableFlipAngleFlag": "N",
      "WindowCenterWidthExplanation": "Algo1"
    },
    "slices": {}
  },
  "time": {
    "samples": {
      "AcquisitionNumber": [1, 2, 3, 4, 5, 6, 7, 8, 9, 10, 11, 12, 13, 14, 15, 16, 17, 18, 19, 20, 21, 22, 23, 24, 25, 26, 27, 28, 29, 30, 31, 32, 33, 34, 35, 36, 37, 38, 39, 40, 41, 42, 43, 44, 45, 46, 47, 48, 49, 50, 51, 52, 53, 54, 55, 56, 57, 58, 59, 60, 61, 62, 63, 64, 65, 66, 67, 68, 69, 70, 71, 72, 73, 74, 75, 76, 77, 78, 79, 80, 81, 82, 83, 84, 85, 86, 87, 88, 89, 90, 91, 92, 93, 94, 95, 96, 97, 98, 99, 100, 101, 102, 103, 104, 105, 106, 107, 108, 109, 110, 111, 112, 113, 114, 115, 116, 117, 118, 119, 120, 121, 122, 123, 124, 125, 126, 127, 128, 129, 130, 131, 132, 133, 134, 135, 136, 137, 138, 139, 140, 141, 142, 143, 144, 145, 146, 147, 148, 149, 150, 151, 152, 153, 154, 155, 156, 157, 158, 159, 160, 161, 162, 163, 164, 165, 166, 167, 168, 169, 170, 171, 172, 173, 174, 175, 176, 177, 178, 179, 180, 181, 182, 183, 184, 185, 186, 187, 188, 189, 190, 191, 192, 193, 194, 195, 196, 197, 198, 199, 200, 201, 202, 203, 204, 205, 206, 207, 208, 209, 210, 211, 212, 213, 214, 215, 216, 217, 218, 219, 220, 221, 222, 223, 224, 225, 226, 227, 228, 229, 230, 231, 232, 233, 234, 235, 236, 237, 238, 239, 240, 241, 242, 243, 244, 245, 246, 247, 248, 249, 250, 251, 252, 253, 254, 255, 256, 257, 258, 259, 260, 261, 262, 263, 264, 265, 266, 267, 268, 269, 270, 271, 272, 273, 274, 275, 276, 277, 278, 279, 280, 281, 282, 283, 284, 285, 286, 287, 288, 289, 290, 291, 292, 293, 294, 295, 296, 297, 298, 299, 300, 301, 302, 303, 304, 305, 306, 307, 308, 309, 310, 311, 312, 313, 314, 315, 316, 317, 318, 319, 320, 321, 322, 323, 324, 325, 326, 327, 328, 329, 330, 331, 332, 333, 334, 335, 336, 337, 338, 339, 340, 341, 342, 343, 344, 345, 346, 347, 348, 349, 350, 351, 352, 353, 354, 355, 356, 357, 358, 359, 360, 361, 362, 363, 364, 365, 366, 367, 368, 369, 370, 371, 372, 373, 374, 375, 376, 377, 378, 379, 380, 381, 382, 383, 384, 385, 386, 387, 388, 389, 390, 391, 392, 393, 394, 395, 396, 397, 398, 399, 400, 401, 402, 403, 404, 405, 406, 407, 408, 409, 410, 411, 412, 413, 414, 415, 416, 417, 418, 419, 420, 421, 422, 423, 424, 425, 426, 427, 428, 429, 430, 431, 432, 433, 434, 435, 436, 437, 438, 439, 440, 441, 442, 443, 444, 445, 446, 447, 448, 449, 450, 451, 452, 453, 454, 455, 456, 457, 458, 459, 460, 461, 462, 463, 464, 465, 466, 467, 468, 469, 470, 471, 472, 473, 474, 475, 476, 477, 478, 479, 480, 481, 482, 483, 484, 485, 486, 487, 488, 489, 490, 491, 492, 493, 494, 495, 496, 497, 498, 499, 500, 501, 502, 503, 504, 505, 506, 507, 508, 509, 510, 511, 512, 513, 514, 515, 516, 517, 518, 519, 520, 521, 522, 523, 524, 525, 526, 527, 528, 529, 530, 531, 532, 533, 534, 535, 536, 537, 538, 539, 540, 541, 542, 543, 544, 545, 546, 547, 548, 549, 550, 551, 552, 553, 554, 555, 556, 557, 558, 559, 560, 561, 562, 563, 564, 565, 566, 567, 568, 569, 570, 571, 572, 573, 574, 575, 576, 577, 578, 579, 580, 581, 582, 583, 584, 585, 586, 587, 588, 589, 590, 591, 592, 593, 594, 595, 596, 597, 598, 599, 600, 601, 602, 603, 604, 605, 606, 607, 608, 609, 610, 611, 612, 613, 614, 615, 616, 617, 618, 619, 620, 621, 622, 623, 624, 625, 626, 627, 628, 629, 630, 631, 632, 633, 634, 635, 636, 637, 638, 639, 640, 641, 642, 643, 644, 645, 646, 647, 648, 649, 650, 651, 652, 653, 654, 655, 656, 657, 658, 659, 660, 661, 662, 663, 664, 665, 666, 667, 668, 669, 670, 671, 672, 673, 674, 675, 676, 677, 678, 679, 680, 681, 682, 683, 684, 685, 686, 687, 688, 689, 690, 691, 692, 693, 694, 695, 696, 697, 698, 699, 700, 701, 702, 703, 704, 705, 706, 707, 708, 709, 710, 711, 712, 713, 714, 715, 716, 717, 718, 719, 720, 721, 722, 723, 724, 725, 726, 727, 728, 729, 730, 731, 732, 733, 734, 735, 736, 737, 738, 739, 740, 741, 742, 743, 744, 745, 746, 747, 748, 749, 750, 751, 752, 753, 754, 755, 756, 757, 758, 759, 760, 761, 762, 763, 764, 765, 766, 767, 768, 769, 770, 771, 772, 773, 774, 775, 776, 777, 778, 779, 780, 781, 782, 783, 784, 785, 786, 787, 788, 789, 790, 791, 792, 793, 794, 795, 796, 797, 798, 799, 800, 801, 802, 803, 804, 805, 806, 807, 808, 809, 810, 811, 812, 813, 814, 815, 816, 817, 818, 819, 820, 821, 822, 823, 824, 825, 826, 827, 828, 829, 830, 831, 832, 833, 834, 835, 836, 837, 838, 839, 840, 841, 842, 843, 844, 845, 846, 847, 848, 849, 850, 851, 852, 853, 854, 855, 856, 857, 858, 859, 860, 861, 862, 863, 864, 865, 866, 867, 868, 869, 870, 871, 872, 873, 874, 875, 876, 877, 878, 879, 880, 881, 882, 883, 884, 885, 886, 887, 888, 889, 890, 891, 892, 893, 894, 895, 896, 897, 898, 899, 900, 901, 902, 903, 904, 905, 906, 907, 908, 909, 910, 911, 912, 913, 914],
      "AcquisitionTime": ["101932.420000", "101932.880000", "101933.340000", "101933.800000", "101934.260000", "101934.720000", "101935.180000", "101935.640000", "101936.100000", "101936.560000", "101937.020000", "101937.480000", "101937.940000", "101938.400000", "101938.860000", "101939.320000", "101939.780000", "101940.240000", "101940.700000", "101941.160000", "101941.620000", "101942.080000", "101942.540000", "101943.000000", "101943.460000", "101943.920000", "101944.380000", "101944.840000", "101945.300000", "101945.760000", "101946.220000", "101946.680000", "101947.140000", "101947.600000", "101948.060000", "101948.520000", "101948.980000", "101949.440000", "101949.900000", "101950.360000", "101950.820000", "101951.280000", "101951.740000", "101952.200000", "101952.660000", "101953.120000", "101953.580000", "101954.040000", "101954.500000", "101954.960000", "101955.420000", "101955.880000", "101956.340000", "101956.800000", "101957.260000", "101957.720000", "101958.180000", "101958.640000", "101959.100000", "101959.560000", "102000.020000", "102000.480000", "102000.940000", "102001.400000", "102001.860000", "102002.320000", "102002.780000", "102003.240000", "102003.700000", "102004.160000", "102004.620000", "102005.080000", "102005.540000", "102006.000000", "102006.460000", "102006.920000", "102007.380000", "102007.840000", "102008.300000", "102008.760000", "102009.220000", "102009.680000", "102010.140000", "102010.600000", "102011.060000", "102011.520000", "102011.980000", "102012.440000", "102012.900000", "102013.360000", "102013.820000", "102014.280000", "102014.740000", "102015.200000", "102015.660000", "102016.120000", "102016.580000", "102017.040000", "102017.500000", "102017.960000", "102018.420000", "102018.880000", "102019.340000", "102019.800000", "102020.260000", "102020.720000", "102021.180000", "102021.640000", "102022.100000", "102022.560000", "102023.020000", "102023.480000", "102023.940000", "102024.400000", "102024.860000", "102025.320000", "102025.780000", "102026.240000", "102026.700000", "102027.160000", "102027.620000", "102028.080000", "102028.540000", "102029.000000", "102029.460000", "102029.920000", "102030.380000", "102030.840000", "102031.300000", "102031.760000", "102032.220000", "102032.680000", "102033.140000", "102033.600000", "102034.060000", "102034.520000", "102034.980000", "102035.440000", "102035.900000", "102036.360000", "102036.820000", "102037.280000", "102037.740000", "102038.200000", "102038.660000", "102039.120000", "102039.580000", "102040.040000", "102040.500000", "102040.960000", "102041.420000", "102041.880000", "102042.340000", "102042.800000", "102043.260000", "102043.720000", "102044.180000", "102044.640000", "102045.100000", "102045.560000", "102046.020000", "102046.480000", "102046.940000", "102047.400000", "102047.860000", "102048.320000", "102048.780000", "102049.240000", "102049.700000", "102050.160000", "102050.620000", "102051.080000", "102051.540000", "102052.000000", "102052.460000", "102052.920000", "102053.380000", "102053.840000", "102054.300000", "102054.760000", "102055.220000", "102055.680000", "102056.140000", "102056.600000", "102057.060000", "102057.520000", "102057.980000", "102058.440000", "102058.900000", "102059.360000", "102059.820000", "102100.280000", "102100.740000", "102101.200000", "102101.660000", "102102.120000", "102102.580000", "102103.040000", "102103.500000", "102103.960000", "102104.420000", "102104.880000", "102105.340000", "102105.800000", "102106.260000", "102106.720000", "102107.180000", "102107.640000", "102108.100000", "102108.560000", "102109.020000", "102109.480000", "102109.940000", "102110.400000", "102110.860000", "102111.320000", "102111.780000", "102112.240000", "102112.700000", "102113.160000", "102113.620000", "102114.080000", "102114.540000", "102115.000000", "102115.460000", "102115.920000", "102116.380000", "102116.840000", "102117.300000", "102117.760000", "102118.220000", "102118.680000", "102119.140000", "102119.600000", "102120.060000", "102120.520000", "102120.980000", "102121.440000", "102121.900000", "102122.360000", "102122.820000", "102123.280000", "102123.740000", "102124.200000", "102124.660000", "102125.120000", "102125.580000", "102126.040000", "102126.500000", "102126.960000", "102127.420000", "102127.880000", "102128.340000", "102128.800000", "102129.260000", "102129.720000", "102130.180000", "102130.640000", "102131.100000", "102131.560000", "102132.020000", "102132.480000", "102132.940000", "102133.400000", "102133.860000", "102134.320000", "102134.780000", "102135.240000", "102135.700000", "102136.160000", "102136.620000", "102137.080000", "102137.540000", "102138.000000", "102138.460000", "102138.920000", "102139.380000", "102139.840000", "102140.300000", "102140.760000", "102141.220000", "102141.680000", "102142.140000", "102142.600000", "102143.060000", "102143.520000", "102143.980000", "102144.440000", "102144.900000", "102145.360000", "102145.820000", "102146.280000", "102146.740000", "102147.200000", "102147.660000", "102148.120000", "102148.580000", "102149.040000", "102149.500000", "102149.960000", "102150.420000", "102150.880000", "102151.340000", "102151.800000", "102152.260000", "102152.720000", "102153.180000", "102153.640000", "102154.100000", "102154.560000", "102155.020000", "102155.480000", "102155.940000", "102156.400000", "102156.860000", "102157.320000", "102157.780000", "102158.240000", "102158.700000", "102159.160000", "102159.620000", "102200.080000", "102200.540000", "102201.000000", "102201.460000", "102201.920000", "102202.380000", "102202.840000", "102203.300000", "102203.760000", "102204.220000", "102204.680000", "102205.140000", "102205.600000", "102206.060000", "102206.520000", "102206.980000", "102207.440000", "102207.900000", "102208.360000", "102208.820000", "102209.280000", "102209.740000", "102210.200000", "102210.660000", "102211.120000", "102211.580000", "102212.040000", "102212.500000", "102212.960000", "102213.420000", "102213.880000", "102214.340000", "102214.800000", "102215.260000", "102215.720000", "102216.180000", "102216.640000", "102217.100000", "102217.560000", "102218.020000", "102218.480000", "102218.940000", "102219.400000", "102219.860000", "102220.320000", "102220.780000", "102221.240000", "102221.700000", "102222.160000", "102222.620000", "102223.080000", "102223.540000", "102224.000000", "102224.460000", "102224.920000", "102225.380000", "102225.840000", "102226.300000", "102226.760000", "102227.220000", "102227.680000", "102228.140000", "102228.600000", "102229.060000", "102229.520000", "102229.980000", "102230.440000", "102230.900000", "102231.360000", "102231.820000", "102232.280000", "102232.740000", "102233.200000", "102233.660000", "102234.120000", "102234.580000", "102235.040000", "102235.500000", "102235.960000", "102236.420000", "102236.880000", "102237.340000", "102237.800000", "102238.260000", "102238.720000", "102239.180000", "102239.640000", "102240.100000", "102240.560000", "102241.020000", "102241.480000", "102241.940000", "102242.400000", "102242.860000", "102243.320000", "102243.780000", "102244.240000", "102244.700000", "102245.160000", "102245.620000", "102246.080000", "102246.540000", "102247.000000", "102247.460000", "102247.920000", "102248.380000", "102248.840000", "102249.300000", "102249.760000", "102250.220000", "102250.680000", "102251.140000", "102251.600000", "102252.060000", "102252.520000", "102252.980000", "102253.440000", "102253.900000", "102254.360000", "102254.820000", "102255.280000", "102255.740000", "102256.200000", "102256.660000", "102257.120000", "102257.580000", "102258.040000", "102258.500000", "102258.960000", "102259.420000", "102259.880000", "102300.340000", "102300.800000", "102301.260000", "102301.720000", "102302.180000", "102302.640000", "102303.100000", "102303.560000", "102304.020000", "102304.480000", "102304.940000", "102305.400000", "102305.860000", "102306.320000", "102306.780000", "102307.240000", "102307.700000", "102308.160000", "102308.620000", "102309.080000", "102309.540000", "102310.000000", "102310.460000", "102310.920000", "102311.380000", "102311.840000", "102312.300000", "102312.760000", "102313.220000", "102313.680000", "102314.140000", "102314.600000", "102315.060000", "102315.520000", "102315.980000", "102316.440000", "102316.900000", "102317.360000", "102317.820000", "102318.280000", "102318.740000", "102319.200000", "102319.660000", "102320.120000", "102320.580000", "102321.040000", "102321.500000", "102321.960000", "102322.420000", "102322.880000", "102323.340000", "102323.800000", "102324.260000", "102324.720000", "102325.180000", "102325.640000", "102326.100000", "102326.560000", "102327.020000", "102327.480000", "102327.940000", "102328.400000", "102328.860000", "102329.320000", "102329.780000", "102330.240000", "102330.700000", "102331.160000", "102331.620000", "102332.080000", "102332.540000", "102333.000000", "102333.460000", "102333.920000", "102334.380000", "102334.840000", "102335.300000", "102335.760000", "102336.220000", "102336.680000", "102337.140000", "102337.600000", "102338.060000", "102338.520000", "102338.980000", "102339.440000", "102339.900000", "102340.360000", "102340.820000", "102341.280000", "102341.740000", "102342.200000", "102342.660000", "102343.120000", "102343.580000", "102344.040000", "102344.500000", "102344.960000", "102345.420000", "102345.880000", "102346.340000", "102346.800000", "102347.260000", "102347.720000", "102348.180000", "102348.640000", "102349.100000", "102349.560000", "102350.020000", "102350.480000", "102350.940000", "102351.400000", "102351.860000", "102352.320000", "102352.780000", "102353.240000", "102353.700000", "102354.160000", "102354.620000", "102355.080000", "102355.540000", "102356.000000", "102356.460000", "102356.920000", "102357.380000", "102357.840000", "102358.300000", "102358.760000", "102359.220000", "102359.680000", "102400.140000", "102400.600000", "102401.060000", "102401.520000", "102401.980000", "102402.440000", "102402.900000", "102403.360000", "102403.820000", "102404.280000", "102404.740000", "102405.200000", "102405.660000", "102406.120000", "102406.580000", "102407.040000", "102407.500000", "102407.960000", "102408.420000", "102408.880000", "102409.340000", "102409.800000", "102410.260000", "102410.720000", "102411.180000", "102411.640000", "102412.100000", "102412.560000", "102413.020000", "102413.480000", "102413.940000", "102414.400000", "102414.860000", "102415.320000", "102415.780000", "102416.240000", "102416.700000", "102417.160000", "102417.620000", "102418.080000", "102418.540000", "102419.000000", "102419.460000", "102419.920000", "102420.380000", "102420.840000", "102421.300000", "102421.760000", "102422.220000", "102422.680000", "102423.140000", "102423.600000", "102424.060000", "102424.520000", "102424.980000", "102425.440000", "102425.900000", "102426.360000", "102426.820000", "102427.280000", "102427.740000", "102428.200000", "102428.660000", "102429.120000", "102429.580000", "102430.040000", "102430.500000", "102430.960000", "102431.420000", "102431.880000", "102432.340000", "102432.800000", "102433.260000", "102433.720000", "102434.180000", "102434.640000", "102435.100000", "102435.560000", "102436.020000", "102436.480000", "102436.940000", "102437.400000", "102437.860000", "102438.320000", "102438.780000", "102439.240000", "102439.700000", "102440.160000", "102440.620000", "102441.080000", "102441.540000", "102442.000000", "102442.460000", "102442.920000", "102443.380000", "102443.840000", "102444.300000", "102444.760000", "102445.220000", "102445.680000", "102446.140000", "102446.600000", "102447.060000", "102447.520000", "102447.980000", "102448.440000", "102448.900000", "102449.360000", "102449.820000", "102450.280000", "102450.740000", "102451.200000", "102451.660000", "102452.120000", "102452.580000", "102453.040000", "102453.500000", "102453.960000", "102454.420000", "102454.880000", "102455.340000", "102455.800000", "102456.260000", "102456.720000", "102457.180000", "102457.640000", "102458.100000", "102458.560000", "102459.020000", "102459.480000", "102459.940000", "102500.400000", "102500.860000", "102501.320000", "102501.780000", "102502.240000", "102502.700000", "102503.160000", "102503.620000", "102504.080000", "102504.540000", "102505.000000", "102505.460000", "102505.920000", "102506.380000", "102506.840000", "102507.300000", "102507.760000", "102508.220000", "102508.680000", "102509.140000", "102509.600000", "102510.060000", "102510.520000", "102510.980000", "102511.440000", "102511.900000", "102512.360000", "102512.820000", "102513.280000", "102513.740000", "102514.200000", "102514.660000", "102515.120000", "102515.580000", "102516.040000", "102516.500000", "102516.960000", "102517.420000", "102517.880000", "102518.340000", "102518.800000", "102519.260000", "102519.720000", "102520.180000", "102520.640000", "102521.100000", "102521.560000", "102522.020000", "102522.480000", "102522.940000", "102523.400000", "102523.860000", "102524.320000", "102524.780000", "102525.240000", "102525.700000", "102526.160000", "102526.620000", "102527.080000", "102527.540000", "102528.000000", "102528.460000", "102528.920000", "102529.380000", "102529.840000", "102530.300000", "102530.760000", "102531.220000", "102531.680000", "102532.140000", "102532.600000", "102533.060000", "102533.520000", "102533.980000", "102534.440000", "102534.900000", "102535.360000", "102535.820000", "102536.280000", "102536.740000", "102537.200000", "102537.660000", "102538.120000", "102538.580000", "102539.040000", "102539.500000", "102539.960000", "102540.420000", "102540.880000", "102541.340000", "102541.800000", "102542.260000", "102542.720000", "102543.180000", "102543.640000", "102544.100000", "102544.560000", "102545.020000", "102545.480000", "102545.940000", "102546.400000", "102546.860000", "102547.320000", "102547.780000", "102548.240000", "102548.700000", "102549.160000", "102549.620000", "102550.080000", "102550.540000", "102551.000000", "102551.460000", "102551.920000", "102552.380000", "102552.840000", "102553.300000", "102553.760000", "102554.220000", "102554.680000", "102555.140000", "102555.600000", "102556.060000", "102556.520000", "102556.980000", "102557.440000", "102557.900000", "102558.360000", "102558.820000", "102559.280000", "102559.740000", "102600.200000", "102600.660000", "102601.120000", "102601.580000", "102602.040000", "102602.500000", "102602.960000", "102603.420000", "102603.880000", "102604.340000", "102604.800000", "102605.260000", "102605.720000", "102606.180000", "102606.640000", "102607.100000", "102607.560000", "102608.020000", "102608.480000", "102608.940000", "102609.400000", "102609.860000", "102610.320000", "102610.780000", "102611.240000", "102611.700000", "102612.160000", "102612.620000", "102613.080000", "102613.540000", "102614.000000", "102614.460000", "102614.920000", "102615.380000", "102615.840000", "102616.300000", "102616.760000", "102617.220000", "102617.680000", "102618.140000", "102618.600000", "102619.060000", "102619.520000", "102619.980000", "102620.440000", "102620.900000", "102621.360000", "102621.820000", "102622.280000", "102622.740000", "102623.200000", "102623.660000", "102624.120000", "102624.580000", "102625.040000", "102625.500000", "102625.960000", "102626.420000", "102626.880000", "102627.340000", "102627.800000", "102628.260000", "102628.720000", "102629.180000", "102629.640000", "102630.100000", "102630.560000", "102631.020000", "102631.480000", "102631.940000", "102632.400000"],
