{
  "AcquisitionMatrixPE": 82,
  "AcquisitionNumber": 1,
  "AcquisitionTime": "08:55:3.072500",
  "BandwidthPerPixelPhaseEncode": 24.888,
  "BaseResolution": 82,
  "BodyPartExamined": "BRAIN",
  "ConsistencyInfo": "N4_VE11E_LATEST_20181129",
  "ConversionSoftware": "dcm2niix",
  "ConversionSoftwareVersion": "v1.0.20201102",
  "DerivedVendorReportedEchoSpacing": 0.00049,
  "DeviceSerialNumber": "66112",
  "DwellTime": 2e-06,
  "EchoTime": 0.0272,
  "EchoTrainLength": 82,
  "EffectiveEchoSpacing": 0.00049,
  "FlipAngle": 44,
  "ImageComments": "Unaliased MB8/PE3",
  "ImageOrientationPatientDICOM": [0.999959, -0.00907895, 0.000288518, 0.00907565, 0.99991, 0.00989767],
  "ImageType": [
    "ORIGINAL",
    "PRIMARY",
    "M",
    "MB",
    "ND",
    "NORM",
    "MOSAIC"
],
  "ImagingFrequency": 123.252,
  "InPlanePhaseEncodingDirectionDICOM": "COL",
  "InstitutionAddress": "Maynard 3,Hanover,NH,US,03755",
  "InstitutionName": "Dartmouth College - PBS",
  "InstitutionalDepartmentName": "Department",
  "MRAcquisitionType": "2D",
  "MagneticFieldStrength": 3,
  "Manufacturer": "Siemens",
  "ManufacturersModelName": "Prisma",
  "Modality": "MR",
  "MultibandAccelerationFactor": 8,
  "PartialFourier": 1,
  "PatientPosition": "HFS",
  "PercentPhaseFOV": 100,
  "PercentSampling": 100,
  "PhaseEncodingDirection": "j-",
  "PhaseEncodingSteps": 82,
  "PhaseResolution": 1,
  "PixelBandwidth": 3050,
  "ProcedureStepDescription": "Wager_Wager^1076_spacetop",
  "ProtocolName": "func_run-02_task-narratives_acq-ap-mb8",
  "PulseSequenceDetails": "%CustomerSeq%\\cmrr_mbep2d_bold",
  "ReceiveCoilActiveElements": "HEA;HEP",
  "ReceiveCoilName": "Head_32",
  "ReconMatrixPE": 82,
  "RepetitionTime": 0.46,
  "SAR": 0.0816181,
  "ScanOptions": "FS",
  "ScanningSequence": "EP",
  "SequenceName": "epfid2d1_82",
  "SequenceVariant": "SK\\SS",
  "SeriesDescription": "func_run-02_task-narratives_acq-ap-mb8",
  "SeriesNumber": 10,
  "ShimSetting": [4152, -7775, -7192, 512, -11, -114, -17, 80],
  "SliceThickness": 2.7,
  "SliceTiming": [0, 0.2525, 0.0625, 0.315, 0.125, 0.3775, 0.19, 0, 0.2525, 0.0625, 0.315, 0.125, 0.3775, 0.19, 0, 0.2525, 0.0625, 0.315, 0.125, 0.3775, 0.19, 0, 0.2525, 0.0625, 0.315, 0.125, 0.3775, 0.19, 0, 0.2525, 0.0625, 0.315, 0.125, 0.3775, 0.19, 0, 0.2525, 0.0625, 0.315, 0.125, 0.3775, 0.19, 0, 0.2525, 0.0625, 0.315, 0.125, 0.3775, 0.19, 0, 0.2525, 0.0625, 0.315, 0.125, 0.3775, 0.19],
  "SoftwareVersions": "syngo MR E11",
  "SpacingBetweenSlices": 2.7,
  "StationName": "AWP66112",
  "TaskName": "narratives",
  "TotalReadoutTime": 0.03969,
  "TxRefAmp": 247.857,
  "WipMemBlock": "8c45212c-652f-442e-9005-1a724ca0816f||Sequence: R016 ve11e/master r/434b28f1; Aug  7 2019 18:53:46 by eja",
  "dcmmeta_affine": [
    [-2.68281626701355, 0.024349303916096687, 0.001021551783196628, 114.04316711425781],
    [0.024358157068490982, 2.682684898376465, 0.026715539395809174, -90.88227844238281],
    [0.0007740728906355798, -0.02655472792685032, 2.6998677253723145, -57.895023345947266],
    [0.0, 0.0, 0.0, 1.0]
],
  "dcmmeta_reorient_transform": [
    [0.0, -1.0, 0.0, 81.0],
    [1.0, 0.0, 0.0, 0.0],
    [0.0, 0.0, 1.0, 0.0],
    [0.0, 0.0, 0.0, 1.0]
],
  "dcmmeta_shape": [82, 82, 56, 1098],
  "dcmmeta_slice_dim": 2,
  "dcmmeta_version": 0.6,
  "global": {
    "const": {
      "AccessionNumber": "A004146",
      "AcquisitionMatrix": [82, 0, 0, 82],
      "AngioFlag": "N",
      "BitsAllocated": 16,
      "BitsStored": 16,
      "BodyPartExamined": "BRAIN",
      "Columns": 656,
      "EchoNumbers": 1,
      "EchoTime": 27.2,
      "EchoTrainLength": 82,
      "FlipAngle": 44.0,
      "HighBit": 15,
      "ImageOrientationPatient": [0.99995874386832, -0.0090789492023, 0.00028851807856, 0.00907564932508, 0.99990983028118, 0.00989767126095],
      "ImagePositionPatient": [-892.97196515146, -889.35500328205, -67.889322906706],
      "ImageType": [
        "ORIGINAL",
        "PRIMARY",
        "M",
        "MB",
        "ND",
        "NORM",
        "MOSAIC"
],
      "ImagedNucleus": "1H",
      "ImagingFrequency": 123.252134,
      "InPlanePhaseEncodingDirection": "COL",
      "MRAcquisitionType": "2D",
      "MagneticFieldStrength": 3.0,
      "Manufacturer": "SIEMENS",
      "ManufacturerModelName": "Prisma",
      "Modality": "MR",
      "NumberOfAverages": 1.0,
      "NumberOfPhaseEncodingSteps": 82,
      "PercentPhaseFieldOfView": 100.0,
      "PercentSampling": 100.0,
      "PerformedProcedureStepStartTime": "082517.669000",
      "PhotometricInterpretation": "MONOCHROME2",
      "PixelBandwidth": 3050.0,
      "PixelRepresentation": 0,
      "PixelSpacing": [2.6829268932343, 2.6829268932343],
      "ProtocolName": "func_run-02_task-narratives_acq-ap-mb8",
      "RepetitionTime": 460.0,
      "Rows": 656,
      "SAR": 0.0816180695612,
      "SamplesPerPixel": 1,
      "ScanOptions": "FS",
      "ScanningSequence": "EP",
      "SequenceName": "epfid2d1_82",
      "SequenceVariant": [
        "SK",
        "SS"
],
      "SeriesDescription": "func_run-02_task-narratives_acq-ap-mb8",
      "SeriesNumber": 10,
      "SeriesTime": "085519.048000",
      "SliceLocation": -58.74828492538,
      "SliceThickness": 2.7000000476837,
      "SmallestImagePixelValue": 0,
      "SoftwareVersions": "syngo MR E11",
      "SpacingBetweenSlices": 2.700000031555,
      "SpecificCharacterSet": "ISO_IR 100",
      "StudyID": "2",
      "StudyTime": "082517.524000",
      "TransmitCoilName": "Body",
      "VariableFlipAngleFlag": "N",
      "WindowCenterWidthExplanation": "Algo1"
    },
    "slices": {}
  },
  "time": {
    "samples": {
      "AcquisitionNumber": [1, 2, 3, 4, 5, 6, 7, 8, 9, 10, 11, 12, 13, 14, 15, 16, 17, 18, 19, 20, 21, 22, 23, 24, 25, 26, 27, 28, 29, 30, 31, 32, 33, 34, 35, 36, 37, 38, 39, 40, 41, 42, 43, 44, 45, 46, 47, 48, 49, 50, 51, 52, 53, 54, 55, 56, 57, 58, 59, 60, 61, 62, 63, 64, 65, 66, 67, 68, 69, 70, 71, 72, 73, 74, 75, 76, 77, 78, 79, 80, 81, 82, 83, 84, 85, 86, 87, 88, 89, 90, 91, 92, 93, 94, 95, 96, 97, 98, 99, 100, 101, 102, 103, 104, 105, 106, 107, 108, 109, 110, 111, 112, 113, 114, 115, 116, 117, 118, 119, 120, 121, 122, 123, 124, 125, 126, 127, 128, 129, 130, 131, 132, 133, 134, 135, 136, 137, 138, 139, 140, 141, 142, 143, 144, 145, 146, 147, 148, 149, 150, 151, 152, 153, 154, 155, 156, 157, 158, 159, 160, 161, 162, 163, 164, 165, 166, 167, 168, 169, 170, 171, 172, 173, 174, 175, 176, 177, 178, 179, 180, 181, 182, 183, 184, 185, 186, 187, 188, 189, 190, 191, 192, 193, 194, 195, 196, 197, 198, 199, 200, 201, 202, 203, 204, 205, 206, 207, 208, 209, 210, 211, 212, 213, 214, 215, 216, 217, 218, 219, 220, 221, 222, 223, 224, 225, 226, 227, 228, 229, 230, 231, 232, 233, 234, 235, 236, 237, 238, 239, 240, 241, 242, 243, 244, 245, 246, 247, 248, 249, 250, 251, 252, 253, 254, 255, 256, 257, 258, 259, 260, 261, 262, 263, 264, 265, 266, 267, 268, 269, 270, 271, 272, 273, 274, 275, 276, 277, 278, 279, 280, 281, 282, 283, 284, 285, 286, 287, 288, 289, 290, 291, 292, 293, 294, 295, 296, 297, 298, 299, 300, 301, 302, 303, 304, 305, 306, 307, 308, 309, 310, 311, 312, 313, 314, 315, 316, 317, 318, 319, 320, 321, 322, 323, 324, 325, 326, 327, 328, 329, 330, 331, 332, 333, 334, 335, 336, 337, 338, 339, 340, 341, 342, 343, 344, 345, 346, 347, 348, 349, 350, 351, 352, 353, 354, 355, 356, 357, 358, 359, 360, 361, 362, 363, 364, 365, 366, 367, 368, 369, 370, 371, 372, 373, 374, 375, 376, 377, 378, 379, 380, 381, 382, 383, 384, 385, 386, 387, 388, 389, 390, 391, 392, 393, 394, 395, 396, 397, 398, 399, 400, 401, 402, 403, 404, 405, 406, 407, 408, 409, 410, 411, 412, 413, 414, 415, 416, 417, 418, 419, 420, 421, 422, 423, 424, 425, 426, 427, 428, 429, 430, 431, 432, 433, 434, 435, 436, 437, 438, 439, 440, 441, 442, 443, 444, 445, 446, 447, 448, 449, 450, 451, 452, 453, 454, 455, 456, 457, 458, 459, 460, 461, 462, 463, 464, 465, 466, 467, 468, 469, 470, 471, 472, 473, 474, 475, 476, 477, 478, 479, 480, 481, 482, 483, 484, 485, 486, 487, 488, 489, 490, 491, 492, 493, 494, 495, 496, 497, 498, 499, 500, 501, 502, 503, 504, 505, 506, 507, 508, 509, 510, 511, 512, 513, 514, 515, 516, 517, 518, 519, 520, 521, 522, 523, 524, 525, 526, 527, 528, 529, 530, 531, 532, 533, 534, 535, 536, 537, 538, 539, 540, 541, 542, 543, 544, 545, 546, 547, 548, 549, 550, 551, 552, 553, 554, 555, 556, 557, 558, 559, 560, 561, 562, 563, 564, 565, 566, 567, 568, 569, 570, 571, 572, 573, 574, 575, 576, 577, 578, 579, 580, 581, 582, 583, 584, 585, 586, 587, 588, 589, 590, 591, 592, 593, 594, 595, 596, 597, 598, 599, 600, 601, 602, 603, 604, 605, 606, 607, 608, 609, 610, 611, 612, 613, 614, 615, 616, 617, 618, 619, 620, 621, 622, 623, 624, 625, 626, 627, 628, 629, 630, 631, 632, 633, 634, 635, 636, 637, 638, 639, 640, 641, 642, 643, 644, 645, 646, 647, 648, 649, 650, 651, 652, 653, 654, 655, 656, 657, 658, 659, 660, 661, 662, 663, 664, 665, 666, 667, 668, 669, 670, 671, 672, 673, 674, 675, 676, 677, 678, 679, 680, 681, 682, 683, 684, 685, 686, 687, 688, 689, 690, 691, 692, 693, 694, 695, 696, 697, 698, 699, 700, 701, 702, 703, 704, 705, 706, 707, 708, 709, 710, 711, 712, 713, 714, 715, 716, 717, 718, 719, 720, 721, 722, 723, 724, 725, 726, 727, 728, 729, 730, 731, 732, 733, 734, 735, 736, 737, 738, 739, 740, 741, 742, 743, 744, 745, 746, 747, 748, 749, 750, 751, 752, 753, 754, 755, 756, 757, 758, 759, 760, 761, 762, 763, 764, 765, 766, 767, 768, 769, 770, 771, 772, 773, 774, 775, 776, 777, 778, 779, 780, 781, 782, 783, 784, 785, 786, 787, 788, 789, 790, 791, 792, 793, 794, 795, 796, 797, 798, 799, 800, 801, 802, 803, 804, 805, 806, 807, 808, 809, 810, 811, 812, 813, 814, 815, 816, 817, 818, 819, 820, 821, 822, 823, 824, 825, 826, 827, 828, 829, 830, 831, 832, 833, 834, 835, 836, 837, 838, 839, 840, 841, 842, 843, 844, 845, 846, 847, 848, 849, 850, 851, 852, 853, 854, 855, 856, 857, 858, 859, 860, 861, 862, 863, 864, 865, 866, 867, 868, 869, 870, 871, 872, 873, 874, 875, 876, 877, 878, 879, 880, 881, 882, 883, 884, 885, 886, 887, 888, 889, 890, 891, 892, 893, 894, 895, 896, 897, 898, 899, 900, 901, 902, 903, 904, 905, 906, 907, 908, 909, 910, 911, 912, 913, 914, 915, 916, 917, 918, 919, 920, 921, 922, 923, 924, 925, 926, 927, 928, 929, 930, 931, 932, 933, 934, 935, 936, 937, 938, 939, 940, 941, 942, 943, 944, 945, 946, 947, 948, 949, 950, 951, 952, 953, 954, 955, 956, 957, 958, 959, 960, 961, 962, 963, 964, 965, 966, 967, 968, 969, 970, 971, 972, 973, 974, 975, 976, 977, 978, 979, 980, 981, 982, 983, 984, 985, 986, 987, 988, 989, 990, 991, 992, 993, 994, 995, 996, 997, 998, 999, 1000, 1001, 1002, 1003, 1004, 1005, 1006, 1007, 1008, 1009, 1010, 1011, 1012, 1013, 1014, 1015, 1016, 1017, 1018, 1019, 1020, 1021, 1022, 1023, 1024, 1025, 1026, 1027, 1028, 1029, 1030, 1031, 1032, 1033, 1034, 1035, 1036, 1037, 1038, 1039, 1040, 1041, 1042, 1043, 1044, 1045, 1046, 1047, 1048, 1049, 1050, 1051, 1052, 1053, 1054, 1055, 1056, 1057, 1058, 1059, 1060, 1061, 1062, 1063, 1064, 1065, 1066, 1067, 1068, 1069, 1070, 1071, 1072, 1073, 1074, 1075, 1076, 1077, 1078, 1079, 1080, 1081, 1082, 1083, 1084, 1085, 1086, 1087, 1088, 1089, 1090, 1091, 1092, 1093, 1094, 1095, 1096, 1097, 1098],
      "AcquisitionTime": ["085503.072500", "085503.532500", "085503.992500", "085504.452500", "085504.912500", "085505.372500", "085505.832500", "085506.292500", "085506.752500", "085507.212500", "085507.672500", "085508.132500", "085508.592500", "085509.052500", "085509.512500", "085509.972500", "085510.432500", "085510.892500", "085511.352500", "085511.812500", "085512.272500", "085512.732500", "085513.192500", "085513.652500", "085514.112500", "085514.572500", "085515.032500", "085515.492500", "085515.952500", "085516.412500", "085516.872500", "085517.332500", "085517.792500", "085518.252500", "085518.712500", "085519.172500", "085519.632500", "085520.092500", "085520.552500", "085521.012500", "085521.472500", "085521.932500", "085522.392500", "085522.852500", "085523.312500", "085523.772500", "085524.232500", "085524.692500", "085525.152500", "085525.612500", "085526.072500", "085526.532500", "085526.992500", "085527.452500", "085527.912500", "085528.372500", "085528.832500", "085529.292500", "085529.752500", "085530.212500", "085530.672500", "085531.132500", "085531.592500", "085532.052500", "085532.512500", "085532.972500", "085533.432500", "085533.892500", "085534.352500", "085534.812500", "085535.272500", "085535.732500", "085536.192500", "085536.652500", "085537.112500", "085537.572500", "085538.032500", "085538.492500", "085538.952500", "085539.412500", "085539.872500", "085540.332500", "085540.792500", "085541.252500", "085541.712500", "085542.172500", "085542.632500", "085543.092500", "085543.552500", "085544.012500", "085544.472500", "085544.932500", "085545.392500", "085545.852500", "085546.312500", "085546.772500", "085547.232500", "085547.692500", "085548.152500", "085548.612500", "085549.072500", "085549.532500", "085549.992500", "085550.452500", "085550.912500", "085551.372500", "085551.832500", "085552.292500", "085552.752500", "085553.212500", "085553.672500", "085554.132500", "085554.592500", "085555.052500", "085555.512500", "085555.972500", "085556.432500", "085556.892500", "085557.352500", "085557.812500", "085558.272500", "085558.732500", "085559.192500", "085559.652500", "085600.112500", "085600.572500", "085601.032500", "085601.492500", "085601.952500", "085602.412500", "085602.872500", "085603.332500", "085603.792500", "085604.252500", "085604.712500", "085605.172500", "085605.632500", "085606.092500", "085606.552500", "085607.012500", "085607.472500", "085607.932500", "085608.392500", "085608.852500", "085609.312500", "085609.772500", "085610.232500", "085610.692500", "085611.152500", "085611.612500", "085612.072500", "085612.532500", "085612.992500", "085613.452500", "085613.912500", "085614.372500", "085614.832500", "085615.292500", "085615.752500", "085616.212500", "085616.672500", "085617.132500", "085617.592500", "085618.052500", "085618.512500", "085618.972500", "085619.432500", "085619.892500", "085620.352500", "085620.812500", "085621.272500", "085621.732500", "085622.192500", "085622.652500", "085623.112500", "085623.572500", "085624.032500", "085624.492500", "085624.952500", "085625.412500", "085625.872500", "085626.332500", "085626.792500", "085627.252500", "085627.712500", "085628.172500", "085628.632500", "085629.092500", "085629.552500", "085630.012500", "085630.472500", "085630.932500", "085631.392500", "085631.852500", "085632.312500", "085632.772500", "085633.232500", "085633.692500", "085634.152500", "085634.612500", "085635.072500", "085635.532500", "085635.992500", "085636.452500", "085636.912500", "085637.372500", "085637.832500", "085638.292500", "085638.752500", "085639.212500", "085639.672500", "085640.132500", "085640.592500", "085641.052500", "085641.512500", "085641.972500", "085642.432500", "085642.892500", "085643.352500", "085643.812500", "085644.272500", "085644.732500", "085645.192500", "085645.652500", "085646.112500", "085646.572500", "085647.032500", "085647.492500", "085647.952500", "085648.412500", "085648.872500", "085649.332500", "085649.792500", "085650.252500", "085650.712500", "085651.172500", "085651.632500", "085652.092500", "085652.552500", "085653.012500", "085653.472500", "085653.932500", "085654.392500", "085654.852500", "085655.312500", "085655.772500", "085656.232500", "085656.692500", "085657.152500", "085657.612500", "085658.072500", "085658.532500", "085658.992500", "085659.452500", "085659.912500", "085700.372500", "085700.832500", "085701.292500", "085701.752500", "085702.212500", "085702.672500", "085703.132500", "085703.592500", "085704.052500", "085704.512500", "085704.972500", "085705.432500", "085705.892500", "085706.352500", "085706.812500", "085707.272500", "085707.732500", "085708.192500", "085708.652500", "085709.112500", "085709.572500", "085710.032500", "085710.492500", "085710.952500", "085711.412500", "085711.872500", "085712.332500", "085712.792500", "085713.252500", "085713.712500", "085714.172500", "085714.632500", "085715.092500", "085715.552500", "085716.012500", "085716.472500", "085716.932500", "085717.392500", "085717.852500", "085718.312500", "085718.772500", "085719.232500", "085719.692500", "085720.152500", "085720.612500", "085721.072500", "085721.532500", "085721.992500", "085722.452500", "085722.912500", "085723.372500", "085723.832500", "085724.292500", "085724.752500", "085725.212500", "085725.672500", "085726.132500", "085726.592500", "085727.052500", "085727.512500", "085727.972500", "085728.432500", "085728.892500", "085729.352500", "085729.812500", "085730.272500", "085730.732500", "085731.192500", "085731.652500", "085732.112500", "085732.572500", "085733.032500", "085733.492500", "085733.952500", "085734.412500", "085734.872500", "085735.332500", "085735.792500", "085736.252500", "085736.712500", "085737.172500", "085737.632500", "085738.092500", "085738.552500", "085739.012500", "085739.472500", "085739.932500", "085740.392500", "085740.852500", "085741.312500", "085741.772500", "085742.232500", "085742.692500", "085743.152500", "085743.612500", "085744.072500", "085744.532500", "085744.992500", "085745.452500", "085745.912500", "085746.372500", "085746.832500", "085747.292500", "085747.752500", "085748.212500", "085748.672500", "085749.132500", "085749.592500", "085750.052500", "085750.512500", "085750.972500", "085751.432500", "085751.892500", "085752.352500", "085752.812500", "085753.272500", "085753.732500", "085754.192500", "085754.652500", "085755.112500", "085755.572500", "085756.032500", "085756.492500", "085756.952500", "085757.412500", "085757.872500", "085758.332500", "085758.792500", "085759.252500", "085759.712500", "085800.172500", "085800.632500", "085801.092500", "085801.552500", "085802.012500", "085802.472500", "085802.932500", "085803.392500", "085803.852500", "085804.312500", "085804.772500", "085805.232500", "085805.692500", "085806.152500", "085806.612500", "085807.072500", "085807.532500", "085807.992500", "085808.452500", "085808.912500", "085809.372500", "085809.832500", "085810.292500", "085810.752500", "085811.212500", "085811.672500", "085812.132500", "085812.592500", "085813.052500", "085813.512500", "085813.972500", "085814.432500", "085814.892500", "085815.352500", "085815.812500", "085816.272500", "085816.732500", "085817.192500", "085817.652500", "085818.112500", "085818.572500", "085819.032500", "085819.492500", "085819.952500", "085820.412500", "085820.872500", "085821.332500", "085821.792500", "085822.252500", "085822.712500", "085823.172500", "085823.632500", "085824.092500", "085824.552500", "085825.012500", "085825.472500", "085825.932500", "085826.392500", "085826.852500", "085827.312500", "085827.772500", "085828.232500", "085828.692500", "085829.152500", "085829.612500", "085830.072500", "085830.532500", "085830.992500", "085831.452500", "085831.912500", "085832.372500", "085832.832500", "085833.292500", "085833.752500", "085834.212500", "085834.672500", "085835.132500", "085835.592500", "085836.052500", "085836.512500", "085836.972500", "085837.432500", "085837.892500", "085838.352500", "085838.812500", "085839.272500", "085839.732500", "085840.192500", "085840.652500", "085841.112500", "085841.572500", "085842.032500", "085842.492500", "085842.952500", "085843.412500", "085843.872500", "085844.332500", "085844.792500", "085845.252500", "085845.712500", "085846.172500", "085846.632500", "085847.092500", "085847.552500", "085848.012500", "085848.472500", "085848.932500", "085849.392500", "085849.852500", "085850.312500", "085850.772500", "085851.232500", "085851.692500", "085852.152500", "085852.612500", "085853.072500", "085853.532500", "085853.992500", "085854.452500", "085854.912500", "085855.372500", "085855.832500", "085856.292500", "085856.752500", "085857.212500", "085857.672500", "085858.132500", "085858.592500", "085859.052500", "085859.512500", "085859.972500", "085900.432500", "085900.892500", "085901.352500", "085901.812500", "085902.272500", "085902.732500", "085903.192500", "085903.652500", "085904.112500", "085904.572500", "085905.032500", "085905.492500", "085905.952500", "085906.412500", "085906.872500", "085907.332500", "085907.792500", "085908.252500", "085908.712500", "085909.172500", "085909.632500", "085910.092500", "085910.552500", "085911.012500", "085911.472500", "085911.932500", "085912.392500", "085912.852500", "085913.312500", "085913.772500", "085914.232500", "085914.692500", "085915.152500", "085915.612500", "085916.072500", "085916.532500", "085916.992500", "085917.452500", "085917.912500", "085918.372500", "085918.832500", "085919.292500", "085919.752500", "085920.212500", "085920.672500", "085921.132500", "085921.592500", "085922.052500", "085922.512500", "085922.972500", "085923.432500", "085923.892500", "085924.352500", "085924.812500", "085925.272500", "085925.732500", "085926.192500", "085926.652500", "085927.112500", "085927.572500", "085928.032500", "085928.492500", "085928.952500", "085929.412500", "085929.872500", "085930.332500", "085930.792500", "085931.252500", "085931.712500", "085932.172500", "085932.632500", "085933.092500", "085933.552500", "085934.012500", "085934.472500", "085934.932500", "085935.392500", "085935.852500", "085936.312500", "085936.772500", "085937.232500", "085937.692500", "085938.152500", "085938.612500", "085939.072500", "085939.532500", "085939.992500", "085940.452500", "085940.912500", "085941.372500", "085941.832500", "085942.292500", "085942.752500", "085943.212500", "085943.672500", "085944.132500", "085944.592500", "085945.052500", "085945.512500", "085945.972500", "085946.432500", "085946.892500", "085947.352500", "085947.812500", "085948.272500", "085948.732500", "085949.192500", "085949.652500", "085950.112500", "085950.572500", "085951.032500", "085951.492500", "085951.952500", "085952.412500", "085952.872500", "085953.332500", "085953.792500", "085954.252500", "085954.712500", "085955.172500", "085955.632500", "085956.092500", "085956.552500", "085957.012500", "085957.472500", "085957.932500", "085958.392500", "085958.852500", "085959.312500", "085959.772500", "090000.232500", "090000.692500", "090001.152500", "090001.612500", "090002.072500", "090002.532500", "090002.992500", "090003.452500", "090003.912500", "090004.372500", "090004.832500", "090005.292500", "090005.752500", "090006.212500", "090006.672500", "090007.132500", "090007.592500", "090008.052500", "090008.512500", "090008.972500", "090009.432500", "090009.892500", "090010.352500", "090010.812500", "090011.272500", "090011.732500", "090012.192500", "090012.652500", "090013.112500", "090013.572500", "090014.032500", "090014.492500", "090014.952500", "090015.412500", "090015.872500", "090016.332500", "090016.792500", "090017.252500", "090017.712500", "090018.172500", "090018.632500", "090019.092500", "090019.552500", "090020.012500", "090020.472500", "090020.932500", "090021.392500", "090021.852500", "090022.312500", "090022.772500", "090023.232500", "090023.692500", "090024.152500", "090024.612500", "090025.072500", "090025.532500", "090025.992500", "090026.452500", "090026.912500", "090027.372500", "090027.832500", "090028.292500", "090028.752500", "090029.212500", "090029.672500", "090030.132500", "090030.592500", "090031.052500", "090031.512500", "090031.972500", "090032.432500", "090032.892500", "090033.352500", "090033.812500", "090034.272500", "090034.732500", "090035.192500", "090035.652500", "090036.112500", "090036.572500", "090037.032500", "090037.492500", "090037.952500", "090038.412500", "090038.872500", "090039.332500", "090039.792500", "090040.252500", "090040.712500", "090041.172500", "090041.632500", "090042.092500", "090042.552500", "090043.012500", "090043.472500", "090043.932500", "090044.392500", "090044.852500", "090045.312500", "090045.772500", "090046.232500", "090046.692500", "090047.152500", "090047.612500", "090048.072500", "090048.532500", "090048.992500", "090049.452500", "090049.912500", "090050.372500", "090050.832500", "090051.292500", "090051.752500", "090052.212500", "090052.672500", "090053.132500", "090053.592500", "090054.052500", "090054.512500", "090054.972500", "090055.432500", "090055.892500", "090056.352500", "090056.812500", "090057.272500", "090057.732500", "090058.192500", "090058.652500", "090059.112500", "090059.572500", "090100.032500", "090100.492500", "090100.952500", "090101.412500", "090101.872500", "090102.332500", "090102.792500", "090103.252500", "090103.712500", "090104.172500", "090104.632500", "090105.092500", "090105.552500", "090106.012500", "090106.472500", "090106.932500", "090107.392500", "090107.852500", "090108.312500", "090108.772500", "090109.232500", "090109.692500", "090110.152500", "090110.612500", "090111.072500", "090111.532500", "090111.992500", "090112.452500", "090112.912500", "090113.372500", "090113.832500", "090114.292500", "090114.752500", "090115.212500", "090115.672500", "090116.132500", "090116.592500", "090117.052500", "090117.512500", "090117.972500", "090118.432500", "090118.892500", "090119.352500", "090119.812500", "090120.272500", "090120.732500", "090121.192500", "090121.652500", "090122.112500", "090122.572500", "090123.032500", "090123.492500", "090123.952500", "090124.412500", "090124.872500", "090125.332500", "090125.792500", "090126.252500", "090126.712500", "090127.172500", "090127.632500", "090128.092500", "090128.552500", "090129.012500", "090129.472500", "090129.932500", "090130.392500", "090130.852500", "090131.312500", "090131.772500", "090132.232500", "090132.692500", "090133.152500", "090133.612500", "090134.072500", "090134.532500", "090134.992500", "090135.452500", "090135.912500", "090136.372500", "090136.832500", "090137.292500", "090137.752500", "090138.212500", "090138.672500", "090139.132500", "090139.592500", "090140.052500", "090140.512500", "090140.972500", "090141.432500", "090141.892500", "090142.352500", "090142.812500", "090143.272500", "090143.732500", "090144.192500", "090144.652500", "090145.112500", "090145.572500", "090146.032500", "090146.492500", "090146.952500", "090147.412500", "090147.872500", "090148.332500", "090148.792500", "090149.252500", "090149.712500", "090150.172500", "090150.632500", "090151.092500", "090151.552500", "090152.012500", "090152.472500", "090152.932500", "090153.392500", "090153.852500", "090154.312500", "090154.772500", "090155.232500", "090155.692500", "090156.152500", "090156.612500", "090157.072500", "090157.532500", "090157.992500", "090158.452500", "090158.912500", "090159.372500", "090159.832500", "090200.292500", "090200.752500", "090201.212500", "090201.672500", "090202.132500", "090202.592500", "090203.052500", "090203.512500", "090203.972500", "090204.432500", "090204.892500", "090205.352500", "090205.812500", "090206.272500", "090206.732500", "090207.192500", "090207.652500", "090208.112500", "090208.572500", "090209.032500", "090209.492500", "090209.952500", "090210.412500", "090210.872500", "090211.332500", "090211.792500", "090212.252500", "090212.712500", "090213.172500", "090213.632500", "090214.092500", "090214.552500", "090215.012500", "090215.472500", "090215.932500", "090216.392500", "090216.852500", "090217.312500", "090217.772500", "090218.232500", "090218.692500", "090219.152500", "090219.612500", "090220.072500", "090220.532500", "090220.992500", "090221.452500", "090221.912500", "090222.372500", "090222.832500", "090223.292500", "090223.752500", "090224.212500", "090224.672500", "090225.132500", "090225.592500", "090226.052500", "090226.512500", "090226.972500", "090227.432500", "090227.892500", "090228.352500", "090228.812500", "090229.272500", "090229.732500", "090230.192500", "090230.652500", "090231.112500", "090231.572500", "090232.032500", "090232.492500", "090232.952500", "090233.412500", "090233.872500", "090234.332500", "090234.792500", "090235.252500", "090235.712500", "090236.172500", "090236.632500", "090237.092500", "090237.552500", "090238.012500", "090238.472500", "090238.932500", "090239.392500", "090239.852500", "090240.312500", "090240.772500", "090241.232500", "090241.692500", "090242.152500", "090242.612500", "090243.072500", "090243.532500", "090243.992500", "090244.452500", "090244.912500", "090245.372500", "090245.832500", "090246.292500", "090246.752500", "090247.212500", "090247.672500", "090248.132500", "090248.592500", "090249.052500", "090249.512500", "090249.972500", "090250.432500", "090250.892500", "090251.352500", "090251.812500", "090252.272500", "090252.732500", "090253.192500", "090253.652500", "090254.112500", "090254.572500", "090255.032500", "090255.492500", "090255.952500", "090256.412500", "090256.872500", "090257.332500", "090257.792500", "090258.252500", "090258.712500", "090259.172500", "090259.632500", "090300.092500", "090300.552500", "090301.012500", "090301.472500", "090301.932500", "090302.392500", "090302.852500", "090303.312500", "090303.772500", "090304.232500", "090304.692500", "090305.152500", "090305.612500", "090306.072500", "090306.532500", "090306.992500", "090307.452500", "090307.912500", "090308.372500", "090308.832500", "090309.292500", "090309.752500", "090310.212500", "090310.672500", "090311.132500", "090311.592500", "090312.052500", "090312.512500", "090312.972500", "090313.432500", "090313.892500", "090314.352500", "090314.812500", "090315.272500", "090315.732500", "090316.192500", "090316.652500", "090317.112500", "090317.572500", "090318.032500", "090318.492500", "090318.952500", "090319.412500", "090319.872500", "090320.332500", "090320.792500", "090321.252500", "090321.712500", "090322.172500", "090322.632500", "090323.092500", "090323.552500", "090324.012500", "090324.472500", "090324.932500", "090325.392500", "090325.852500", "090326.312500", "090326.772500", "090327.232500", "090327.692500"],
