{
  "AcquisitionMatrixPE": 82,
  "AcquisitionNumber": 1,
  "AcquisitionTime": "09:31:47.337500",
  "BandwidthPerPixelPhaseEncode": 24.888,
  "BaseResolution": 82,
  "BodyPartExamined": "BRAIN",
  "ConsistencyInfo": "N4_VE11E_LATEST_20181129",
  "ConversionSoftware": "dcm2niix",
  "ConversionSoftwareVersion": "v1.0.20201102",
  "DerivedVendorReportedEchoSpacing": 0.00049,
  "DeviceSerialNumber": "66112",
  "DwellTime": 2e-06,
  "EchoTime": 0.0272,
  "EchoTrainLength": 82,
  "EffectiveEchoSpacing": 0.00049,
  "FlipAngle": 44,
  "ImageComments": "Unaliased MB8/PE3",
  "ImageOrientationPatientDICOM": [0.999959, -0.00907895, 0.000288518, 0.00907565, 0.99991, 0.00989767],
  "ImageType": [
    "ORIGINAL",
    "PRIMARY",
    "M",
    "MB",
    "ND",
    "NORM",
    "MOSAIC"
],
  "ImagingFrequency": 123.252,
  "InPlanePhaseEncodingDirectionDICOM": "COL",
  "InstitutionAddress": "Maynard 3,Hanover,NH,US,03755",
  "InstitutionName": "Dartmouth College - PBS",
  "InstitutionalDepartmentName": "Department",
  "MRAcquisitionType": "2D",
  "MagneticFieldStrength": 3,
  "Manufacturer": "Siemens",
  "ManufacturersModelName": "Prisma",
  "Modality": "MR",
  "MultibandAccelerationFactor": 8,
  "PartialFourier": 1,
  "PatientPosition": "HFS",
  "PercentPhaseFOV": 100,
  "PercentSampling": 100,
  "PhaseEncodingDirection": "j-",
  "PhaseEncodingSteps": 82,
  "PhaseResolution": 1,
  "PixelBandwidth": 3050,
  "ProcedureStepDescription": "Wager_Wager^1076_spacetop",
  "ProtocolName": "func_run-02_task-faces_acq-ap-mb8",
  "PulseSequenceDetails": "%CustomerSeq%\\cmrr_mbep2d_bold",
  "ReceiveCoilActiveElements": "HEA;HEP",
  "ReceiveCoilName": "Head_32",
  "ReconMatrixPE": 82,
  "RepetitionTime": 0.46,
  "SAR": 0.0815369,
  "ScanOptions": "FS",
  "ScanningSequence": "EP",
  "SequenceName": "epfid2d1_82",
  "SequenceVariant": "SK\\SS",
  "SeriesDescription": "func_run-02_task-faces_acq-ap-mb8",
  "SeriesNumber": 18,
  "ShimSetting": [4152, -7775, -7192, 512, -11, -114, -17, 80],
  "SliceThickness": 2.7,
  "SliceTiming": [0, 0.2525, 0.065, 0.315, 0.1275, 0.3775, 0.19, 0, 0.2525, 0.065, 0.315, 0.1275, 0.3775, 0.19, 0, 0.2525, 0.065, 0.315, 0.1275, 0.3775, 0.19, 0, 0.2525, 0.065, 0.315, 0.1275, 0.3775, 0.19, 0, 0.2525, 0.065, 0.315, 0.1275, 0.3775, 0.19, 0, 0.2525, 0.065, 0.315, 0.1275, 0.3775, 0.19, 0, 0.2525, 0.065, 0.315, 0.1275, 0.3775, 0.19, 0, 0.2525, 0.065, 0.315, 0.1275, 0.3775, 0.19],
  "SoftwareVersions": "syngo MR E11",
  "SpacingBetweenSlices": 2.7,
  "StationName": "AWP66112",
  "TaskName": "faces",
  "TotalReadoutTime": 0.03969,
  "TxRefAmp": 247.857,
  "WipMemBlock": "5f881dab-6e5a-47db-b485-e140772a071c||Sequence: R016 ve11e/master r/434b28f1; Aug  7 2019 18:53:46 by eja",
  "dcmmeta_affine": [
    [-2.68281626701355, 0.024349303916096687, 0.001021551783196628, 114.04316711425781],
    [0.024358157068490982, 2.682684898376465, 0.026715539395809174, -90.88227844238281],
    [0.0007740728906355798, -0.02655472792685032, 2.6998677253723145, -57.895023345947266],
    [0.0, 0.0, 0.0, 1.0]
],
  "dcmmeta_reorient_transform": [
    [0.0, -1.0, 0.0, 81.0],
    [1.0, 0.0, 0.0, 0.0],
    [0.0, 0.0, 1.0, 0.0],
    [0.0, 0.0, 0.0, 1.0]
],
  "dcmmeta_shape": [82, 82, 56, 914],
  "dcmmeta_slice_dim": 2,
  "dcmmeta_version": 0.6,
  "global": {
    "const": {
      "AccessionNumber": "A004146",
      "AcquisitionMatrix": [82, 0, 0, 82],
      "AngioFlag": "N",
      "BitsAllocated": 16,
      "BitsStored": 16,
      "BodyPartExamined": "BRAIN",
      "Columns": 656,
      "EchoNumbers": 1,
      "EchoTime": 27.2,
      "EchoTrainLength": 82,
      "FlipAngle": 44.0,
      "HighBit": 15,
      "ImageOrientationPatient": [0.99995874386832, -0.0090789492023, 0.00028851807856, 0.00907564932508, 0.99990983028118, 0.00989767126095],
      "ImagePositionPatient": [-892.97196515146, -889.35500328205, -67.889322906706],
      "ImageType": [
        "ORIGINAL",
        "PRIMARY",
        "M",
        "MB",
        "ND",
        "NORM",
        "MOSAIC"
],
      "ImagedNucleus": "1H",
      "ImagingFrequency": 123.252145,
      "InPlanePhaseEncodingDirection": "COL",
      "MRAcquisitionType": "2D",
      "MagneticFieldStrength": 3.0,
      "Manufacturer": "SIEMENS",
      "ManufacturerModelName": "Prisma",
      "Modality": "MR",
      "NumberOfAverages": 1.0,
      "NumberOfPhaseEncodingSteps": 82,
      "PercentPhaseFieldOfView": 100.0,
      "PercentSampling": 100.0,
      "PerformedProcedureStepStartTime": "082517.669000",
      "PhotometricInterpretation": "MONOCHROME2",
      "PixelBandwidth": 3050.0,
      "PixelRepresentation": 0,
      "PixelSpacing": [2.6829268932343, 2.6829268932343],
      "ProtocolName": "func_run-02_task-faces_acq-ap-mb8",
      "RepetitionTime": 460.0,
      "Rows": 656,
      "SAR": 0.08153685550461,
      "SamplesPerPixel": 1,
      "ScanOptions": "FS",
      "ScanningSequence": "EP",
      "SequenceName": "epfid2d1_82",
      "SequenceVariant": [
        "SK",
        "SS"
],
      "SeriesDescription": "func_run-02_task-faces_acq-ap-mb8",
      "SeriesNumber": 18,
      "SeriesTime": "093158.860000",
      "SliceLocation": -58.74828492538,
      "SliceThickness": 2.7000000476837,
      "SmallestImagePixelValue": 0,
      "SoftwareVersions": "syngo MR E11",
      "SpacingBetweenSlices": 2.700000031555,
      "SpecificCharacterSet": "ISO_IR 100",
      "StudyID": "2",
      "StudyTime": "082517.524000",
      "TransmitCoilName": "Body",
      "VariableFlipAngleFlag": "N",
      "WindowCenterWidthExplanation": "Algo1"
    },
    "slices": {}
  },
  "time": {
    "samples": {
      "AcquisitionNumber": [1, 2, 3, 4, 5, 6, 7, 8, 9, 10, 11, 12, 13, 14, 15, 16, 17, 18, 19, 20, 21, 22, 23, 24, 25, 26, 27, 28, 29, 30, 31, 32, 33, 34, 35, 36, 37, 38, 39, 40, 41, 42, 43, 44, 45, 46, 47, 48, 49, 50, 51, 52, 53, 54, 55, 56, 57, 58, 59, 60, 61, 62, 63, 64, 65, 66, 67, 68, 69, 70, 71, 72, 73, 74, 75, 76, 77, 78, 79, 80, 81, 82, 83, 84, 85, 86, 87, 88, 89, 90, 91, 92, 93, 94, 95, 96, 97, 98, 99, 100, 101, 102, 103, 104, 105, 106, 107, 108, 109, 110, 111, 112, 113, 114, 115, 116, 117, 118, 119, 120, 121, 122, 123, 124, 125, 126, 127, 128, 129, 130, 131, 132, 133, 134, 135, 136, 137, 138, 139, 140, 141, 142, 143, 144, 145, 146, 147, 148, 149, 150, 151, 152, 153, 154, 155, 156, 157, 158, 159, 160, 161, 162, 163, 164, 165, 166, 167, 168, 169, 170, 171, 172, 173, 174, 175, 176, 177, 178, 179, 180, 181, 182, 183, 184, 185, 186, 187, 188, 189, 190, 191, 192, 193, 194, 195, 196, 197, 198, 199, 200, 201, 202, 203, 204, 205, 206, 207, 208, 209, 210, 211, 212, 213, 214, 215, 216, 217, 218, 219, 220, 221, 222, 223, 224, 225, 226, 227, 228, 229, 230, 231, 232, 233, 234, 235, 236, 237, 238, 239, 240, 241, 242, 243, 244, 245, 246, 247, 248, 249, 250, 251, 252, 253, 254, 255, 256, 257, 258, 259, 260, 261, 262, 263, 264, 265, 266, 267, 268, 269, 270, 271, 272, 273, 274, 275, 276, 277, 278, 279, 280, 281, 282, 283, 284, 285, 286, 287, 288, 289, 290, 291, 292, 293, 294, 295, 296, 297, 298, 299, 300, 301, 302, 303, 304, 305, 306, 307, 308, 309, 310, 311, 312, 313, 314, 315, 316, 317, 318, 319, 320, 321, 322, 323, 324, 325, 326, 327, 328, 329, 330, 331, 332, 333, 334, 335, 336, 337, 338, 339, 340, 341, 342, 343, 344, 345, 346, 347, 348, 349, 350, 351, 352, 353, 354, 355, 356, 357, 358, 359, 360, 361, 362, 363, 364, 365, 366, 367, 368, 369, 370, 371, 372, 373, 374, 375, 376, 377, 378, 379, 380, 381, 382, 383, 384, 385, 386, 387, 388, 389, 390, 391, 392, 393, 394, 395, 396, 397, 398, 399, 400, 401, 402, 403, 404, 405, 406, 407, 408, 409, 410, 411, 412, 413, 414, 415, 416, 417, 418, 419, 420, 421, 422, 423, 424, 425, 426, 427, 428, 429, 430, 431, 432, 433, 434, 435, 436, 437, 438, 439, 440, 441, 442, 443, 444, 445, 446, 447, 448, 449, 450, 451, 452, 453, 454, 455, 456, 457, 458, 459, 460, 461, 462, 463, 464, 465, 466, 467, 468, 469, 470, 471, 472, 473, 474, 475, 476, 477, 478, 479, 480, 481, 482, 483, 484, 485, 486, 487, 488, 489, 490, 491, 492, 493, 494, 495, 496, 497, 498, 499, 500, 501, 502, 503, 504, 505, 506, 507, 508, 509, 510, 511, 512, 513, 514, 515, 516, 517, 518, 519, 520, 521, 522, 523, 524, 525, 526, 527, 528, 529, 530, 531, 532, 533, 534, 535, 536, 537, 538, 539, 540, 541, 542, 543, 544, 545, 546, 547, 548, 549, 550, 551, 552, 553, 554, 555, 556, 557, 558, 559, 560, 561, 562, 563, 564, 565, 566, 567, 568, 569, 570, 571, 572, 573, 574, 575, 576, 577, 578, 579, 580, 581, 582, 583, 584, 585, 586, 587, 588, 589, 590, 591, 592, 593, 594, 595, 596, 597, 598, 599, 600, 601, 602, 603, 604, 605, 606, 607, 608, 609, 610, 611, 612, 613, 614, 615, 616, 617, 618, 619, 620, 621, 622, 623, 624, 625, 626, 627, 628, 629, 630, 631, 632, 633, 634, 635, 636, 637, 638, 639, 640, 641, 642, 643, 644, 645, 646, 647, 648, 649, 650, 651, 652, 653, 654, 655, 656, 657, 658, 659, 660, 661, 662, 663, 664, 665, 666, 667, 668, 669, 670, 671, 672, 673, 674, 675, 676, 677, 678, 679, 680, 681, 682, 683, 684, 685, 686, 687, 688, 689, 690, 691, 692, 693, 694, 695, 696, 697, 698, 699, 700, 701, 702, 703, 704, 705, 706, 707, 708, 709, 710, 711, 712, 713, 714, 715, 716, 717, 718, 719, 720, 721, 722, 723, 724, 725, 726, 727, 728, 729, 730, 731, 732, 733, 734, 735, 736, 737, 738, 739, 740, 741, 742, 743, 744, 745, 746, 747, 748, 749, 750, 751, 752, 753, 754, 755, 756, 757, 758, 759, 760, 761, 762, 763, 764, 765, 766, 767, 768, 769, 770, 771, 772, 773, 774, 775, 776, 777, 778, 779, 780, 781, 782, 783, 784, 785, 786, 787, 788, 789, 790, 791, 792, 793, 794, 795, 796, 797, 798, 799, 800, 801, 802, 803, 804, 805, 806, 807, 808, 809, 810, 811, 812, 813, 814, 815, 816, 817, 818, 819, 820, 821, 822, 823, 824, 825, 826, 827, 828, 829, 830, 831, 832, 833, 834, 835, 836, 837, 838, 839, 840, 841, 842, 843, 844, 845, 846, 847, 848, 849, 850, 851, 852, 853, 854, 855, 856, 857, 858, 859, 860, 861, 862, 863, 864, 865, 866, 867, 868, 869, 870, 871, 872, 873, 874, 875, 876, 877, 878, 879, 880, 881, 882, 883, 884, 885, 886, 887, 888, 889, 890, 891, 892, 893, 894, 895, 896, 897, 898, 899, 900, 901, 902, 903, 904, 905, 906, 907, 908, 909, 910, 911, 912, 913, 914],
      "AcquisitionTime": ["093147.337500", "093147.797500", "093148.257500", "093148.717500", "093149.177500", "093149.637500", "093150.097500", "093150.557500", "093151.017500", "093151.477500", "093151.937500", "093152.397500", "093152.857500", "093153.317500", "093153.777500", "093154.237500", "093154.697500", "093155.157500", "093155.617500", "093156.077500", "093156.537500", "093156.997500", "093157.457500", "093157.917500", "093158.377500", "093158.837500", "093159.297500", "093159.757500", "093200.217500", "093200.677500", "093201.137500", "093201.597500", "093202.057500", "093202.517500", "093202.977500", "093203.437500", "093203.897500", "093204.357500", "093204.817500", "093205.277500", "093205.737500", "093206.197500", "093206.657500", "093207.117500", "093207.577500", "093208.037500", "093208.497500", "093208.957500", "093209.417500", "093209.877500", "093210.337500", "093210.797500", "093211.257500", "093211.717500", "093212.177500", "093212.637500", "093213.097500", "093213.557500", "093214.017500", "093214.477500", "093214.937500", "093215.397500", "093215.857500", "093216.317500", "093216.777500", "093217.237500", "093217.697500", "093218.157500", "093218.617500", "093219.077500", "093219.537500", "093219.997500", "093220.457500", "093220.917500", "093221.377500", "093221.837500", "093222.297500", "093222.757500", "093223.217500", "093223.677500", "093224.137500", "093224.597500", "093225.057500", "093225.517500", "093225.977500", "093226.437500", "093226.897500", "093227.357500", "093227.817500", "093228.277500", "093228.737500", "093229.197500", "093229.657500", "093230.117500", "093230.577500", "093231.037500", "093231.497500", "093231.957500", "093232.417500", "093232.877500", "093233.337500", "093233.797500", "093234.257500", "093234.717500", "093235.177500", "093235.637500", "093236.097500", "093236.557500", "093237.017500", "093237.477500", "093237.937500", "093238.397500", "093238.857500", "093239.317500", "093239.777500", "093240.237500", "093240.697500", "093241.157500", "093241.617500", "093242.077500", "093242.537500", "093242.997500", "093243.457500", "093243.917500", "093244.377500", "093244.837500", "093245.297500", "093245.757500", "093246.217500", "093246.677500", "093247.137500", "093247.597500", "093248.057500", "093248.517500", "093248.977500", "093249.437500", "093249.897500", "093250.357500", "093250.817500", "093251.277500", "093251.737500", "093252.197500", "093252.657500", "093253.117500", "093253.577500", "093254.037500", "093254.497500", "093254.957500", "093255.417500", "093255.877500", "093256.337500", "093256.797500", "093257.257500", "093257.717500", "093258.177500", "093258.637500", "093259.097500", "093259.557500", "093300.017500", "093300.477500", "093300.937500", "093301.397500", "093301.857500", "093302.317500", "093302.777500", "093303.237500", "093303.697500", "093304.157500", "093304.617500", "093305.077500", "093305.537500", "093305.997500", "093306.457500", "093306.917500", "093307.377500", "093307.837500", "093308.297500", "093308.757500", "093309.217500", "093309.677500", "093310.137500", "093310.597500", "093311.057500", "093311.517500", "093311.977500", "093312.437500", "093312.897500", "093313.357500", "093313.817500", "093314.277500", "093314.737500", "093315.197500", "093315.657500", "093316.117500", "093316.577500", "093317.037500", "093317.497500", "093317.957500", "093318.417500", "093318.877500", "093319.337500", "093319.797500", "093320.257500", "093320.717500", "093321.177500", "093321.637500", "093322.097500", "093322.557500", "093323.017500", "093323.477500", "093323.937500", "093324.397500", "093324.857500", "093325.317500", "093325.777500", "093326.237500", "093326.697500", "093327.157500", "093327.617500", "093328.077500", "093328.537500", "093328.997500", "093329.457500", "093329.917500", "093330.377500", "093330.837500", "093331.297500", "093331.757500", "093332.217500", "093332.677500", "093333.137500", "093333.597500", "093334.057500", "093334.517500", "093334.977500", "093335.437500", "093335.897500", "093336.357500", "093336.817500", "093337.277500", "093337.737500", "093338.197500", "093338.657500", "093339.117500", "093339.577500", "093340.037500", "093340.497500", "093340.957500", "093341.417500", "093341.877500", "093342.337500", "093342.797500", "093343.257500", "093343.717500", "093344.177500", "093344.637500", "093345.097500", "093345.557500", "093346.017500", "093346.477500", "093346.937500", "093347.397500", "093347.857500", "093348.317500", "093348.777500", "093349.237500", "093349.697500", "093350.157500", "093350.617500", "093351.077500", "093351.537500", "093351.997500", "093352.457500", "093352.917500", "093353.377500", "093353.837500", "093354.297500", "093354.757500", "093355.217500", "093355.677500", "093356.137500", "093356.597500", "093357.057500", "093357.517500", "093357.977500", "093358.437500", "093358.897500", "093359.357500", "093359.817500", "093400.277500", "093400.737500", "093401.197500", "093401.657500", "093402.117500", "093402.577500", "093403.037500", "093403.497500", "093403.957500", "093404.417500", "093404.877500", "093405.337500", "093405.797500", "093406.257500", "093406.717500", "093407.177500", "093407.637500", "093408.097500", "093408.557500", "093409.017500", "093409.477500", "093409.937500", "093410.397500", "093410.857500", "093411.317500", "093411.777500", "093412.237500", "093412.697500", "093413.157500", "093413.617500", "093414.077500", "093414.537500", "093414.997500", "093415.457500", "093415.917500", "093416.377500", "093416.837500", "093417.297500", "093417.757500", "093418.217500", "093418.677500", "093419.137500", "093419.597500", "093420.057500", "093420.517500", "093420.977500", "093421.437500", "093421.897500", "093422.357500", "093422.817500", "093423.277500", "093423.737500", "093424.197500", "093424.657500", "093425.117500", "093425.577500", "093426.037500", "093426.497500", "093426.957500", "093427.417500", "093427.877500", "093428.337500", "093428.797500", "093429.257500", "093429.717500", "093430.177500", "093430.637500", "093431.097500", "093431.557500", "093432.017500", "093432.477500", "093432.937500", "093433.397500", "093433.857500", "093434.317500", "093434.777500", "093435.237500", "093435.697500", "093436.157500", "093436.617500", "093437.077500", "093437.537500", "093437.997500", "093438.457500", "093438.917500", "093439.377500", "093439.837500", "093440.297500", "093440.757500", "093441.217500", "093441.677500", "093442.137500", "093442.597500", "093443.057500", "093443.517500", "093443.977500", "093444.437500", "093444.897500", "093445.357500", "093445.817500", "093446.277500", "093446.737500", "093447.197500", "093447.657500", "093448.117500", "093448.577500", "093449.037500", "093449.497500", "093449.957500", "093450.417500", "093450.877500", "093451.337500", "093451.797500", "093452.257500", "093452.717500", "093453.177500", "093453.637500", "093454.097500", "093454.557500", "093455.017500", "093455.477500", "093455.937500", "093456.397500", "093456.857500", "093457.317500", "093457.777500", "093458.237500", "093458.697500", "093459.157500", "093459.617500", "093500.077500", "093500.537500", "093500.997500", "093501.457500", "093501.917500", "093502.377500", "093502.837500", "093503.297500", "093503.757500", "093504.217500", "093504.677500", "093505.137500", "093505.597500", "093506.057500", "093506.517500", "093506.977500", "093507.437500", "093507.897500", "093508.357500", "093508.817500", "093509.277500", "093509.737500", "093510.197500", "093510.657500", "093511.117500", "093511.577500", "093512.037500", "093512.497500", "093512.957500", "093513.417500", "093513.877500", "093514.337500", "093514.797500", "093515.257500", "093515.717500", "093516.177500", "093516.637500", "093517.097500", "093517.557500", "093518.017500", "093518.477500", "093518.937500", "093519.397500", "093519.857500", "093520.317500", "093520.777500", "093521.237500", "093521.697500", "093522.157500", "093522.617500", "093523.077500", "093523.537500", "093523.997500", "093524.457500", "093524.917500", "093525.377500", "093525.837500", "093526.297500", "093526.757500", "093527.217500", "093527.677500", "093528.137500", "093528.597500", "093529.057500", "093529.517500", "093529.977500", "093530.437500", "093530.897500", "093531.357500", "093531.817500", "093532.277500", "093532.737500", "093533.197500", "093533.657500", "093534.117500", "093534.577500", "093535.037500", "093535.497500", "093535.957500", "093536.417500", "093536.877500", "093537.337500", "093537.797500", "093538.257500", "093538.717500", "093539.177500", "093539.637500", "093540.097500", "093540.557500", "093541.017500", "093541.477500", "093541.937500", "093542.397500", "093542.857500", "093543.317500", "093543.777500", "093544.237500", "093544.697500", "093545.157500", "093545.617500", "093546.077500", "093546.537500", "093546.997500", "093547.457500", "093547.917500", "093548.377500", "093548.837500", "093549.297500", "093549.757500", "093550.217500", "093550.677500", "093551.137500", "093551.597500", "093552.057500", "093552.517500", "093552.977500", "093553.437500", "093553.897500", "093554.357500", "093554.817500", "093555.277500", "093555.737500", "093556.197500", "093556.657500", "093557.117500", "093557.577500", "093558.037500", "093558.497500", "093558.957500", "093559.417500", "093559.877500", "093600.337500", "093600.797500", "093601.257500", "093601.717500", "093602.177500", "093602.637500", "093603.097500", "093603.557500", "093604.017500", "093604.477500", "093604.937500", "093605.397500", "093605.857500", "093606.317500", "093606.777500", "093607.237500", "093607.697500", "093608.157500", "093608.617500", "093609.077500", "093609.537500", "093609.997500", "093610.457500", "093610.917500", "093611.377500", "093611.837500", "093612.297500", "093612.757500", "093613.217500", "093613.677500", "093614.137500", "093614.597500", "093615.057500", "093615.517500", "093615.977500", "093616.437500", "093616.897500", "093617.357500", "093617.817500", "093618.277500", "093618.737500", "093619.197500", "093619.657500", "093620.117500", "093620.577500", "093621.037500", "093621.497500", "093621.957500", "093622.417500", "093622.877500", "093623.337500", "093623.797500", "093624.257500", "093624.717500", "093625.177500", "093625.637500", "093626.097500", "093626.557500", "093627.017500", "093627.477500", "093627.937500", "093628.397500", "093628.857500", "093629.317500", "093629.777500", "093630.237500", "093630.697500", "093631.157500", "093631.617500", "093632.077500", "093632.537500", "093632.997500", "093633.457500", "093633.917500", "093634.377500", "093634.837500", "093635.297500", "093635.757500", "093636.217500", "093636.677500", "093637.137500", "093637.597500", "093638.057500", "093638.517500", "093638.977500", "093639.437500", "093639.897500", "093640.357500", "093640.817500", "093641.277500", "093641.737500", "093642.197500", "093642.657500", "093643.117500", "093643.577500", "093644.037500", "093644.497500", "093644.957500", "093645.417500", "093645.877500", "093646.337500", "093646.797500", "093647.257500", "093647.717500", "093648.177500", "093648.637500", "093649.097500", "093649.557500", "093650.017500", "093650.477500", "093650.937500", "093651.397500", "093651.857500", "093652.317500", "093652.777500", "093653.237500", "093653.697500", "093654.157500", "093654.617500", "093655.077500", "093655.537500", "093655.997500", "093656.457500", "093656.917500", "093657.377500", "093657.837500", "093658.297500", "093658.757500", "093659.217500", "093659.677500", "093700.137500", "093700.597500", "093701.057500", "093701.517500", "093701.977500", "093702.437500", "093702.897500", "093703.357500", "093703.817500", "093704.277500", "093704.737500", "093705.197500", "093705.657500", "093706.117500", "093706.577500", "093707.037500", "093707.497500", "093707.957500", "093708.417500", "093708.877500", "093709.337500", "093709.797500", "093710.257500", "093710.717500", "093711.177500", "093711.637500", "093712.097500", "093712.557500", "093713.017500", "093713.477500", "093713.937500", "093714.397500", "093714.857500", "093715.317500", "093715.777500", "093716.237500", "093716.697500", "093717.157500", "093717.617500", "093718.077500", "093718.537500", "093718.997500", "093719.457500", "093719.917500", "093720.377500", "093720.837500", "093721.297500", "093721.757500", "093722.217500", "093722.677500", "093723.137500", "093723.597500", "093724.057500", "093724.517500", "093724.977500", "093725.437500", "093725.897500", "093726.357500", "093726.817500", "093727.277500", "093727.737500", "093728.197500", "093728.657500", "093729.117500", "093729.577500", "093730.037500", "093730.497500", "093730.957500", "093731.417500", "093731.877500", "093732.337500", "093732.797500", "093733.257500", "093733.717500", "093734.177500", "093734.637500", "093735.097500", "093735.557500", "093736.017500", "093736.477500", "093736.937500", "093737.397500", "093737.857500", "093738.317500", "093738.777500", "093739.237500", "093739.697500", "093740.157500", "093740.617500", "093741.077500", "093741.537500", "093741.997500", "093742.457500", "093742.917500", "093743.377500", "093743.837500", "093744.297500", "093744.757500", "093745.217500", "093745.677500", "093746.137500", "093746.597500", "093747.057500", "093747.517500", "093747.977500", "093748.437500", "093748.897500", "093749.357500", "093749.817500", "093750.277500", "093750.737500", "093751.197500", "093751.657500", "093752.117500", "093752.577500", "093753.037500", "093753.497500", "093753.957500", "093754.417500", "093754.877500", "093755.337500", "093755.797500", "093756.257500", "093756.717500", "093757.177500", "093757.637500", "093758.097500", "093758.557500", "093759.017500", "093759.477500", "093759.937500", "093800.397500", "093800.857500", "093801.317500", "093801.777500", "093802.237500", "093802.697500", "093803.157500", "093803.617500", "093804.077500", "093804.537500", "093804.997500", "093805.457500", "093805.917500", "093806.377500", "093806.837500", "093807.297500", "093807.757500", "093808.217500", "093808.677500", "093809.137500", "093809.597500", "093810.057500", "093810.517500", "093810.977500", "093811.437500", "093811.897500", "093812.357500", "093812.817500", "093813.277500", "093813.737500", "093814.197500", "093814.657500", "093815.117500", "093815.577500", "093816.037500", "093816.497500", "093816.957500", "093817.417500", "093817.877500", "093818.337500", "093818.797500", "093819.257500", "093819.717500", "093820.177500", "093820.637500", "093821.097500", "093821.557500", "093822.017500", "093822.477500", "093822.937500", "093823.397500", "093823.857500", "093824.317500", "093824.777500", "093825.237500", "093825.697500", "093826.157500", "093826.617500", "093827.077500", "093827.537500", "093827.997500", "093828.457500", "093828.917500", "093829.377500", "093829.837500", "093830.297500", "093830.757500", "093831.217500", "093831.677500", "093832.137500", "093832.597500", "093833.057500", "093833.517500", "093833.977500", "093834.437500", "093834.897500", "093835.357500", "093835.817500", "093836.277500", "093836.737500", "093837.197500", "093837.657500", "093838.117500", "093838.577500", "093839.037500", "093839.497500", "093839.957500", "093840.417500", "093840.877500", "093841.337500", "093841.797500", "093842.257500", "093842.717500", "093843.177500", "093843.637500", "093844.097500", "093844.557500", "093845.017500", "093845.477500", "093845.937500", "093846.397500", "093846.857500", "093847.317500"],
