{
  "AcquisitionMatrixPE": 82,
  "AcquisitionNumber": 1,
  "AcquisitionTime": "09:49:0.487500",
  "BandwidthPerPixelPhaseEncode": 24.888,
  "BaseResolution": 82,
  "BodyPartExamined": "BRAIN",
  "ConsistencyInfo": "N4_VE11E_LATEST_20181129",
  "ConversionSoftware": "dcm2niix",
  "ConversionSoftwareVersion": "v1.0.20201102",
  "DerivedVendorReportedEchoSpacing": 0.00049,
  "DeviceSerialNumber": "66112",
  "DwellTime": 2e-06,
  "EchoTime": 0.0272,
  "EchoTrainLength": 82,
  "EffectiveEchoSpacing": 0.00049,
  "FlipAngle": 44,
  "ImageComments": "Unaliased MB8/PE3",
  "ImageOrientationPatientDICOM": [0.999564, -0.024909, -0.0158329, 0.0253017, 0.999364, 0.0251074],
  "ImageType": [
    "ORIGINAL",
    "PRIMARY",
    "M",
    "MB",
    "ND",
    "NORM",
    "MOSAIC"
],
  "ImagingFrequency": 123.252,
  "InPlanePhaseEncodingDirectionDICOM": "COL",
  "InstitutionAddress": "Maynard 3,Hanover,NH,US,03755",
  "InstitutionName": "Dartmouth College - PBS",
  "InstitutionalDepartmentName": "Department",
  "MRAcquisitionType": "2D",
  "MagneticFieldStrength": 3,
  "Manufacturer": "Siemens",
  "ManufacturersModelName": "Prisma",
  "Modality": "MR",
  "MultibandAccelerationFactor": 8,
  "PartialFourier": 1,
  "PatientPosition": "HFS",
  "PercentPhaseFOV": 100,
  "PercentSampling": 100,
  "PhaseEncodingDirection": "j-",
  "PhaseEncodingSteps": 82,
  "PhaseResolution": 1,
  "PixelBandwidth": 3050,
  "ProcedureStepDescription": "Wager_Wager^1076_spacetop",
  "ProtocolName": "func_run-01_task-alignvideo_acq-ap-mb8",
  "PulseSequenceDetails": "%CustomerSeq%\\cmrr_mbep2d_bold",
  "ReceiveCoilActiveElements": "HEA;HEP",
  "ReceiveCoilName": "Head_32",
  "ReconMatrixPE": 82,
  "RepetitionTime": 0.46,
  "SAR": 0.0814937,
  "ScanOptions": "FS",
  "ScanningSequence": "EP",
  "SequenceName": "epfid2d1_82",
  "SequenceVariant": "SK\\SS",
  "SeriesDescription": "func_run-01_task-alignvideo_acq-ap-mb8",
  "SeriesNumber": 28,
  "ShimSetting": [4152, -7778, -7192, 512, -10, -125, -15, 76],
  "SliceThickness": 2.7,
  "SliceTiming": [0, 0.25, 0.0625, 0.3125, 0.125, 0.3775, 0.1875, 0, 0.25, 0.0625, 0.3125, 0.125, 0.3775, 0.1875, 0, 0.25, 0.0625, 0.3125, 0.125, 0.3775, 0.1875, 0, 0.25, 0.0625, 0.3125, 0.125, 0.3775, 0.1875, 0, 0.25, 0.0625, 0.3125, 0.125, 0.3775, 0.1875, 0, 0.25, 0.0625, 0.3125, 0.125, 0.3775, 0.1875, 0, 0.25, 0.0625, 0.3125, 0.125, 0.3775, 0.1875, 0, 0.25, 0.0625, 0.3125, 0.125, 0.3775, 0.1875],
  "SoftwareVersions": "syngo MR E11",
  "SpacingBetweenSlices": 2.7,
  "StationName": "AWP66112",
  "TaskName": "alignvideo",
  "TotalReadoutTime": 0.03969,
  "TxRefAmp": 247.857,
  "WipMemBlock": "9cd31b4e-4a48-4304-b4e7-5c9eeebf08f7||Sequence: R016 ve11e/master r/434b28f1; Aug  7 2019 18:53:46 by eja",
  "dcmmeta_affine": [
    [-2.681757926940918, 0.06788259744644165, -0.041033126413822174, 113.50041198730469],
    [0.06682896614074707, 2.6812219619750977, 0.0688420906662941, -94.45052337646484],
    [-0.04247855767607689, -0.06736134737730026, 2.698810338973999, -56.20964431762695],
    [0.0, 0.0, 0.0, 1.0]
],
  "dcmmeta_reorient_transform": [
    [0.0, -1.0, 0.0, 81.0],
    [1.0, 0.0, 0.0, 0.0],
    [0.0, 0.0, 1.0, 0.0],
    [0.0, 0.0, 0.0, 1.0]
],
  "dcmmeta_shape": [82, 82, 56, 839],
  "dcmmeta_slice_dim": 2,
  "dcmmeta_version": 0.6,
  "global": {
    "const": {
      "AccessionNumber": "A004146",
      "AcquisitionMatrix": [82, 0, 0, 82],
      "AngioFlag": "N",
      "BitsAllocated": 16,
      "BitsStored": 16,
      "BodyPartExamined": "BRAIN",
      "Columns": 656,
      "EchoNumbers": 1,
      "EchoTime": 27.2,
      "EchoTrainLength": 82,
      "FlipAngle": 44.0,
      "HighBit": 15,
      "ImageOrientationPatient": [0.99956433591594, -0.0249089769313, -0.0158329161298, 0.02530169432317, 0.99936451917546, 0.02510741080978],
      "ImagePositionPatient": [-908.14576374834, -873.05924104932, -68.80727313383],
      "ImageType": [
        "ORIGINAL",
        "PRIMARY",
        "M",
        "MB",
        "ND",
        "NORM",
        "MOSAIC"
],
      "ImagedNucleus": "1H",
      "ImagingFrequency": 123.252146,
      "InPlanePhaseEncodingDirection": "COL",
      "MRAcquisitionType": "2D",
      "MagneticFieldStrength": 3.0,
      "Manufacturer": "SIEMENS",
      "ManufacturerModelName": "Prisma",
      "Modality": "MR",
      "NumberOfAverages": 1.0,
      "NumberOfPhaseEncodingSteps": 82,
      "PercentPhaseFieldOfView": 100.0,
      "PercentSampling": 100.0,
      "PerformedProcedureStepStartTime": "082517.669000",
      "PhotometricInterpretation": "MONOCHROME2",
      "PixelBandwidth": 3050.0,
      "PixelRepresentation": 0,
      "PixelSpacing": [2.6829268932343, 2.6829268932343],
      "ProtocolName": "func_run-01_task-alignvideo_acq-ap-mb8",
      "RepetitionTime": 460.0,
      "Rows": 656,
      "SAR": 0.08149370849339,
      "SamplesPerPixel": 1,
      "ScanOptions": "FS",
      "ScanningSequence": "EP",
      "SequenceName": "epfid2d1_82",
      "SequenceVariant": [
        "SK",
        "SS"
],
      "SeriesDescription": "func_run-01_task-alignvideo_acq-ap-mb8",
      "SeriesNumber": 28,
      "SeriesTime": "094919.055000",
      "SliceLocation": -60.318004432551,
      "SliceThickness": 2.7000000476837,
      "SmallestImagePixelValue": 0,
      "SoftwareVersions": "syngo MR E11",
      "SpacingBetweenSlices": 2.6999999977656,
      "SpecificCharacterSet": "ISO_IR 100",
      "StudyID": "2",
      "StudyTime": "082517.524000",
      "TransmitCoilName": "Body",
      "VariableFlipAngleFlag": "N",
      "WindowCenterWidthExplanation": "Algo1"
    },
    "slices": {}
  },
  "time": {
    "samples": {
      "AcquisitionNumber": [1, 2, 3, 4, 5, 6, 7, 8, 9, 10, 11, 12, 13, 14, 15, 16, 17, 18, 19, 20, 21, 22, 23, 24, 25, 26, 27, 28, 29, 30, 31, 32, 33, 34, 35, 36, 37, 38, 39, 40, 41, 42, 43, 44, 45, 46, 47, 48, 49, 50, 51, 52, 53, 54, 55, 56, 57, 58, 59, 60, 61, 62, 63, 64, 65, 66, 67, 68, 69, 70, 71, 72, 73, 74, 75, 76, 77, 78, 79, 80, 81, 82, 83, 84, 85, 86, 87, 88, 89, 90, 91, 92, 93, 94, 95, 96, 97, 98, 99, 100, 101, 102, 103, 104, 105, 106, 107, 108, 109, 110, 111, 112, 113, 114, 115, 116, 117, 118, 119, 120, 121, 122, 123, 124, 125, 126, 127, 128, 129, 130, 131, 132, 133, 134, 135, 136, 137, 138, 139, 140, 141, 142, 143, 144, 145, 146, 147, 148, 149, 150, 151, 152, 153, 154, 155, 156, 157, 158, 159, 160, 161, 162, 163, 164, 165, 166, 167, 168, 169, 170, 171, 172, 173, 174, 175, 176, 177, 178, 179, 180, 181, 182, 183, 184, 185, 186, 187, 188, 189, 190, 191, 192, 193, 194, 195, 196, 197, 198, 199, 200, 201, 202, 203, 204, 205, 206, 207, 208, 209, 210, 211, 212, 213, 214, 215, 216, 217, 218, 219, 220, 221, 222, 223, 224, 225, 226, 227, 228, 229, 230, 231, 232, 233, 234, 235, 236, 237, 238, 239, 240, 241, 242, 243, 244, 245, 246, 247, 248, 249, 250, 251, 252, 253, 254, 255, 256, 257, 258, 259, 260, 261, 262, 263, 264, 265, 266, 267, 268, 269, 270, 271, 272, 273, 274, 275, 276, 277, 278, 279, 280, 281, 282, 283, 284, 285, 286, 287, 288, 289, 290, 291, 292, 293, 294, 295, 296, 297, 298, 299, 300, 301, 302, 303, 304, 305, 306, 307, 308, 309, 310, 311, 312, 313, 314, 315, 316, 317, 318, 319, 320, 321, 322, 323, 324, 325, 326, 327, 328, 329, 330, 331, 332, 333, 334, 335, 336, 337, 338, 339, 340, 341, 342, 343, 344, 345, 346, 347, 348, 349, 350, 351, 352, 353, 354, 355, 356, 357, 358, 359, 360, 361, 362, 363, 364, 365, 366, 367, 368, 369, 370, 371, 372, 373, 374, 375, 376, 377, 378, 379, 380, 381, 382, 383, 384, 385, 386, 387, 388, 389, 390, 391, 392, 393, 394, 395, 396, 397, 398, 399, 400, 401, 402, 403, 404, 405, 406, 407, 408, 409, 410, 411, 412, 413, 414, 415, 416, 417, 418, 419, 420, 421, 422, 423, 424, 425, 426, 427, 428, 429, 430, 431, 432, 433, 434, 435, 436, 437, 438, 439, 440, 441, 442, 443, 444, 445, 446, 447, 448, 449, 450, 451, 452, 453, 454, 455, 456, 457, 458, 459, 460, 461, 462, 463, 464, 465, 466, 467, 468, 469, 470, 471, 472, 473, 474, 475, 476, 477, 478, 479, 480, 481, 482, 483, 484, 485, 486, 487, 488, 489, 490, 491, 492, 493, 494, 495, 496, 497, 498, 499, 500, 501, 502, 503, 504, 505, 506, 507, 508, 509, 510, 511, 512, 513, 514, 515, 516, 517, 518, 519, 520, 521, 522, 523, 524, 525, 526, 527, 528, 529, 530, 531, 532, 533, 534, 535, 536, 537, 538, 539, 540, 541, 542, 543, 544, 545, 546, 547, 548, 549, 550, 551, 552, 553, 554, 555, 556, 557, 558, 559, 560, 561, 562, 563, 564, 565, 566, 567, 568, 569, 570, 571, 572, 573, 574, 575, 576, 577, 578, 579, 580, 581, 582, 583, 584, 585, 586, 587, 588, 589, 590, 591, 592, 593, 594, 595, 596, 597, 598, 599, 600, 601, 602, 603, 604, 605, 606, 607, 608, 609, 610, 611, 612, 613, 614, 615, 616, 617, 618, 619, 620, 621, 622, 623, 624, 625, 626, 627, 628, 629, 630, 631, 632, 633, 634, 635, 636, 637, 638, 639, 640, 641, 642, 643, 644, 645, 646, 647, 648, 649, 650, 651, 652, 653, 654, 655, 656, 657, 658, 659, 660, 661, 662, 663, 664, 665, 666, 667, 668, 669, 670, 671, 672, 673, 674, 675, 676, 677, 678, 679, 680, 681, 682, 683, 684, 685, 686, 687, 688, 689, 690, 691, 692, 693, 694, 695, 696, 697, 698, 699, 700, 701, 702, 703, 704, 705, 706, 707, 708, 709, 710, 711, 712, 713, 714, 715, 716, 717, 718, 719, 720, 721, 722, 723, 724, 725, 726, 727, 728, 729, 730, 731, 732, 733, 734, 735, 736, 737, 738, 739, 740, 741, 742, 743, 744, 745, 746, 747, 748, 749, 750, 751, 752, 753, 754, 755, 756, 757, 758, 759, 760, 761, 762, 763, 764, 765, 766, 767, 768, 769, 770, 771, 772, 773, 774, 775, 776, 777, 778, 779, 780, 781, 782, 783, 784, 785, 786, 787, 788, 789, 790, 791, 792, 793, 794, 795, 796, 797, 798, 799, 800, 801, 802, 803, 804, 805, 806, 807, 808, 809, 810, 811, 812, 813, 814, 815, 816, 817, 818, 819, 820, 821, 822, 823, 824, 825, 826, 827, 828, 829, 830, 831, 832, 833, 834, 835, 836, 837, 838, 839],
      "AcquisitionTime": ["094900.487500", "094900.947500", "094901.407500", "094901.867500", "094902.327500", "094902.787500", "094903.247500", "094903.707500", "094904.167500", "094904.627500", "094905.087500", "094905.547500", "094906.007500", "094906.467500", "094906.927500", "094907.387500", "094907.847500", "094908.307500", "094908.767500", "094909.227500", "094909.687500", "094910.147500", "094910.607500", "094911.067500", "094911.527500", "094911.987500", "094912.447500", "094912.907500", "094913.367500", "094913.827500", "094914.287500", "094914.747500", "094915.207500", "094915.667500", "094916.127500", "094916.587500", "094917.047500", "094917.507500", "094917.967500", "094918.427500", "094918.887500", "094919.347500", "094919.807500", "094920.267500", "094920.727500", "094921.187500", "094921.647500", "094922.107500", "094922.567500", "094923.027500", "094923.487500", "094923.947500", "094924.407500", "094924.867500", "094925.327500", "094925.787500", "094926.247500", "094926.707500", "094927.167500", "094927.627500", "094928.087500", "094928.547500", "094929.007500", "094929.467500", "094929.927500", "094930.387500", "094930.847500", "094931.307500", "094931.767500", "094932.227500", "094932.687500", "094933.147500", "094933.607500", "094934.067500", "094934.527500", "094934.987500", "094935.447500", "094935.907500", "094936.367500", "094936.827500", "094937.287500", "094937.747500", "094938.207500", "094938.667500", "094939.127500", "094939.587500", "094940.047500", "094940.507500", "094940.967500", "094941.427500", "094941.887500", "094942.347500", "094942.807500", "094943.267500", "094943.727500", "094944.187500", "094944.647500", "094945.107500", "094945.567500", "094946.027500", "094946.487500", "094946.947500", "094947.407500", "094947.867500", "094948.327500", "094948.787500", "094949.247500", "094949.707500", "094950.167500", "094950.627500", "094951.087500", "094951.547500", "094952.007500", "094952.467500", "094952.927500", "094953.387500", "094953.847500", "094954.307500", "094954.767500", "094955.227500", "094955.687500", "094956.147500", "094956.607500", "094957.067500", "094957.527500", "094957.987500", "094958.447500", "094958.907500", "094959.367500", "094959.827500", "095000.287500", "095000.747500", "095001.207500", "095001.667500", "095002.127500", "095002.587500", "095003.047500", "095003.507500", "095003.967500", "095004.427500", "095004.887500", "095005.347500", "095005.807500", "095006.267500", "095006.727500", "095007.187500", "095007.647500", "095008.107500", "095008.567500", "095009.027500", "095009.487500", "095009.947500", "095010.407500", "095010.867500", "095011.327500", "095011.787500", "095012.247500", "095012.707500", "095013.167500", "095013.627500", "095014.087500", "095014.547500", "095015.007500", "095015.467500", "095015.927500", "095016.387500", "095016.847500", "095017.307500", "095017.767500", "095018.227500", "095018.687500", "095019.147500", "095019.607500", "095020.067500", "095020.527500", "095020.987500", "095021.447500", "095021.907500", "095022.367500", "095022.827500", "095023.287500", "095023.747500", "095024.207500", "095024.667500", "095025.127500", "095025.587500", "095026.047500", "095026.507500", "095026.967500", "095027.427500", "095027.887500", "095028.347500", "095028.807500", "095029.267500", "095029.727500", "095030.187500", "095030.647500", "095031.107500", "095031.567500", "095032.027500", "095032.487500", "095032.947500", "095033.407500", "095033.867500", "095034.327500", "095034.787500", "095035.247500", "095035.707500", "095036.167500", "095036.627500", "095037.087500", "095037.547500", "095038.007500", "095038.467500", "095038.927500", "095039.387500", "095039.847500", "095040.307500", "095040.767500", "095041.227500", "095041.687500", "095042.147500", "095042.607500", "095043.067500", "095043.527500", "095043.987500", "095044.447500", "095044.907500", "095045.367500", "095045.827500", "095046.287500", "095046.747500", "095047.207500", "095047.667500", "095048.127500", "095048.587500", "095049.047500", "095049.507500", "095049.967500", "095050.427500", "095050.887500", "095051.347500", "095051.807500", "095052.267500", "095052.727500", "095053.187500", "095053.647500", "095054.107500", "095054.567500", "095055.027500", "095055.487500", "095055.947500", "095056.407500", "095056.867500", "095057.327500", "095057.787500", "095058.247500", "095058.707500", "095059.167500", "095059.627500", "095100.087500", "095100.547500", "095101.007500", "095101.467500", "095101.927500", "095102.387500", "095102.847500", "095103.307500", "095103.767500", "095104.227500", "095104.687500", "095105.147500", "095105.607500", "095106.067500", "095106.527500", "095106.987500", "095107.447500", "095107.907500", "095108.367500", "095108.827500", "095109.287500", "095109.747500", "095110.207500", "095110.667500", "095111.127500", "095111.587500", "095112.047500", "095112.507500", "095112.967500", "095113.427500", "095113.887500", "095114.347500", "095114.807500", "095115.267500", "095115.727500", "095116.187500", "095116.647500", "095117.107500", "095117.567500", "095118.027500", "095118.487500", "095118.947500", "095119.407500", "095119.867500", "095120.327500", "095120.787500", "095121.247500", "095121.707500", "095122.167500", "095122.627500", "095123.087500", "095123.547500", "095124.007500", "095124.467500", "095124.927500", "095125.387500", "095125.847500", "095126.307500", "095126.767500", "095127.227500", "095127.687500", "095128.147500", "095128.607500", "095129.067500", "095129.527500", "095129.987500", "095130.447500", "095130.907500", "095131.367500", "095131.827500", "095132.287500", "095132.747500", "095133.207500", "095133.667500", "095134.127500", "095134.587500", "095135.047500", "095135.507500", "095135.967500", "095136.427500", "095136.887500", "095137.347500", "095137.807500", "095138.267500", "095138.727500", "095139.187500", "095139.647500", "095140.107500", "095140.567500", "095141.027500", "095141.487500", "095141.947500", "095142.407500", "095142.867500", "095143.327500", "095143.787500", "095144.247500", "095144.707500", "095145.167500", "095145.627500", "095146.087500", "095146.547500", "095147.007500", "095147.467500", "095147.927500", "095148.387500", "095148.847500", "095149.307500", "095149.767500", "095150.227500", "095150.687500", "095151.147500", "095151.607500", "095152.067500", "095152.527500", "095152.987500", "095153.447500", "095153.907500", "095154.367500", "095154.827500", "095155.287500", "095155.747500", "095156.207500", "095156.667500", "095157.127500", "095157.587500", "095158.047500", "095158.507500", "095158.967500", "095159.427500", "095159.887500", "095200.347500", "095200.807500", "095201.267500", "095201.727500", "095202.187500", "095202.647500", "095203.107500", "095203.567500", "095204.027500", "095204.487500", "095204.947500", "095205.407500", "095205.867500", "095206.327500", "095206.787500", "095207.247500", "095207.707500", "095208.167500", "095208.627500", "095209.087500", "095209.547500", "095210.007500", "095210.467500", "095210.927500", "095211.387500", "095211.847500", "095212.307500", "095212.767500", "095213.227500", "095213.687500", "095214.147500", "095214.607500", "095215.067500", "095215.527500", "095215.987500", "095216.447500", "095216.907500", "095217.367500", "095217.827500", "095218.287500", "095218.747500", "095219.207500", "095219.667500", "095220.127500", "095220.587500", "095221.047500", "095221.507500", "095221.967500", "095222.427500", "095222.887500", "095223.347500", "095223.807500", "095224.267500", "095224.727500", "095225.187500", "095225.647500", "095226.107500", "095226.567500", "095227.027500", "095227.487500", "095227.947500", "095228.407500", "095228.867500", "095229.327500", "095229.787500", "095230.247500", "095230.707500", "095231.167500", "095231.627500", "095232.087500", "095232.547500", "095233.007500", "095233.467500", "095233.927500", "095234.387500", "095234.847500", "095235.307500", "095235.767500", "095236.227500", "095236.687500", "095237.147500", "095237.607500", "095238.067500", "095238.527500", "095238.987500", "095239.447500", "095239.907500", "095240.367500", "095240.827500", "095241.287500", "095241.747500", "095242.207500", "095242.667500", "095243.127500", "095243.587500", "095244.047500", "095244.507500", "095244.967500", "095245.427500", "095245.887500", "095246.347500", "095246.807500", "095247.267500", "095247.727500", "095248.187500", "095248.647500", "095249.107500", "095249.567500", "095250.027500", "095250.487500", "095250.947500", "095251.407500", "095251.867500", "095252.327500", "095252.787500", "095253.247500", "095253.707500", "095254.167500", "095254.627500", "095255.087500", "095255.547500", "095256.007500", "095256.467500", "095256.927500", "095257.387500", "095257.847500", "095258.307500", "095258.767500", "095259.227500", "095259.687500", "095300.147500", "095300.607500", "095301.067500", "095301.527500", "095301.987500", "095302.447500", "095302.907500", "095303.367500", "095303.827500", "095304.287500", "095304.747500", "095305.207500", "095305.667500", "095306.127500", "095306.587500", "095307.047500", "095307.507500", "095307.967500", "095308.427500", "095308.887500", "095309.347500", "095309.807500", "095310.267500", "095310.727500", "095311.187500", "095311.647500", "095312.107500", "095312.567500", "095313.027500", "095313.487500", "095313.947500", "095314.407500", "095314.867500", "095315.327500", "095315.787500", "095316.247500", "095316.707500", "095317.167500", "095317.627500", "095318.087500", "095318.547500", "095319.007500", "095319.467500", "095319.927500", "095320.387500", "095320.847500", "095321.307500", "095321.767500", "095322.227500", "095322.687500", "095323.147500", "095323.607500", "095324.067500", "095324.527500", "095324.987500", "095325.447500", "095325.907500", "095326.367500", "095326.827500", "095327.287500", "095327.747500", "095328.207500", "095328.667500", "095329.127500", "095329.587500", "095330.047500", "095330.507500", "095330.967500", "095331.427500", "095331.887500", "095332.347500", "095332.807500", "095333.267500", "095333.727500", "095334.187500", "095334.647500", "095335.107500", "095335.567500", "095336.027500", "095336.487500", "095336.947500", "095337.407500", "095337.867500", "095338.327500", "095338.787500", "095339.247500", "095339.707500", "095340.167500", "095340.627500", "095341.087500", "095341.547500", "095342.007500", "095342.467500", "095342.927500", "095343.387500", "095343.847500", "095344.307500", "095344.767500", "095345.227500", "095345.687500", "095346.147500", "095346.607500", "095347.067500", "095347.527500", "095347.987500", "095348.447500", "095348.907500", "095349.367500", "095349.827500", "095350.287500", "095350.747500", "095351.207500", "095351.667500", "095352.127500", "095352.587500", "095353.047500", "095353.507500", "095353.967500", "095354.427500", "095354.887500", "095355.347500", "095355.807500", "095356.267500", "095356.727500", "095357.187500", "095357.647500", "095358.107500", "095358.567500", "095359.027500", "095359.487500", "095359.947500", "095400.407500", "095400.867500", "095401.327500", "095401.787500", "095402.247500", "095402.707500", "095403.167500", "095403.627500", "095404.087500", "095404.547500", "095405.007500", "095405.467500", "095405.927500", "095406.387500", "095406.847500", "095407.307500", "095407.767500", "095408.227500", "095408.687500", "095409.147500", "095409.607500", "095410.067500", "095410.527500", "095410.987500", "095411.447500", "095411.907500", "095412.367500", "095412.827500", "095413.287500", "095413.747500", "095414.207500", "095414.667500", "095415.127500", "095415.587500", "095416.047500", "095416.507500", "095416.967500", "095417.427500", "095417.887500", "095418.347500", "095418.807500", "095419.267500", "095419.727500", "095420.187500", "095420.647500", "095421.107500", "095421.567500", "095422.027500", "095422.487500", "095422.947500", "095423.407500", "095423.867500", "095424.327500", "095424.787500", "095425.247500", "095425.707500", "095426.167500", "095426.627500", "095427.087500", "095427.547500", "095428.007500", "095428.467500", "095428.927500", "095429.387500", "095429.847500", "095430.307500", "095430.767500", "095431.227500", "095431.687500", "095432.147500", "095432.607500", "095433.067500", "095433.527500", "095433.987500", "095434.447500", "095434.907500", "095435.367500", "095435.827500", "095436.287500", "095436.747500", "095437.207500", "095437.667500", "095438.127500", "095438.587500", "095439.047500", "095439.507500", "095439.967500", "095440.427500", "095440.887500", "095441.347500", "095441.807500", "095442.267500", "095442.727500", "095443.187500", "095443.647500", "095444.107500", "095444.567500", "095445.027500", "095445.487500", "095445.947500", "095446.407500", "095446.867500", "095447.327500", "095447.787500", "095448.247500", "095448.707500", "095449.167500", "095449.627500", "095450.087500", "095450.547500", "095451.007500", "095451.467500", "095451.927500", "095452.387500", "095452.847500", "095453.307500", "095453.767500", "095454.227500", "095454.687500", "095455.147500", "095455.607500", "095456.067500", "095456.527500", "095456.987500", "095457.447500", "095457.907500", "095458.367500", "095458.827500", "095459.287500", "095459.747500", "095500.207500", "095500.667500", "095501.127500", "095501.587500", "095502.047500", "095502.507500", "095502.967500", "095503.427500", "095503.887500", "095504.347500", "095504.807500", "095505.267500", "095505.727500", "095506.187500", "095506.647500", "095507.107500", "095507.567500", "095508.027500", "095508.487500", "095508.947500", "095509.407500", "095509.867500", "095510.327500", "095510.787500", "095511.247500", "095511.707500", "095512.167500", "095512.627500", "095513.087500", "095513.547500", "095514.007500", "095514.467500", "095514.927500", "095515.387500", "095515.847500", "095516.307500", "095516.767500", "095517.227500", "095517.687500", "095518.147500", "095518.607500", "095519.067500", "095519.527500", "095519.987500", "095520.447500", "095520.907500", "095521.367500", "095521.827500", "095522.287500", "095522.747500", "095523.207500", "095523.667500", "095524.127500", "095524.587500", "095525.047500", "095525.507500", "095525.967500"],
