{
  "AcquisitionMatrixPE": 82,
  "AcquisitionNumber": 1,
  "AcquisitionTime": "08:47:2.942500",
  "BandwidthPerPixelPhaseEncode": 24.888,
  "BaseResolution": 82,
  "BodyPartExamined": "BRAIN",
  "ConsistencyInfo": "N4_VE11E_LATEST_20181129",
  "ConversionSoftware": "dcm2niix",
  "ConversionSoftwareVersion": "v1.0.20201102",
  "DerivedVendorReportedEchoSpacing": 0.00049,
  "DeviceSerialNumber": "66112",
  "DwellTime": 2e-06,
  "EchoTime": 0.0272,
  "EchoTrainLength": 82,
  "EffectiveEchoSpacing": 0.00049,
  "FlipAngle": 44,
  "ImageComments": "Unaliased MB8/PE3",
  "ImageOrientationPatientDICOM": [0.999959, -0.00907895, 0.000288518, 0.00907565, 0.99991, 0.00989767],
  "ImageType": [
    "ORIGINAL",
    "PRIMARY",
    "M",
    "MB",
    "ND",
    "NORM",
    "MOSAIC"
],
  "ImagingFrequency": 123.252,
  "InPlanePhaseEncodingDirectionDICOM": "COL",
  "InstitutionAddress": "Maynard 3,Hanover,NH,US,03755",
  "InstitutionName": "Dartmouth College - PBS",
  "InstitutionalDepartmentName": "Department",
  "MRAcquisitionType": "2D",
  "MagneticFieldStrength": 3,
  "Manufacturer": "Siemens",
  "ManufacturersModelName": "Prisma",
  "Modality": "MR",
  "MultibandAccelerationFactor": 8,
  "PartialFourier": 1,
  "PatientPosition": "HFS",
  "PercentPhaseFOV": 100,
  "PercentSampling": 100,
  "PhaseEncodingDirection": "j-",
  "PhaseEncodingSteps": 82,
  "PhaseResolution": 1,
  "PixelBandwidth": 3050,
  "ProcedureStepDescription": "Wager_Wager^1076_spacetop",
  "ProtocolName": "func_run-01_task-narratives_acq-ap-mb8",
  "PulseSequenceDetails": "%CustomerSeq%\\cmrr_mbep2d_bold",
  "ReceiveCoilActiveElements": "HEA;HEP",
  "ReceiveCoilName": "Head_32",
  "ReconMatrixPE": 82,
  "RepetitionTime": 0.46,
  "SAR": 0.0815634,
  "ScanOptions": "FS",
  "ScanningSequence": "EP",
  "SequenceName": "epfid2d1_82",
  "SequenceVariant": "SK\\SS",
  "SeriesDescription": "func_run-01_task-narratives_acq-ap-mb8",
  "SeriesNumber": 8,
  "ShimSetting": [4152, -7775, -7192, 512, -11, -114, -17, 80],
  "SliceThickness": 2.7,
  "SliceTiming": [0, 0.2525, 0.0625, 0.315, 0.125, 0.3775, 0.19, 0, 0.2525, 0.0625, 0.315, 0.125, 0.3775, 0.19, 0, 0.2525, 0.0625, 0.315, 0.125, 0.3775, 0.19, 0, 0.2525, 0.0625, 0.315, 0.125, 0.3775, 0.19, 0, 0.2525, 0.0625, 0.315, 0.125, 0.3775, 0.19, 0, 0.2525, 0.0625, 0.315, 0.125, 0.3775, 0.19, 0, 0.2525, 0.0625, 0.315, 0.125, 0.3775, 0.19, 0, 0.2525, 0.0625, 0.315, 0.125, 0.3775, 0.19],
  "SoftwareVersions": "syngo MR E11",
  "SpacingBetweenSlices": 2.7,
  "StationName": "AWP66112",
  "TaskName": "narratives",
  "TotalReadoutTime": 0.03969,
  "TxRefAmp": 247.857,
  "WipMemBlock": "20c409c5-9d58-42f1-a10f-84ce1769e8e2||Sequence: R016 ve11e/master r/434b28f1; Aug  7 2019 18:53:46 by eja",
  "dcmmeta_affine": [
    [-2.68281626701355, 0.024349303916096687, 0.001021551783196628, 114.04316711425781],
    [0.024358157068490982, 2.682684898376465, 0.026715539395809174, -90.88227844238281],
    [0.0007740728906355798, -0.02655472792685032, 2.6998677253723145, -57.895023345947266],
    [0.0, 0.0, 0.0, 1.0]
],
  "dcmmeta_reorient_transform": [
    [0.0, -1.0, 0.0, 81.0],
    [1.0, 0.0, 0.0, 0.0],
    [0.0, 0.0, 1.0, 0.0],
    [0.0, 0.0, 0.0, 1.0]
],
  "dcmmeta_shape": [82, 82, 56, 967],
  "dcmmeta_slice_dim": 2,
  "dcmmeta_version": 0.6,
  "global": {
    "const": {
      "AccessionNumber": "A004146",
      "AcquisitionMatrix": [82, 0, 0, 82],
      "AngioFlag": "N",
      "BitsAllocated": 16,
      "BitsStored": 16,
      "BodyPartExamined": "BRAIN",
      "Columns": 656,
      "EchoNumbers": 1,
      "EchoTime": 27.2,
      "EchoTrainLength": 82,
      "FlipAngle": 44.0,
      "HighBit": 15,
      "ImageOrientationPatient": [0.99995874386832, -0.0090789492023, 0.00028851807856, 0.00907564932508, 0.99990983028118, 0.00989767126095],
      "ImagePositionPatient": [-892.97196515146, -889.35500328205, -67.889322906706],
      "ImageType": [
        "ORIGINAL",
        "PRIMARY",
        "M",
        "MB",
        "ND",
        "NORM",
        "MOSAIC"
],
      "ImagedNucleus": "1H",
      "ImagingFrequency": 123.252127,
      "InPlanePhaseEncodingDirection": "COL",
      "MRAcquisitionType": "2D",
      "MagneticFieldStrength": 3.0,
      "Manufacturer": "SIEMENS",
      "ManufacturerModelName": "Prisma",
      "Modality": "MR",
      "NumberOfAverages": 1.0,
      "NumberOfPhaseEncodingSteps": 82,
      "PercentPhaseFieldOfView": 100.0,
      "PercentSampling": 100.0,
      "PerformedProcedureStepStartTime": "082517.669000",
      "PhotometricInterpretation": "MONOCHROME2",
      "PixelBandwidth": 3050.0,
      "PixelRepresentation": 0,
      "PixelSpacing": [2.6829268932343, 2.6829268932343],
      "ProtocolName": "func_run-01_task-narratives_acq-ap-mb8",
      "RepetitionTime": 460.0,
      "Rows": 656,
      "SAR": 0.08156336949677,
      "SamplesPerPixel": 1,
      "ScanOptions": "FS",
      "ScanningSequence": "EP",
      "SequenceName": "epfid2d1_82",
      "SequenceVariant": [
        "SK",
        "SS"
],
      "SeriesDescription": "func_run-01_task-narratives_acq-ap-mb8",
      "SeriesNumber": 8,
      "SeriesTime": "084718.988000",
      "SliceLocation": -58.74828492538,
      "SliceThickness": 2.7000000476837,
      "SmallestImagePixelValue": 0,
      "SoftwareVersions": "syngo MR E11",
      "SpacingBetweenSlices": 2.700000031555,
      "SpecificCharacterSet": "ISO_IR 100",
      "StudyID": "2",
      "StudyTime": "082517.524000",
      "TransmitCoilName": "Body",
      "VariableFlipAngleFlag": "N",
      "WindowCenterWidthExplanation": "Algo1"
    },
    "slices": {}
  },
  "time": {
    "samples": {
      "AcquisitionNumber": [1, 2, 3, 4, 5, 6, 7, 8, 9, 10, 11, 12, 13, 14, 15, 16, 17, 18, 19, 20, 21, 22, 23, 24, 25, 26, 27, 28, 29, 30, 31, 32, 33, 34, 35, 36, 37, 38, 39, 40, 41, 42, 43, 44, 45, 46, 47, 48, 49, 50, 51, 52, 53, 54, 55, 56, 57, 58, 59, 60, 61, 62, 63, 64, 65, 66, 67, 68, 69, 70, 71, 72, 73, 74, 75, 76, 77, 78, 79, 80, 81, 82, 83, 84, 85, 86, 87, 88, 89, 90, 91, 92, 93, 94, 95, 96, 97, 98, 99, 100, 101, 102, 103, 104, 105, 106, 107, 108, 109, 110, 111, 112, 113, 114, 115, 116, 117, 118, 119, 120, 121, 122, 123, 124, 125, 126, 127, 128, 129, 130, 131, 132, 133, 134, 135, 136, 137, 138, 139, 140, 141, 142, 143, 144, 145, 146, 147, 148, 149, 150, 151, 152, 153, 154, 155, 156, 157, 158, 159, 160, 161, 162, 163, 164, 165, 166, 167, 168, 169, 170, 171, 172, 173, 174, 175, 176, 177, 178, 179, 180, 181, 182, 183, 184, 185, 186, 187, 188, 189, 190, 191, 192, 193, 194, 195, 196, 197, 198, 199, 200, 201, 202, 203, 204, 205, 206, 207, 208, 209, 210, 211, 212, 213, 214, 215, 216, 217, 218, 219, 220, 221, 222, 223, 224, 225, 226, 227, 228, 229, 230, 231, 232, 233, 234, 235, 236, 237, 238, 239, 240, 241, 242, 243, 244, 245, 246, 247, 248, 249, 250, 251, 252, 253, 254, 255, 256, 257, 258, 259, 260, 261, 262, 263, 264, 265, 266, 267, 268, 269, 270, 271, 272, 273, 274, 275, 276, 277, 278, 279, 280, 281, 282, 283, 284, 285, 286, 287, 288, 289, 290, 291, 292, 293, 294, 295, 296, 297, 298, 299, 300, 301, 302, 303, 304, 305, 306, 307, 308, 309, 310, 311, 312, 313, 314, 315, 316, 317, 318, 319, 320, 321, 322, 323, 324, 325, 326, 327, 328, 329, 330, 331, 332, 333, 334, 335, 336, 337, 338, 339, 340, 341, 342, 343, 344, 345, 346, 347, 348, 349, 350, 351, 352, 353, 354, 355, 356, 357, 358, 359, 360, 361, 362, 363, 364, 365, 366, 367, 368, 369, 370, 371, 372, 373, 374, 375, 376, 377, 378, 379, 380, 381, 382, 383, 384, 385, 386, 387, 388, 389, 390, 391, 392, 393, 394, 395, 396, 397, 398, 399, 400, 401, 402, 403, 404, 405, 406, 407, 408, 409, 410, 411, 412, 413, 414, 415, 416, 417, 418, 419, 420, 421, 422, 423, 424, 425, 426, 427, 428, 429, 430, 431, 432, 433, 434, 435, 436, 437, 438, 439, 440, 441, 442, 443, 444, 445, 446, 447, 448, 449, 450, 451, 452, 453, 454, 455, 456, 457, 458, 459, 460, 461, 462, 463, 464, 465, 466, 467, 468, 469, 470, 471, 472, 473, 474, 475, 476, 477, 478, 479, 480, 481, 482, 483, 484, 485, 486, 487, 488, 489, 490, 491, 492, 493, 494, 495, 496, 497, 498, 499, 500, 501, 502, 503, 504, 505, 506, 507, 508, 509, 510, 511, 512, 513, 514, 515, 516, 517, 518, 519, 520, 521, 522, 523, 524, 525, 526, 527, 528, 529, 530, 531, 532, 533, 534, 535, 536, 537, 538, 539, 540, 541, 542, 543, 544, 545, 546, 547, 548, 549, 550, 551, 552, 553, 554, 555, 556, 557, 558, 559, 560, 561, 562, 563, 564, 565, 566, 567, 568, 569, 570, 571, 572, 573, 574, 575, 576, 577, 578, 579, 580, 581, 582, 583, 584, 585, 586, 587, 588, 589, 590, 591, 592, 593, 594, 595, 596, 597, 598, 599, 600, 601, 602, 603, 604, 605, 606, 607, 608, 609, 610, 611, 612, 613, 614, 615, 616, 617, 618, 619, 620, 621, 622, 623, 624, 625, 626, 627, 628, 629, 630, 631, 632, 633, 634, 635, 636, 637, 638, 639, 640, 641, 642, 643, 644, 645, 646, 647, 648, 649, 650, 651, 652, 653, 654, 655, 656, 657, 658, 659, 660, 661, 662, 663, 664, 665, 666, 667, 668, 669, 670, 671, 672, 673, 674, 675, 676, 677, 678, 679, 680, 681, 682, 683, 684, 685, 686, 687, 688, 689, 690, 691, 692, 693, 694, 695, 696, 697, 698, 699, 700, 701, 702, 703, 704, 705, 706, 707, 708, 709, 710, 711, 712, 713, 714, 715, 716, 717, 718, 719, 720, 721, 722, 723, 724, 725, 726, 727, 728, 729, 730, 731, 732, 733, 734, 735, 736, 737, 738, 739, 740, 741, 742, 743, 744, 745, 746, 747, 748, 749, 750, 751, 752, 753, 754, 755, 756, 757, 758, 759, 760, 761, 762, 763, 764, 765, 766, 767, 768, 769, 770, 771, 772, 773, 774, 775, 776, 777, 778, 779, 780, 781, 782, 783, 784, 785, 786, 787, 788, 789, 790, 791, 792, 793, 794, 795, 796, 797, 798, 799, 800, 801, 802, 803, 804, 805, 806, 807, 808, 809, 810, 811, 812, 813, 814, 815, 816, 817, 818, 819, 820, 821, 822, 823, 824, 825, 826, 827, 828, 829, 830, 831, 832, 833, 834, 835, 836, 837, 838, 839, 840, 841, 842, 843, 844, 845, 846, 847, 848, 849, 850, 851, 852, 853, 854, 855, 856, 857, 858, 859, 860, 861, 862, 863, 864, 865, 866, 867, 868, 869, 870, 871, 872, 873, 874, 875, 876, 877, 878, 879, 880, 881, 882, 883, 884, 885, 886, 887, 888, 889, 890, 891, 892, 893, 894, 895, 896, 897, 898, 899, 900, 901, 902, 903, 904, 905, 906, 907, 908, 909, 910, 911, 912, 913, 914, 915, 916, 917, 918, 919, 920, 921, 922, 923, 924, 925, 926, 927, 928, 929, 930, 931, 932, 933, 934, 935, 936, 937, 938, 939, 940, 941, 942, 943, 944, 945, 946, 947, 948, 949, 950, 951, 952, 953, 954, 955, 956, 957, 958, 959, 960, 961, 962, 963, 964, 965, 966, 967],
      "AcquisitionTime": ["084702.942500", "084703.402500", "084703.862500", "084704.322500", "084704.782500", "084705.242500", "084705.702500", "084706.162500", "084706.622500", "084707.082500", "084707.542500", "084708.002500", "084708.462500", "084708.922500", "084709.382500", "084709.842500", "084710.302500", "084710.762500", "084711.222500", "084711.682500", "084712.142500", "084712.602500", "084713.062500", "084713.522500", "084713.982500", "084714.442500", "084714.902500", "084715.362500", "084715.822500", "084716.282500", "084716.742500", "084717.202500", "084717.662500", "084718.122500", "084718.582500", "084719.042500", "084719.502500", "084719.962500", "084720.422500", "084720.882500", "084721.342500", "084721.802500", "084722.262500", "084722.722500", "084723.182500", "084723.642500", "084724.102500", "084724.562500", "084725.022500", "084725.482500", "084725.942500", "084726.402500", "084726.862500", "084727.322500", "084727.782500", "084728.242500", "084728.702500", "084729.162500", "084729.622500", "084730.082500", "084730.542500", "084731.002500", "084731.462500", "084731.922500", "084732.382500", "084732.842500", "084733.302500", "084733.762500", "084734.222500", "084734.682500", "084735.142500", "084735.602500", "084736.062500", "084736.522500", "084736.982500", "084737.442500", "084737.902500", "084738.362500", "084738.822500", "084739.282500", "084739.742500", "084740.202500", "084740.662500", "084741.122500", "084741.582500", "084742.042500", "084742.502500", "084742.962500", "084743.422500", "084743.882500", "084744.342500", "084744.802500", "084745.262500", "084745.722500", "084746.182500", "084746.642500", "084747.102500", "084747.562500", "084748.022500", "084748.482500", "084748.942500", "084749.402500", "084749.862500", "084750.322500", "084750.782500", "084751.242500", "084751.702500", "084752.162500", "084752.622500", "084753.082500", "084753.542500", "084754.002500", "084754.462500", "084754.922500", "084755.382500", "084755.842500", "084756.302500", "084756.762500", "084757.222500", "084757.682500", "084758.142500", "084758.602500", "084759.062500", "084759.522500", "084759.982500", "084800.442500", "084800.902500", "084801.362500", "084801.822500", "084802.282500", "084802.742500", "084803.202500", "084803.662500", "084804.122500", "084804.582500", "084805.042500", "084805.502500", "084805.962500", "084806.422500", "084806.882500", "084807.342500", "084807.802500", "084808.262500", "084808.722500", "084809.182500", "084809.642500", "084810.102500", "084810.562500", "084811.022500", "084811.482500", "084811.942500", "084812.402500", "084812.862500", "084813.322500", "084813.782500", "084814.242500", "084814.702500", "084815.162500", "084815.622500", "084816.082500", "084816.542500", "084817.002500", "084817.462500", "084817.922500", "084818.382500", "084818.842500", "084819.302500", "084819.762500", "084820.222500", "084820.682500", "084821.142500", "084821.602500", "084822.062500", "084822.522500", "084822.982500", "084823.442500", "084823.902500", "084824.362500", "084824.822500", "084825.282500", "084825.742500", "084826.202500", "084826.662500", "084827.122500", "084827.582500", "084828.042500", "084828.502500", "084828.962500", "084829.422500", "084829.882500", "084830.342500", "084830.802500", "084831.262500", "084831.722500", "084832.182500", "084832.642500", "084833.102500", "084833.562500", "084834.022500", "084834.482500", "084834.942500", "084835.402500", "084835.862500", "084836.322500", "084836.782500", "084837.242500", "084837.702500", "084838.162500", "084838.622500", "084839.082500", "084839.542500", "084840.002500", "084840.462500", "084840.922500", "084841.382500", "084841.842500", "084842.302500", "084842.762500", "084843.222500", "084843.682500", "084844.142500", "084844.602500", "084845.062500", "084845.522500", "084845.982500", "084846.442500", "084846.902500", "084847.362500", "084847.822500", "084848.282500", "084848.742500", "084849.202500", "084849.662500", "084850.122500", "084850.582500", "084851.042500", "084851.502500", "084851.962500", "084852.422500", "084852.882500", "084853.342500", "084853.802500", "084854.262500", "084854.722500", "084855.182500", "084855.642500", "084856.102500", "084856.562500", "084857.022500", "084857.482500", "084857.942500", "084858.402500", "084858.862500", "084859.322500", "084859.782500", "084900.242500", "084900.702500", "084901.162500", "084901.622500", "084902.082500", "084902.542500", "084903.002500", "084903.462500", "084903.922500", "084904.382500", "084904.842500", "084905.302500", "084905.762500", "084906.222500", "084906.682500", "084907.142500", "084907.602500", "084908.062500", "084908.522500", "084908.982500", "084909.442500", "084909.902500", "084910.362500", "084910.822500", "084911.282500", "084911.742500", "084912.202500", "084912.662500", "084913.122500", "084913.582500", "084914.042500", "084914.502500", "084914.962500", "084915.422500", "084915.882500", "084916.342500", "084916.802500", "084917.262500", "084917.722500", "084918.182500", "084918.642500", "084919.102500", "084919.562500", "084920.022500", "084920.482500", "084920.942500", "084921.402500", "084921.862500", "084922.322500", "084922.782500", "084923.242500", "084923.702500", "084924.162500", "084924.622500", "084925.082500", "084925.542500", "084926.002500", "084926.462500", "084926.922500", "084927.382500", "084927.842500", "084928.302500", "084928.762500", "084929.222500", "084929.682500", "084930.142500", "084930.602500", "084931.062500", "084931.522500", "084931.982500", "084932.442500", "084932.902500", "084933.362500", "084933.822500", "084934.282500", "084934.742500", "084935.202500", "084935.662500", "084936.122500", "084936.582500", "084937.042500", "084937.502500", "084937.962500", "084938.422500", "084938.882500", "084939.342500", "084939.802500", "084940.262500", "084940.722500", "084941.182500", "084941.642500", "084942.102500", "084942.562500", "084943.022500", "084943.482500", "084943.942500", "084944.402500", "084944.862500", "084945.322500", "084945.782500", "084946.242500", "084946.702500", "084947.162500", "084947.622500", "084948.082500", "084948.542500", "084949.002500", "084949.462500", "084949.922500", "084950.382500", "084950.842500", "084951.302500", "084951.762500", "084952.222500", "084952.682500", "084953.142500", "084953.602500", "084954.062500", "084954.522500", "084954.982500", "084955.442500", "084955.902500", "084956.362500", "084956.822500", "084957.282500", "084957.742500", "084958.202500", "084958.662500", "084959.122500", "084959.582500", "085000.042500", "085000.502500", "085000.962500", "085001.422500", "085001.882500", "085002.342500", "085002.802500", "085003.262500", "085003.722500", "085004.182500", "085004.642500", "085005.102500", "085005.562500", "085006.022500", "085006.482500", "085006.942500", "085007.402500", "085007.862500", "085008.322500", "085008.782500", "085009.242500", "085009.702500", "085010.162500", "085010.622500", "085011.082500", "085011.542500", "085012.002500", "085012.462500", "085012.922500", "085013.382500", "085013.842500", "085014.302500", "085014.762500", "085015.222500", "085015.682500", "085016.142500", "085016.602500", "085017.062500", "085017.522500", "085017.982500", "085018.442500", "085018.902500", "085019.362500", "085019.822500", "085020.282500", "085020.742500", "085021.202500", "085021.662500", "085022.122500", "085022.582500", "085023.042500", "085023.502500", "085023.962500", "085024.422500", "085024.882500", "085025.342500", "085025.802500", "085026.262500", "085026.722500", "085027.182500", "085027.642500", "085028.102500", "085028.562500", "085029.022500", "085029.482500", "085029.942500", "085030.402500", "085030.862500", "085031.322500", "085031.782500", "085032.242500", "085032.702500", "085033.162500", "085033.622500", "085034.082500", "085034.542500", "085035.002500", "085035.462500", "085035.922500", "085036.382500", "085036.842500", "085037.302500", "085037.762500", "085038.222500", "085038.682500", "085039.142500", "085039.602500", "085040.062500", "085040.522500", "085040.982500", "085041.442500", "085041.902500", "085042.362500", "085042.822500", "085043.282500", "085043.742500", "085044.202500", "085044.662500", "085045.122500", "085045.582500", "085046.042500", "085046.502500", "085046.962500", "085047.422500", "085047.882500", "085048.342500", "085048.802500", "085049.262500", "085049.722500", "085050.182500", "085050.642500", "085051.102500", "085051.562500", "085052.022500", "085052.482500", "085052.942500", "085053.402500", "085053.862500", "085054.322500", "085054.782500", "085055.242500", "085055.702500", "085056.162500", "085056.622500", "085057.082500", "085057.542500", "085058.002500", "085058.462500", "085058.922500", "085059.382500", "085059.842500", "085100.302500", "085100.762500", "085101.222500", "085101.682500", "085102.142500", "085102.602500", "085103.062500", "085103.522500", "085103.982500", "085104.442500", "085104.902500", "085105.362500", "085105.822500", "085106.282500", "085106.742500", "085107.202500", "085107.662500", "085108.122500", "085108.582500", "085109.042500", "085109.502500", "085109.962500", "085110.422500", "085110.882500", "085111.342500", "085111.802500", "085112.262500", "085112.722500", "085113.182500", "085113.642500", "085114.102500", "085114.562500", "085115.022500", "085115.482500", "085115.942500", "085116.402500", "085116.862500", "085117.322500", "085117.782500", "085118.242500", "085118.702500", "085119.162500", "085119.622500", "085120.082500", "085120.542500", "085121.002500", "085121.462500", "085121.922500", "085122.382500", "085122.842500", "085123.302500", "085123.762500", "085124.222500", "085124.682500", "085125.142500", "085125.602500", "085126.062500", "085126.522500", "085126.982500", "085127.442500", "085127.902500", "085128.362500", "085128.822500", "085129.282500", "085129.742500", "085130.202500", "085130.662500", "085131.122500", "085131.582500", "085132.042500", "085132.502500", "085132.962500", "085133.422500", "085133.882500", "085134.342500", "085134.802500", "085135.262500", "085135.722500", "085136.182500", "085136.642500", "085137.102500", "085137.562500", "085138.022500", "085138.482500", "085138.942500", "085139.402500", "085139.862500", "085140.322500", "085140.782500", "085141.242500", "085141.702500", "085142.162500", "085142.622500", "085143.082500", "085143.542500", "085144.002500", "085144.462500", "085144.922500", "085145.382500", "085145.842500", "085146.302500", "085146.762500", "085147.222500", "085147.682500", "085148.142500", "085148.602500", "085149.062500", "085149.522500", "085149.982500", "085150.442500", "085150.902500", "085151.362500", "085151.822500", "085152.282500", "085152.742500", "085153.202500", "085153.662500", "085154.122500", "085154.582500", "085155.042500", "085155.502500", "085155.962500", "085156.422500", "085156.882500", "085157.342500", "085157.802500", "085158.262500", "085158.722500", "085159.182500", "085159.642500", "085200.102500", "085200.562500", "085201.022500", "085201.482500", "085201.942500", "085202.402500", "085202.862500", "085203.322500", "085203.782500", "085204.242500", "085204.702500", "085205.162500", "085205.622500", "085206.082500", "085206.542500", "085207.002500", "085207.462500", "085207.922500", "085208.382500", "085208.842500", "085209.302500", "085209.762500", "085210.222500", "085210.682500", "085211.142500", "085211.602500", "085212.062500", "085212.522500", "085212.982500", "085213.442500", "085213.902500", "085214.362500", "085214.822500", "085215.282500", "085215.742500", "085216.202500", "085216.662500", "085217.122500", "085217.582500", "085218.042500", "085218.502500", "085218.962500", "085219.422500", "085219.882500", "085220.342500", "085220.802500", "085221.262500", "085221.722500", "085222.182500", "085222.642500", "085223.102500", "085223.562500", "085224.022500", "085224.482500", "085224.942500", "085225.402500", "085225.862500", "085226.322500", "085226.782500", "085227.242500", "085227.702500", "085228.162500", "085228.622500", "085229.082500", "085229.542500", "085230.002500", "085230.462500", "085230.922500", "085231.382500", "085231.842500", "085232.302500", "085232.762500", "085233.222500", "085233.682500", "085234.142500", "085234.602500", "085235.062500", "085235.522500", "085235.982500", "085236.442500", "085236.902500", "085237.362500", "085237.822500", "085238.282500", "085238.742500", "085239.202500", "085239.662500", "085240.122500", "085240.582500", "085241.042500", "085241.502500", "085241.962500", "085242.422500", "085242.882500", "085243.342500", "085243.802500", "085244.262500", "085244.722500", "085245.182500", "085245.642500", "085246.102500", "085246.562500", "085247.022500", "085247.482500", "085247.942500", "085248.402500", "085248.862500", "085249.322500", "085249.782500", "085250.242500", "085250.702500", "085251.162500", "085251.622500", "085252.082500", "085252.542500", "085253.002500", "085253.462500", "085253.922500", "085254.382500", "085254.842500", "085255.302500", "085255.762500", "085256.222500", "085256.682500", "085257.142500", "085257.602500", "085258.062500", "085258.522500", "085258.982500", "085259.442500", "085259.902500", "085300.362500", "085300.822500", "085301.282500", "085301.742500", "085302.202500", "085302.662500", "085303.122500", "085303.582500", "085304.042500", "085304.502500", "085304.962500", "085305.422500", "085305.882500", "085306.342500", "085306.802500", "085307.262500", "085307.722500", "085308.182500", "085308.642500", "085309.102500", "085309.562500", "085310.022500", "085310.482500", "085310.942500", "085311.402500", "085311.862500", "085312.322500", "085312.782500", "085313.242500", "085313.702500", "085314.162500", "085314.622500", "085315.082500", "085315.542500", "085316.002500", "085316.462500", "085316.922500", "085317.382500", "085317.842500", "085318.302500", "085318.762500", "085319.222500", "085319.682500", "085320.142500", "085320.602500", "085321.062500", "085321.522500", "085321.982500", "085322.442500", "085322.902500", "085323.362500", "085323.822500", "085324.282500", "085324.742500", "085325.202500", "085325.662500", "085326.122500", "085326.582500", "085327.042500", "085327.502500", "085327.962500", "085328.422500", "085328.882500", "085329.342500", "085329.802500", "085330.262500", "085330.722500", "085331.182500", "085331.642500", "085332.102500", "085332.562500", "085333.022500", "085333.482500", "085333.942500", "085334.402500", "085334.862500", "085335.322500", "085335.782500", "085336.242500", "085336.702500", "085337.162500", "085337.622500", "085338.082500", "085338.542500", "085339.002500", "085339.462500", "085339.922500", "085340.382500", "085340.842500", "085341.302500", "085341.762500", "085342.222500", "085342.682500", "085343.142500", "085343.602500", "085344.062500", "085344.522500", "085344.982500", "085345.442500", "085345.902500", "085346.362500", "085346.822500", "085347.282500", "085347.742500", "085348.202500", "085348.662500", "085349.122500", "085349.582500", "085350.042500", "085350.502500", "085350.962500", "085351.422500", "085351.882500", "085352.342500", "085352.802500", "085353.262500", "085353.722500", "085354.182500", "085354.642500", "085355.102500", "085355.562500", "085356.022500", "085356.482500", "085356.942500", "085357.402500", "085357.862500", "085358.322500", "085358.782500", "085359.242500", "085359.702500", "085400.162500", "085400.622500", "085401.082500", "085401.542500", "085402.002500", "085402.462500", "085402.922500", "085403.382500", "085403.842500", "085404.302500", "085404.762500", "085405.222500", "085405.682500", "085406.142500", "085406.602500", "085407.062500", "085407.522500", "085407.982500", "085408.442500", "085408.902500", "085409.362500", "085409.822500", "085410.282500", "085410.742500", "085411.202500", "085411.662500", "085412.122500", "085412.582500", "085413.042500", "085413.502500", "085413.962500", "085414.422500", "085414.882500", "085415.342500", "085415.802500", "085416.262500", "085416.722500", "085417.182500", "085417.642500", "085418.102500", "085418.562500", "085419.022500", "085419.482500", "085419.942500", "085420.402500", "085420.862500", "085421.322500", "085421.782500", "085422.242500", "085422.702500", "085423.162500", "085423.622500", "085424.082500", "085424.542500", "085425.002500", "085425.462500", "085425.922500", "085426.382500", "085426.842500", "085427.302500"],
