{
  "AcquisitionMatrixPE": 82,
  "AcquisitionNumber": 1,
  "AcquisitionTime": "17:54:11.112500",
  "BandwidthPerPixelPhaseEncode": 24.888,
  "BaseResolution": 82,
  "BodyPartExamined": "BRAIN",
  "ConsistencyInfo": "N4_VE11C_LATEST_20160120",
  "ConversionSoftware": "dcm2niix",
  "ConversionSoftwareVersion": "v1.0.20201102",
  "DerivedVendorReportedEchoSpacing": 0.00049,
  "DeviceSerialNumber": "66112",
  "DwellTime": 2e-06,
  "EchoTime": 0.0272,
  "EchoTrainLength": 82,
  "EffectiveEchoSpacing": 0.00049,
  "FlipAngle": 44,
  "ImageComments": "Unaliased MB8/PE3",
  "ImageOrientationPatientDICOM": [0.999551, 0.0294697, -0.00550875, -0.029666, 0.998768, -0.0397899],
  "ImageType": [
    "ORIGINAL",
    "PRIMARY",
    "M",
    "MB",
    "ND",
    "NORM",
    "MOSAIC"
],
  "ImagingFrequency": 123.252,
  "InPlanePhaseEncodingDirectionDICOM": "COL",
  "InstitutionAddress": "Maynard 3,Hanover,NH,US,03755",
  "InstitutionName": "Dartmouth College - PBS",
  "InstitutionalDepartmentName": "Department",
  "MRAcquisitionType": "2D",
  "MagneticFieldStrength": 3,
  "Manufacturer": "Siemens",
  "ManufacturersModelName": "Prisma",
  "Modality": "MR",
  "MultibandAccelerationFactor": 8,
  "PartialFourier": 1,
  "PatientPosition": "HFS",
  "PercentPhaseFOV": 100,
  "PercentSampling": 100,
  "PhaseEncodingDirection": "j-",
  "PhaseEncodingSteps": 82,
  "PhaseResolution": 1,
  "PixelBandwidth": 3050,
  "ProcedureStepDescription": "Wager_Wager^1076_spacetop",
  "ProtocolName": "func_run-06_task-social_acq-ap-mb8",
  "PulseSequenceDetails": "%CustomerSeq%\\cmrr_mbep2d_bold",
  "ReceiveCoilActiveElements": "HEA;HEP",
  "ReceiveCoilName": "Head_32",
  "ReconMatrixPE": 82,
  "RepetitionTime": 0.46,
  "SAR": 0.096222,
  "ScanOptions": "FS",
  "ScanningSequence": "EP",
  "SequenceName": "epfid2d1_82",
  "SequenceVariant": "SK\\SS",
  "SeriesDescription": "func_run-06_task-social_acq-ap-mb8",
  "SeriesNumber": 18,
  "ShimSetting": [4151, -7741, -7226, 510, -44, -161, 39, 49],
  "SliceThickness": 2.7,
  "SliceTiming": [0, 0.25, 0.0625, 0.315, 0.125, 0.3775, 0.1875, 0, 0.25, 0.0625, 0.315, 0.125, 0.3775, 0.1875, 0, 0.25, 0.0625, 0.315, 0.125, 0.3775, 0.1875, 0, 0.25, 0.0625, 0.315, 0.125, 0.3775, 0.1875, 0, 0.25, 0.0625, 0.315, 0.125, 0.3775, 0.1875, 0, 0.25, 0.0625, 0.315, 0.125, 0.3775, 0.1875, 0, 0.25, 0.0625, 0.315, 0.125, 0.3775, 0.1875, 0, 0.25, 0.0625, 0.315, 0.125, 0.3775, 0.1875],
  "SoftwareVersions": "syngo MR E11",
  "SpacingBetweenSlices": 2.7,
  "StationName": "AWP66112",
  "TaskName": "social",
  "TotalReadoutTime": 0.03969,
  "TxRefAmp": 262.993,
  "WipMemBlock": "d36ecac9-dd77-4a84-a9eb-5018ec88cd3a||Sequence: R016 ve11c/master r/e634e98; Dec 19 2017 11:00:25 by eja",
  "dcmmeta_affine": [
    [-2.6817209720611572, -0.07959159463644028, -0.01168928574770689, 116.74121856689453],
    [-0.07906518131494522, 2.6796205043792725, -0.10782559961080551, -87.05282592773438],
    [-0.014779577031731606, 0.10675331205129623, 2.6978209018707275, -55.5608024597168],
    [0.0, 0.0, 0.0, 1.0]
],
  "dcmmeta_reorient_transform": [
    [0.0, -1.0, 0.0, 81.0],
    [1.0, 0.0, 0.0, 0.0],
    [0.0, 0.0, 1.0, 0.0],
    [0.0, 0.0, 0.0, 1.0]
],
  "dcmmeta_shape": [82, 82, 56, 872],
  "dcmmeta_slice_dim": 2,
  "dcmmeta_version": 0.6,
  "global": {
    "const": {
      "AccessionNumber": "A003845",
      "AcquisitionMatrix": [82, 0, 0, 82],
      "AngioFlag": "N",
      "BitsAllocated": 16,
      "BitsStored": 16,
      "BodyPartExamined": "BRAIN",
      "Columns": 656,
      "EchoNumbers": 1,
      "EchoTime": 27.2,
      "EchoTrainLength": 82,
      "FlipAngle": 44.0,
      "HighBit": 15,
      "ImageOrientationPatient": [0.9995504927504, 0.02946974890688, -0.0055087513823, -0.0296659576354, 0.99876758916993, -0.0397898703349],
      "ImagePositionPatient": [-857.10541207798, -921.73919890509, -12.033845086653],
      "ImageType": [
        "ORIGINAL",
        "PRIMARY",
        "M",
        "MB",
        "ND",
        "NORM",
        "MOSAIC"
],
      "ImagedNucleus": "1H",
      "ImagingFrequency": 123.252156,
      "InPlanePhaseEncodingDirection": "COL",
      "MRAcquisitionType": "2D",
      "MagneticFieldStrength": 3.0,
      "Manufacturer": "SIEMENS",
      "ManufacturerModelName": "Prisma",
      "Modality": "MR",
      "NumberOfAverages": 1.0,
      "NumberOfPhaseEncodingSteps": 82,
      "PercentPhaseFieldOfView": 100.0,
      "PercentSampling": 100.0,
      "PerformedProcedureStepStartTime": "170656.480000",
      "PhotometricInterpretation": "MONOCHROME2",
      "PixelBandwidth": 3050.0,
      "PixelRepresentation": 0,
      "PixelSpacing": [2.6829268932343, 2.6829268932343],
      "ProtocolName": "func_run-06_task-social_acq-ap-mb8",
      "RepetitionTime": 460.0,
      "Rows": 656,
      "SAR": 0.09622202875222,
      "SamplesPerPixel": 1,
      "ScanOptions": "FS",
      "ScanningSequence": "EP",
      "SequenceName": "epfid2d1_82",
      "SequenceVariant": [
        "SK",
        "SS"
],
      "SeriesDescription": "func_run-06_task-social_acq-ap-mb8",
      "SeriesNumber": 18,
      "SeriesTime": "175427.148000",
      "SliceLocation": -52.54488437387,
      "SliceThickness": 2.7000000476837,
      "SmallestImagePixelValue": 0,
      "SoftwareVersions": "syngo MR E11",
      "SpacingBetweenSlices": 2.7000000498372,
      "SpecificCharacterSet": "ISO_IR 100",
      "StudyID": "1",
      "StudyTime": "170656.428000",
      "TransmitCoilName": "Body",
      "VariableFlipAngleFlag": "N",
      "WindowCenterWidthExplanation": "Algo1",
      "dBdt": 0.0},
    "slices": {}
  },
  "time": {
    "samples": {
      "AcquisitionNumber": [1, 2, 3, 4, 5, 6, 7, 8, 9, 10, 11, 12, 13, 14, 15, 16, 17, 18, 19, 20, 21, 22, 23, 24, 25, 26, 27, 28, 29, 30, 31, 32, 33, 34, 35, 36, 37, 38, 39, 40, 41, 42, 43, 44, 45, 46, 47, 48, 49, 50, 51, 52, 53, 54, 55, 56, 57, 58, 59, 60, 61, 62, 63, 64, 65, 66, 67, 68, 69, 70, 71, 72, 73, 74, 75, 76, 77, 78, 79, 80, 81, 82, 83, 84, 85, 86, 87, 88, 89, 90, 91, 92, 93, 94, 95, 96, 97, 98, 99, 100, 101, 102, 103, 104, 105, 106, 107, 108, 109, 110, 111, 112, 113, 114, 115, 116, 117, 118, 119, 120, 121, 122, 123, 124, 125, 126, 127, 128, 129, 130, 131, 132, 133, 134, 135, 136, 137, 138, 139, 140, 141, 142, 143, 144, 145, 146, 147, 148, 149, 150, 151, 152, 153, 154, 155, 156, 157, 158, 159, 160, 161, 162, 163, 164, 165, 166, 167, 168, 169, 170, 171, 172, 173, 174, 175, 176, 177, 178, 179, 180, 181, 182, 183, 184, 185, 186, 187, 188, 189, 190, 191, 192, 193, 194, 195, 196, 197, 198, 199, 200, 201, 202, 203, 204, 205, 206, 207, 208, 209, 210, 211, 212, 213, 214, 215, 216, 217, 218, 219, 220, 221, 222, 223, 224, 225, 226, 227, 228, 229, 230, 231, 232, 233, 234, 235, 236, 237, 238, 239, 240, 241, 242, 243, 244, 245, 246, 247, 248, 249, 250, 251, 252, 253, 254, 255, 256, 257, 258, 259, 260, 261, 262, 263, 264, 265, 266, 267, 268, 269, 270, 271, 272, 273, 274, 275, 276, 277, 278, 279, 280, 281, 282, 283, 284, 285, 286, 287, 288, 289, 290, 291, 292, 293, 294, 295, 296, 297, 298, 299, 300, 301, 302, 303, 304, 305, 306, 307, 308, 309, 310, 311, 312, 313, 314, 315, 316, 317, 318, 319, 320, 321, 322, 323, 324, 325, 326, 327, 328, 329, 330, 331, 332, 333, 334, 335, 336, 337, 338, 339, 340, 341, 342, 343, 344, 345, 346, 347, 348, 349, 350, 351, 352, 353, 354, 355, 356, 357, 358, 359, 360, 361, 362, 363, 364, 365, 366, 367, 368, 369, 370, 371, 372, 373, 374, 375, 376, 377, 378, 379, 380, 381, 382, 383, 384, 385, 386, 387, 388, 389, 390, 391, 392, 393, 394, 395, 396, 397, 398, 399, 400, 401, 402, 403, 404, 405, 406, 407, 408, 409, 410, 411, 412, 413, 414, 415, 416, 417, 418, 419, 420, 421, 422, 423, 424, 425, 426, 427, 428, 429, 430, 431, 432, 433, 434, 435, 436, 437, 438, 439, 440, 441, 442, 443, 444, 445, 446, 447, 448, 449, 450, 451, 452, 453, 454, 455, 456, 457, 458, 459, 460, 461, 462, 463, 464, 465, 466, 467, 468, 469, 470, 471, 472, 473, 474, 475, 476, 477, 478, 479, 480, 481, 482, 483, 484, 485, 486, 487, 488, 489, 490, 491, 492, 493, 494, 495, 496, 497, 498, 499, 500, 501, 502, 503, 504, 505, 506, 507, 508, 509, 510, 511, 512, 513, 514, 515, 516, 517, 518, 519, 520, 521, 522, 523, 524, 525, 526, 527, 528, 529, 530, 531, 532, 533, 534, 535, 536, 537, 538, 539, 540, 541, 542, 543, 544, 545, 546, 547, 548, 549, 550, 551, 552, 553, 554, 555, 556, 557, 558, 559, 560, 561, 562, 563, 564, 565, 566, 567, 568, 569, 570, 571, 572, 573, 574, 575, 576, 577, 578, 579, 580, 581, 582, 583, 584, 585, 586, 587, 588, 589, 590, 591, 592, 593, 594, 595, 596, 597, 598, 599, 600, 601, 602, 603, 604, 605, 606, 607, 608, 609, 610, 611, 612, 613, 614, 615, 616, 617, 618, 619, 620, 621, 622, 623, 624, 625, 626, 627, 628, 629, 630, 631, 632, 633, 634, 635, 636, 637, 638, 639, 640, 641, 642, 643, 644, 645, 646, 647, 648, 649, 650, 651, 652, 653, 654, 655, 656, 657, 658, 659, 660, 661, 662, 663, 664, 665, 666, 667, 668, 669, 670, 671, 672, 673, 674, 675, 676, 677, 678, 679, 680, 681, 682, 683, 684, 685, 686, 687, 688, 689, 690, 691, 692, 693, 694, 695, 696, 697, 698, 699, 700, 701, 702, 703, 704, 705, 706, 707, 708, 709, 710, 711, 712, 713, 714, 715, 716, 717, 718, 719, 720, 721, 722, 723, 724, 725, 726, 727, 728, 729, 730, 731, 732, 733, 734, 735, 736, 737, 738, 739, 740, 741, 742, 743, 744, 745, 746, 747, 748, 749, 750, 751, 752, 753, 754, 755, 756, 757, 758, 759, 760, 761, 762, 763, 764, 765, 766, 767, 768, 769, 770, 771, 772, 773, 774, 775, 776, 777, 778, 779, 780, 781, 782, 783, 784, 785, 786, 787, 788, 789, 790, 791, 792, 793, 794, 795, 796, 797, 798, 799, 800, 801, 802, 803, 804, 805, 806, 807, 808, 809, 810, 811, 812, 813, 814, 815, 816, 817, 818, 819, 820, 821, 822, 823, 824, 825, 826, 827, 828, 829, 830, 831, 832, 833, 834, 835, 836, 837, 838, 839, 840, 841, 842, 843, 844, 845, 846, 847, 848, 849, 850, 851, 852, 853, 854, 855, 856, 857, 858, 859, 860, 861, 862, 863, 864, 865, 866, 867, 868, 869, 870, 871, 872],
      "AcquisitionTime": ["175411.112500", "175411.572500", "175412.032500", "175412.492500", "175412.952500", "175413.412500", "175413.872500", "175414.332500", "175414.792500", "175415.252500", "175415.712500", "175416.172500", "175416.632500", "175417.092500", "175417.552500", "175418.012500", "175418.472500", "175418.932500", "175419.392500", "175419.852500", "175420.312500", "175420.772500", "175421.232500", "175421.692500", "175422.152500", "175422.612500", "175423.072500", "175423.532500", "175423.992500", "175424.452500", "175424.912500", "175425.372500", "175425.832500", "175426.292500", "175426.752500", "175427.212500", "175427.672500", "175428.132500", "175428.592500", "175429.052500", "175429.512500", "175429.972500", "175430.432500", "175430.892500", "175431.352500", "175431.812500", "175432.272500", "175432.732500", "175433.192500", "175433.652500", "175434.112500", "175434.572500", "175435.032500", "175435.492500", "175435.952500", "175436.412500", "175436.872500", "175437.332500", "175437.792500", "175438.252500", "175438.712500", "175439.172500", "175439.632500", "175440.092500", "175440.552500", "175441.012500", "175441.472500", "175441.932500", "175442.392500", "175442.852500", "175443.312500", "175443.772500", "175444.232500", "175444.692500", "175445.152500", "175445.612500", "175446.072500", "175446.532500", "175446.992500", "175447.452500", "175447.912500", "175448.372500", "175448.832500", "175449.292500", "175449.752500", "175450.212500", "175450.672500", "175451.132500", "175451.592500", "175452.052500", "175452.512500", "175452.972500", "175453.432500", "175453.892500", "175454.352500", "175454.812500", "175455.272500", "175455.732500", "175456.192500", "175456.652500", "175457.112500", "175457.572500", "175458.032500", "175458.492500", "175458.952500", "175459.412500", "175459.872500", "175500.332500", "175500.792500", "175501.252500", "175501.712500", "175502.172500", "175502.632500", "175503.092500", "175503.552500", "175504.012500", "175504.472500", "175504.932500", "175505.392500", "175505.852500", "175506.312500", "175506.772500", "175507.232500", "175507.692500", "175508.152500", "175508.612500", "175509.072500", "175509.532500", "175509.992500", "175510.452500", "175510.912500", "175511.372500", "175511.832500", "175512.292500", "175512.752500", "175513.212500", "175513.672500", "175514.132500", "175514.592500", "175515.052500", "175515.512500", "175515.972500", "175516.432500", "175516.892500", "175517.352500", "175517.812500", "175518.272500", "175518.732500", "175519.192500", "175519.652500", "175520.112500", "175520.572500", "175521.032500", "175521.492500", "175521.952500", "175522.412500", "175522.872500", "175523.332500", "175523.792500", "175524.252500", "175524.712500", "175525.172500", "175525.632500", "175526.092500", "175526.552500", "175527.012500", "175527.472500", "175527.932500", "175528.392500", "175528.852500", "175529.312500", "175529.772500", "175530.232500", "175530.692500", "175531.152500", "175531.612500", "175532.072500", "175532.532500", "175532.992500", "175533.452500", "175533.912500", "175534.372500", "175534.832500", "175535.292500", "175535.752500", "175536.212500", "175536.672500", "175537.132500", "175537.592500", "175538.052500", "175538.512500", "175538.972500", "175539.432500", "175539.892500", "175540.352500", "175540.812500", "175541.272500", "175541.732500", "175542.192500", "175542.652500", "175543.112500", "175543.572500", "175544.032500", "175544.492500", "175544.952500", "175545.412500", "175545.872500", "175546.332500", "175546.792500", "175547.252500", "175547.712500", "175548.172500", "175548.632500", "175549.092500", "175549.552500", "175550.012500", "175550.472500", "175550.932500", "175551.392500", "175551.852500", "175552.312500", "175552.772500", "175553.232500", "175553.692500", "175554.152500", "175554.612500", "175555.072500", "175555.532500", "175555.992500", "175556.452500", "175556.912500", "175557.372500", "175557.832500", "175558.292500", "175558.752500", "175559.212500", "175559.672500", "175600.132500", "175600.592500", "175601.052500", "175601.512500", "175601.972500", "175602.432500", "175602.892500", "175603.352500", "175603.812500", "175604.272500", "175604.732500", "175605.192500", "175605.652500", "175606.112500", "175606.572500", "175607.032500", "175607.492500", "175607.952500", "175608.412500", "175608.872500", "175609.332500", "175609.792500", "175610.252500", "175610.712500", "175611.172500", "175611.632500", "175612.092500", "175612.552500", "175613.012500", "175613.472500", "175613.932500", "175614.392500", "175614.852500", "175615.312500", "175615.772500", "175616.232500", "175616.692500", "175617.152500", "175617.612500", "175618.072500", "175618.532500", "175618.992500", "175619.452500", "175619.912500", "175620.372500", "175620.832500", "175621.292500", "175621.752500", "175622.212500", "175622.672500", "175623.132500", "175623.592500", "175624.052500", "175624.512500", "175624.972500", "175625.432500", "175625.892500", "175626.352500", "175626.812500", "175627.272500", "175627.732500", "175628.192500", "175628.652500", "175629.112500", "175629.572500", "175630.032500", "175630.492500", "175630.952500", "175631.412500", "175631.872500", "175632.332500", "175632.792500", "175633.252500", "175633.712500", "175634.172500", "175634.632500", "175635.092500", "175635.552500", "175636.012500", "175636.472500", "175636.932500", "175637.392500", "175637.852500", "175638.312500", "175638.772500", "175639.232500", "175639.692500", "175640.152500", "175640.612500", "175641.072500", "175641.532500", "175641.992500", "175642.452500", "175642.912500", "175643.372500", "175643.832500", "175644.292500", "175644.752500", "175645.212500", "175645.672500", "175646.132500", "175646.592500", "175647.052500", "175647.512500", "175647.972500", "175648.432500", "175648.892500", "175649.352500", "175649.812500", "175650.272500", "175650.732500", "175651.192500", "175651.652500", "175652.112500", "175652.572500", "175653.032500", "175653.492500", "175653.952500", "175654.412500", "175654.872500", "175655.332500", "175655.792500", "175656.252500", "175656.712500", "175657.172500", "175657.632500", "175658.092500", "175658.552500", "175659.012500", "175659.472500", "175659.932500", "175700.392500", "175700.852500", "175701.312500", "175701.772500", "175702.232500", "175702.692500", "175703.152500", "175703.612500", "175704.072500", "175704.532500", "175704.992500", "175705.452500", "175705.912500", "175706.372500", "175706.832500", "175707.292500", "175707.752500", "175708.212500", "175708.672500", "175709.132500", "175709.592500", "175710.052500", "175710.512500", "175710.972500", "175711.432500", "175711.892500", "175712.352500", "175712.812500", "175713.272500", "175713.732500", "175714.192500", "175714.652500", "175715.112500", "175715.572500", "175716.032500", "175716.492500", "175716.952500", "175717.412500", "175717.872500", "175718.332500", "175718.792500", "175719.252500", "175719.712500", "175720.172500", "175720.632500", "175721.092500", "175721.552500", "175722.012500", "175722.472500", "175722.932500", "175723.392500", "175723.852500", "175724.312500", "175724.772500", "175725.232500", "175725.692500", "175726.152500", "175726.612500", "175727.072500", "175727.532500", "175727.992500", "175728.452500", "175728.912500", "175729.372500", "175729.832500", "175730.292500", "175730.752500", "175731.212500", "175731.672500", "175732.132500", "175732.592500", "175733.052500", "175733.512500", "175733.972500", "175734.432500", "175734.892500", "175735.352500", "175735.812500", "175736.272500", "175736.732500", "175737.192500", "175737.652500", "175738.112500", "175738.572500", "175739.032500", "175739.492500", "175739.952500", "175740.412500", "175740.872500", "175741.332500", "175741.792500", "175742.252500", "175742.712500", "175743.172500", "175743.632500", "175744.092500", "175744.552500", "175745.012500", "175745.472500", "175745.932500", "175746.392500", "175746.852500", "175747.312500", "175747.772500", "175748.232500", "175748.692500", "175749.152500", "175749.612500", "175750.072500", "175750.532500", "175750.992500", "175751.452500", "175751.912500", "175752.372500", "175752.832500", "175753.292500", "175753.752500", "175754.212500", "175754.672500", "175755.132500", "175755.592500", "175756.052500", "175756.512500", "175756.972500", "175757.432500", "175757.892500", "175758.352500", "175758.812500", "175759.272500", "175759.732500", "175800.192500", "175800.652500", "175801.112500", "175801.572500", "175802.032500", "175802.492500", "175802.952500", "175803.412500", "175803.872500", "175804.332500", "175804.792500", "175805.252500", "175805.712500", "175806.172500", "175806.632500", "175807.092500", "175807.552500", "175808.012500", "175808.472500", "175808.932500", "175809.392500", "175809.852500", "175810.312500", "175810.772500", "175811.232500", "175811.692500", "175812.152500", "175812.612500", "175813.072500", "175813.532500", "175813.992500", "175814.452500", "175814.912500", "175815.372500", "175815.832500", "175816.292500", "175816.752500", "175817.212500", "175817.672500", "175818.132500", "175818.592500", "175819.052500", "175819.512500", "175819.972500", "175820.432500", "175820.892500", "175821.352500", "175821.812500", "175822.272500", "175822.732500", "175823.192500", "175823.652500", "175824.112500", "175824.572500", "175825.032500", "175825.492500", "175825.952500", "175826.412500", "175826.872500", "175827.332500", "175827.792500", "175828.252500", "175828.712500", "175829.172500", "175829.632500", "175830.092500", "175830.552500", "175831.012500", "175831.472500", "175831.932500", "175832.392500", "175832.852500", "175833.312500", "175833.772500", "175834.232500", "175834.692500", "175835.152500", "175835.612500", "175836.072500", "175836.532500", "175836.992500", "175837.452500", "175837.912500", "175838.372500", "175838.832500", "175839.292500", "175839.752500", "175840.212500", "175840.672500", "175841.132500", "175841.592500", "175842.052500", "175842.512500", "175842.972500", "175843.432500", "175843.892500", "175844.352500", "175844.812500", "175845.272500", "175845.732500", "175846.192500", "175846.652500", "175847.112500", "175847.572500", "175848.032500", "175848.492500", "175848.952500", "175849.412500", "175849.872500", "175850.332500", "175850.792500", "175851.252500", "175851.712500", "175852.172500", "175852.632500", "175853.092500", "175853.552500", "175854.012500", "175854.472500", "175854.932500", "175855.392500", "175855.852500", "175856.312500", "175856.772500", "175857.232500", "175857.692500", "175858.152500", "175858.612500", "175859.072500", "175859.532500", "175859.992500", "175900.452500", "175900.912500", "175901.372500", "175901.832500", "175902.292500", "175902.752500", "175903.212500", "175903.672500", "175904.132500", "175904.592500", "175905.052500", "175905.512500", "175905.972500", "175906.432500", "175906.892500", "175907.352500", "175907.812500", "175908.272500", "175908.732500", "175909.192500", "175909.652500", "175910.112500", "175910.572500", "175911.032500", "175911.492500", "175911.952500", "175912.412500", "175912.872500", "175913.332500", "175913.792500", "175914.252500", "175914.712500", "175915.172500", "175915.632500", "175916.092500", "175916.552500", "175917.012500", "175917.472500", "175917.932500", "175918.392500", "175918.852500", "175919.312500", "175919.772500", "175920.232500", "175920.692500", "175921.152500", "175921.612500", "175922.072500", "175922.532500", "175922.992500", "175923.452500", "175923.912500", "175924.372500", "175924.832500", "175925.292500", "175925.752500", "175926.212500", "175926.672500", "175927.132500", "175927.592500", "175928.052500", "175928.512500", "175928.972500", "175929.432500", "175929.892500", "175930.352500", "175930.812500", "175931.272500", "175931.732500", "175932.192500", "175932.652500", "175933.112500", "175933.572500", "175934.032500", "175934.492500", "175934.952500", "175935.412500", "175935.872500", "175936.332500", "175936.792500", "175937.252500", "175937.712500", "175938.172500", "175938.632500", "175939.092500", "175939.552500", "175940.012500", "175940.472500", "175940.932500", "175941.392500", "175941.852500", "175942.312500", "175942.772500", "175943.232500", "175943.692500", "175944.152500", "175944.612500", "175945.072500", "175945.532500", "175945.992500", "175946.452500", "175946.912500", "175947.372500", "175947.832500", "175948.292500", "175948.752500", "175949.212500", "175949.672500", "175950.132500", "175950.592500", "175951.052500", "175951.512500", "175951.972500", "175952.432500", "175952.892500", "175953.352500", "175953.812500", "175954.272500", "175954.732500", "175955.192500", "175955.652500", "175956.112500", "175956.572500", "175957.032500", "175957.492500", "175957.952500", "175958.412500", "175958.872500", "175959.332500", "175959.792500", "180000.252500", "180000.712500", "180001.172500", "180001.632500", "180002.092500", "180002.552500", "180003.012500", "180003.472500", "180003.932500", "180004.392500", "180004.852500", "180005.312500", "180005.772500", "180006.232500", "180006.692500", "180007.152500", "180007.612500", "180008.072500", "180008.532500", "180008.992500", "180009.452500", "180009.912500", "180010.372500", "180010.832500", "180011.292500", "180011.752500", "180012.212500", "180012.672500", "180013.132500", "180013.592500", "180014.052500", "180014.512500", "180014.972500", "180015.432500", "180015.892500", "180016.352500", "180016.812500", "180017.272500", "180017.732500", "180018.192500", "180018.652500", "180019.112500", "180019.572500", "180020.032500", "180020.492500", "180020.952500", "180021.412500", "180021.872500", "180022.332500", "180022.792500", "180023.252500", "180023.712500", "180024.172500", "180024.632500", "180025.092500", "180025.552500", "180026.012500", "180026.472500", "180026.932500", "180027.392500", "180027.852500", "180028.312500", "180028.772500", "180029.232500", "180029.692500", "180030.152500", "180030.612500", "180031.072500", "180031.532500", "180031.992500", "180032.452500", "180032.912500", "180033.372500", "180033.832500", "180034.292500", "180034.752500", "180035.212500", "180035.672500", "180036.132500", "180036.592500", "180037.052500", "180037.512500", "180037.972500", "180038.432500", "180038.892500", "180039.352500", "180039.812500", "180040.272500", "180040.732500", "180041.192500", "180041.652500", "180042.112500", "180042.572500", "180043.032500", "180043.492500", "180043.952500", "180044.412500", "180044.872500", "180045.332500", "180045.792500", "180046.252500", "180046.712500", "180047.172500", "180047.632500", "180048.092500", "180048.552500", "180049.012500", "180049.472500", "180049.932500", "180050.392500", "180050.852500", "180051.312500", "180051.772500"],
