{
  "AcquisitionMatrixPE": 82,
  "AcquisitionNumber": 1,
  "AcquisitionTime": "17:47:8.410000",
  "BandwidthPerPixelPhaseEncode": 24.888,
  "BaseResolution": 82,
  "BodyPartExamined": "BRAIN",
  "ConsistencyInfo": "N4_VE11C_LATEST_20160120",
  "ConversionSoftware": "dcm2niix",
  "ConversionSoftwareVersion": "v1.0.20201102",
  "DerivedVendorReportedEchoSpacing": 0.00049,
  "DeviceSerialNumber": "66112",
  "DwellTime": 2e-06,
  "EchoTime": 0.0272,
  "EchoTrainLength": 82,
  "EffectiveEchoSpacing": 0.00049,
  "FlipAngle": 44,
  "ImageComments": "Unaliased MB8/PE3",
  "ImageOrientationPatientDICOM": [0.999551, 0.0294697, -0.00550875, -0.029666, 0.998768, -0.0397899],
  "ImageType": [
    "ORIGINAL",
    "PRIMARY",
    "M",
    "MB",
    "ND",
    "NORM",
    "MOSAIC"
],
  "ImagingFrequency": 123.252,
  "InPlanePhaseEncodingDirectionDICOM": "COL",
  "InstitutionAddress": "Maynard 3,Hanover,NH,US,03755",
  "InstitutionName": "Dartmouth College - PBS",
  "InstitutionalDepartmentName": "Department",
  "MRAcquisitionType": "2D",
  "MagneticFieldStrength": 3,
  "Manufacturer": "Siemens",
  "ManufacturersModelName": "Prisma",
  "Modality": "MR",
  "MultibandAccelerationFactor": 8,
  "PartialFourier": 1,
  "PatientPosition": "HFS",
  "PercentPhaseFOV": 100,
  "PercentSampling": 100,
  "PhaseEncodingDirection": "j-",
  "PhaseEncodingSteps": 82,
  "PhaseResolution": 1,
  "PixelBandwidth": 3050,
  "ProcedureStepDescription": "Wager_Wager^1076_spacetop",
  "ProtocolName": "func_run-05_task-social_acq-ap-mb8",
  "PulseSequenceDetails": "%CustomerSeq%\\cmrr_mbep2d_bold",
  "ReceiveCoilActiveElements": "HEA;HEP",
  "ReceiveCoilName": "Head_32",
  "ReconMatrixPE": 82,
  "RepetitionTime": 0.46,
  "SAR": 0.096222,
  "ScanOptions": "FS",
  "ScanningSequence": "EP",
  "SequenceName": "epfid2d1_82",
  "SequenceVariant": "SK\\SS",
  "SeriesDescription": "func_run-05_task-social_acq-ap-mb8",
  "SeriesNumber": 16,
  "ShimSetting": [4151, -7741, -7226, 510, -44, -161, 39, 49],
  "SliceThickness": 2.7,
  "SliceTiming": [0, 0.2525, 0.0625, 0.315, 0.125, 0.3775, 0.1875, 0, 0.2525, 0.0625, 0.315, 0.125, 0.3775, 0.1875, 0, 0.2525, 0.0625, 0.315, 0.125, 0.3775, 0.1875, 0, 0.2525, 0.0625, 0.315, 0.125, 0.3775, 0.1875, 0, 0.2525, 0.0625, 0.315, 0.125, 0.3775, 0.1875, 0, 0.2525, 0.0625, 0.315, 0.125, 0.3775, 0.1875, 0, 0.2525, 0.0625, 0.315, 0.125, 0.3775, 0.1875, 0, 0.2525, 0.0625, 0.315, 0.125, 0.3775, 0.1875],
  "SoftwareVersions": "syngo MR E11",
  "SpacingBetweenSlices": 2.7,
  "StationName": "AWP66112",
  "TaskName": "social",
  "TotalReadoutTime": 0.03969,
  "TxRefAmp": 262.993,
  "WipMemBlock": "dca746d5-c99c-4840-8332-398231f15b0f||Sequence: R016 ve11c/master r/e634e98; Dec 19 2017 11:00:25 by eja",
  "dcmmeta_affine": [
    [-2.6817209720611572, -0.07959159463644028, -0.01168928574770689, 116.74121856689453],
    [-0.07906518131494522, 2.6796205043792725, -0.10782559961080551, -87.05282592773438],
    [-0.014779577031731606, 0.10675331205129623, 2.6978209018707275, -55.5608024597168],
    [0.0, 0.0, 0.0, 1.0]
],
  "dcmmeta_reorient_transform": [
    [0.0, -1.0, 0.0, 81.0],
    [1.0, 0.0, 0.0, 0.0],
    [0.0, 0.0, 1.0, 0.0],
    [0.0, 0.0, 0.0, 1.0]
],
  "dcmmeta_shape": [82, 82, 56, 872],
  "dcmmeta_slice_dim": 2,
  "dcmmeta_version": 0.6,
  "global": {
    "const": {
      "AccessionNumber": "A003845",
      "AcquisitionMatrix": [82, 0, 0, 82],
      "AngioFlag": "N",
      "BitsAllocated": 16,
      "BitsStored": 16,
      "BodyPartExamined": "BRAIN",
      "Columns": 656,
      "EchoNumbers": 1,
      "EchoTime": 27.2,
      "EchoTrainLength": 82,
      "FlipAngle": 44.0,
      "HighBit": 15,
      "ImageOrientationPatient": [0.9995504927504, 0.02946974890688, -0.0055087513823, -0.0296659576354, 0.99876758916993, -0.0397898703349],
      "ImagePositionPatient": [-857.10541207798, -921.73919890509, -12.033845086653],
      "ImageType": [
        "ORIGINAL",
        "PRIMARY",
        "M",
        "MB",
        "ND",
        "NORM",
        "MOSAIC"
],
      "ImagedNucleus": "1H",
      "ImagingFrequency": 123.252156,
      "InPlanePhaseEncodingDirection": "COL",
      "MRAcquisitionType": "2D",
      "MagneticFieldStrength": 3.0,
      "Manufacturer": "SIEMENS",
      "ManufacturerModelName": "Prisma",
      "Modality": "MR",
      "NumberOfAverages": 1.0,
      "NumberOfPhaseEncodingSteps": 82,
      "PercentPhaseFieldOfView": 100.0,
      "PercentSampling": 100.0,
      "PerformedProcedureStepStartTime": "170656.480000",
      "PhotometricInterpretation": "MONOCHROME2",
      "PixelBandwidth": 3050.0,
      "PixelRepresentation": 0,
      "PixelSpacing": [2.6829268932343, 2.6829268932343],
      "ProtocolName": "func_run-05_task-social_acq-ap-mb8",
      "RepetitionTime": 460.0,
      "Rows": 656,
      "SAR": 0.09622202875222,
      "SamplesPerPixel": 1,
      "ScanOptions": "FS",
      "ScanningSequence": "EP",
      "SequenceName": "epfid2d1_82",
      "SequenceVariant": [
        "SK",
        "SS"
],
      "SeriesDescription": "func_run-05_task-social_acq-ap-mb8",
      "SeriesNumber": 16,
      "SeriesTime": "174727.068000",
      "SliceLocation": -52.54488437387,
      "SliceThickness": 2.7000000476837,
      "SmallestImagePixelValue": 0,
      "SoftwareVersions": "syngo MR E11",
      "SpacingBetweenSlices": 2.7000000498372,
      "SpecificCharacterSet": "ISO_IR 100",
      "StudyID": "1",
      "StudyTime": "170656.428000",
      "TransmitCoilName": "Body",
      "VariableFlipAngleFlag": "N",
      "WindowCenterWidthExplanation": "Algo1",
      "dBdt": 0.0},
    "slices": {}
  },
  "time": {
    "samples": {
      "AcquisitionNumber": [1, 2, 3, 4, 5, 6, 7, 8, 9, 10, 11, 12, 13, 14, 15, 16, 17, 18, 19, 20, 21, 22, 23, 24, 25, 26, 27, 28, 29, 30, 31, 32, 33, 34, 35, 36, 37, 38, 39, 40, 41, 42, 43, 44, 45, 46, 47, 48, 49, 50, 51, 52, 53, 54, 55, 56, 57, 58, 59, 60, 61, 62, 63, 64, 65, 66, 67, 68, 69, 70, 71, 72, 73, 74, 75, 76, 77, 78, 79, 80, 81, 82, 83, 84, 85, 86, 87, 88, 89, 90, 91, 92, 93, 94, 95, 96, 97, 98, 99, 100, 101, 102, 103, 104, 105, 106, 107, 108, 109, 110, 111, 112, 113, 114, 115, 116, 117, 118, 119, 120, 121, 122, 123, 124, 125, 126, 127, 128, 129, 130, 131, 132, 133, 134, 135, 136, 137, 138, 139, 140, 141, 142, 143, 144, 145, 146, 147, 148, 149, 150, 151, 152, 153, 154, 155, 156, 157, 158, 159, 160, 161, 162, 163, 164, 165, 166, 167, 168, 169, 170, 171, 172, 173, 174, 175, 176, 177, 178, 179, 180, 181, 182, 183, 184, 185, 186, 187, 188, 189, 190, 191, 192, 193, 194, 195, 196, 197, 198, 199, 200, 201, 202, 203, 204, 205, 206, 207, 208, 209, 210, 211, 212, 213, 214, 215, 216, 217, 218, 219, 220, 221, 222, 223, 224, 225, 226, 227, 228, 229, 230, 231, 232, 233, 234, 235, 236, 237, 238, 239, 240, 241, 242, 243, 244, 245, 246, 247, 248, 249, 250, 251, 252, 253, 254, 255, 256, 257, 258, 259, 260, 261, 262, 263, 264, 265, 266, 267, 268, 269, 270, 271, 272, 273, 274, 275, 276, 277, 278, 279, 280, 281, 282, 283, 284, 285, 286, 287, 288, 289, 290, 291, 292, 293, 294, 295, 296, 297, 298, 299, 300, 301, 302, 303, 304, 305, 306, 307, 308, 309, 310, 311, 312, 313, 314, 315, 316, 317, 318, 319, 320, 321, 322, 323, 324, 325, 326, 327, 328, 329, 330, 331, 332, 333, 334, 335, 336, 337, 338, 339, 340, 341, 342, 343, 344, 345, 346, 347, 348, 349, 350, 351, 352, 353, 354, 355, 356, 357, 358, 359, 360, 361, 362, 363, 364, 365, 366, 367, 368, 369, 370, 371, 372, 373, 374, 375, 376, 377, 378, 379, 380, 381, 382, 383, 384, 385, 386, 387, 388, 389, 390, 391, 392, 393, 394, 395, 396, 397, 398, 399, 400, 401, 402, 403, 404, 405, 406, 407, 408, 409, 410, 411, 412, 413, 414, 415, 416, 417, 418, 419, 420, 421, 422, 423, 424, 425, 426, 427, 428, 429, 430, 431, 432, 433, 434, 435, 436, 437, 438, 439, 440, 441, 442, 443, 444, 445, 446, 447, 448, 449, 450, 451, 452, 453, 454, 455, 456, 457, 458, 459, 460, 461, 462, 463, 464, 465, 466, 467, 468, 469, 470, 471, 472, 473, 474, 475, 476, 477, 478, 479, 480, 481, 482, 483, 484, 485, 486, 487, 488, 489, 490, 491, 492, 493, 494, 495, 496, 497, 498, 499, 500, 501, 502, 503, 504, 505, 506, 507, 508, 509, 510, 511, 512, 513, 514, 515, 516, 517, 518, 519, 520, 521, 522, 523, 524, 525, 526, 527, 528, 529, 530, 531, 532, 533, 534, 535, 536, 537, 538, 539, 540, 541, 542, 543, 544, 545, 546, 547, 548, 549, 550, 551, 552, 553, 554, 555, 556, 557, 558, 559, 560, 561, 562, 563, 564, 565, 566, 567, 568, 569, 570, 571, 572, 573, 574, 575, 576, 577, 578, 579, 580, 581, 582, 583, 584, 585, 586, 587, 588, 589, 590, 591, 592, 593, 594, 595, 596, 597, 598, 599, 600, 601, 602, 603, 604, 605, 606, 607, 608, 609, 610, 611, 612, 613, 614, 615, 616, 617, 618, 619, 620, 621, 622, 623, 624, 625, 626, 627, 628, 629, 630, 631, 632, 633, 634, 635, 636, 637, 638, 639, 640, 641, 642, 643, 644, 645, 646, 647, 648, 649, 650, 651, 652, 653, 654, 655, 656, 657, 658, 659, 660, 661, 662, 663, 664, 665, 666, 667, 668, 669, 670, 671, 672, 673, 674, 675, 676, 677, 678, 679, 680, 681, 682, 683, 684, 685, 686, 687, 688, 689, 690, 691, 692, 693, 694, 695, 696, 697, 698, 699, 700, 701, 702, 703, 704, 705, 706, 707, 708, 709, 710, 711, 712, 713, 714, 715, 716, 717, 718, 719, 720, 721, 722, 723, 724, 725, 726, 727, 728, 729, 730, 731, 732, 733, 734, 735, 736, 737, 738, 739, 740, 741, 742, 743, 744, 745, 746, 747, 748, 749, 750, 751, 752, 753, 754, 755, 756, 757, 758, 759, 760, 761, 762, 763, 764, 765, 766, 767, 768, 769, 770, 771, 772, 773, 774, 775, 776, 777, 778, 779, 780, 781, 782, 783, 784, 785, 786, 787, 788, 789, 790, 791, 792, 793, 794, 795, 796, 797, 798, 799, 800, 801, 802, 803, 804, 805, 806, 807, 808, 809, 810, 811, 812, 813, 814, 815, 816, 817, 818, 819, 820, 821, 822, 823, 824, 825, 826, 827, 828, 829, 830, 831, 832, 833, 834, 835, 836, 837, 838, 839, 840, 841, 842, 843, 844, 845, 846, 847, 848, 849, 850, 851, 852, 853, 854, 855, 856, 857, 858, 859, 860, 861, 862, 863, 864, 865, 866, 867, 868, 869, 870, 871, 872],
      "AcquisitionTime": ["174708.410000", "174708.870000", "174709.330000", "174709.790000", "174710.250000", "174710.710000", "174711.170000", "174711.630000", "174712.090000", "174712.550000", "174713.010000", "174713.470000", "174713.930000", "174714.390000", "174714.850000", "174715.310000", "174715.770000", "174716.230000", "174716.690000", "174717.150000", "174717.610000", "174718.070000", "174718.530000", "174718.990000", "174719.450000", "174719.910000", "174720.370000", "174720.830000", "174721.290000", "174721.750000", "174722.210000", "174722.670000", "174723.130000", "174723.590000", "174724.050000", "174724.510000", "174724.970000", "174725.430000", "174725.890000", "174726.350000", "174726.810000", "174727.270000", "174727.730000", "174728.190000", "174728.650000", "174729.110000", "174729.570000", "174730.030000", "174730.490000", "174730.950000", "174731.410000", "174731.870000", "174732.330000", "174732.790000", "174733.250000", "174733.710000", "174734.170000", "174734.630000", "174735.090000", "174735.550000", "174736.010000", "174736.470000", "174736.930000", "174737.390000", "174737.850000", "174738.310000", "174738.770000", "174739.230000", "174739.690000", "174740.150000", "174740.610000", "174741.070000", "174741.530000", "174741.990000", "174742.450000", "174742.910000", "174743.370000", "174743.830000", "174744.290000", "174744.750000", "174745.210000", "174745.670000", "174746.130000", "174746.590000", "174747.050000", "174747.510000", "174747.970000", "174748.430000", "174748.890000", "174749.350000", "174749.810000", "174750.270000", "174750.730000", "174751.190000", "174751.650000", "174752.110000", "174752.570000", "174753.030000", "174753.490000", "174753.950000", "174754.410000", "174754.870000", "174755.330000", "174755.790000", "174756.250000", "174756.710000", "174757.170000", "174757.630000", "174758.090000", "174758.550000", "174759.010000", "174759.470000", "174759.930000", "174800.390000", "174800.850000", "174801.310000", "174801.770000", "174802.230000", "174802.690000", "174803.150000", "174803.610000", "174804.070000", "174804.530000", "174804.990000", "174805.450000", "174805.910000", "174806.370000", "174806.830000", "174807.290000", "174807.750000", "174808.210000", "174808.670000", "174809.130000", "174809.590000", "174810.050000", "174810.510000", "174810.970000", "174811.430000", "174811.890000", "174812.350000", "174812.810000", "174813.270000", "174813.730000", "174814.190000", "174814.650000", "174815.110000", "174815.570000", "174816.030000", "174816.490000", "174816.950000", "174817.410000", "174817.870000", "174818.330000", "174818.790000", "174819.250000", "174819.710000", "174820.170000", "174820.630000", "174821.090000", "174821.550000", "174822.010000", "174822.470000", "174822.930000", "174823.390000", "174823.850000", "174824.310000", "174824.770000", "174825.230000", "174825.690000", "174826.150000", "174826.610000", "174827.070000", "174827.530000", "174827.990000", "174828.450000", "174828.910000", "174829.370000", "174829.830000", "174830.290000", "174830.750000", "174831.210000", "174831.670000", "174832.130000", "174832.590000", "174833.050000", "174833.510000", "174833.970000", "174834.430000", "174834.890000", "174835.350000", "174835.810000", "174836.270000", "174836.730000", "174837.190000", "174837.650000", "174838.110000", "174838.570000", "174839.030000", "174839.490000", "174839.950000", "174840.410000", "174840.870000", "174841.330000", "174841.790000", "174842.250000", "174842.710000", "174843.170000", "174843.630000", "174844.090000", "174844.550000", "174845.010000", "174845.470000", "174845.930000", "174846.390000", "174846.850000", "174847.310000", "174847.770000", "174848.230000", "174848.690000", "174849.150000", "174849.610000", "174850.070000", "174850.530000", "174850.990000", "174851.450000", "174851.910000", "174852.370000", "174852.830000", "174853.290000", "174853.750000", "174854.210000", "174854.670000", "174855.130000", "174855.590000", "174856.050000", "174856.510000", "174856.970000", "174857.430000", "174857.890000", "174858.350000", "174858.810000", "174859.270000", "174859.730000", "174900.190000", "174900.650000", "174901.110000", "174901.570000", "174902.030000", "174902.490000", "174902.950000", "174903.410000", "174903.870000", "174904.330000", "174904.790000", "174905.250000", "174905.710000", "174906.170000", "174906.630000", "174907.090000", "174907.550000", "174908.010000", "174908.470000", "174908.930000", "174909.390000", "174909.850000", "174910.310000", "174910.770000", "174911.230000", "174911.690000", "174912.150000", "174912.610000", "174913.070000", "174913.530000", "174913.990000", "174914.450000", "174914.910000", "174915.370000", "174915.830000", "174916.290000", "174916.750000", "174917.210000", "174917.670000", "174918.130000", "174918.590000", "174919.050000", "174919.510000", "174919.970000", "174920.430000", "174920.890000", "174921.350000", "174921.810000", "174922.270000", "174922.730000", "174923.190000", "174923.650000", "174924.110000", "174924.570000", "174925.030000", "174925.490000", "174925.950000", "174926.410000", "174926.870000", "174927.330000", "174927.790000", "174928.250000", "174928.710000", "174929.170000", "174929.630000", "174930.090000", "174930.550000", "174931.010000", "174931.470000", "174931.930000", "174932.390000", "174932.850000", "174933.310000", "174933.770000", "174934.230000", "174934.690000", "174935.150000", "174935.610000", "174936.070000", "174936.530000", "174936.990000", "174937.450000", "174937.910000", "174938.370000", "174938.830000", "174939.290000", "174939.750000", "174940.210000", "174940.670000", "174941.130000", "174941.590000", "174942.050000", "174942.510000", "174942.970000", "174943.430000", "174943.890000", "174944.350000", "174944.810000", "174945.270000", "174945.730000", "174946.190000", "174946.650000", "174947.110000", "174947.570000", "174948.030000", "174948.490000", "174948.950000", "174949.410000", "174949.870000", "174950.330000", "174950.790000", "174951.250000", "174951.710000", "174952.170000", "174952.630000", "174953.090000", "174953.550000", "174954.010000", "174954.470000", "174954.930000", "174955.390000", "174955.850000", "174956.310000", "174956.770000", "174957.230000", "174957.690000", "174958.150000", "174958.610000", "174959.070000", "174959.530000", "174959.990000", "175000.450000", "175000.910000", "175001.370000", "175001.830000", "175002.290000", "175002.750000", "175003.210000", "175003.670000", "175004.130000", "175004.590000", "175005.050000", "175005.510000", "175005.970000", "175006.430000", "175006.890000", "175007.350000", "175007.810000", "175008.270000", "175008.730000", "175009.190000", "175009.650000", "175010.110000", "175010.570000", "175011.030000", "175011.490000", "175011.950000", "175012.410000", "175012.870000", "175013.330000", "175013.790000", "175014.250000", "175014.710000", "175015.170000", "175015.630000", "175016.090000", "175016.550000", "175017.010000", "175017.470000", "175017.930000", "175018.390000", "175018.850000", "175019.310000", "175019.770000", "175020.230000", "175020.690000", "175021.150000", "175021.610000", "175022.070000", "175022.530000", "175022.990000", "175023.450000", "175023.910000", "175024.370000", "175024.830000", "175025.290000", "175025.750000", "175026.210000", "175026.670000", "175027.130000", "175027.590000", "175028.050000", "175028.510000", "175028.970000", "175029.430000", "175029.890000", "175030.350000", "175030.810000", "175031.270000", "175031.730000", "175032.190000", "175032.650000", "175033.110000", "175033.570000", "175034.030000", "175034.490000", "175034.950000", "175035.410000", "175035.870000", "175036.330000", "175036.790000", "175037.250000", "175037.710000", "175038.170000", "175038.630000", "175039.090000", "175039.550000", "175040.010000", "175040.470000", "175040.930000", "175041.390000", "175041.850000", "175042.310000", "175042.770000", "175043.230000", "175043.690000", "175044.150000", "175044.610000", "175045.070000", "175045.530000", "175045.990000", "175046.450000", "175046.910000", "175047.370000", "175047.830000", "175048.290000", "175048.750000", "175049.210000", "175049.670000", "175050.130000", "175050.590000", "175051.050000", "175051.510000", "175051.970000", "175052.430000", "175052.890000", "175053.350000", "175053.810000", "175054.270000", "175054.730000", "175055.190000", "175055.650000", "175056.110000", "175056.570000", "175057.030000", "175057.490000", "175057.950000", "175058.410000", "175058.870000", "175059.330000", "175059.790000", "175100.250000", "175100.710000", "175101.170000", "175101.630000", "175102.090000", "175102.550000", "175103.010000", "175103.470000", "175103.930000", "175104.390000", "175104.850000", "175105.310000", "175105.770000", "175106.230000", "175106.690000", "175107.150000", "175107.610000", "175108.070000", "175108.530000", "175108.990000", "175109.450000", "175109.910000", "175110.370000", "175110.830000", "175111.290000", "175111.750000", "175112.210000", "175112.670000", "175113.130000", "175113.590000", "175114.050000", "175114.510000", "175114.970000", "175115.430000", "175115.890000", "175116.350000", "175116.810000", "175117.270000", "175117.730000", "175118.190000", "175118.650000", "175119.110000", "175119.570000", "175120.030000", "175120.490000", "175120.950000", "175121.410000", "175121.870000", "175122.330000", "175122.790000", "175123.250000", "175123.710000", "175124.170000", "175124.630000", "175125.090000", "175125.550000", "175126.010000", "175126.470000", "175126.930000", "175127.390000", "175127.850000", "175128.310000", "175128.770000", "175129.230000", "175129.690000", "175130.150000", "175130.610000", "175131.070000", "175131.530000", "175131.990000", "175132.450000", "175132.910000", "175133.370000", "175133.830000", "175134.290000", "175134.750000", "175135.210000", "175135.670000", "175136.130000", "175136.590000", "175137.050000", "175137.510000", "175137.970000", "175138.430000", "175138.890000", "175139.350000", "175139.810000", "175140.270000", "175140.730000", "175141.190000", "175141.650000", "175142.110000", "175142.570000", "175143.030000", "175143.490000", "175143.950000", "175144.410000", "175144.870000", "175145.330000", "175145.790000", "175146.250000", "175146.710000", "175147.170000", "175147.630000", "175148.090000", "175148.550000", "175149.010000", "175149.470000", "175149.930000", "175150.390000", "175150.850000", "175151.310000", "175151.770000", "175152.230000", "175152.690000", "175153.150000", "175153.610000", "175154.070000", "175154.530000", "175154.990000", "175155.450000", "175155.910000", "175156.370000", "175156.830000", "175157.290000", "175157.750000", "175158.210000", "175158.670000", "175159.130000", "175159.590000", "175200.050000", "175200.510000", "175200.970000", "175201.430000", "175201.890000", "175202.350000", "175202.810000", "175203.270000", "175203.730000", "175204.190000", "175204.650000", "175205.110000", "175205.570000", "175206.030000", "175206.490000", "175206.950000", "175207.410000", "175207.870000", "175208.330000", "175208.790000", "175209.250000", "175209.710000", "175210.170000", "175210.630000", "175211.090000", "175211.550000", "175212.010000", "175212.470000", "175212.930000", "175213.390000", "175213.850000", "175214.310000", "175214.770000", "175215.230000", "175215.690000", "175216.150000", "175216.610000", "175217.070000", "175217.530000", "175217.990000", "175218.450000", "175218.910000", "175219.370000", "175219.830000", "175220.290000", "175220.750000", "175221.210000", "175221.670000", "175222.130000", "175222.590000", "175223.050000", "175223.510000", "175223.970000", "175224.430000", "175224.890000", "175225.350000", "175225.810000", "175226.270000", "175226.730000", "175227.190000", "175227.650000", "175228.110000", "175228.570000", "175229.030000", "175229.490000", "175229.950000", "175230.410000", "175230.870000", "175231.330000", "175231.790000", "175232.250000", "175232.710000", "175233.170000", "175233.630000", "175234.090000", "175234.550000", "175235.010000", "175235.470000", "175235.930000", "175236.390000", "175236.850000", "175237.310000", "175237.770000", "175238.230000", "175238.690000", "175239.150000", "175239.610000", "175240.070000", "175240.530000", "175240.990000", "175241.450000", "175241.910000", "175242.370000", "175242.830000", "175243.290000", "175243.750000", "175244.210000", "175244.670000", "175245.130000", "175245.590000", "175246.050000", "175246.510000", "175246.970000", "175247.430000", "175247.890000", "175248.350000", "175248.810000", "175249.270000", "175249.730000", "175250.190000", "175250.650000", "175251.110000", "175251.570000", "175252.030000", "175252.490000", "175252.950000", "175253.410000", "175253.870000", "175254.330000", "175254.790000", "175255.250000", "175255.710000", "175256.170000", "175256.630000", "175257.090000", "175257.550000", "175258.010000", "175258.470000", "175258.930000", "175259.390000", "175259.850000", "175300.310000", "175300.770000", "175301.230000", "175301.690000", "175302.150000", "175302.610000", "175303.070000", "175303.530000", "175303.990000", "175304.450000", "175304.910000", "175305.370000", "175305.830000", "175306.290000", "175306.750000", "175307.210000", "175307.670000", "175308.130000", "175308.590000", "175309.050000", "175309.510000", "175309.970000", "175310.430000", "175310.890000", "175311.350000", "175311.810000", "175312.270000", "175312.730000", "175313.190000", "175313.650000", "175314.110000", "175314.570000", "175315.030000", "175315.490000", "175315.950000", "175316.410000", "175316.870000", "175317.330000", "175317.790000", "175318.250000", "175318.710000", "175319.170000", "175319.630000", "175320.090000", "175320.550000", "175321.010000", "175321.470000", "175321.930000", "175322.390000", "175322.850000", "175323.310000", "175323.770000", "175324.230000", "175324.690000", "175325.150000", "175325.610000", "175326.070000", "175326.530000", "175326.990000", "175327.450000", "175327.910000", "175328.370000", "175328.830000", "175329.290000", "175329.750000", "175330.210000", "175330.670000", "175331.130000", "175331.590000", "175332.050000", "175332.510000", "175332.970000", "175333.430000", "175333.890000", "175334.350000", "175334.810000", "175335.270000", "175335.730000", "175336.190000", "175336.650000", "175337.110000", "175337.570000", "175338.030000", "175338.490000", "175338.950000", "175339.410000", "175339.870000", "175340.330000", "175340.790000", "175341.250000", "175341.710000", "175342.170000", "175342.630000", "175343.090000", "175343.550000", "175344.010000", "175344.470000", "175344.930000", "175345.390000", "175345.850000", "175346.310000", "175346.770000", "175347.230000", "175347.690000", "175348.150000", "175348.610000", "175349.070000"],
