{
  "AcquisitionMatrixPE": 82,
  "AcquisitionNumber": 1,
  "AcquisitionTime": "17:32:2.635000",
  "BandwidthPerPixelPhaseEncode": 24.888,
  "BaseResolution": 82,
  "BodyPartExamined": "BRAIN",
  "ConsistencyInfo": "N4_VE11C_LATEST_20160120",
  "ConversionSoftware": "dcm2niix",
  "ConversionSoftwareVersion": "v1.0.20201102",
  "DerivedVendorReportedEchoSpacing": 0.00049,
  "DeviceSerialNumber": "66112",
  "DwellTime": 2e-06,
  "EchoTime": 0.0272,
  "EchoTrainLength": 82,
  "EffectiveEchoSpacing": 0.00049,
  "FlipAngle": 44,
  "ImageComments": "Unaliased MB8/PE3",
  "ImageOrientationPatientDICOM": [0.999551, 0.0294697, -0.00550875, -0.029666, 0.998768, -0.0397899],
  "ImageType": [
    "ORIGINAL",
    "PRIMARY",
    "M",
    "MB",
    "ND",
    "NORM",
    "MOSAIC"
],
  "ImagingFrequency": 123.252,
  "InPlanePhaseEncodingDirectionDICOM": "COL",
  "InstitutionAddress": "Maynard 3,Hanover,NH,US,03755",
  "InstitutionName": "Dartmouth College - PBS",
  "InstitutionalDepartmentName": "Department",
  "MRAcquisitionType": "2D",
  "MagneticFieldStrength": 3,
  "Manufacturer": "Siemens",
  "ManufacturersModelName": "Prisma",
  "Modality": "MR",
  "MultibandAccelerationFactor": 8,
  "PartialFourier": 1,
  "PatientPosition": "HFS",
  "PercentPhaseFOV": 100,
  "PercentSampling": 100,
  "PhaseEncodingDirection": "j-",
  "PhaseEncodingSteps": 82,
  "PhaseResolution": 1,
  "PixelBandwidth": 3050,
  "ProcedureStepDescription": "Wager_Wager^1076_spacetop",
  "ProtocolName": "func_run-03_task-social_acq-ap-mb8",
  "PulseSequenceDetails": "%CustomerSeq%\\cmrr_mbep2d_bold",
  "ReceiveCoilActiveElements": "HEA;HEP",
  "ReceiveCoilName": "Head_32",
  "ReconMatrixPE": 82,
  "RepetitionTime": 0.46,
  "SAR": 0.096222,
  "ScanOptions": "FS",
  "ScanningSequence": "EP",
  "SequenceName": "epfid2d1_82",
  "SequenceVariant": "SK\\SS",
  "SeriesDescription": "func_run-03_task-social_acq-ap-mb8",
  "SeriesNumber": 12,
  "ShimSetting": [4151, -7741, -7226, 510, -44, -161, 39, 49],
  "SliceThickness": 2.7,
  "SliceTiming": [0, 0.25, 0.0625, 0.315, 0.125, 0.3775, 0.1875, 0, 0.25, 0.0625, 0.315, 0.125, 0.3775, 0.1875, 0, 0.25, 0.0625, 0.315, 0.125, 0.3775, 0.1875, 0, 0.25, 0.0625, 0.315, 0.125, 0.3775, 0.1875, 0, 0.25, 0.0625, 0.315, 0.125, 0.3775, 0.1875, 0, 0.25, 0.0625, 0.315, 0.125, 0.3775, 0.1875, 0, 0.25, 0.0625, 0.315, 0.125, 0.3775, 0.1875, 0, 0.25, 0.0625, 0.315, 0.125, 0.3775, 0.1875],
  "SoftwareVersions": "syngo MR E11",
  "SpacingBetweenSlices": 2.7,
  "StationName": "AWP66112",
  "TaskName": "social",
  "TotalReadoutTime": 0.03969,
  "TxRefAmp": 262.993,
  "WipMemBlock": "d9edfdb8-37a0-4126-8b8c-85230dca087f||Sequence: R016 ve11c/master r/e634e98; Dec 19 2017 11:00:25 by eja",
  "dcmmeta_affine": [
    [-2.6817209720611572, -0.07959159463644028, -0.01168928574770689, 116.74121856689453],
    [-0.07906518131494522, 2.6796205043792725, -0.10782559961080551, -87.05282592773438],
    [-0.014779577031731606, 0.10675331205129623, 2.6978209018707275, -55.5608024597168],
    [0.0, 0.0, 0.0, 1.0]
],
  "dcmmeta_reorient_transform": [
    [0.0, -1.0, 0.0, 81.0],
    [1.0, 0.0, 0.0, 0.0],
    [0.0, 0.0, 1.0, 0.0],
    [0.0, 0.0, 0.0, 1.0]
],
  "dcmmeta_shape": [82, 82, 56, 872],
  "dcmmeta_slice_dim": 2,
  "dcmmeta_version": 0.6,
  "global": {
    "const": {
      "AccessionNumber": "A003845",
      "AcquisitionMatrix": [82, 0, 0, 82],
      "AngioFlag": "N",
      "BitsAllocated": 16,
      "BitsStored": 16,
      "BodyPartExamined": "BRAIN",
      "Columns": 656,
      "EchoNumbers": 1,
      "EchoTime": 27.2,
      "EchoTrainLength": 82,
      "FlipAngle": 44.0,
      "HighBit": 15,
      "ImageOrientationPatient": [0.9995504927504, 0.02946974890688, -0.0055087513823, -0.0296659576354, 0.99876758916993, -0.0397898703349],
      "ImagePositionPatient": [-857.10541207798, -921.73919890509, -12.033845086653],
      "ImageType": [
        "ORIGINAL",
        "PRIMARY",
        "M",
        "MB",
        "ND",
        "NORM",
        "MOSAIC"
],
      "ImagedNucleus": "1H",
      "ImagingFrequency": 123.252154,
      "InPlanePhaseEncodingDirection": "COL",
      "MRAcquisitionType": "2D",
      "MagneticFieldStrength": 3.0,
      "Manufacturer": "SIEMENS",
      "ManufacturerModelName": "Prisma",
      "Modality": "MR",
      "NumberOfAverages": 1.0,
      "NumberOfPhaseEncodingSteps": 82,
      "PercentPhaseFieldOfView": 100.0,
      "PercentSampling": 100.0,
      "PerformedProcedureStepStartTime": "170656.480000",
      "PhotometricInterpretation": "MONOCHROME2",
      "PixelBandwidth": 3050.0,
      "PixelRepresentation": 0,
      "PixelSpacing": [2.6829268932343, 2.6829268932343],
      "ProtocolName": "func_run-03_task-social_acq-ap-mb8",
      "RepetitionTime": 460.0,
      "Rows": 656,
      "SAR": 0.09622202875222,
      "SamplesPerPixel": 1,
      "ScanOptions": "FS",
      "ScanningSequence": "EP",
      "SequenceName": "epfid2d1_82",
      "SequenceVariant": [
        "SK",
        "SS"
],
      "SeriesDescription": "func_run-03_task-social_acq-ap-mb8",
      "SeriesNumber": 12,
      "SeriesTime": "173227.140000",
      "SliceLocation": -52.54488437387,
      "SliceThickness": 2.7000000476837,
      "SmallestImagePixelValue": 0,
      "SoftwareVersions": "syngo MR E11",
      "SpacingBetweenSlices": 2.7000000498372,
      "SpecificCharacterSet": "ISO_IR 100",
      "StudyID": "1",
      "StudyTime": "170656.428000",
      "TransmitCoilName": "Body",
      "VariableFlipAngleFlag": "N",
      "WindowCenterWidthExplanation": "Algo1",
      "dBdt": 0.0},
    "slices": {}
  },
  "time": {
    "samples": {
      "AcquisitionNumber": [1, 2, 3, 4, 5, 6, 7, 8, 9, 10, 11, 12, 13, 14, 15, 16, 17, 18, 19, 20, 21, 22, 23, 24, 25, 26, 27, 28, 29, 30, 31, 32, 33, 34, 35, 36, 37, 38, 39, 40, 41, 42, 43, 44, 45, 46, 47, 48, 49, 50, 51, 52, 53, 54, 55, 56, 57, 58, 59, 60, 61, 62, 63, 64, 65, 66, 67, 68, 69, 70, 71, 72, 73, 74, 75, 76, 77, 78, 79, 80, 81, 82, 83, 84, 85, 86, 87, 88, 89, 90, 91, 92, 93, 94, 95, 96, 97, 98, 99, 100, 101, 102, 103, 104, 105, 106, 107, 108, 109, 110, 111, 112, 113, 114, 115, 116, 117, 118, 119, 120, 121, 122, 123, 124, 125, 126, 127, 128, 129, 130, 131, 132, 133, 134, 135, 136, 137, 138, 139, 140, 141, 142, 143, 144, 145, 146, 147, 148, 149, 150, 151, 152, 153, 154, 155, 156, 157, 158, 159, 160, 161, 162, 163, 164, 165, 166, 167, 168, 169, 170, 171, 172, 173, 174, 175, 176, 177, 178, 179, 180, 181, 182, 183, 184, 185, 186, 187, 188, 189, 190, 191, 192, 193, 194, 195, 196, 197, 198, 199, 200, 201, 202, 203, 204, 205, 206, 207, 208, 209, 210, 211, 212, 213, 214, 215, 216, 217, 218, 219, 220, 221, 222, 223, 224, 225, 226, 227, 228, 229, 230, 231, 232, 233, 234, 235, 236, 237, 238, 239, 240, 241, 242, 243, 244, 245, 246, 247, 248, 249, 250, 251, 252, 253, 254, 255, 256, 257, 258, 259, 260, 261, 262, 263, 264, 265, 266, 267, 268, 269, 270, 271, 272, 273, 274, 275, 276, 277, 278, 279, 280, 281, 282, 283, 284, 285, 286, 287, 288, 289, 290, 291, 292, 293, 294, 295, 296, 297, 298, 299, 300, 301, 302, 303, 304, 305, 306, 307, 308, 309, 310, 311, 312, 313, 314, 315, 316, 317, 318, 319, 320, 321, 322, 323, 324, 325, 326, 327, 328, 329, 330, 331, 332, 333, 334, 335, 336, 337, 338, 339, 340, 341, 342, 343, 344, 345, 346, 347, 348, 349, 350, 351, 352, 353, 354, 355, 356, 357, 358, 359, 360, 361, 362, 363, 364, 365, 366, 367, 368, 369, 370, 371, 372, 373, 374, 375, 376, 377, 378, 379, 380, 381, 382, 383, 384, 385, 386, 387, 388, 389, 390, 391, 392, 393, 394, 395, 396, 397, 398, 399, 400, 401, 402, 403, 404, 405, 406, 407, 408, 409, 410, 411, 412, 413, 414, 415, 416, 417, 418, 419, 420, 421, 422, 423, 424, 425, 426, 427, 428, 429, 430, 431, 432, 433, 434, 435, 436, 437, 438, 439, 440, 441, 442, 443, 444, 445, 446, 447, 448, 449, 450, 451, 452, 453, 454, 455, 456, 457, 458, 459, 460, 461, 462, 463, 464, 465, 466, 467, 468, 469, 470, 471, 472, 473, 474, 475, 476, 477, 478, 479, 480, 481, 482, 483, 484, 485, 486, 487, 488, 489, 490, 491, 492, 493, 494, 495, 496, 497, 498, 499, 500, 501, 502, 503, 504, 505, 506, 507, 508, 509, 510, 511, 512, 513, 514, 515, 516, 517, 518, 519, 520, 521, 522, 523, 524, 525, 526, 527, 528, 529, 530, 531, 532, 533, 534, 535, 536, 537, 538, 539, 540, 541, 542, 543, 544, 545, 546, 547, 548, 549, 550, 551, 552, 553, 554, 555, 556, 557, 558, 559, 560, 561, 562, 563, 564, 565, 566, 567, 568, 569, 570, 571, 572, 573, 574, 575, 576, 577, 578, 579, 580, 581, 582, 583, 584, 585, 586, 587, 588, 589, 590, 591, 592, 593, 594, 595, 596, 597, 598, 599, 600, 601, 602, 603, 604, 605, 606, 607, 608, 609, 610, 611, 612, 613, 614, 615, 616, 617, 618, 619, 620, 621, 622, 623, 624, 625, 626, 627, 628, 629, 630, 631, 632, 633, 634, 635, 636, 637, 638, 639, 640, 641, 642, 643, 644, 645, 646, 647, 648, 649, 650, 651, 652, 653, 654, 655, 656, 657, 658, 659, 660, 661, 662, 663, 664, 665, 666, 667, 668, 669, 670, 671, 672, 673, 674, 675, 676, 677, 678, 679, 680, 681, 682, 683, 684, 685, 686, 687, 688, 689, 690, 691, 692, 693, 694, 695, 696, 697, 698, 699, 700, 701, 702, 703, 704, 705, 706, 707, 708, 709, 710, 711, 712, 713, 714, 715, 716, 717, 718, 719, 720, 721, 722, 723, 724, 725, 726, 727, 728, 729, 730, 731, 732, 733, 734, 735, 736, 737, 738, 739, 740, 741, 742, 743, 744, 745, 746, 747, 748, 749, 750, 751, 752, 753, 754, 755, 756, 757, 758, 759, 760, 761, 762, 763, 764, 765, 766, 767, 768, 769, 770, 771, 772, 773, 774, 775, 776, 777, 778, 779, 780, 781, 782, 783, 784, 785, 786, 787, 788, 789, 790, 791, 792, 793, 794, 795, 796, 797, 798, 799, 800, 801, 802, 803, 804, 805, 806, 807, 808, 809, 810, 811, 812, 813, 814, 815, 816, 817, 818, 819, 820, 821, 822, 823, 824, 825, 826, 827, 828, 829, 830, 831, 832, 833, 834, 835, 836, 837, 838, 839, 840, 841, 842, 843, 844, 845, 846, 847, 848, 849, 850, 851, 852, 853, 854, 855, 856, 857, 858, 859, 860, 861, 862, 863, 864, 865, 866, 867, 868, 869, 870, 871, 872],
      "AcquisitionTime": ["173202.635000", "173203.095000", "173203.555000", "173204.015000", "173204.475000", "173204.935000", "173205.395000", "173205.855000", "173206.315000", "173206.775000", "173207.235000", "173207.695000", "173208.155000", "173208.615000", "173209.075000", "173209.535000", "173209.995000", "173210.455000", "173210.915000", "173211.375000", "173211.835000", "173212.295000", "173212.755000", "173213.215000", "173213.675000", "173214.135000", "173214.595000", "173215.055000", "173215.515000", "173215.975000", "173216.435000", "173216.895000", "173217.355000", "173217.815000", "173218.275000", "173218.735000", "173219.195000", "173219.655000", "173220.115000", "173220.575000", "173221.035000", "173221.495000", "173221.955000", "173222.415000", "173222.875000", "173223.335000", "173223.795000", "173224.255000", "173224.715000", "173225.175000", "173225.635000", "173226.095000", "173226.555000", "173227.015000", "173227.475000", "173227.935000", "173228.395000", "173228.855000", "173229.315000", "173229.775000", "173230.235000", "173230.695000", "173231.155000", "173231.615000", "173232.075000", "173232.535000", "173232.995000", "173233.455000", "173233.915000", "173234.375000", "173234.835000", "173235.295000", "173235.755000", "173236.215000", "173236.675000", "173237.135000", "173237.595000", "173238.055000", "173238.515000", "173238.975000", "173239.435000", "173239.895000", "173240.355000", "173240.815000", "173241.275000", "173241.735000", "173242.195000", "173242.655000", "173243.115000", "173243.575000", "173244.035000", "173244.495000", "173244.955000", "173245.415000", "173245.875000", "173246.335000", "173246.795000", "173247.255000", "173247.715000", "173248.175000", "173248.635000", "173249.095000", "173249.555000", "173250.015000", "173250.475000", "173250.935000", "173251.395000", "173251.855000", "173252.315000", "173252.775000", "173253.235000", "173253.695000", "173254.155000", "173254.615000", "173255.075000", "173255.535000", "173255.995000", "173256.455000", "173256.915000", "173257.375000", "173257.835000", "173258.295000", "173258.755000", "173259.215000", "173259.675000", "173300.135000", "173300.595000", "173301.055000", "173301.515000", "173301.975000", "173302.435000", "173302.895000", "173303.355000", "173303.815000", "173304.275000", "173304.735000", "173305.195000", "173305.655000", "173306.115000", "173306.575000", "173307.035000", "173307.495000", "173307.955000", "173308.415000", "173308.875000", "173309.335000", "173309.795000", "173310.255000", "173310.715000", "173311.175000", "173311.635000", "173312.095000", "173312.555000", "173313.015000", "173313.475000", "173313.935000", "173314.395000", "173314.855000", "173315.315000", "173315.775000", "173316.235000", "173316.695000", "173317.155000", "173317.615000", "173318.075000", "173318.535000", "173318.995000", "173319.455000", "173319.915000", "173320.375000", "173320.835000", "173321.295000", "173321.755000", "173322.215000", "173322.675000", "173323.135000", "173323.595000", "173324.055000", "173324.515000", "173324.975000", "173325.435000", "173325.895000", "173326.355000", "173326.815000", "173327.275000", "173327.735000", "173328.195000", "173328.655000", "173329.115000", "173329.575000", "173330.035000", "173330.495000", "173330.955000", "173331.415000", "173331.875000", "173332.335000", "173332.795000", "173333.255000", "173333.715000", "173334.175000", "173334.635000", "173335.095000", "173335.555000", "173336.015000", "173336.475000", "173336.935000", "173337.395000", "173337.855000", "173338.315000", "173338.775000", "173339.235000", "173339.695000", "173340.155000", "173340.615000", "173341.075000", "173341.535000", "173341.995000", "173342.455000", "173342.915000", "173343.375000", "173343.835000", "173344.295000", "173344.755000", "173345.215000", "173345.675000", "173346.135000", "173346.595000", "173347.055000", "173347.515000", "173347.975000", "173348.435000", "173348.895000", "173349.355000", "173349.815000", "173350.275000", "173350.735000", "173351.195000", "173351.655000", "173352.115000", "173352.575000", "173353.035000", "173353.495000", "173353.955000", "173354.415000", "173354.875000", "173355.335000", "173355.795000", "173356.255000", "173356.715000", "173357.175000", "173357.635000", "173358.095000", "173358.555000", "173359.015000", "173359.475000", "173359.935000", "173400.395000", "173400.855000", "173401.315000", "173401.775000", "173402.235000", "173402.695000", "173403.155000", "173403.615000", "173404.075000", "173404.535000", "173404.995000", "173405.455000", "173405.915000", "173406.375000", "173406.835000", "173407.295000", "173407.755000", "173408.215000", "173408.675000", "173409.135000", "173409.595000", "173410.055000", "173410.515000", "173410.975000", "173411.435000", "173411.895000", "173412.355000", "173412.815000", "173413.275000", "173413.735000", "173414.195000", "173414.655000", "173415.115000", "173415.575000", "173416.035000", "173416.495000", "173416.955000", "173417.415000", "173417.875000", "173418.335000", "173418.795000", "173419.255000", "173419.715000", "173420.175000", "173420.635000", "173421.095000", "173421.555000", "173422.015000", "173422.475000", "173422.935000", "173423.395000", "173423.855000", "173424.315000", "173424.775000", "173425.235000", "173425.695000", "173426.155000", "173426.615000", "173427.075000", "173427.535000", "173427.995000", "173428.455000", "173428.915000", "173429.375000", "173429.835000", "173430.295000", "173430.755000", "173431.215000", "173431.675000", "173432.135000", "173432.595000", "173433.055000", "173433.515000", "173433.975000", "173434.435000", "173434.895000", "173435.355000", "173435.815000", "173436.275000", "173436.735000", "173437.195000", "173437.655000", "173438.115000", "173438.575000", "173439.035000", "173439.495000", "173439.955000", "173440.415000", "173440.875000", "173441.335000", "173441.795000", "173442.255000", "173442.715000", "173443.175000", "173443.635000", "173444.095000", "173444.555000", "173445.015000", "173445.475000", "173445.935000", "173446.395000", "173446.855000", "173447.315000", "173447.775000", "173448.235000", "173448.695000", "173449.155000", "173449.615000", "173450.075000", "173450.535000", "173450.995000", "173451.455000", "173451.915000", "173452.375000", "173452.835000", "173453.295000", "173453.755000", "173454.215000", "173454.675000", "173455.135000", "173455.595000", "173456.055000", "173456.515000", "173456.975000", "173457.435000", "173457.895000", "173458.355000", "173458.815000", "173459.275000", "173459.735000", "173500.195000", "173500.655000", "173501.115000", "173501.575000", "173502.035000", "173502.495000", "173502.955000", "173503.415000", "173503.875000", "173504.335000", "173504.795000", "173505.255000", "173505.715000", "173506.175000", "173506.635000", "173507.095000", "173507.555000", "173508.015000", "173508.475000", "173508.935000", "173509.395000", "173509.855000", "173510.315000", "173510.775000", "173511.235000", "173511.695000", "173512.155000", "173512.615000", "173513.075000", "173513.535000", "173513.995000", "173514.455000", "173514.915000", "173515.375000", "173515.835000", "173516.295000", "173516.755000", "173517.215000", "173517.675000", "173518.135000", "173518.595000", "173519.055000", "173519.515000", "173519.975000", "173520.435000", "173520.895000", "173521.355000", "173521.815000", "173522.275000", "173522.735000", "173523.195000", "173523.655000", "173524.115000", "173524.575000", "173525.035000", "173525.495000", "173525.955000", "173526.415000", "173526.875000", "173527.335000", "173527.795000", "173528.255000", "173528.715000", "173529.175000", "173529.635000", "173530.095000", "173530.555000", "173531.015000", "173531.475000", "173531.935000", "173532.395000", "173532.855000", "173533.315000", "173533.775000", "173534.235000", "173534.695000", "173535.155000", "173535.615000", "173536.075000", "173536.535000", "173536.995000", "173537.455000", "173537.915000", "173538.375000", "173538.835000", "173539.295000", "173539.755000", "173540.215000", "173540.675000", "173541.135000", "173541.595000", "173542.055000", "173542.515000", "173542.975000", "173543.435000", "173543.895000", "173544.355000", "173544.815000", "173545.275000", "173545.735000", "173546.195000", "173546.655000", "173547.115000", "173547.575000", "173548.035000", "173548.495000", "173548.955000", "173549.415000", "173549.875000", "173550.335000", "173550.795000", "173551.255000", "173551.715000", "173552.175000", "173552.635000", "173553.095000", "173553.555000", "173554.015000", "173554.475000", "173554.935000", "173555.395000", "173555.855000", "173556.315000", "173556.775000", "173557.235000", "173557.695000", "173558.155000", "173558.615000", "173559.075000", "173559.535000", "173559.995000", "173600.455000", "173600.915000", "173601.375000", "173601.835000", "173602.295000", "173602.755000", "173603.215000", "173603.675000", "173604.135000", "173604.595000", "173605.055000", "173605.515000", "173605.975000", "173606.435000", "173606.895000", "173607.355000", "173607.815000", "173608.275000", "173608.735000", "173609.195000", "173609.655000", "173610.115000", "173610.575000", "173611.035000", "173611.495000", "173611.955000", "173612.415000", "173612.875000", "173613.335000", "173613.795000", "173614.255000", "173614.715000", "173615.175000", "173615.635000", "173616.095000", "173616.555000", "173617.015000", "173617.475000", "173617.935000", "173618.395000", "173618.855000", "173619.315000", "173619.775000", "173620.235000", "173620.695000", "173621.155000", "173621.615000", "173622.075000", "173622.535000", "173622.995000", "173623.455000", "173623.915000", "173624.375000", "173624.835000", "173625.295000", "173625.755000", "173626.215000", "173626.675000", "173627.135000", "173627.595000", "173628.055000", "173628.515000", "173628.975000", "173629.435000", "173629.895000", "173630.355000", "173630.815000", "173631.275000", "173631.735000", "173632.195000", "173632.655000", "173633.115000", "173633.575000", "173634.035000", "173634.495000", "173634.955000", "173635.415000", "173635.875000", "173636.335000", "173636.795000", "173637.255000", "173637.715000", "173638.175000", "173638.635000", "173639.095000", "173639.555000", "173640.015000", "173640.475000", "173640.935000", "173641.395000", "173641.855000", "173642.315000", "173642.775000", "173643.235000", "173643.695000", "173644.155000", "173644.615000", "173645.075000", "173645.535000", "173645.995000", "173646.455000", "173646.915000", "173647.375000", "173647.835000", "173648.295000", "173648.755000", "173649.215000", "173649.675000", "173650.135000", "173650.595000", "173651.055000", "173651.515000", "173651.975000", "173652.435000", "173652.895000", "173653.355000", "173653.815000", "173654.275000", "173654.735000", "173655.195000", "173655.655000", "173656.115000", "173656.575000", "173657.035000", "173657.495000", "173657.955000", "173658.415000", "173658.875000", "173659.335000", "173659.795000", "173700.255000", "173700.715000", "173701.175000", "173701.635000", "173702.095000", "173702.555000", "173703.015000", "173703.475000", "173703.935000", "173704.395000", "173704.855000", "173705.315000", "173705.775000", "173706.235000", "173706.695000", "173707.155000", "173707.615000", "173708.075000", "173708.535000", "173708.995000", "173709.455000", "173709.915000", "173710.375000", "173710.835000", "173711.295000", "173711.755000", "173712.215000", "173712.675000", "173713.135000", "173713.595000", "173714.055000", "173714.515000", "173714.975000", "173715.435000", "173715.895000", "173716.355000", "173716.815000", "173717.275000", "173717.735000", "173718.195000", "173718.655000", "173719.115000", "173719.575000", "173720.035000", "173720.495000", "173720.955000", "173721.415000", "173721.875000", "173722.335000", "173722.795000", "173723.255000", "173723.715000", "173724.175000", "173724.635000", "173725.095000", "173725.555000", "173726.015000", "173726.475000", "173726.935000", "173727.395000", "173727.855000", "173728.315000", "173728.775000", "173729.235000", "173729.695000", "173730.155000", "173730.615000", "173731.075000", "173731.535000", "173731.995000", "173732.455000", "173732.915000", "173733.375000", "173733.835000", "173734.295000", "173734.755000", "173735.215000", "173735.675000", "173736.135000", "173736.595000", "173737.055000", "173737.515000", "173737.975000", "173738.435000", "173738.895000", "173739.355000", "173739.815000", "173740.275000", "173740.735000", "173741.195000", "173741.655000", "173742.115000", "173742.575000", "173743.035000", "173743.495000", "173743.955000", "173744.415000", "173744.875000", "173745.335000", "173745.795000", "173746.255000", "173746.715000", "173747.175000", "173747.635000", "173748.095000", "173748.555000", "173749.015000", "173749.475000", "173749.935000", "173750.395000", "173750.855000", "173751.315000", "173751.775000", "173752.235000", "173752.695000", "173753.155000", "173753.615000", "173754.075000", "173754.535000", "173754.995000", "173755.455000", "173755.915000", "173756.375000", "173756.835000", "173757.295000", "173757.755000", "173758.215000", "173758.675000", "173759.135000", "173759.595000", "173800.055000", "173800.515000", "173800.975000", "173801.435000", "173801.895000", "173802.355000", "173802.815000", "173803.275000", "173803.735000", "173804.195000", "173804.655000", "173805.115000", "173805.575000", "173806.035000", "173806.495000", "173806.955000", "173807.415000", "173807.875000", "173808.335000", "173808.795000", "173809.255000", "173809.715000", "173810.175000", "173810.635000", "173811.095000", "173811.555000", "173812.015000", "173812.475000", "173812.935000", "173813.395000", "173813.855000", "173814.315000", "173814.775000", "173815.235000", "173815.695000", "173816.155000", "173816.615000", "173817.075000", "173817.535000", "173817.995000", "173818.455000", "173818.915000", "173819.375000", "173819.835000", "173820.295000", "173820.755000", "173821.215000", "173821.675000", "173822.135000", "173822.595000", "173823.055000", "173823.515000", "173823.975000", "173824.435000", "173824.895000", "173825.355000", "173825.815000", "173826.275000", "173826.735000", "173827.195000", "173827.655000", "173828.115000", "173828.575000", "173829.035000", "173829.495000", "173829.955000", "173830.415000", "173830.875000", "173831.335000", "173831.795000", "173832.255000", "173832.715000", "173833.175000", "173833.635000", "173834.095000", "173834.555000", "173835.015000", "173835.475000", "173835.935000", "173836.395000", "173836.855000", "173837.315000", "173837.775000", "173838.235000", "173838.695000", "173839.155000", "173839.615000", "173840.075000", "173840.535000", "173840.995000", "173841.455000", "173841.915000", "173842.375000", "173842.835000", "173843.295000"],
