{
  "AcquisitionMatrixPE": 82,
  "AcquisitionNumber": 1,
  "AcquisitionTime": "18:38:22.862500",
  "BandwidthPerPixelPhaseEncode": 24.888,
  "BaseResolution": 82,
  "BodyPartExamined": "BRAIN",
  "ConsistencyInfo": "N4_VE11C_LATEST_20160120",
  "ConversionSoftware": "dcm2niix",
  "ConversionSoftwareVersion": "v1.0.20201102",
  "DerivedVendorReportedEchoSpacing": 0.00049,
  "DeviceSerialNumber": "66112",
  "DwellTime": 2e-06,
  "EchoTime": 0.0272,
  "EchoTrainLength": 82,
  "EffectiveEchoSpacing": 0.00049,
  "FlipAngle": 44,
  "ImageComments": "Unaliased MB8/PE3",
  "ImageOrientationPatientDICOM": [0.99925, 0.0381719, 0.00652985, -0.038038, 0.999085, -0.0195296],
  "ImageType": [
    "ORIGINAL",
    "PRIMARY",
    "M",
    "MB",
    "ND",
    "NORM",
    "MOSAIC"
],
  "ImagingFrequency": 123.252,
  "InPlanePhaseEncodingDirectionDICOM": "COL",
  "InstitutionAddress": "Maynard 3,Hanover,NH,US,03755",
  "InstitutionName": "Dartmouth College - PBS",
  "InstitutionalDepartmentName": "Department",
  "MRAcquisitionType": "2D",
  "MagneticFieldStrength": 3,
  "Manufacturer": "Siemens",
  "ManufacturersModelName": "Prisma",
  "Modality": "MR",
  "MultibandAccelerationFactor": 8,
  "PartialFourier": 1,
  "PatientPosition": "HFS",
  "PercentPhaseFOV": 100,
  "PercentSampling": 100,
  "PhaseEncodingDirection": "j-",
  "PhaseEncodingSteps": 82,
  "PhaseResolution": 1,
  "PixelBandwidth": 3050,
  "ProcedureStepDescription": "Wager_Wager^1076_spacetop",
  "ProtocolName": "func_run-03_task-alignvideo_acq-ap-mb8",
  "PulseSequenceDetails": "%CustomerSeq%\\cmrr_mbep2d_bold",
  "ReceiveCoilActiveElements": "HEA;HEP",
  "ReceiveCoilName": "Head_32",
  "ReconMatrixPE": 82,
  "RepetitionTime": 0.46,
  "SAR": 0.0963306,
  "ScanOptions": "FS",
  "ScanningSequence": "EP",
  "SequenceName": "epfid2d1_82",
  "SequenceVariant": "SK\\SS",
  "SeriesDescription": "func_run-03_task-alignvideo_acq-ap-mb8",
  "SeriesNumber": 32,
  "ShimSetting": [4151, -7740, -7225, 514, -43, -157, 37, 49],
  "SliceThickness": 2.7,
  "SliceTiming": [0, 0.2525, 0.0625, 0.315, 0.125, 0.3775, 0.19, 0, 0.2525, 0.0625, 0.315, 0.125, 0.3775, 0.19, 0, 0.2525, 0.0625, 0.315, 0.125, 0.3775, 0.19, 0, 0.2525, 0.0625, 0.315, 0.125, 0.3775, 0.19, 0, 0.2525, 0.0625, 0.315, 0.125, 0.3775, 0.19, 0, 0.2525, 0.0625, 0.315, 0.125, 0.3775, 0.19, 0, 0.2525, 0.0625, 0.315, 0.125, 0.3775, 0.19, 0, 0.2525, 0.0625, 0.315, 0.125, 0.3775, 0.19],
  "SoftwareVersions": "syngo MR E11",
  "SpacingBetweenSlices": 2.7,
  "StationName": "AWP66112",
  "TaskName": "alignvideo",
  "TotalReadoutTime": 0.03969,
  "TxRefAmp": 262.993,
  "WipMemBlock": "394cd0db-458a-48cf-96d2-ba20b1e51bc7||Sequence: R016 ve11c/master r/e634e98; Dec 19 2017 11:00:25 by eja",
  "dcmmeta_affine": [
    [-2.6809144020080566, -0.1020531952381134, 0.019627263769507408, 117.48973846435547],
    [-0.10241243988275528, 2.6804730892181396, -0.0520196333527565, -87.78970336914062],
    [0.017519105225801468, 0.052396390587091446, 2.699427604675293, -53.75164031982422],
    [0.0, 0.0, 0.0, 1.0]
],
  "dcmmeta_reorient_transform": [
    [0.0, -1.0, 0.0, 81.0],
    [1.0, 0.0, 0.0, 0.0],
    [0.0, 0.0, 1.0, 0.0],
    [0.0, 0.0, 0.0, 1.0]
],
  "dcmmeta_shape": [82, 82, 56, 1065],
  "dcmmeta_slice_dim": 2,
  "dcmmeta_version": 0.6,
  "global": {
    "const": {
      "AccessionNumber": "A003845",
      "AcquisitionMatrix": [82, 0, 0, 82],
      "AngioFlag": "N",
      "BitsAllocated": 16,
      "BitsStored": 16,
      "BodyPartExamined": "BRAIN",
      "Columns": 656,
      "EchoNumbers": 1,
      "EchoTime": 27.2,
      "EchoTrainLength": 82,
      "FlipAngle": 44.0,
      "HighBit": 15,
      "ImageOrientationPatient": [0.99924985187273, 0.03817190872743, 0.00652984811779, -0.0380380070857, 0.99908543486491, -0.0195295636855],
      "ImagePositionPatient": [-849.3565697126, -928.01679742487, -39.497750027713],
      "ImageType": [
        "ORIGINAL",
        "PRIMARY",
        "M",
        "MB",
        "ND",
        "NORM",
        "MOSAIC"
],
      "ImagedNucleus": "1H",
      "ImagingFrequency": 123.252156,
      "InPlanePhaseEncodingDirection": "COL",
      "MRAcquisitionType": "2D",
      "MagneticFieldStrength": 3.0,
      "Manufacturer": "SIEMENS",
      "ManufacturerModelName": "Prisma",
      "Modality": "MR",
      "NumberOfAverages": 1.0,
      "NumberOfPhaseEncodingSteps": 82,
      "PercentPhaseFieldOfView": 100.0,
      "PercentSampling": 100.0,
      "PerformedProcedureStepStartTime": "170656.480000",
      "PhotometricInterpretation": "MONOCHROME2",
      "PixelBandwidth": 3050.0,
      "PixelRepresentation": 0,
      "PixelSpacing": [2.6829268932343, 2.6829268932343],
      "ProtocolName": "func_run-03_task-alignvideo_acq-ap-mb8",
      "RepetitionTime": 460.0,
      "Rows": 656,
      "SAR": 0.09633057733268,
      "SamplesPerPixel": 1,
      "ScanOptions": "FS",
      "ScanningSequence": "EP",
      "SequenceName": "epfid2d1_82",
      "SequenceVariant": [
        "SK",
        "SS"
],
      "SeriesDescription": "func_run-03_task-alignvideo_acq-ap-mb8",
      "SeriesNumber": 32,
      "SeriesTime": "183846.998000",
      "SliceLocation": -51.194763349642,
      "SliceThickness": 2.7000000476837,
      "SmallestImagePixelValue": 0,
      "SoftwareVersions": "syngo MR E11",
      "SpacingBetweenSlices": 2.7000000365443,
      "SpecificCharacterSet": "ISO_IR 100",
      "StudyID": "1",
      "StudyTime": "170656.428000",
      "TransmitCoilName": "Body",
      "VariableFlipAngleFlag": "N",
      "WindowCenterWidthExplanation": "Algo1",
      "dBdt": 0.0},
    "slices": {}
  },
  "time": {
    "samples": {
      "AcquisitionNumber": [1, 2, 3, 4, 5, 6, 7, 8, 9, 10, 11, 12, 13, 14, 15, 16, 17, 18, 19, 20, 21, 22, 23, 24, 25, 26, 27, 28, 29, 30, 31, 32, 33, 34, 35, 36, 37, 38, 39, 40, 41, 42, 43, 44, 45, 46, 47, 48, 49, 50, 51, 52, 53, 54, 55, 56, 57, 58, 59, 60, 61, 62, 63, 64, 65, 66, 67, 68, 69, 70, 71, 72, 73, 74, 75, 76, 77, 78, 79, 80, 81, 82, 83, 84, 85, 86, 87, 88, 89, 90, 91, 92, 93, 94, 95, 96, 97, 98, 99, 100, 101, 102, 103, 104, 105, 106, 107, 108, 109, 110, 111, 112, 113, 114, 115, 116, 117, 118, 119, 120, 121, 122, 123, 124, 125, 126, 127, 128, 129, 130, 131, 132, 133, 134, 135, 136, 137, 138, 139, 140, 141, 142, 143, 144, 145, 146, 147, 148, 149, 150, 151, 152, 153, 154, 155, 156, 157, 158, 159, 160, 161, 162, 163, 164, 165, 166, 167, 168, 169, 170, 171, 172, 173, 174, 175, 176, 177, 178, 179, 180, 181, 182, 183, 184, 185, 186, 187, 188, 189, 190, 191, 192, 193, 194, 195, 196, 197, 198, 199, 200, 201, 202, 203, 204, 205, 206, 207, 208, 209, 210, 211, 212, 213, 214, 215, 216, 217, 218, 219, 220, 221, 222, 223, 224, 225, 226, 227, 228, 229, 230, 231, 232, 233, 234, 235, 236, 237, 238, 239, 240, 241, 242, 243, 244, 245, 246, 247, 248, 249, 250, 251, 252, 253, 254, 255, 256, 257, 258, 259, 260, 261, 262, 263, 264, 265, 266, 267, 268, 269, 270, 271, 272, 273, 274, 275, 276, 277, 278, 279, 280, 281, 282, 283, 284, 285, 286, 287, 288, 289, 290, 291, 292, 293, 294, 295, 296, 297, 298, 299, 300, 301, 302, 303, 304, 305, 306, 307, 308, 309, 310, 311, 312, 313, 314, 315, 316, 317, 318, 319, 320, 321, 322, 323, 324, 325, 326, 327, 328, 329, 330, 331, 332, 333, 334, 335, 336, 337, 338, 339, 340, 341, 342, 343, 344, 345, 346, 347, 348, 349, 350, 351, 352, 353, 354, 355, 356, 357, 358, 359, 360, 361, 362, 363, 364, 365, 366, 367, 368, 369, 370, 371, 372, 373, 374, 375, 376, 377, 378, 379, 380, 381, 382, 383, 384, 385, 386, 387, 388, 389, 390, 391, 392, 393, 394, 395, 396, 397, 398, 399, 400, 401, 402, 403, 404, 405, 406, 407, 408, 409, 410, 411, 412, 413, 414, 415, 416, 417, 418, 419, 420, 421, 422, 423, 424, 425, 426, 427, 428, 429, 430, 431, 432, 433, 434, 435, 436, 437, 438, 439, 440, 441, 442, 443, 444, 445, 446, 447, 448, 449, 450, 451, 452, 453, 454, 455, 456, 457, 458, 459, 460, 461, 462, 463, 464, 465, 466, 467, 468, 469, 470, 471, 472, 473, 474, 475, 476, 477, 478, 479, 480, 481, 482, 483, 484, 485, 486, 487, 488, 489, 490, 491, 492, 493, 494, 495, 496, 497, 498, 499, 500, 501, 502, 503, 504, 505, 506, 507, 508, 509, 510, 511, 512, 513, 514, 515, 516, 517, 518, 519, 520, 521, 522, 523, 524, 525, 526, 527, 528, 529, 530, 531, 532, 533, 534, 535, 536, 537, 538, 539, 540, 541, 542, 543, 544, 545, 546, 547, 548, 549, 550, 551, 552, 553, 554, 555, 556, 557, 558, 559, 560, 561, 562, 563, 564, 565, 566, 567, 568, 569, 570, 571, 572, 573, 574, 575, 576, 577, 578, 579, 580, 581, 582, 583, 584, 585, 586, 587, 588, 589, 590, 591, 592, 593, 594, 595, 596, 597, 598, 599, 600, 601, 602, 603, 604, 605, 606, 607, 608, 609, 610, 611, 612, 613, 614, 615, 616, 617, 618, 619, 620, 621, 622, 623, 624, 625, 626, 627, 628, 629, 630, 631, 632, 633, 634, 635, 636, 637, 638, 639, 640, 641, 642, 643, 644, 645, 646, 647, 648, 649, 650, 651, 652, 653, 654, 655, 656, 657, 658, 659, 660, 661, 662, 663, 664, 665, 666, 667, 668, 669, 670, 671, 672, 673, 674, 675, 676, 677, 678, 679, 680, 681, 682, 683, 684, 685, 686, 687, 688, 689, 690, 691, 692, 693, 694, 695, 696, 697, 698, 699, 700, 701, 702, 703, 704, 705, 706, 707, 708, 709, 710, 711, 712, 713, 714, 715, 716, 717, 718, 719, 720, 721, 722, 723, 724, 725, 726, 727, 728, 729, 730, 731, 732, 733, 734, 735, 736, 737, 738, 739, 740, 741, 742, 743, 744, 745, 746, 747, 748, 749, 750, 751, 752, 753, 754, 755, 756, 757, 758, 759, 760, 761, 762, 763, 764, 765, 766, 767, 768, 769, 770, 771, 772, 773, 774, 775, 776, 777, 778, 779, 780, 781, 782, 783, 784, 785, 786, 787, 788, 789, 790, 791, 792, 793, 794, 795, 796, 797, 798, 799, 800, 801, 802, 803, 804, 805, 806, 807, 808, 809, 810, 811, 812, 813, 814, 815, 816, 817, 818, 819, 820, 821, 822, 823, 824, 825, 826, 827, 828, 829, 830, 831, 832, 833, 834, 835, 836, 837, 838, 839, 840, 841, 842, 843, 844, 845, 846, 847, 848, 849, 850, 851, 852, 853, 854, 855, 856, 857, 858, 859, 860, 861, 862, 863, 864, 865, 866, 867, 868, 869, 870, 871, 872, 873, 874, 875, 876, 877, 878, 879, 880, 881, 882, 883, 884, 885, 886, 887, 888, 889, 890, 891, 892, 893, 894, 895, 896, 897, 898, 899, 900, 901, 902, 903, 904, 905, 906, 907, 908, 909, 910, 911, 912, 913, 914, 915, 916, 917, 918, 919, 920, 921, 922, 923, 924, 925, 926, 927, 928, 929, 930, 931, 932, 933, 934, 935, 936, 937, 938, 939, 940, 941, 942, 943, 944, 945, 946, 947, 948, 949, 950, 951, 952, 953, 954, 955, 956, 957, 958, 959, 960, 961, 962, 963, 964, 965, 966, 967, 968, 969, 970, 971, 972, 973, 974, 975, 976, 977, 978, 979, 980, 981, 982, 983, 984, 985, 986, 987, 988, 989, 990, 991, 992, 993, 994, 995, 996, 997, 998, 999, 1000, 1001, 1002, 1003, 1004, 1005, 1006, 1007, 1008, 1009, 1010, 1011, 1012, 1013, 1014, 1015, 1016, 1017, 1018, 1019, 1020, 1021, 1022, 1023, 1024, 1025, 1026, 1027, 1028, 1029, 1030, 1031, 1032, 1033, 1034, 1035, 1036, 1037, 1038, 1039, 1040, 1041, 1042, 1043, 1044, 1045, 1046, 1047, 1048, 1049, 1050, 1051, 1052, 1053, 1054, 1055, 1056, 1057, 1058, 1059, 1060, 1061, 1062, 1063, 1064, 1065],
      "AcquisitionTime": ["183822.862500", "183823.322500", "183823.782500", "183824.242500", "183824.702500", "183825.162500", "183825.622500", "183826.082500", "183826.542500", "183827.002500", "183827.462500", "183827.922500", "183828.382500", "183828.842500", "183829.302500", "183829.762500", "183830.222500", "183830.682500", "183831.142500", "183831.602500", "183832.062500", "183832.522500", "183832.982500", "183833.442500", "183833.902500", "183834.362500", "183834.822500", "183835.282500", "183835.742500", "183836.202500", "183836.662500", "183837.122500", "183837.582500", "183838.042500", "183838.502500", "183838.962500", "183839.422500", "183839.882500", "183840.342500", "183840.802500", "183841.262500", "183841.722500", "183842.182500", "183842.642500", "183843.102500", "183843.562500", "183844.022500", "183844.482500", "183844.942500", "183845.402500", "183845.862500", "183846.322500", "183846.782500", "183847.242500", "183847.702500", "183848.162500", "183848.622500", "183849.082500", "183849.542500", "183850.002500", "183850.462500", "183850.922500", "183851.382500", "183851.842500", "183852.302500", "183852.762500", "183853.222500", "183853.682500", "183854.142500", "183854.602500", "183855.062500", "183855.522500", "183855.982500", "183856.442500", "183856.902500", "183857.362500", "183857.822500", "183858.282500", "183858.742500", "183859.202500", "183859.662500", "183900.122500", "183900.582500", "183901.042500", "183901.502500", "183901.962500", "183902.422500", "183902.882500", "183903.342500", "183903.802500", "183904.262500", "183904.722500", "183905.182500", "183905.642500", "183906.102500", "183906.562500", "183907.022500", "183907.482500", "183907.942500", "183908.402500", "183908.862500", "183909.322500", "183909.782500", "183910.242500", "183910.702500", "183911.162500", "183911.622500", "183912.082500", "183912.542500", "183913.002500", "183913.462500", "183913.922500", "183914.382500", "183914.842500", "183915.302500", "183915.762500", "183916.222500", "183916.682500", "183917.142500", "183917.602500", "183918.062500", "183918.522500", "183918.982500", "183919.442500", "183919.902500", "183920.362500", "183920.822500", "183921.282500", "183921.742500", "183922.202500", "183922.662500", "183923.122500", "183923.582500", "183924.042500", "183924.502500", "183924.962500", "183925.422500", "183925.882500", "183926.342500", "183926.802500", "183927.262500", "183927.722500", "183928.182500", "183928.642500", "183929.102500", "183929.562500", "183930.022500", "183930.482500", "183930.942500", "183931.402500", "183931.862500", "183932.322500", "183932.782500", "183933.242500", "183933.702500", "183934.162500", "183934.622500", "183935.082500", "183935.542500", "183936.002500", "183936.462500", "183936.922500", "183937.382500", "183937.842500", "183938.302500", "183938.762500", "183939.222500", "183939.682500", "183940.142500", "183940.602500", "183941.062500", "183941.522500", "183941.982500", "183942.442500", "183942.902500", "183943.362500", "183943.822500", "183944.282500", "183944.742500", "183945.202500", "183945.662500", "183946.122500", "183946.582500", "183947.042500", "183947.502500", "183947.962500", "183948.422500", "183948.882500", "183949.342500", "183949.802500", "183950.262500", "183950.722500", "183951.182500", "183951.642500", "183952.102500", "183952.562500", "183953.022500", "183953.482500", "183953.942500", "183954.402500", "183954.862500", "183955.322500", "183955.782500", "183956.242500", "183956.702500", "183957.162500", "183957.622500", "183958.082500", "183958.542500", "183959.002500", "183959.462500", "183959.922500", "184000.382500", "184000.842500", "184001.302500", "184001.762500", "184002.222500", "184002.682500", "184003.142500", "184003.602500", "184004.062500", "184004.522500", "184004.982500", "184005.442500", "184005.902500", "184006.362500", "184006.822500", "184007.282500", "184007.742500", "184008.202500", "184008.662500", "184009.122500", "184009.582500", "184010.042500", "184010.502500", "184010.962500", "184011.422500", "184011.882500", "184012.342500", "184012.802500", "184013.262500", "184013.722500", "184014.182500", "184014.642500", "184015.102500", "184015.562500", "184016.022500", "184016.482500", "184016.942500", "184017.402500", "184017.862500", "184018.322500", "184018.782500", "184019.242500", "184019.702500", "184020.162500", "184020.622500", "184021.082500", "184021.542500", "184022.002500", "184022.462500", "184022.922500", "184023.382500", "184023.842500", "184024.302500", "184024.762500", "184025.222500", "184025.682500", "184026.142500", "184026.602500", "184027.062500", "184027.522500", "184027.982500", "184028.442500", "184028.902500", "184029.362500", "184029.822500", "184030.282500", "184030.742500", "184031.202500", "184031.662500", "184032.122500", "184032.582500", "184033.042500", "184033.502500", "184033.962500", "184034.422500", "184034.882500", "184035.342500", "184035.802500", "184036.262500", "184036.722500", "184037.182500", "184037.642500", "184038.102500", "184038.562500", "184039.022500", "184039.482500", "184039.942500", "184040.402500", "184040.862500", "184041.322500", "184041.782500", "184042.242500", "184042.702500", "184043.162500", "184043.622500", "184044.082500", "184044.542500", "184045.002500", "184045.462500", "184045.922500", "184046.382500", "184046.842500", "184047.302500", "184047.762500", "184048.222500", "184048.682500", "184049.142500", "184049.602500", "184050.062500", "184050.522500", "184050.982500", "184051.442500", "184051.902500", "184052.362500", "184052.822500", "184053.282500", "184053.742500", "184054.202500", "184054.662500", "184055.122500", "184055.582500", "184056.042500", "184056.502500", "184056.962500", "184057.422500", "184057.882500", "184058.342500", "184058.802500", "184059.262500", "184059.722500", "184100.182500", "184100.642500", "184101.102500", "184101.562500", "184102.022500", "184102.482500", "184102.942500", "184103.402500", "184103.862500", "184104.322500", "184104.782500", "184105.242500", "184105.702500", "184106.162500", "184106.622500", "184107.082500", "184107.542500", "184108.002500", "184108.462500", "184108.922500", "184109.382500", "184109.842500", "184110.302500", "184110.762500", "184111.222500", "184111.682500", "184112.142500", "184112.602500", "184113.062500", "184113.522500", "184113.982500", "184114.442500", "184114.902500", "184115.362500", "184115.822500", "184116.282500", "184116.742500", "184117.202500", "184117.662500", "184118.122500", "184118.582500", "184119.042500", "184119.502500", "184119.962500", "184120.422500", "184120.882500", "184121.342500", "184121.802500", "184122.262500", "184122.722500", "184123.182500", "184123.642500", "184124.102500", "184124.562500", "184125.022500", "184125.482500", "184125.942500", "184126.402500", "184126.862500", "184127.322500", "184127.782500", "184128.242500", "184128.702500", "184129.162500", "184129.622500", "184130.082500", "184130.542500", "184131.002500", "184131.462500", "184131.922500", "184132.382500", "184132.842500", "184133.302500", "184133.762500", "184134.222500", "184134.682500", "184135.142500", "184135.602500", "184136.062500", "184136.522500", "184136.982500", "184137.442500", "184137.902500", "184138.362500", "184138.822500", "184139.282500", "184139.742500", "184140.202500", "184140.662500", "184141.122500", "184141.582500", "184142.042500", "184142.502500", "184142.962500", "184143.422500", "184143.882500", "184144.342500", "184144.802500", "184145.262500", "184145.722500", "184146.182500", "184146.642500", "184147.102500", "184147.562500", "184148.022500", "184148.482500", "184148.942500", "184149.402500", "184149.862500", "184150.322500", "184150.782500", "184151.242500", "184151.702500", "184152.162500", "184152.622500", "184153.082500", "184153.542500", "184154.002500", "184154.462500", "184154.922500", "184155.382500", "184155.842500", "184156.302500", "184156.762500", "184157.222500", "184157.682500", "184158.142500", "184158.602500", "184159.062500", "184159.522500", "184159.982500", "184200.442500", "184200.902500", "184201.362500", "184201.822500", "184202.282500", "184202.742500", "184203.202500", "184203.662500", "184204.122500", "184204.582500", "184205.042500", "184205.502500", "184205.962500", "184206.422500", "184206.882500", "184207.342500", "184207.802500", "184208.262500", "184208.722500", "184209.182500", "184209.642500", "184210.102500", "184210.562500", "184211.022500", "184211.482500", "184211.942500", "184212.402500", "184212.862500", "184213.322500", "184213.782500", "184214.242500", "184214.702500", "184215.162500", "184215.622500", "184216.082500", "184216.542500", "184217.002500", "184217.462500", "184217.922500", "184218.382500", "184218.842500", "184219.302500", "184219.762500", "184220.222500", "184220.682500", "184221.142500", "184221.602500", "184222.062500", "184222.522500", "184222.982500", "184223.442500", "184223.902500", "184224.362500", "184224.822500", "184225.282500", "184225.742500", "184226.202500", "184226.662500", "184227.122500", "184227.582500", "184228.042500", "184228.502500", "184228.962500", "184229.422500", "184229.882500", "184230.342500", "184230.802500", "184231.262500", "184231.722500", "184232.182500", "184232.642500", "184233.102500", "184233.562500", "184234.022500", "184234.482500", "184234.942500", "184235.402500", "184235.862500", "184236.322500", "184236.782500", "184237.242500", "184237.702500", "184238.162500", "184238.622500", "184239.082500", "184239.542500", "184240.002500", "184240.462500", "184240.922500", "184241.382500", "184241.842500", "184242.302500", "184242.762500", "184243.222500", "184243.682500", "184244.142500", "184244.602500", "184245.062500", "184245.522500", "184245.982500", "184246.442500", "184246.902500", "184247.362500", "184247.822500", "184248.282500", "184248.742500", "184249.202500", "184249.662500", "184250.122500", "184250.582500", "184251.042500", "184251.502500", "184251.962500", "184252.422500", "184252.882500", "184253.342500", "184253.802500", "184254.262500", "184254.722500", "184255.182500", "184255.642500", "184256.102500", "184256.562500", "184257.022500", "184257.482500", "184257.942500", "184258.402500", "184258.862500", "184259.322500", "184259.782500", "184300.242500", "184300.702500", "184301.162500", "184301.622500", "184302.082500", "184302.542500", "184303.002500", "184303.462500", "184303.922500", "184304.382500", "184304.842500", "184305.302500", "184305.762500", "184306.222500", "184306.682500", "184307.142500", "184307.602500", "184308.062500", "184308.522500", "184308.982500", "184309.442500", "184309.902500", "184310.362500", "184310.822500", "184311.282500", "184311.742500", "184312.202500", "184312.662500", "184313.122500", "184313.582500", "184314.042500", "184314.502500", "184314.962500", "184315.422500", "184315.882500", "184316.342500", "184316.802500", "184317.262500", "184317.722500", "184318.182500", "184318.642500", "184319.102500", "184319.562500", "184320.022500", "184320.482500", "184320.942500", "184321.402500", "184321.862500", "184322.322500", "184322.782500", "184323.242500", "184323.702500", "184324.162500", "184324.622500", "184325.082500", "184325.542500", "184326.002500", "184326.462500", "184326.922500", "184327.382500", "184327.842500", "184328.302500", "184328.762500", "184329.222500", "184329.682500", "184330.142500", "184330.602500", "184331.062500", "184331.522500", "184331.982500", "184332.442500", "184332.902500", "184333.362500", "184333.822500", "184334.282500", "184334.742500", "184335.202500", "184335.662500", "184336.122500", "184336.582500", "184337.042500", "184337.502500", "184337.962500", "184338.422500", "184338.882500", "184339.342500", "184339.802500", "184340.262500", "184340.722500", "184341.182500", "184341.642500", "184342.102500", "184342.562500", "184343.022500", "184343.482500", "184343.942500", "184344.402500", "184344.862500", "184345.322500", "184345.782500", "184346.242500", "184346.702500", "184347.162500", "184347.622500", "184348.082500", "184348.542500", "184349.002500", "184349.462500", "184349.922500", "184350.382500", "184350.842500", "184351.302500", "184351.762500", "184352.222500", "184352.682500", "184353.142500", "184353.602500", "184354.062500", "184354.522500", "184354.982500", "184355.442500", "184355.902500", "184356.362500", "184356.822500", "184357.282500", "184357.742500", "184358.202500", "184358.662500", "184359.122500", "184359.582500", "184400.042500", "184400.502500", "184400.962500", "184401.422500", "184401.882500", "184402.342500", "184402.802500", "184403.262500", "184403.722500", "184404.182500", "184404.642500", "184405.102500", "184405.562500", "184406.022500", "184406.482500", "184406.942500", "184407.402500", "184407.862500", "184408.322500", "184408.782500", "184409.242500", "184409.702500", "184410.162500", "184410.622500", "184411.082500", "184411.542500", "184412.002500", "184412.462500", "184412.922500", "184413.382500", "184413.842500", "184414.302500", "184414.762500", "184415.222500", "184415.682500", "184416.142500", "184416.602500", "184417.062500", "184417.522500", "184417.982500", "184418.442500", "184418.902500", "184419.362500", "184419.822500", "184420.282500", "184420.742500", "184421.202500", "184421.662500", "184422.122500", "184422.582500", "184423.042500", "184423.502500", "184423.962500", "184424.422500", "184424.882500", "184425.342500", "184425.802500", "184426.262500", "184426.722500", "184427.182500", "184427.642500", "184428.102500", "184428.562500", "184429.022500", "184429.482500", "184429.942500", "184430.402500", "184430.862500", "184431.322500", "184431.782500", "184432.242500", "184432.702500", "184433.162500", "184433.622500", "184434.082500", "184434.542500", "184435.002500", "184435.462500", "184435.922500", "184436.382500", "184436.842500", "184437.302500", "184437.762500", "184438.222500", "184438.682500", "184439.142500", "184439.602500", "184440.062500", "184440.522500", "184440.982500", "184441.442500", "184441.902500", "184442.362500", "184442.822500", "184443.282500", "184443.742500", "184444.202500", "184444.662500", "184445.122500", "184445.582500", "184446.042500", "184446.502500", "184446.962500", "184447.422500", "184447.882500", "184448.342500", "184448.802500", "184449.262500", "184449.722500", "184450.182500", "184450.642500", "184451.102500", "184451.562500", "184452.022500", "184452.482500", "184452.942500", "184453.402500", "184453.862500", "184454.322500", "184454.782500", "184455.242500", "184455.702500", "184456.162500", "184456.622500", "184457.082500", "184457.542500", "184458.002500", "184458.462500", "184458.922500", "184459.382500", "184459.842500", "184500.302500", "184500.762500", "184501.222500", "184501.682500", "184502.142500", "184502.602500", "184503.062500", "184503.522500", "184503.982500", "184504.442500", "184504.902500", "184505.362500", "184505.822500", "184506.282500", "184506.742500", "184507.202500", "184507.662500", "184508.122500", "184508.582500", "184509.042500", "184509.502500", "184509.962500", "184510.422500", "184510.882500", "184511.342500", "184511.802500", "184512.262500", "184512.722500", "184513.182500", "184513.642500", "184514.102500", "184514.562500", "184515.022500", "184515.482500", "184515.942500", "184516.402500", "184516.862500", "184517.322500", "184517.782500", "184518.242500", "184518.702500", "184519.162500", "184519.622500", "184520.082500", "184520.542500", "184521.002500", "184521.462500", "184521.922500", "184522.382500", "184522.842500", "184523.302500", "184523.762500", "184524.222500", "184524.682500", "184525.142500", "184525.602500", "184526.062500", "184526.522500", "184526.982500", "184527.442500", "184527.902500", "184528.362500", "184528.822500", "184529.282500", "184529.742500", "184530.202500", "184530.662500", "184531.122500", "184531.582500", "184532.042500", "184532.502500", "184532.962500", "184533.422500", "184533.882500", "184534.342500", "184534.802500", "184535.262500", "184535.722500", "184536.182500", "184536.642500", "184537.102500", "184537.562500", "184538.022500", "184538.482500", "184538.942500", "184539.402500", "184539.862500", "184540.322500", "184540.782500", "184541.242500", "184541.702500", "184542.162500", "184542.622500", "184543.082500", "184543.542500", "184544.002500", "184544.462500", "184544.922500", "184545.382500", "184545.842500", "184546.302500", "184546.762500", "184547.222500", "184547.682500", "184548.142500", "184548.602500", "184549.062500", "184549.522500", "184549.982500", "184550.442500", "184550.902500", "184551.362500", "184551.822500", "184552.282500", "184552.742500", "184553.202500", "184553.662500", "184554.122500", "184554.582500", "184555.042500", "184555.502500", "184555.962500", "184556.422500", "184556.882500", "184557.342500", "184557.802500", "184558.262500", "184558.722500", "184559.182500", "184559.642500", "184600.102500", "184600.562500", "184601.022500", "184601.482500", "184601.942500", "184602.402500", "184602.862500", "184603.322500", "184603.782500", "184604.242500", "184604.702500", "184605.162500", "184605.622500", "184606.082500", "184606.542500", "184607.002500", "184607.462500", "184607.922500", "184608.382500", "184608.842500", "184609.302500", "184609.762500", "184610.222500", "184610.682500", "184611.142500", "184611.602500", "184612.062500", "184612.522500", "184612.982500", "184613.442500", "184613.902500", "184614.362500", "184614.822500", "184615.282500", "184615.742500", "184616.202500", "184616.662500", "184617.122500", "184617.582500", "184618.042500", "184618.502500", "184618.962500", "184619.422500", "184619.882500", "184620.342500", "184620.802500", "184621.262500", "184621.722500", "184622.182500", "184622.642500", "184623.102500", "184623.562500", "184624.022500", "184624.482500", "184624.942500", "184625.402500", "184625.862500", "184626.322500", "184626.782500", "184627.242500", "184627.702500", "184628.162500", "184628.622500", "184629.082500", "184629.542500", "184630.002500", "184630.462500", "184630.922500", "184631.382500", "184631.842500", "184632.302500"],
