{
  "AcquisitionMatrixPE": 82,
  "AcquisitionNumber": 1,
  "AcquisitionTime": "17:24:48.542500",
  "BandwidthPerPixelPhaseEncode": 24.888,
  "BaseResolution": 82,
  "BodyPartExamined": "BRAIN",
  "ConsistencyInfo": "N4_VE11C_LATEST_20160120",
  "ConversionSoftware": "dcm2niix",
  "ConversionSoftwareVersion": "v1.0.20201102",
  "DerivedVendorReportedEchoSpacing": 0.00049,
  "DeviceSerialNumber": "66112",
  "DwellTime": 2e-06,
  "EchoTime": 0.0272,
  "EchoTrainLength": 82,
  "EffectiveEchoSpacing": 0.00049,
  "FlipAngle": 44,
  "ImageComments": "Unaliased MB8/PE3",
  "ImageOrientationPatientDICOM": [0.999551, 0.0294697, -0.00550875, -0.029666, 0.998768, -0.0397899],
  "ImageType": [
    "ORIGINAL",
    "PRIMARY",
    "M",
    "MB",
    "ND",
    "NORM",
    "MOSAIC"
],
  "ImagingFrequency": 123.252,
  "InPlanePhaseEncodingDirectionDICOM": "COL",
  "InstitutionAddress": "Maynard 3,Hanover,NH,US,03755",
  "InstitutionName": "Dartmouth College - PBS",
  "InstitutionalDepartmentName": "Department",
  "MRAcquisitionType": "2D",
  "MagneticFieldStrength": 3,
  "Manufacturer": "Siemens",
  "ManufacturersModelName": "Prisma",
  "Modality": "MR",
  "MultibandAccelerationFactor": 8,
  "PartialFourier": 1,
  "PatientPosition": "HFS",
  "PercentPhaseFOV": 100,
  "PercentSampling": 100,
  "PhaseEncodingDirection": "j-",
  "PhaseEncodingSteps": 82,
  "PhaseResolution": 1,
  "PixelBandwidth": 3050,
  "ProcedureStepDescription": "Wager_Wager^1076_spacetop",
  "ProtocolName": "func_run-02_task-social_acq-ap-mb8",
  "PulseSequenceDetails": "%CustomerSeq%\\cmrr_mbep2d_bold",
  "ReceiveCoilActiveElements": "HEA;HEP",
  "ReceiveCoilName": "Head_32",
  "ReconMatrixPE": 82,
  "RepetitionTime": 0.46,
  "SAR": 0.096222,
  "ScanOptions": "FS",
  "ScanningSequence": "EP",
  "SequenceName": "epfid2d1_82",
  "SequenceVariant": "SK\\SS",
  "SeriesDescription": "func_run-02_task-social_acq-ap-mb8",
  "SeriesNumber": 10,
  "ShimSetting": [4151, -7741, -7226, 510, -44, -161, 39, 49],
  "SliceThickness": 2.7,
  "SliceTiming": [0, 0.25, 0.0625, 0.3125, 0.125, 0.375, 0.1875, 0, 0.25, 0.0625, 0.3125, 0.125, 0.375, 0.1875, 0, 0.25, 0.0625, 0.3125, 0.125, 0.375, 0.1875, 0, 0.25, 0.0625, 0.3125, 0.125, 0.375, 0.1875, 0, 0.25, 0.0625, 0.3125, 0.125, 0.375, 0.1875, 0, 0.25, 0.0625, 0.3125, 0.125, 0.375, 0.1875, 0, 0.25, 0.0625, 0.3125, 0.125, 0.375, 0.1875, 0, 0.25, 0.0625, 0.3125, 0.125, 0.375, 0.1875],
  "SoftwareVersions": "syngo MR E11",
  "SpacingBetweenSlices": 2.7,
  "StationName": "AWP66112",
  "TaskName": "social",
  "TotalReadoutTime": 0.03969,
  "TxRefAmp": 262.993,
  "WipMemBlock": "a25cb187-ad66-4dde-b290-6f0910ba0bb2||Sequence: R016 ve11c/master r/e634e98; Dec 19 2017 11:00:25 by eja",
  "dcmmeta_affine": [
    [-2.6817209720611572, -0.07959159463644028, -0.01168928574770689, 116.74121856689453],
    [-0.07906518131494522, 2.6796205043792725, -0.10782559961080551, -87.05282592773438],
    [-0.014779577031731606, 0.10675331205129623, 2.6978209018707275, -55.5608024597168],
    [0.0, 0.0, 0.0, 1.0]
],
  "dcmmeta_reorient_transform": [
    [0.0, -1.0, 0.0, 81.0],
    [1.0, 0.0, 0.0, 0.0],
    [0.0, 0.0, 1.0, 0.0],
    [0.0, 0.0, 0.0, 1.0]
],
  "dcmmeta_shape": [82, 82, 56, 872],
  "dcmmeta_slice_dim": 2,
  "dcmmeta_version": 0.6,
  "global": {
    "const": {
      "AccessionNumber": "A003845",
      "AcquisitionMatrix": [82, 0, 0, 82],
      "AngioFlag": "N",
      "BitsAllocated": 16,
      "BitsStored": 16,
      "BodyPartExamined": "BRAIN",
      "Columns": 656,
      "EchoNumbers": 1,
      "EchoTime": 27.2,
      "EchoTrainLength": 82,
      "FlipAngle": 44.0,
      "HighBit": 15,
      "ImageOrientationPatient": [0.9995504927504, 0.02946974890688, -0.0055087513823, -0.0296659576354, 0.99876758916993, -0.0397898703349],
      "ImagePositionPatient": [-857.10541207798, -921.73919890509, -12.033845086653],
      "ImageType": [
        "ORIGINAL",
        "PRIMARY",
        "M",
        "MB",
        "ND",
        "NORM",
        "MOSAIC"
],
      "ImagedNucleus": "1H",
      "ImagingFrequency": 123.252153,
      "InPlanePhaseEncodingDirection": "COL",
      "MRAcquisitionType": "2D",
      "MagneticFieldStrength": 3.0,
      "Manufacturer": "SIEMENS",
      "ManufacturerModelName": "Prisma",
      "Modality": "MR",
      "NumberOfAverages": 1.0,
      "NumberOfPhaseEncodingSteps": 82,
      "PercentPhaseFieldOfView": 100.0,
      "PercentSampling": 100.0,
      "PerformedProcedureStepStartTime": "170656.480000",
      "PhotometricInterpretation": "MONOCHROME2",
      "PixelBandwidth": 3050.0,
      "PixelRepresentation": 0,
      "PixelSpacing": [2.6829268932343, 2.6829268932343],
      "ProtocolName": "func_run-02_task-social_acq-ap-mb8",
      "RepetitionTime": 460.0,
      "Rows": 656,
      "SAR": 0.09622202875222,
      "SamplesPerPixel": 1,
      "ScanOptions": "FS",
      "ScanningSequence": "EP",
      "SequenceName": "epfid2d1_82",
      "SequenceVariant": [
        "SK",
        "SS"
],
      "SeriesDescription": "func_run-02_task-social_acq-ap-mb8",
      "SeriesNumber": 10,
      "SeriesTime": "172507.070000",
      "SliceLocation": -52.54488437387,
      "SliceThickness": 2.7000000476837,
      "SmallestImagePixelValue": 0,
      "SoftwareVersions": "syngo MR E11",
      "SpacingBetweenSlices": 2.7000000498372,
      "SpecificCharacterSet": "ISO_IR 100",
      "StudyID": "1",
      "StudyTime": "170656.428000",
      "TransmitCoilName": "Body",
      "VariableFlipAngleFlag": "N",
      "WindowCenterWidthExplanation": "Algo1",
      "dBdt": 0.0},
    "slices": {}
  },
  "time": {
    "samples": {
      "AcquisitionNumber": [1, 2, 3, 4, 5, 6, 7, 8, 9, 10, 11, 12, 13, 14, 15, 16, 17, 18, 19, 20, 21, 22, 23, 24, 25, 26, 27, 28, 29, 30, 31, 32, 33, 34, 35, 36, 37, 38, 39, 40, 41, 42, 43, 44, 45, 46, 47, 48, 49, 50, 51, 52, 53, 54, 55, 56, 57, 58, 59, 60, 61, 62, 63, 64, 65, 66, 67, 68, 69, 70, 71, 72, 73, 74, 75, 76, 77, 78, 79, 80, 81, 82, 83, 84, 85, 86, 87, 88, 89, 90, 91, 92, 93, 94, 95, 96, 97, 98, 99, 100, 101, 102, 103, 104, 105, 106, 107, 108, 109, 110, 111, 112, 113, 114, 115, 116, 117, 118, 119, 120, 121, 122, 123, 124, 125, 126, 127, 128, 129, 130, 131, 132, 133, 134, 135, 136, 137, 138, 139, 140, 141, 142, 143, 144, 145, 146, 147, 148, 149, 150, 151, 152, 153, 154, 155, 156, 157, 158, 159, 160, 161, 162, 163, 164, 165, 166, 167, 168, 169, 170, 171, 172, 173, 174, 175, 176, 177, 178, 179, 180, 181, 182, 183, 184, 185, 186, 187, 188, 189, 190, 191, 192, 193, 194, 195, 196, 197, 198, 199, 200, 201, 202, 203, 204, 205, 206, 207, 208, 209, 210, 211, 212, 213, 214, 215, 216, 217, 218, 219, 220, 221, 222, 223, 224, 225, 226, 227, 228, 229, 230, 231, 232, 233, 234, 235, 236, 237, 238, 239, 240, 241, 242, 243, 244, 245, 246, 247, 248, 249, 250, 251, 252, 253, 254, 255, 256, 257, 258, 259, 260, 261, 262, 263, 264, 265, 266, 267, 268, 269, 270, 271, 272, 273, 274, 275, 276, 277, 278, 279, 280, 281, 282, 283, 284, 285, 286, 287, 288, 289, 290, 291, 292, 293, 294, 295, 296, 297, 298, 299, 300, 301, 302, 303, 304, 305, 306, 307, 308, 309, 310, 311, 312, 313, 314, 315, 316, 317, 318, 319, 320, 321, 322, 323, 324, 325, 326, 327, 328, 329, 330, 331, 332, 333, 334, 335, 336, 337, 338, 339, 340, 341, 342, 343, 344, 345, 346, 347, 348, 349, 350, 351, 352, 353, 354, 355, 356, 357, 358, 359, 360, 361, 362, 363, 364, 365, 366, 367, 368, 369, 370, 371, 372, 373, 374, 375, 376, 377, 378, 379, 380, 381, 382, 383, 384, 385, 386, 387, 388, 389, 390, 391, 392, 393, 394, 395, 396, 397, 398, 399, 400, 401, 402, 403, 404, 405, 406, 407, 408, 409, 410, 411, 412, 413, 414, 415, 416, 417, 418, 419, 420, 421, 422, 423, 424, 425, 426, 427, 428, 429, 430, 431, 432, 433, 434, 435, 436, 437, 438, 439, 440, 441, 442, 443, 444, 445, 446, 447, 448, 449, 450, 451, 452, 453, 454, 455, 456, 457, 458, 459, 460, 461, 462, 463, 464, 465, 466, 467, 468, 469, 470, 471, 472, 473, 474, 475, 476, 477, 478, 479, 480, 481, 482, 483, 484, 485, 486, 487, 488, 489, 490, 491, 492, 493, 494, 495, 496, 497, 498, 499, 500, 501, 502, 503, 504, 505, 506, 507, 508, 509, 510, 511, 512, 513, 514, 515, 516, 517, 518, 519, 520, 521, 522, 523, 524, 525, 526, 527, 528, 529, 530, 531, 532, 533, 534, 535, 536, 537, 538, 539, 540, 541, 542, 543, 544, 545, 546, 547, 548, 549, 550, 551, 552, 553, 554, 555, 556, 557, 558, 559, 560, 561, 562, 563, 564, 565, 566, 567, 568, 569, 570, 571, 572, 573, 574, 575, 576, 577, 578, 579, 580, 581, 582, 583, 584, 585, 586, 587, 588, 589, 590, 591, 592, 593, 594, 595, 596, 597, 598, 599, 600, 601, 602, 603, 604, 605, 606, 607, 608, 609, 610, 611, 612, 613, 614, 615, 616, 617, 618, 619, 620, 621, 622, 623, 624, 625, 626, 627, 628, 629, 630, 631, 632, 633, 634, 635, 636, 637, 638, 639, 640, 641, 642, 643, 644, 645, 646, 647, 648, 649, 650, 651, 652, 653, 654, 655, 656, 657, 658, 659, 660, 661, 662, 663, 664, 665, 666, 667, 668, 669, 670, 671, 672, 673, 674, 675, 676, 677, 678, 679, 680, 681, 682, 683, 684, 685, 686, 687, 688, 689, 690, 691, 692, 693, 694, 695, 696, 697, 698, 699, 700, 701, 702, 703, 704, 705, 706, 707, 708, 709, 710, 711, 712, 713, 714, 715, 716, 717, 718, 719, 720, 721, 722, 723, 724, 725, 726, 727, 728, 729, 730, 731, 732, 733, 734, 735, 736, 737, 738, 739, 740, 741, 742, 743, 744, 745, 746, 747, 748, 749, 750, 751, 752, 753, 754, 755, 756, 757, 758, 759, 760, 761, 762, 763, 764, 765, 766, 767, 768, 769, 770, 771, 772, 773, 774, 775, 776, 777, 778, 779, 780, 781, 782, 783, 784, 785, 786, 787, 788, 789, 790, 791, 792, 793, 794, 795, 796, 797, 798, 799, 800, 801, 802, 803, 804, 805, 806, 807, 808, 809, 810, 811, 812, 813, 814, 815, 816, 817, 818, 819, 820, 821, 822, 823, 824, 825, 826, 827, 828, 829, 830, 831, 832, 833, 834, 835, 836, 837, 838, 839, 840, 841, 842, 843, 844, 845, 846, 847, 848, 849, 850, 851, 852, 853, 854, 855, 856, 857, 858, 859, 860, 861, 862, 863, 864, 865, 866, 867, 868, 869, 870, 871, 872],
      "AcquisitionTime": ["172448.542500", "172449.002500", "172449.462500", "172449.922500", "172450.382500", "172450.842500", "172451.302500", "172451.762500", "172452.222500", "172452.682500", "172453.142500", "172453.602500", "172454.062500", "172454.522500", "172454.982500", "172455.442500", "172455.902500", "172456.362500", "172456.822500", "172457.282500", "172457.742500", "172458.202500", "172458.662500", "172459.122500", "172459.582500", "172500.042500", "172500.502500", "172500.962500", "172501.422500", "172501.882500", "172502.342500", "172502.802500", "172503.262500", "172503.722500", "172504.182500", "172504.642500", "172505.102500", "172505.562500", "172506.022500", "172506.482500", "172506.942500", "172507.402500", "172507.862500", "172508.322500", "172508.782500", "172509.242500", "172509.702500", "172510.162500", "172510.622500", "172511.082500", "172511.542500", "172512.002500", "172512.462500", "172512.922500", "172513.382500", "172513.842500", "172514.302500", "172514.762500", "172515.222500", "172515.682500", "172516.142500", "172516.602500", "172517.062500", "172517.522500", "172517.982500", "172518.442500", "172518.902500", "172519.362500", "172519.822500", "172520.282500", "172520.742500", "172521.202500", "172521.662500", "172522.122500", "172522.582500", "172523.042500", "172523.502500", "172523.962500", "172524.422500", "172524.882500", "172525.342500", "172525.802500", "172526.262500", "172526.722500", "172527.182500", "172527.642500", "172528.102500", "172528.562500", "172529.022500", "172529.482500", "172529.942500", "172530.402500", "172530.862500", "172531.322500", "172531.782500", "172532.242500", "172532.702500", "172533.162500", "172533.622500", "172534.082500", "172534.542500", "172535.002500", "172535.462500", "172535.922500", "172536.382500", "172536.842500", "172537.302500", "172537.762500", "172538.222500", "172538.682500", "172539.142500", "172539.602500", "172540.062500", "172540.522500", "172540.982500", "172541.442500", "172541.902500", "172542.362500", "172542.822500", "172543.282500", "172543.742500", "172544.202500", "172544.662500", "172545.122500", "172545.582500", "172546.042500", "172546.502500", "172546.962500", "172547.422500", "172547.882500", "172548.342500", "172548.802500", "172549.262500", "172549.722500", "172550.182500", "172550.642500", "172551.102500", "172551.562500", "172552.022500", "172552.482500", "172552.942500", "172553.402500", "172553.862500", "172554.322500", "172554.782500", "172555.242500", "172555.702500", "172556.162500", "172556.622500", "172557.082500", "172557.542500", "172558.002500", "172558.462500", "172558.922500", "172559.382500", "172559.842500", "172600.302500", "172600.762500", "172601.222500", "172601.682500", "172602.142500", "172602.602500", "172603.062500", "172603.522500", "172603.982500", "172604.442500", "172604.902500", "172605.362500", "172605.822500", "172606.282500", "172606.742500", "172607.202500", "172607.662500", "172608.122500", "172608.582500", "172609.042500", "172609.502500", "172609.962500", "172610.422500", "172610.882500", "172611.342500", "172611.802500", "172612.262500", "172612.722500", "172613.182500", "172613.642500", "172614.102500", "172614.562500", "172615.022500", "172615.482500", "172615.942500", "172616.402500", "172616.862500", "172617.322500", "172617.782500", "172618.242500", "172618.702500", "172619.162500", "172619.622500", "172620.082500", "172620.542500", "172621.002500", "172621.462500", "172621.922500", "172622.382500", "172622.842500", "172623.302500", "172623.762500", "172624.222500", "172624.682500", "172625.142500", "172625.602500", "172626.062500", "172626.522500", "172626.982500", "172627.442500", "172627.902500", "172628.362500", "172628.822500", "172629.282500", "172629.742500", "172630.202500", "172630.662500", "172631.122500", "172631.582500", "172632.042500", "172632.502500", "172632.962500", "172633.422500", "172633.882500", "172634.342500", "172634.802500", "172635.262500", "172635.722500", "172636.182500", "172636.642500", "172637.102500", "172637.562500", "172638.022500", "172638.482500", "172638.942500", "172639.402500", "172639.862500", "172640.322500", "172640.782500", "172641.242500", "172641.702500", "172642.162500", "172642.622500", "172643.082500", "172643.542500", "172644.002500", "172644.462500", "172644.922500", "172645.382500", "172645.842500", "172646.302500", "172646.762500", "172647.222500", "172647.682500", "172648.142500", "172648.602500", "172649.062500", "172649.522500", "172649.982500", "172650.442500", "172650.902500", "172651.362500", "172651.822500", "172652.282500", "172652.742500", "172653.202500", "172653.662500", "172654.122500", "172654.582500", "172655.042500", "172655.502500", "172655.962500", "172656.422500", "172656.882500", "172657.342500", "172657.802500", "172658.262500", "172658.722500", "172659.182500", "172659.642500", "172700.102500", "172700.562500", "172701.022500", "172701.482500", "172701.942500", "172702.402500", "172702.862500", "172703.322500", "172703.782500", "172704.242500", "172704.702500", "172705.162500", "172705.622500", "172706.082500", "172706.542500", "172707.002500", "172707.462500", "172707.922500", "172708.382500", "172708.842500", "172709.302500", "172709.762500", "172710.222500", "172710.682500", "172711.142500", "172711.602500", "172712.062500", "172712.522500", "172712.982500", "172713.442500", "172713.902500", "172714.362500", "172714.822500", "172715.282500", "172715.742500", "172716.202500", "172716.662500", "172717.122500", "172717.582500", "172718.042500", "172718.502500", "172718.962500", "172719.422500", "172719.882500", "172720.342500", "172720.802500", "172721.262500", "172721.722500", "172722.182500", "172722.642500", "172723.102500", "172723.562500", "172724.022500", "172724.482500", "172724.942500", "172725.402500", "172725.862500", "172726.322500", "172726.782500", "172727.242500", "172727.702500", "172728.162500", "172728.622500", "172729.082500", "172729.542500", "172730.002500", "172730.462500", "172730.922500", "172731.382500", "172731.842500", "172732.302500", "172732.762500", "172733.222500", "172733.682500", "172734.142500", "172734.602500", "172735.062500", "172735.522500", "172735.982500", "172736.442500", "172736.902500", "172737.362500", "172737.822500", "172738.282500", "172738.742500", "172739.202500", "172739.662500", "172740.122500", "172740.582500", "172741.042500", "172741.502500", "172741.962500", "172742.422500", "172742.882500", "172743.342500", "172743.802500", "172744.262500", "172744.722500", "172745.182500", "172745.642500", "172746.102500", "172746.562500", "172747.022500", "172747.482500", "172747.942500", "172748.402500", "172748.862500", "172749.322500", "172749.782500", "172750.242500", "172750.702500", "172751.162500", "172751.622500", "172752.082500", "172752.542500", "172753.002500", "172753.462500", "172753.922500", "172754.382500", "172754.842500", "172755.302500", "172755.762500", "172756.222500", "172756.682500", "172757.142500", "172757.602500", "172758.062500", "172758.522500", "172758.982500", "172759.442500", "172759.902500", "172800.362500", "172800.822500", "172801.282500", "172801.742500", "172802.202500", "172802.662500", "172803.122500", "172803.582500", "172804.042500", "172804.502500", "172804.962500", "172805.422500", "172805.882500", "172806.342500", "172806.802500", "172807.262500", "172807.722500", "172808.182500", "172808.642500", "172809.102500", "172809.562500", "172810.022500", "172810.482500", "172810.942500", "172811.402500", "172811.862500", "172812.322500", "172812.782500", "172813.242500", "172813.702500", "172814.162500", "172814.622500", "172815.082500", "172815.542500", "172816.002500", "172816.462500", "172816.922500", "172817.382500", "172817.842500", "172818.302500", "172818.762500", "172819.222500", "172819.682500", "172820.142500", "172820.602500", "172821.062500", "172821.522500", "172821.982500", "172822.442500", "172822.902500", "172823.362500", "172823.822500", "172824.282500", "172824.742500", "172825.202500", "172825.662500", "172826.122500", "172826.582500", "172827.042500", "172827.502500", "172827.962500", "172828.422500", "172828.882500", "172829.342500", "172829.802500", "172830.262500", "172830.722500", "172831.182500", "172831.642500", "172832.102500", "172832.562500", "172833.022500", "172833.482500", "172833.942500", "172834.402500", "172834.862500", "172835.322500", "172835.782500", "172836.242500", "172836.702500", "172837.162500", "172837.622500", "172838.082500", "172838.542500", "172839.002500", "172839.462500", "172839.922500", "172840.382500", "172840.842500", "172841.302500", "172841.762500", "172842.222500", "172842.682500", "172843.142500", "172843.602500", "172844.062500", "172844.522500", "172844.982500", "172845.442500", "172845.902500", "172846.362500", "172846.822500", "172847.282500", "172847.742500", "172848.202500", "172848.662500", "172849.122500", "172849.582500", "172850.042500", "172850.502500", "172850.962500", "172851.422500", "172851.882500", "172852.342500", "172852.802500", "172853.262500", "172853.722500", "172854.182500", "172854.642500", "172855.102500", "172855.562500", "172856.022500", "172856.482500", "172856.942500", "172857.402500", "172857.862500", "172858.322500", "172858.782500", "172859.242500", "172859.702500", "172900.162500", "172900.622500", "172901.082500", "172901.542500", "172902.002500", "172902.462500", "172902.922500", "172903.382500", "172903.842500", "172904.302500", "172904.762500", "172905.222500", "172905.682500", "172906.142500", "172906.602500", "172907.062500", "172907.522500", "172907.982500", "172908.442500", "172908.902500", "172909.362500", "172909.822500", "172910.282500", "172910.742500", "172911.202500", "172911.662500", "172912.122500", "172912.582500", "172913.042500", "172913.502500", "172913.962500", "172914.422500", "172914.882500", "172915.342500", "172915.802500", "172916.262500", "172916.722500", "172917.182500", "172917.642500", "172918.102500", "172918.562500", "172919.022500", "172919.482500", "172919.942500", "172920.402500", "172920.862500", "172921.322500", "172921.782500", "172922.242500", "172922.702500", "172923.162500", "172923.622500", "172924.082500", "172924.542500", "172925.002500", "172925.462500", "172925.922500", "172926.382500", "172926.842500", "172927.302500", "172927.762500", "172928.222500", "172928.682500", "172929.142500", "172929.602500", "172930.062500", "172930.522500", "172930.982500", "172931.442500", "172931.902500", "172932.362500", "172932.822500", "172933.282500", "172933.742500", "172934.202500", "172934.662500", "172935.122500", "172935.582500", "172936.042500", "172936.502500", "172936.962500", "172937.422500", "172937.882500", "172938.342500", "172938.802500", "172939.262500", "172939.722500", "172940.182500", "172940.642500", "172941.102500", "172941.562500", "172942.022500", "172942.482500", "172942.942500", "172943.402500", "172943.862500", "172944.322500", "172944.782500", "172945.242500", "172945.702500", "172946.162500", "172946.622500", "172947.082500", "172947.542500", "172948.002500", "172948.462500", "172948.922500", "172949.382500", "172949.842500", "172950.302500", "172950.762500", "172951.222500", "172951.682500", "172952.142500", "172952.602500", "172953.062500", "172953.522500", "172953.982500", "172954.442500", "172954.902500", "172955.362500", "172955.822500", "172956.282500", "172956.742500", "172957.202500", "172957.662500", "172958.122500", "172958.582500", "172959.042500", "172959.502500", "172959.962500", "173000.422500", "173000.882500", "173001.342500", "173001.802500", "173002.262500", "173002.722500", "173003.182500", "173003.642500", "173004.102500", "173004.562500", "173005.022500", "173005.482500", "173005.942500", "173006.402500", "173006.862500", "173007.322500", "173007.782500", "173008.242500", "173008.702500", "173009.162500", "173009.622500", "173010.082500", "173010.542500", "173011.002500", "173011.462500", "173011.922500", "173012.382500", "173012.842500", "173013.302500", "173013.762500", "173014.222500", "173014.682500", "173015.142500", "173015.602500", "173016.062500", "173016.522500", "173016.982500", "173017.442500", "173017.902500", "173018.362500", "173018.822500", "173019.282500", "173019.742500", "173020.202500", "173020.662500", "173021.122500", "173021.582500", "173022.042500", "173022.502500", "173022.962500", "173023.422500", "173023.882500", "173024.342500", "173024.802500", "173025.262500", "173025.722500", "173026.182500", "173026.642500", "173027.102500", "173027.562500", "173028.022500", "173028.482500", "173028.942500", "173029.402500", "173029.862500", "173030.322500", "173030.782500", "173031.242500", "173031.702500", "173032.162500", "173032.622500", "173033.082500", "173033.542500", "173034.002500", "173034.462500", "173034.922500", "173035.382500", "173035.842500", "173036.302500", "173036.762500", "173037.222500", "173037.682500", "173038.142500", "173038.602500", "173039.062500", "173039.522500", "173039.982500", "173040.442500", "173040.902500", "173041.362500", "173041.822500", "173042.282500", "173042.742500", "173043.202500", "173043.662500", "173044.122500", "173044.582500", "173045.042500", "173045.502500", "173045.962500", "173046.422500", "173046.882500", "173047.342500", "173047.802500", "173048.262500", "173048.722500", "173049.182500", "173049.642500", "173050.102500", "173050.562500", "173051.022500", "173051.482500", "173051.942500", "173052.402500", "173052.862500", "173053.322500", "173053.782500", "173054.242500", "173054.702500", "173055.162500", "173055.622500", "173056.082500", "173056.542500", "173057.002500", "173057.462500", "173057.922500", "173058.382500", "173058.842500", "173059.302500", "173059.762500", "173100.222500", "173100.682500", "173101.142500", "173101.602500", "173102.062500", "173102.522500", "173102.982500", "173103.442500", "173103.902500", "173104.362500", "173104.822500", "173105.282500", "173105.742500", "173106.202500", "173106.662500", "173107.122500", "173107.582500", "173108.042500", "173108.502500", "173108.962500", "173109.422500", "173109.882500", "173110.342500", "173110.802500", "173111.262500", "173111.722500", "173112.182500", "173112.642500", "173113.102500", "173113.562500", "173114.022500", "173114.482500", "173114.942500", "173115.402500", "173115.862500", "173116.322500", "173116.782500", "173117.242500", "173117.702500", "173118.162500", "173118.622500", "173119.082500", "173119.542500", "173120.002500", "173120.462500", "173120.922500", "173121.382500", "173121.842500", "173122.302500", "173122.762500", "173123.222500", "173123.682500", "173124.142500", "173124.602500", "173125.062500", "173125.522500", "173125.982500", "173126.442500", "173126.902500", "173127.362500", "173127.822500", "173128.282500", "173128.742500", "173129.202500"],
