{
  "AcquisitionMatrixPE": 82,
  "AcquisitionNumber": 1,
  "AcquisitionTime": "17:39:9.655000",
  "BandwidthPerPixelPhaseEncode": 24.888,
  "BaseResolution": 82,
  "BodyPartExamined": "BRAIN",
  "ConsistencyInfo": "N4_VE11C_LATEST_20160120",
  "ConversionSoftware": "dcm2niix",
  "ConversionSoftwareVersion": "v1.0.20201102",
  "DerivedVendorReportedEchoSpacing": 0.00049,
  "DeviceSerialNumber": "66112",
  "DwellTime": 2e-06,
  "EchoTime": 0.0272,
  "EchoTrainLength": 82,
  "EffectiveEchoSpacing": 0.00049,
  "FlipAngle": 44,
  "ImageComments": "Unaliased MB8/PE3",
  "ImageOrientationPatientDICOM": [0.999551, 0.0294697, -0.00550875, -0.029666, 0.998768, -0.0397899],
  "ImageType": [
    "ORIGINAL",
    "PRIMARY",
    "M",
    "MB",
    "ND",
    "NORM",
    "MOSAIC"
],
  "ImagingFrequency": 123.252,
  "InPlanePhaseEncodingDirectionDICOM": "COL",
  "InstitutionAddress": "Maynard 3,Hanover,NH,US,03755",
  "InstitutionName": "Dartmouth College - PBS",
  "InstitutionalDepartmentName": "Department",
  "MRAcquisitionType": "2D",
  "MagneticFieldStrength": 3,
  "Manufacturer": "Siemens",
  "ManufacturersModelName": "Prisma",
  "Modality": "MR",
  "MultibandAccelerationFactor": 8,
  "PartialFourier": 1,
  "PatientPosition": "HFS",
  "PercentPhaseFOV": 100,
  "PercentSampling": 100,
  "PhaseEncodingDirection": "j-",
  "PhaseEncodingSteps": 82,
  "PhaseResolution": 1,
  "PixelBandwidth": 3050,
  "ProcedureStepDescription": "Wager_Wager^1076_spacetop",
  "ProtocolName": "func_run-04_task-social_acq-ap-mb8",
  "PulseSequenceDetails": "%CustomerSeq%\\cmrr_mbep2d_bold",
  "ReceiveCoilActiveElements": "HEA;HEP",
  "ReceiveCoilName": "Head_32",
  "ReconMatrixPE": 82,
  "RepetitionTime": 0.46,
  "SAR": 0.096222,
  "ScanOptions": "FS",
  "ScanningSequence": "EP",
  "SequenceName": "epfid2d1_82",
  "SequenceVariant": "SK\\SS",
  "SeriesDescription": "func_run-04_task-social_acq-ap-mb8",
  "SeriesNumber": 14,
  "ShimSetting": [4151, -7741, -7226, 510, -44, -161, 39, 49],
  "SliceThickness": 2.7,
  "SliceTiming": [0, 0.2525, 0.0625, 0.315, 0.1275, 0.3775, 0.19, 0, 0.2525, 0.0625, 0.315, 0.1275, 0.3775, 0.19, 0, 0.2525, 0.0625, 0.315, 0.1275, 0.3775, 0.19, 0, 0.2525, 0.0625, 0.315, 0.1275, 0.3775, 0.19, 0, 0.2525, 0.0625, 0.315, 0.1275, 0.3775, 0.19, 0, 0.2525, 0.0625, 0.315, 0.1275, 0.3775, 0.19, 0, 0.2525, 0.0625, 0.315, 0.1275, 0.3775, 0.19, 0, 0.2525, 0.0625, 0.315, 0.1275, 0.3775, 0.19],
  "SoftwareVersions": "syngo MR E11",
  "SpacingBetweenSlices": 2.7,
  "StationName": "AWP66112",
  "TaskName": "social",
  "TotalReadoutTime": 0.03969,
  "TxRefAmp": 262.993,
  "WipMemBlock": "8f1e405f-b4ff-4c44-a5ad-ad650c271360||Sequence: R016 ve11c/master r/e634e98; Dec 19 2017 11:00:25 by eja",
  "dcmmeta_affine": [
    [-2.6817209720611572, -0.07959159463644028, -0.01168928574770689, 116.74121856689453],
    [-0.07906518131494522, 2.6796205043792725, -0.10782559961080551, -87.05282592773438],
    [-0.014779577031731606, 0.10675331205129623, 2.6978209018707275, -55.5608024597168],
    [0.0, 0.0, 0.0, 1.0]
],
  "dcmmeta_reorient_transform": [
    [0.0, -1.0, 0.0, 81.0],
    [1.0, 0.0, 0.0, 0.0],
    [0.0, 0.0, 1.0, 0.0],
    [0.0, 0.0, 0.0, 1.0]
],
  "dcmmeta_shape": [82, 82, 56, 872],
  "dcmmeta_slice_dim": 2,
  "dcmmeta_version": 0.6,
  "global": {
    "const": {
      "AccessionNumber": "A003845",
      "AcquisitionMatrix": [82, 0, 0, 82],
      "AngioFlag": "N",
      "BitsAllocated": 16,
      "BitsStored": 16,
      "BodyPartExamined": "BRAIN",
      "Columns": 656,
      "EchoNumbers": 1,
      "EchoTime": 27.2,
      "EchoTrainLength": 82,
      "FlipAngle": 44.0,
      "HighBit": 15,
      "ImageOrientationPatient": [0.9995504927504, 0.02946974890688, -0.0055087513823, -0.0296659576354, 0.99876758916993, -0.0397898703349],
      "ImagePositionPatient": [-857.10541207798, -921.73919890509, -12.033845086653],
      "ImageType": [
        "ORIGINAL",
        "PRIMARY",
        "M",
        "MB",
        "ND",
        "NORM",
        "MOSAIC"
],
      "ImagedNucleus": "1H",
      "ImagingFrequency": 123.252155,
      "InPlanePhaseEncodingDirection": "COL",
      "MRAcquisitionType": "2D",
      "MagneticFieldStrength": 3.0,
      "Manufacturer": "SIEMENS",
      "ManufacturerModelName": "Prisma",
      "Modality": "MR",
      "NumberOfAverages": 1.0,
      "NumberOfPhaseEncodingSteps": 82,
      "PercentPhaseFieldOfView": 100.0,
      "PercentSampling": 100.0,
      "PerformedProcedureStepStartTime": "170656.480000",
      "PhotometricInterpretation": "MONOCHROME2",
      "PixelBandwidth": 3050.0,
      "PixelRepresentation": 0,
      "PixelSpacing": [2.6829268932343, 2.6829268932343],
      "ProtocolName": "func_run-04_task-social_acq-ap-mb8",
      "RepetitionTime": 460.0,
      "Rows": 656,
      "SAR": 0.09622202875222,
      "SamplesPerPixel": 1,
      "ScanOptions": "FS",
      "ScanningSequence": "EP",
      "SequenceName": "epfid2d1_82",
      "SequenceVariant": [
        "SK",
        "SS"
],
      "SeriesDescription": "func_run-04_task-social_acq-ap-mb8",
      "SeriesNumber": 14,
      "SeriesTime": "173927.014000",
      "SliceLocation": -52.54488437387,
      "SliceThickness": 2.7000000476837,
      "SmallestImagePixelValue": 0,
      "SoftwareVersions": "syngo MR E11",
      "SpacingBetweenSlices": 2.7000000498372,
      "SpecificCharacterSet": "ISO_IR 100",
      "StudyID": "1",
      "StudyTime": "170656.428000",
      "TransmitCoilName": "Body",
      "VariableFlipAngleFlag": "N",
      "WindowCenterWidthExplanation": "Algo1",
      "dBdt": 0.0},
    "slices": {}
  },
  "time": {
    "samples": {
      "AcquisitionNumber": [1, 2, 3, 4, 5, 6, 7, 8, 9, 10, 11, 12, 13, 14, 15, 16, 17, 18, 19, 20, 21, 22, 23, 24, 25, 26, 27, 28, 29, 30, 31, 32, 33, 34, 35, 36, 37, 38, 39, 40, 41, 42, 43, 44, 45, 46, 47, 48, 49, 50, 51, 52, 53, 54, 55, 56, 57, 58, 59, 60, 61, 62, 63, 64, 65, 66, 67, 68, 69, 70, 71, 72, 73, 74, 75, 76, 77, 78, 79, 80, 81, 82, 83, 84, 85, 86, 87, 88, 89, 90, 91, 92, 93, 94, 95, 96, 97, 98, 99, 100, 101, 102, 103, 104, 105, 106, 107, 108, 109, 110, 111, 112, 113, 114, 115, 116, 117, 118, 119, 120, 121, 122, 123, 124, 125, 126, 127, 128, 129, 130, 131, 132, 133, 134, 135, 136, 137, 138, 139, 140, 141, 142, 143, 144, 145, 146, 147, 148, 149, 150, 151, 152, 153, 154, 155, 156, 157, 158, 159, 160, 161, 162, 163, 164, 165, 166, 167, 168, 169, 170, 171, 172, 173, 174, 175, 176, 177, 178, 179, 180, 181, 182, 183, 184, 185, 186, 187, 188, 189, 190, 191, 192, 193, 194, 195, 196, 197, 198, 199, 200, 201, 202, 203, 204, 205, 206, 207, 208, 209, 210, 211, 212, 213, 214, 215, 216, 217, 218, 219, 220, 221, 222, 223, 224, 225, 226, 227, 228, 229, 230, 231, 232, 233, 234, 235, 236, 237, 238, 239, 240, 241, 242, 243, 244, 245, 246, 247, 248, 249, 250, 251, 252, 253, 254, 255, 256, 257, 258, 259, 260, 261, 262, 263, 264, 265, 266, 267, 268, 269, 270, 271, 272, 273, 274, 275, 276, 277, 278, 279, 280, 281, 282, 283, 284, 285, 286, 287, 288, 289, 290, 291, 292, 293, 294, 295, 296, 297, 298, 299, 300, 301, 302, 303, 304, 305, 306, 307, 308, 309, 310, 311, 312, 313, 314, 315, 316, 317, 318, 319, 320, 321, 322, 323, 324, 325, 326, 327, 328, 329, 330, 331, 332, 333, 334, 335, 336, 337, 338, 339, 340, 341, 342, 343, 344, 345, 346, 347, 348, 349, 350, 351, 352, 353, 354, 355, 356, 357, 358, 359, 360, 361, 362, 363, 364, 365, 366, 367, 368, 369, 370, 371, 372, 373, 374, 375, 376, 377, 378, 379, 380, 381, 382, 383, 384, 385, 386, 387, 388, 389, 390, 391, 392, 393, 394, 395, 396, 397, 398, 399, 400, 401, 402, 403, 404, 405, 406, 407, 408, 409, 410, 411, 412, 413, 414, 415, 416, 417, 418, 419, 420, 421, 422, 423, 424, 425, 426, 427, 428, 429, 430, 431, 432, 433, 434, 435, 436, 437, 438, 439, 440, 441, 442, 443, 444, 445, 446, 447, 448, 449, 450, 451, 452, 453, 454, 455, 456, 457, 458, 459, 460, 461, 462, 463, 464, 465, 466, 467, 468, 469, 470, 471, 472, 473, 474, 475, 476, 477, 478, 479, 480, 481, 482, 483, 484, 485, 486, 487, 488, 489, 490, 491, 492, 493, 494, 495, 496, 497, 498, 499, 500, 501, 502, 503, 504, 505, 506, 507, 508, 509, 510, 511, 512, 513, 514, 515, 516, 517, 518, 519, 520, 521, 522, 523, 524, 525, 526, 527, 528, 529, 530, 531, 532, 533, 534, 535, 536, 537, 538, 539, 540, 541, 542, 543, 544, 545, 546, 547, 548, 549, 550, 551, 552, 553, 554, 555, 556, 557, 558, 559, 560, 561, 562, 563, 564, 565, 566, 567, 568, 569, 570, 571, 572, 573, 574, 575, 576, 577, 578, 579, 580, 581, 582, 583, 584, 585, 586, 587, 588, 589, 590, 591, 592, 593, 594, 595, 596, 597, 598, 599, 600, 601, 602, 603, 604, 605, 606, 607, 608, 609, 610, 611, 612, 613, 614, 615, 616, 617, 618, 619, 620, 621, 622, 623, 624, 625, 626, 627, 628, 629, 630, 631, 632, 633, 634, 635, 636, 637, 638, 639, 640, 641, 642, 643, 644, 645, 646, 647, 648, 649, 650, 651, 652, 653, 654, 655, 656, 657, 658, 659, 660, 661, 662, 663, 664, 665, 666, 667, 668, 669, 670, 671, 672, 673, 674, 675, 676, 677, 678, 679, 680, 681, 682, 683, 684, 685, 686, 687, 688, 689, 690, 691, 692, 693, 694, 695, 696, 697, 698, 699, 700, 701, 702, 703, 704, 705, 706, 707, 708, 709, 710, 711, 712, 713, 714, 715, 716, 717, 718, 719, 720, 721, 722, 723, 724, 725, 726, 727, 728, 729, 730, 731, 732, 733, 734, 735, 736, 737, 738, 739, 740, 741, 742, 743, 744, 745, 746, 747, 748, 749, 750, 751, 752, 753, 754, 755, 756, 757, 758, 759, 760, 761, 762, 763, 764, 765, 766, 767, 768, 769, 770, 771, 772, 773, 774, 775, 776, 777, 778, 779, 780, 781, 782, 783, 784, 785, 786, 787, 788, 789, 790, 791, 792, 793, 794, 795, 796, 797, 798, 799, 800, 801, 802, 803, 804, 805, 806, 807, 808, 809, 810, 811, 812, 813, 814, 815, 816, 817, 818, 819, 820, 821, 822, 823, 824, 825, 826, 827, 828, 829, 830, 831, 832, 833, 834, 835, 836, 837, 838, 839, 840, 841, 842, 843, 844, 845, 846, 847, 848, 849, 850, 851, 852, 853, 854, 855, 856, 857, 858, 859, 860, 861, 862, 863, 864, 865, 866, 867, 868, 869, 870, 871, 872],
      "AcquisitionTime": ["173909.655000", "173910.115000", "173910.575000", "173911.035000", "173911.495000", "173911.955000", "173912.415000", "173912.875000", "173913.335000", "173913.795000", "173914.255000", "173914.715000", "173915.175000", "173915.635000", "173916.095000", "173916.555000", "173917.015000", "173917.475000", "173917.935000", "173918.395000", "173918.855000", "173919.315000", "173919.775000", "173920.235000", "173920.695000", "173921.155000", "173921.615000", "173922.075000", "173922.535000", "173922.995000", "173923.455000", "173923.915000", "173924.375000", "173924.835000", "173925.295000", "173925.755000", "173926.215000", "173926.675000", "173927.135000", "173927.595000", "173928.055000", "173928.515000", "173928.975000", "173929.435000", "173929.895000", "173930.355000", "173930.815000", "173931.275000", "173931.735000", "173932.195000", "173932.655000", "173933.115000", "173933.575000", "173934.035000", "173934.495000", "173934.955000", "173935.415000", "173935.875000", "173936.335000", "173936.795000", "173937.255000", "173937.715000", "173938.175000", "173938.635000", "173939.095000", "173939.555000", "173940.015000", "173940.475000", "173940.935000", "173941.395000", "173941.855000", "173942.315000", "173942.775000", "173943.235000", "173943.695000", "173944.155000", "173944.615000", "173945.075000", "173945.535000", "173945.995000", "173946.455000", "173946.915000", "173947.375000", "173947.835000", "173948.295000", "173948.755000", "173949.215000", "173949.675000", "173950.135000", "173950.595000", "173951.055000", "173951.515000", "173951.975000", "173952.435000", "173952.895000", "173953.355000", "173953.815000", "173954.275000", "173954.735000", "173955.195000", "173955.655000", "173956.115000", "173956.575000", "173957.035000", "173957.495000", "173957.955000", "173958.415000", "173958.875000", "173959.335000", "173959.795000", "174000.255000", "174000.715000", "174001.175000", "174001.635000", "174002.095000", "174002.555000", "174003.015000", "174003.475000", "174003.935000", "174004.395000", "174004.855000", "174005.315000", "174005.775000", "174006.235000", "174006.695000", "174007.155000", "174007.615000", "174008.075000", "174008.535000", "174008.995000", "174009.455000", "174009.915000", "174010.375000", "174010.835000", "174011.295000", "174011.755000", "174012.215000", "174012.675000", "174013.135000", "174013.595000", "174014.055000", "174014.515000", "174014.975000", "174015.435000", "174015.895000", "174016.355000", "174016.815000", "174017.275000", "174017.735000", "174018.195000", "174018.655000", "174019.115000", "174019.575000", "174020.035000", "174020.495000", "174020.955000", "174021.415000", "174021.875000", "174022.335000", "174022.795000", "174023.255000", "174023.715000", "174024.175000", "174024.635000", "174025.095000", "174025.555000", "174026.015000", "174026.475000", "174026.935000", "174027.395000", "174027.855000", "174028.315000", "174028.775000", "174029.235000", "174029.695000", "174030.155000", "174030.615000", "174031.075000", "174031.535000", "174031.995000", "174032.455000", "174032.915000", "174033.375000", "174033.835000", "174034.295000", "174034.755000", "174035.215000", "174035.675000", "174036.135000", "174036.595000", "174037.055000", "174037.515000", "174037.975000", "174038.435000", "174038.895000", "174039.355000", "174039.815000", "174040.275000", "174040.735000", "174041.195000", "174041.655000", "174042.115000", "174042.575000", "174043.035000", "174043.495000", "174043.955000", "174044.415000", "174044.875000", "174045.335000", "174045.795000", "174046.255000", "174046.715000", "174047.175000", "174047.635000", "174048.095000", "174048.555000", "174049.015000", "174049.475000", "174049.935000", "174050.395000", "174050.855000", "174051.315000", "174051.775000", "174052.235000", "174052.695000", "174053.155000", "174053.615000", "174054.075000", "174054.535000", "174054.995000", "174055.455000", "174055.915000", "174056.375000", "174056.835000", "174057.295000", "174057.755000", "174058.215000", "174058.675000", "174059.135000", "174059.595000", "174100.055000", "174100.515000", "174100.975000", "174101.435000", "174101.895000", "174102.355000", "174102.815000", "174103.275000", "174103.735000", "174104.195000", "174104.655000", "174105.115000", "174105.575000", "174106.035000", "174106.495000", "174106.955000", "174107.415000", "174107.875000", "174108.335000", "174108.795000", "174109.255000", "174109.715000", "174110.175000", "174110.635000", "174111.095000", "174111.555000", "174112.015000", "174112.475000", "174112.935000", "174113.395000", "174113.855000", "174114.315000", "174114.775000", "174115.235000", "174115.695000", "174116.155000", "174116.615000", "174117.075000", "174117.535000", "174117.995000", "174118.455000", "174118.915000", "174119.375000", "174119.835000", "174120.295000", "174120.755000", "174121.215000", "174121.675000", "174122.135000", "174122.595000", "174123.055000", "174123.515000", "174123.975000", "174124.435000", "174124.895000", "174125.355000", "174125.815000", "174126.275000", "174126.735000", "174127.195000", "174127.655000", "174128.115000", "174128.575000", "174129.035000", "174129.495000", "174129.955000", "174130.415000", "174130.875000", "174131.335000", "174131.795000", "174132.255000", "174132.715000", "174133.175000", "174133.635000", "174134.095000", "174134.555000", "174135.015000", "174135.475000", "174135.935000", "174136.395000", "174136.855000", "174137.315000", "174137.775000", "174138.235000", "174138.695000", "174139.155000", "174139.615000", "174140.075000", "174140.535000", "174140.995000", "174141.455000", "174141.915000", "174142.375000", "174142.835000", "174143.295000", "174143.755000", "174144.215000", "174144.675000", "174145.135000", "174145.595000", "174146.055000", "174146.515000", "174146.975000", "174147.435000", "174147.895000", "174148.355000", "174148.815000", "174149.275000", "174149.735000", "174150.195000", "174150.655000", "174151.115000", "174151.575000", "174152.035000", "174152.495000", "174152.955000", "174153.415000", "174153.875000", "174154.335000", "174154.795000", "174155.255000", "174155.715000", "174156.175000", "174156.635000", "174157.095000", "174157.555000", "174158.015000", "174158.475000", "174158.935000", "174159.395000", "174159.855000", "174200.315000", "174200.775000", "174201.235000", "174201.695000", "174202.155000", "174202.615000", "174203.075000", "174203.535000", "174203.995000", "174204.455000", "174204.915000", "174205.375000", "174205.835000", "174206.295000", "174206.755000", "174207.215000", "174207.675000", "174208.135000", "174208.595000", "174209.055000", "174209.515000", "174209.975000", "174210.435000", "174210.895000", "174211.355000", "174211.815000", "174212.275000", "174212.735000", "174213.195000", "174213.655000", "174214.115000", "174214.575000", "174215.035000", "174215.495000", "174215.955000", "174216.415000", "174216.875000", "174217.335000", "174217.795000", "174218.255000", "174218.715000", "174219.175000", "174219.635000", "174220.095000", "174220.555000", "174221.015000", "174221.475000", "174221.935000", "174222.395000", "174222.855000", "174223.315000", "174223.775000", "174224.235000", "174224.695000", "174225.155000", "174225.615000", "174226.075000", "174226.535000", "174226.995000", "174227.455000", "174227.915000", "174228.375000", "174228.835000", "174229.295000", "174229.755000", "174230.215000", "174230.675000", "174231.135000", "174231.595000", "174232.055000", "174232.515000", "174232.975000", "174233.435000", "174233.895000", "174234.355000", "174234.815000", "174235.275000", "174235.735000", "174236.195000", "174236.655000", "174237.115000", "174237.575000", "174238.035000", "174238.495000", "174238.955000", "174239.415000", "174239.875000", "174240.335000", "174240.795000", "174241.255000", "174241.715000", "174242.175000", "174242.635000", "174243.095000", "174243.555000", "174244.015000", "174244.475000", "174244.935000", "174245.395000", "174245.855000", "174246.315000", "174246.775000", "174247.235000", "174247.695000", "174248.155000", "174248.615000", "174249.075000", "174249.535000", "174249.995000", "174250.455000", "174250.915000", "174251.375000", "174251.835000", "174252.295000", "174252.755000", "174253.215000", "174253.675000", "174254.135000", "174254.595000", "174255.055000", "174255.515000", "174255.975000", "174256.435000", "174256.895000", "174257.355000", "174257.815000", "174258.275000", "174258.735000", "174259.195000", "174259.655000", "174300.115000", "174300.575000", "174301.035000", "174301.495000", "174301.955000", "174302.415000", "174302.875000", "174303.335000", "174303.795000", "174304.255000", "174304.715000", "174305.175000", "174305.635000", "174306.095000", "174306.555000", "174307.015000", "174307.475000", "174307.935000", "174308.395000", "174308.855000", "174309.315000", "174309.775000", "174310.235000", "174310.695000", "174311.155000", "174311.615000", "174312.075000", "174312.535000", "174312.995000", "174313.455000", "174313.915000", "174314.375000", "174314.835000", "174315.295000", "174315.755000", "174316.215000", "174316.675000", "174317.135000", "174317.595000", "174318.055000", "174318.515000", "174318.975000", "174319.435000", "174319.895000", "174320.355000", "174320.815000", "174321.275000", "174321.735000", "174322.195000", "174322.655000", "174323.115000", "174323.575000", "174324.035000", "174324.495000", "174324.955000", "174325.415000", "174325.875000", "174326.335000", "174326.795000", "174327.255000", "174327.715000", "174328.175000", "174328.635000", "174329.095000", "174329.555000", "174330.015000", "174330.475000", "174330.935000", "174331.395000", "174331.855000", "174332.315000", "174332.775000", "174333.235000", "174333.695000", "174334.155000", "174334.615000", "174335.075000", "174335.535000", "174335.995000", "174336.455000", "174336.915000", "174337.375000", "174337.835000", "174338.295000", "174338.755000", "174339.215000", "174339.675000", "174340.135000", "174340.595000", "174341.055000", "174341.515000", "174341.975000", "174342.435000", "174342.895000", "174343.355000", "174343.815000", "174344.275000", "174344.735000", "174345.195000", "174345.655000", "174346.115000", "174346.575000", "174347.035000", "174347.495000", "174347.955000", "174348.415000", "174348.875000", "174349.335000", "174349.795000", "174350.255000", "174350.715000", "174351.175000", "174351.635000", "174352.095000", "174352.555000", "174353.015000", "174353.475000", "174353.935000", "174354.395000", "174354.855000", "174355.315000", "174355.775000", "174356.235000", "174356.695000", "174357.155000", "174357.615000", "174358.075000", "174358.535000", "174358.995000", "174359.455000", "174359.915000", "174400.375000", "174400.835000", "174401.295000", "174401.755000", "174402.215000", "174402.675000", "174403.135000", "174403.595000", "174404.055000", "174404.515000", "174404.975000", "174405.435000", "174405.895000", "174406.355000", "174406.815000", "174407.275000", "174407.735000", "174408.195000", "174408.655000", "174409.115000", "174409.575000", "174410.035000", "174410.495000", "174410.955000", "174411.415000", "174411.875000", "174412.335000", "174412.795000", "174413.255000", "174413.715000", "174414.175000", "174414.635000", "174415.095000", "174415.555000", "174416.015000", "174416.475000", "174416.935000", "174417.395000", "174417.855000", "174418.315000", "174418.775000", "174419.235000", "174419.695000", "174420.155000", "174420.615000", "174421.075000", "174421.535000", "174421.995000", "174422.455000", "174422.915000", "174423.375000", "174423.835000", "174424.295000", "174424.755000", "174425.215000", "174425.675000", "174426.135000", "174426.595000", "174427.055000", "174427.515000", "174427.975000", "174428.435000", "174428.895000", "174429.355000", "174429.815000", "174430.275000", "174430.735000", "174431.195000", "174431.655000", "174432.115000", "174432.575000", "174433.035000", "174433.495000", "174433.955000", "174434.415000", "174434.875000", "174435.335000", "174435.795000", "174436.255000", "174436.715000", "174437.175000", "174437.635000", "174438.095000", "174438.555000", "174439.015000", "174439.475000", "174439.935000", "174440.395000", "174440.855000", "174441.315000", "174441.775000", "174442.235000", "174442.695000", "174443.155000", "174443.615000", "174444.075000", "174444.535000", "174444.995000", "174445.455000", "174445.915000", "174446.375000", "174446.835000", "174447.295000", "174447.755000", "174448.215000", "174448.675000", "174449.135000", "174449.595000", "174450.055000", "174450.515000", "174450.975000", "174451.435000", "174451.895000", "174452.355000", "174452.815000", "174453.275000", "174453.735000", "174454.195000", "174454.655000", "174455.115000", "174455.575000", "174456.035000", "174456.495000", "174456.955000", "174457.415000", "174457.875000", "174458.335000", "174458.795000", "174459.255000", "174459.715000", "174500.175000", "174500.635000", "174501.095000", "174501.555000", "174502.015000", "174502.475000", "174502.935000", "174503.395000", "174503.855000", "174504.315000", "174504.775000", "174505.235000", "174505.695000", "174506.155000", "174506.615000", "174507.075000", "174507.535000", "174507.995000", "174508.455000", "174508.915000", "174509.375000", "174509.835000", "174510.295000", "174510.755000", "174511.215000", "174511.675000", "174512.135000", "174512.595000", "174513.055000", "174513.515000", "174513.975000", "174514.435000", "174514.895000", "174515.355000", "174515.815000", "174516.275000", "174516.735000", "174517.195000", "174517.655000", "174518.115000", "174518.575000", "174519.035000", "174519.495000", "174519.955000", "174520.415000", "174520.875000", "174521.335000", "174521.795000", "174522.255000", "174522.715000", "174523.175000", "174523.635000", "174524.095000", "174524.555000", "174525.015000", "174525.475000", "174525.935000", "174526.395000", "174526.855000", "174527.315000", "174527.775000", "174528.235000", "174528.695000", "174529.155000", "174529.615000", "174530.075000", "174530.535000", "174530.995000", "174531.455000", "174531.915000", "174532.375000", "174532.835000", "174533.295000", "174533.755000", "174534.215000", "174534.675000", "174535.135000", "174535.595000", "174536.055000", "174536.515000", "174536.975000", "174537.435000", "174537.895000", "174538.355000", "174538.815000", "174539.275000", "174539.735000", "174540.195000", "174540.655000", "174541.115000", "174541.575000", "174542.035000", "174542.495000", "174542.955000", "174543.415000", "174543.875000", "174544.335000", "174544.795000", "174545.255000", "174545.715000", "174546.175000", "174546.635000", "174547.095000", "174547.555000", "174548.015000", "174548.475000", "174548.935000", "174549.395000", "174549.855000", "174550.315000"],
