{
  "AcquisitionMatrixPE": 82,
  "AcquisitionNumber": 1,
  "AcquisitionTime": "10:12:43.080000",
  "BandwidthPerPixelPhaseEncode": 24.888,
  "BaseResolution": 82,
  "BodyPartExamined": "BRAIN",
  "ConsistencyInfo": "N4_VE11E_LATEST_20181129",
  "ConversionSoftware": "dcm2niix",
  "ConversionSoftwareVersion": "v1.0.20201102",
  "DerivedVendorReportedEchoSpacing": 0.00049,
  "DeviceSerialNumber": "66112",
  "DwellTime": 2e-06,
  "EchoTime": 0.0272,
  "EchoTrainLength": 82,
  "EffectiveEchoSpacing": 0.00049,
  "FlipAngle": 44,
  "ImageComments": "Unaliased MB8/PE3",
  "ImageOrientationPatientDICOM": [0.998082, 0.0332033, -0.0522448, -0.0271816, 0.993334, 0.112021],
  "ImageType": [
    "ORIGINAL",
    "PRIMARY",
    "M",
    "MB",
    "ND",
    "NORM",
    "MOSAIC"
],
  "ImagingFrequency": 123.252,
  "InPlanePhaseEncodingDirectionDICOM": "COL",
  "InstitutionAddress": "Maynard 3,Hanover,NH,US,03755",
  "InstitutionName": "Dartmouth College - PBS",
  "InstitutionalDepartmentName": "Department",
  "MRAcquisitionType": "2D",
  "MagneticFieldStrength": 3,
  "Manufacturer": "Siemens",
  "ManufacturersModelName": "Prisma",
  "Modality": "MR",
  "MultibandAccelerationFactor": 8,
  "PartialFourier": 1,
  "PatientPosition": "HFS",
  "PercentPhaseFOV": 100,
  "PercentSampling": 100,
  "PhaseEncodingDirection": "j-",
  "PhaseEncodingSteps": 82,
  "PhaseResolution": 1,
  "PixelBandwidth": 3050,
  "ProcedureStepDescription": "Wager_Wager^1076_spacetop",
  "ProtocolName": "func_run-03_task-alignvideo_acq-ap-mb8",
  "PulseSequenceDetails": "%CustomerSeq%\\cmrr_mbep2d_bold",
  "ReceiveCoilActiveElements": "HEA;HEP",
  "ReceiveCoilName": "Head_32",
  "ReconMatrixPE": 82,
  "RepetitionTime": 0.46,
  "SAR": 0.0794437,
  "ScanOptions": "FS",
  "ScanningSequence": "EP",
  "SequenceName": "epfid2d1_82",
  "SequenceVariant": "SK\\SS",
  "SeriesDescription": "func_run-03_task-alignvideo_acq-ap-mb8",
  "SeriesNumber": 32,
  "ShimSetting": [4126, -7741, -7292, 680, -52, -147, 24, 82],
  "SliceThickness": 2.7,
  "SliceTiming": [0, 0.2525, 0.0625, 0.315, 0.125, 0.3775, 0.19, 0, 0.2525, 0.0625, 0.315, 0.125, 0.3775, 0.19, 0, 0.2525, 0.0625, 0.315, 0.125, 0.3775, 0.19, 0, 0.2525, 0.0625, 0.315, 0.125, 0.3775, 0.19, 0, 0.2525, 0.0625, 0.315, 0.125, 0.3775, 0.19, 0, 0.2525, 0.0625, 0.315, 0.125, 0.3775, 0.19, 0, 0.2525, 0.0625, 0.315, 0.125, 0.3775, 0.19, 0, 0.2525, 0.0625, 0.315, 0.125, 0.3775, 0.19],
  "SoftwareVersions": "syngo MR E11",
  "SpacingBetweenSlices": 2.7,
  "StationName": "AWP66112",
  "TaskName": "alignvideo",
  "TotalReadoutTime": 0.03969,
  "TxRefAmp": 229.016,
  "WipMemBlock": "7a9f6d37-4068-40cc-bfcc-39b711fc4577||Sequence: R016 ve11e/master r/434b28f1; Aug  7 2019 18:53:46 by eja",
  "dcmmeta_affine": [
    [-2.677781581878662, -0.07292637228965759, -0.15016306936740875, 116.78167724609375],
    [-0.08908213675022125, 2.6650426387786865, 0.298041433095932, -98.37800598144531],
    [-0.14016886055469513, -0.3005432188510895, 2.679295063018799, -57.169063568115234],
    [0.0, 0.0, 0.0, 1.0]
],
  "dcmmeta_reorient_transform": [
    [0.0, -1.0, 0.0, 81.0],
    [1.0, 0.0, 0.0, 0.0],
    [0.0, 0.0, 1.0, 0.0],
    [0.0, 0.0, 0.0, 1.0]
],
  "dcmmeta_shape": [82, 82, 56, 1065],
  "dcmmeta_slice_dim": 2,
  "dcmmeta_version": 0.6,
  "global": {
    "const": {
      "AccessionNumber": "A004248",
      "AcquisitionMatrix": [82, 0, 0, 82],
      "AngioFlag": "N",
      "BitsAllocated": 16,
      "BitsStored": 16,
      "BodyPartExamined": "BRAIN",
      "Columns": 656,
      "EchoNumbers": 1,
      "EchoTime": 27.2,
      "EchoTrainLength": 82,
      "FlipAngle": 44.0,
      "HighBit": 15,
      "ImageOrientationPatient": [0.99808217287285, 0.03320334163058, -0.0522447537843, -0.0271816482476, 0.99333404864552, 0.11202064898957],
      "ImagePositionPatient": [-858.46806645213, -907.92425600475, -127.54050265785],
      "ImageType": [
        "ORIGINAL",
        "PRIMARY",
        "M",
        "MB",
        "ND",
        "NORM",
        "MOSAIC"
],
      "ImagedNucleus": "1H",
      "ImagingFrequency": 123.252225,
      "InPlanePhaseEncodingDirection": "COL",
      "MRAcquisitionType": "2D",
      "MagneticFieldStrength": 3.0,
      "Manufacturer": "SIEMENS",
      "ManufacturerModelName": "Prisma",
      "Modality": "MR",
      "NumberOfAverages": 1.0,
      "NumberOfPhaseEncodingSteps": 82,
      "PercentPhaseFieldOfView": 100.0,
      "PercentSampling": 100.0,
      "PerformedProcedureStepStartTime": "081243.303000",
      "PhotometricInterpretation": "MONOCHROME2",
      "PixelBandwidth": 3050.0,
      "PixelRepresentation": 0,
      "PixelSpacing": [2.6829268932343, 2.6829268932343],
      "ProtocolName": "func_run-03_task-alignvideo_acq-ap-mb8",
      "RepetitionTime": 460.0,
      "Rows": 656,
      "SAR": 0.07944371117939,
      "SamplesPerPixel": 1,
      "ScanOptions": "FS",
      "ScanningSequence": "EP",
      "SequenceName": "epfid2d1_82",
      "SequenceVariant": [
        "SK",
        "SS"
],
      "SeriesDescription": "func_run-03_task-alignvideo_acq-ap-mb8",
      "SeriesNumber": 32,
      "SeriesTime": "101303.790000",
      "SliceLocation": -74.085113675125,
      "SliceThickness": 2.7000000476837,
      "SmallestImagePixelValue": 0,
      "SoftwareVersions": "syngo MR E11",
      "SpacingBetweenSlices": 2.6999999486824,
      "SpecificCharacterSet": "ISO_IR 100",
      "StudyID": "2",
      "StudyTime": "081243.193000",
      "TransmitCoilName": "Body",
      "VariableFlipAngleFlag": "N",
      "WindowCenterWidthExplanation": "Algo1"
    },
    "slices": {}
  },
  "time": {
    "samples": {
      "AcquisitionNumber": [1, 2, 3, 4, 5, 6, 7, 8, 9, 10, 11, 12, 13, 14, 15, 16, 17, 18, 19, 20, 21, 22, 23, 24, 25, 26, 27, 28, 29, 30, 31, 32, 33, 34, 35, 36, 37, 38, 39, 40, 41, 42, 43, 44, 45, 46, 47, 48, 49, 50, 51, 52, 53, 54, 55, 56, 57, 58, 59, 60, 61, 62, 63, 64, 65, 66, 67, 68, 69, 70, 71, 72, 73, 74, 75, 76, 77, 78, 79, 80, 81, 82, 83, 84, 85, 86, 87, 88, 89, 90, 91, 92, 93, 94, 95, 96, 97, 98, 99, 100, 101, 102, 103, 104, 105, 106, 107, 108, 109, 110, 111, 112, 113, 114, 115, 116, 117, 118, 119, 120, 121, 122, 123, 124, 125, 126, 127, 128, 129, 130, 131, 132, 133, 134, 135, 136, 137, 138, 139, 140, 141, 142, 143, 144, 145, 146, 147, 148, 149, 150, 151, 152, 153, 154, 155, 156, 157, 158, 159, 160, 161, 162, 163, 164, 165, 166, 167, 168, 169, 170, 171, 172, 173, 174, 175, 176, 177, 178, 179, 180, 181, 182, 183, 184, 185, 186, 187, 188, 189, 190, 191, 192, 193, 194, 195, 196, 197, 198, 199, 200, 201, 202, 203, 204, 205, 206, 207, 208, 209, 210, 211, 212, 213, 214, 215, 216, 217, 218, 219, 220, 221, 222, 223, 224, 225, 226, 227, 228, 229, 230, 231, 232, 233, 234, 235, 236, 237, 238, 239, 240, 241, 242, 243, 244, 245, 246, 247, 248, 249, 250, 251, 252, 253, 254, 255, 256, 257, 258, 259, 260, 261, 262, 263, 264, 265, 266, 267, 268, 269, 270, 271, 272, 273, 274, 275, 276, 277, 278, 279, 280, 281, 282, 283, 284, 285, 286, 287, 288, 289, 290, 291, 292, 293, 294, 295, 296, 297, 298, 299, 300, 301, 302, 303, 304, 305, 306, 307, 308, 309, 310, 311, 312, 313, 314, 315, 316, 317, 318, 319, 320, 321, 322, 323, 324, 325, 326, 327, 328, 329, 330, 331, 332, 333, 334, 335, 336, 337, 338, 339, 340, 341, 342, 343, 344, 345, 346, 347, 348, 349, 350, 351, 352, 353, 354, 355, 356, 357, 358, 359, 360, 361, 362, 363, 364, 365, 366, 367, 368, 369, 370, 371, 372, 373, 374, 375, 376, 377, 378, 379, 380, 381, 382, 383, 384, 385, 386, 387, 388, 389, 390, 391, 392, 393, 394, 395, 396, 397, 398, 399, 400, 401, 402, 403, 404, 405, 406, 407, 408, 409, 410, 411, 412, 413, 414, 415, 416, 417, 418, 419, 420, 421, 422, 423, 424, 425, 426, 427, 428, 429, 430, 431, 432, 433, 434, 435, 436, 437, 438, 439, 440, 441, 442, 443, 444, 445, 446, 447, 448, 449, 450, 451, 452, 453, 454, 455, 456, 457, 458, 459, 460, 461, 462, 463, 464, 465, 466, 467, 468, 469, 470, 471, 472, 473, 474, 475, 476, 477, 478, 479, 480, 481, 482, 483, 484, 485, 486, 487, 488, 489, 490, 491, 492, 493, 494, 495, 496, 497, 498, 499, 500, 501, 502, 503, 504, 505, 506, 507, 508, 509, 510, 511, 512, 513, 514, 515, 516, 517, 518, 519, 520, 521, 522, 523, 524, 525, 526, 527, 528, 529, 530, 531, 532, 533, 534, 535, 536, 537, 538, 539, 540, 541, 542, 543, 544, 545, 546, 547, 548, 549, 550, 551, 552, 553, 554, 555, 556, 557, 558, 559, 560, 561, 562, 563, 564, 565, 566, 567, 568, 569, 570, 571, 572, 573, 574, 575, 576, 577, 578, 579, 580, 581, 582, 583, 584, 585, 586, 587, 588, 589, 590, 591, 592, 593, 594, 595, 596, 597, 598, 599, 600, 601, 602, 603, 604, 605, 606, 607, 608, 609, 610, 611, 612, 613, 614, 615, 616, 617, 618, 619, 620, 621, 622, 623, 624, 625, 626, 627, 628, 629, 630, 631, 632, 633, 634, 635, 636, 637, 638, 639, 640, 641, 642, 643, 644, 645, 646, 647, 648, 649, 650, 651, 652, 653, 654, 655, 656, 657, 658, 659, 660, 661, 662, 663, 664, 665, 666, 667, 668, 669, 670, 671, 672, 673, 674, 675, 676, 677, 678, 679, 680, 681, 682, 683, 684, 685, 686, 687, 688, 689, 690, 691, 692, 693, 694, 695, 696, 697, 698, 699, 700, 701, 702, 703, 704, 705, 706, 707, 708, 709, 710, 711, 712, 713, 714, 715, 716, 717, 718, 719, 720, 721, 722, 723, 724, 725, 726, 727, 728, 729, 730, 731, 732, 733, 734, 735, 736, 737, 738, 739, 740, 741, 742, 743, 744, 745, 746, 747, 748, 749, 750, 751, 752, 753, 754, 755, 756, 757, 758, 759, 760, 761, 762, 763, 764, 765, 766, 767, 768, 769, 770, 771, 772, 773, 774, 775, 776, 777, 778, 779, 780, 781, 782, 783, 784, 785, 786, 787, 788, 789, 790, 791, 792, 793, 794, 795, 796, 797, 798, 799, 800, 801, 802, 803, 804, 805, 806, 807, 808, 809, 810, 811, 812, 813, 814, 815, 816, 817, 818, 819, 820, 821, 822, 823, 824, 825, 826, 827, 828, 829, 830, 831, 832, 833, 834, 835, 836, 837, 838, 839, 840, 841, 842, 843, 844, 845, 846, 847, 848, 849, 850, 851, 852, 853, 854, 855, 856, 857, 858, 859, 860, 861, 862, 863, 864, 865, 866, 867, 868, 869, 870, 871, 872, 873, 874, 875, 876, 877, 878, 879, 880, 881, 882, 883, 884, 885, 886, 887, 888, 889, 890, 891, 892, 893, 894, 895, 896, 897, 898, 899, 900, 901, 902, 903, 904, 905, 906, 907, 908, 909, 910, 911, 912, 913, 914, 915, 916, 917, 918, 919, 920, 921, 922, 923, 924, 925, 926, 927, 928, 929, 930, 931, 932, 933, 934, 935, 936, 937, 938, 939, 940, 941, 942, 943, 944, 945, 946, 947, 948, 949, 950, 951, 952, 953, 954, 955, 956, 957, 958, 959, 960, 961, 962, 963, 964, 965, 966, 967, 968, 969, 970, 971, 972, 973, 974, 975, 976, 977, 978, 979, 980, 981, 982, 983, 984, 985, 986, 987, 988, 989, 990, 991, 992, 993, 994, 995, 996, 997, 998, 999, 1000, 1001, 1002, 1003, 1004, 1005, 1006, 1007, 1008, 1009, 1010, 1011, 1012, 1013, 1014, 1015, 1016, 1017, 1018, 1019, 1020, 1021, 1022, 1023, 1024, 1025, 1026, 1027, 1028, 1029, 1030, 1031, 1032, 1033, 1034, 1035, 1036, 1037, 1038, 1039, 1040, 1041, 1042, 1043, 1044, 1045, 1046, 1047, 1048, 1049, 1050, 1051, 1052, 1053, 1054, 1055, 1056, 1057, 1058, 1059, 1060, 1061, 1062, 1063, 1064, 1065],
      "AcquisitionTime": ["101243.080000", "101243.540000", "101244.000000", "101244.460000", "101244.920000", "101245.380000", "101245.840000", "101246.300000", "101246.760000", "101247.220000", "101247.680000", "101248.140000", "101248.600000", "101249.060000", "101249.520000", "101249.980000", "101250.440000", "101250.900000", "101251.360000", "101251.820000", "101252.280000", "101252.740000", "101253.200000", "101253.660000", "101254.120000", "101254.580000", "101255.040000", "101255.500000", "101255.960000", "101256.420000", "101256.880000", "101257.340000", "101257.800000", "101258.260000", "101258.720000", "101259.180000", "101259.640000", "101300.100000", "101300.560000", "101301.020000", "101301.480000", "101301.940000", "101302.400000", "101302.860000", "101303.320000", "101303.780000", "101304.240000", "101304.700000", "101305.160000", "101305.620000", "101306.080000", "101306.540000", "101307.000000", "101307.460000", "101307.920000", "101308.380000", "101308.840000", "101309.300000", "101309.760000", "101310.220000", "101310.680000", "101311.140000", "101311.600000", "101312.060000", "101312.520000", "101312.980000", "101313.440000", "101313.900000", "101314.360000", "101314.820000", "101315.280000", "101315.740000", "101316.200000", "101316.660000", "101317.120000", "101317.580000", "101318.040000", "101318.500000", "101318.960000", "101319.420000", "101319.880000", "101320.340000", "101320.800000", "101321.260000", "101321.720000", "101322.180000", "101322.640000", "101323.100000", "101323.560000", "101324.020000", "101324.480000", "101324.940000", "101325.400000", "101325.860000", "101326.320000", "101326.780000", "101327.240000", "101327.700000", "101328.160000", "101328.620000", "101329.080000", "101329.540000", "101330.000000", "101330.460000", "101330.920000", "101331.380000", "101331.840000", "101332.300000", "101332.760000", "101333.220000", "101333.680000", "101334.140000", "101334.600000", "101335.060000", "101335.520000", "101335.980000", "101336.440000", "101336.900000", "101337.360000", "101337.820000", "101338.280000", "101338.740000", "101339.200000", "101339.660000", "101340.120000", "101340.580000", "101341.040000", "101341.500000", "101341.960000", "101342.420000", "101342.880000", "101343.340000", "101343.800000", "101344.260000", "101344.720000", "101345.180000", "101345.640000", "101346.100000", "101346.560000", "101347.020000", "101347.480000", "101347.940000", "101348.400000", "101348.860000", "101349.320000", "101349.780000", "101350.240000", "101350.700000", "101351.160000", "101351.620000", "101352.080000", "101352.540000", "101353.000000", "101353.460000", "101353.920000", "101354.380000", "101354.840000", "101355.300000", "101355.760000", "101356.220000", "101356.680000", "101357.140000", "101357.600000", "101358.060000", "101358.520000", "101358.980000", "101359.440000", "101359.900000", "101400.360000", "101400.820000", "101401.280000", "101401.740000", "101402.200000", "101402.660000", "101403.120000", "101403.580000", "101404.040000", "101404.500000", "101404.960000", "101405.420000", "101405.880000", "101406.340000", "101406.800000", "101407.260000", "101407.720000", "101408.180000", "101408.640000", "101409.100000", "101409.560000", "101410.020000", "101410.480000", "101410.940000", "101411.400000", "101411.860000", "101412.320000", "101412.780000", "101413.240000", "101413.700000", "101414.160000", "101414.620000", "101415.080000", "101415.540000", "101416.000000", "101416.460000", "101416.920000", "101417.380000", "101417.840000", "101418.300000", "101418.760000", "101419.220000", "101419.680000", "101420.140000", "101420.600000", "101421.060000", "101421.520000", "101421.980000", "101422.440000", "101422.900000", "101423.360000", "101423.820000", "101424.280000", "101424.740000", "101425.200000", "101425.660000", "101426.120000", "101426.580000", "101427.040000", "101427.500000", "101427.960000", "101428.420000", "101428.880000", "101429.340000", "101429.800000", "101430.260000", "101430.720000", "101431.180000", "101431.640000", "101432.100000", "101432.560000", "101433.020000", "101433.480000", "101433.940000", "101434.400000", "101434.860000", "101435.320000", "101435.780000", "101436.240000", "101436.700000", "101437.160000", "101437.620000", "101438.080000", "101438.540000", "101439.000000", "101439.460000", "101439.920000", "101440.380000", "101440.840000", "101441.300000", "101441.760000", "101442.220000", "101442.680000", "101443.140000", "101443.600000", "101444.060000", "101444.520000", "101444.980000", "101445.440000", "101445.900000", "101446.360000", "101446.820000", "101447.280000", "101447.740000", "101448.200000", "101448.660000", "101449.120000", "101449.580000", "101450.040000", "101450.500000", "101450.960000", "101451.420000", "101451.880000", "101452.340000", "101452.800000", "101453.260000", "101453.720000", "101454.180000", "101454.640000", "101455.100000", "101455.560000", "101456.020000", "101456.480000", "101456.940000", "101457.400000", "101457.860000", "101458.320000", "101458.780000", "101459.240000", "101459.700000", "101500.160000", "101500.620000", "101501.080000", "101501.540000", "101502.000000", "101502.460000", "101502.920000", "101503.380000", "101503.840000", "101504.300000", "101504.760000", "101505.220000", "101505.680000", "101506.140000", "101506.600000", "101507.060000", "101507.520000", "101507.980000", "101508.440000", "101508.900000", "101509.360000", "101509.820000", "101510.280000", "101510.740000", "101511.200000", "101511.660000", "101512.120000", "101512.580000", "101513.040000", "101513.500000", "101513.960000", "101514.420000", "101514.880000", "101515.340000", "101515.800000", "101516.260000", "101516.720000", "101517.180000", "101517.640000", "101518.100000", "101518.560000", "101519.020000", "101519.480000", "101519.940000", "101520.400000", "101520.860000", "101521.320000", "101521.780000", "101522.240000", "101522.700000", "101523.160000", "101523.620000", "101524.080000", "101524.540000", "101525.000000", "101525.460000", "101525.920000", "101526.380000", "101526.840000", "101527.300000", "101527.760000", "101528.220000", "101528.680000", "101529.140000", "101529.600000", "101530.060000", "101530.520000", "101530.980000", "101531.440000", "101531.900000", "101532.360000", "101532.820000", "101533.280000", "101533.740000", "101534.200000", "101534.660000", "101535.120000", "101535.580000", "101536.040000", "101536.500000", "101536.960000", "101537.420000", "101537.880000", "101538.340000", "101538.800000", "101539.260000", "101539.720000", "101540.180000", "101540.640000", "101541.100000", "101541.560000", "101542.020000", "101542.480000", "101542.940000", "101543.400000", "101543.860000", "101544.320000", "101544.780000", "101545.240000", "101545.700000", "101546.160000", "101546.620000", "101547.080000", "101547.540000", "101548.000000", "101548.460000", "101548.920000", "101549.380000", "101549.840000", "101550.300000", "101550.760000", "101551.220000", "101551.680000", "101552.140000", "101552.600000", "101553.060000", "101553.520000", "101553.980000", "101554.440000", "101554.900000", "101555.360000", "101555.820000", "101556.280000", "101556.740000", "101557.200000", "101557.660000", "101558.120000", "101558.580000", "101559.040000", "101559.500000", "101559.960000", "101600.420000", "101600.880000", "101601.340000", "101601.800000", "101602.260000", "101602.720000", "101603.180000", "101603.640000", "101604.100000", "101604.560000", "101605.020000", "101605.480000", "101605.940000", "101606.400000", "101606.860000", "101607.320000", "101607.780000", "101608.240000", "101608.700000", "101609.160000", "101609.620000", "101610.080000", "101610.540000", "101611.000000", "101611.460000", "101611.920000", "101612.380000", "101612.840000", "101613.300000", "101613.760000", "101614.220000", "101614.680000", "101615.140000", "101615.600000", "101616.060000", "101616.520000", "101616.980000", "101617.440000", "101617.900000", "101618.360000", "101618.820000", "101619.280000", "101619.740000", "101620.200000", "101620.660000", "101621.120000", "101621.580000", "101622.040000", "101622.500000", "101622.960000", "101623.420000", "101623.880000", "101624.340000", "101624.800000", "101625.260000", "101625.720000", "101626.180000", "101626.640000", "101627.100000", "101627.560000", "101628.020000", "101628.480000", "101628.940000", "101629.400000", "101629.860000", "101630.320000", "101630.780000", "101631.240000", "101631.700000", "101632.160000", "101632.620000", "101633.080000", "101633.540000", "101634.000000", "101634.460000", "101634.920000", "101635.380000", "101635.840000", "101636.300000", "101636.760000", "101637.220000", "101637.680000", "101638.140000", "101638.600000", "101639.060000", "101639.520000", "101639.980000", "101640.440000", "101640.900000", "101641.360000", "101641.820000", "101642.280000", "101642.740000", "101643.200000", "101643.660000", "101644.120000", "101644.580000", "101645.040000", "101645.500000", "101645.960000", "101646.420000", "101646.880000", "101647.340000", "101647.800000", "101648.260000", "101648.720000", "101649.180000", "101649.640000", "101650.100000", "101650.560000", "101651.020000", "101651.480000", "101651.940000", "101652.400000", "101652.860000", "101653.320000", "101653.780000", "101654.240000", "101654.700000", "101655.160000", "101655.620000", "101656.080000", "101656.540000", "101657.000000", "101657.460000", "101657.920000", "101658.380000", "101658.840000", "101659.300000", "101659.760000", "101700.220000", "101700.680000", "101701.140000", "101701.600000", "101702.060000", "101702.520000", "101702.980000", "101703.440000", "101703.900000", "101704.360000", "101704.820000", "101705.280000", "101705.740000", "101706.200000", "101706.660000", "101707.120000", "101707.580000", "101708.040000", "101708.500000", "101708.960000", "101709.420000", "101709.880000", "101710.340000", "101710.800000", "101711.260000", "101711.720000", "101712.180000", "101712.640000", "101713.100000", "101713.560000", "101714.020000", "101714.480000", "101714.940000", "101715.400000", "101715.860000", "101716.320000", "101716.780000", "101717.240000", "101717.700000", "101718.160000", "101718.620000", "101719.080000", "101719.540000", "101720.000000", "101720.460000", "101720.920000", "101721.380000", "101721.840000", "101722.300000", "101722.760000", "101723.220000", "101723.680000", "101724.140000", "101724.600000", "101725.060000", "101725.520000", "101725.980000", "101726.440000", "101726.900000", "101727.360000", "101727.820000", "101728.280000", "101728.740000", "101729.200000", "101729.660000", "101730.120000", "101730.580000", "101731.040000", "101731.500000", "101731.960000", "101732.420000", "101732.880000", "101733.340000", "101733.800000", "101734.260000", "101734.720000", "101735.180000", "101735.640000", "101736.100000", "101736.560000", "101737.020000", "101737.480000", "101737.940000", "101738.400000", "101738.860000", "101739.320000", "101739.780000", "101740.240000", "101740.700000", "101741.160000", "101741.620000", "101742.080000", "101742.540000", "101743.000000", "101743.460000", "101743.920000", "101744.380000", "101744.840000", "101745.300000", "101745.760000", "101746.220000", "101746.680000", "101747.140000", "101747.600000", "101748.060000", "101748.520000", "101748.980000", "101749.440000", "101749.900000", "101750.360000", "101750.820000", "101751.280000", "101751.740000", "101752.200000", "101752.660000", "101753.120000", "101753.580000", "101754.040000", "101754.500000", "101754.960000", "101755.420000", "101755.880000", "101756.340000", "101756.800000", "101757.260000", "101757.720000", "101758.180000", "101758.640000", "101759.100000", "101759.560000", "101800.020000", "101800.480000", "101800.940000", "101801.400000", "101801.860000", "101802.320000", "101802.780000", "101803.240000", "101803.700000", "101804.160000", "101804.620000", "101805.080000", "101805.540000", "101806.000000", "101806.460000", "101806.920000", "101807.380000", "101807.840000", "101808.300000", "101808.760000", "101809.220000", "101809.680000", "101810.140000", "101810.600000", "101811.060000", "101811.520000", "101811.980000", "101812.440000", "101812.900000", "101813.360000", "101813.820000", "101814.280000", "101814.740000", "101815.200000", "101815.660000", "101816.120000", "101816.580000", "101817.040000", "101817.500000", "101817.960000", "101818.420000", "101818.880000", "101819.340000", "101819.800000", "101820.260000", "101820.720000", "101821.180000", "101821.640000", "101822.100000", "101822.560000", "101823.020000", "101823.480000", "101823.940000", "101824.400000", "101824.860000", "101825.320000", "101825.780000", "101826.240000", "101826.700000", "101827.160000", "101827.620000", "101828.080000", "101828.540000", "101829.000000", "101829.460000", "101829.920000", "101830.380000", "101830.840000", "101831.300000", "101831.760000", "101832.220000", "101832.680000", "101833.140000", "101833.600000", "101834.060000", "101834.520000", "101834.980000", "101835.440000", "101835.900000", "101836.360000", "101836.820000", "101837.280000", "101837.740000", "101838.200000", "101838.660000", "101839.120000", "101839.580000", "101840.040000", "101840.500000", "101840.960000", "101841.420000", "101841.880000", "101842.340000", "101842.800000", "101843.260000", "101843.720000", "101844.180000", "101844.640000", "101845.100000", "101845.560000", "101846.020000", "101846.480000", "101846.940000", "101847.400000", "101847.860000", "101848.320000", "101848.780000", "101849.240000", "101849.700000", "101850.160000", "101850.620000", "101851.080000", "101851.540000", "101852.000000", "101852.460000", "101852.920000", "101853.380000", "101853.840000", "101854.300000", "101854.760000", "101855.220000", "101855.680000", "101856.140000", "101856.600000", "101857.060000", "101857.520000", "101857.980000", "101858.440000", "101858.900000", "101859.360000", "101859.820000", "101900.280000", "101900.740000", "101901.200000", "101901.660000", "101902.120000", "101902.580000", "101903.040000", "101903.500000", "101903.960000", "101904.420000", "101904.880000", "101905.340000", "101905.800000", "101906.260000", "101906.720000", "101907.180000", "101907.640000", "101908.100000", "101908.560000", "101909.020000", "101909.480000", "101909.940000", "101910.400000", "101910.860000", "101911.320000", "101911.780000", "101912.240000", "101912.700000", "101913.160000", "101913.620000", "101914.080000", "101914.540000", "101915.000000", "101915.460000", "101915.920000", "101916.380000", "101916.840000", "101917.300000", "101917.760000", "101918.220000", "101918.680000", "101919.140000", "101919.600000", "101920.060000", "101920.520000", "101920.980000", "101921.440000", "101921.900000", "101922.360000", "101922.820000", "101923.280000", "101923.740000", "101924.200000", "101924.660000", "101925.120000", "101925.580000", "101926.040000", "101926.500000", "101926.960000", "101927.420000", "101927.880000", "101928.340000", "101928.800000", "101929.260000", "101929.720000", "101930.180000", "101930.640000", "101931.100000", "101931.560000", "101932.020000", "101932.480000", "101932.940000", "101933.400000", "101933.860000", "101934.320000", "101934.780000", "101935.240000", "101935.700000", "101936.160000", "101936.620000", "101937.080000", "101937.540000", "101938.000000", "101938.460000", "101938.920000", "101939.380000", "101939.840000", "101940.300000", "101940.760000", "101941.220000", "101941.680000", "101942.140000", "101942.600000", "101943.060000", "101943.520000", "101943.980000", "101944.440000", "101944.900000", "101945.360000", "101945.820000", "101946.280000", "101946.740000", "101947.200000", "101947.660000", "101948.120000", "101948.580000", "101949.040000", "101949.500000", "101949.960000", "101950.420000", "101950.880000", "101951.340000", "101951.800000", "101952.260000", "101952.720000", "101953.180000", "101953.640000", "101954.100000", "101954.560000", "101955.020000", "101955.480000", "101955.940000", "101956.400000", "101956.860000", "101957.320000", "101957.780000", "101958.240000", "101958.700000", "101959.160000", "101959.620000", "102000.080000", "102000.540000", "102001.000000", "102001.460000", "102001.920000", "102002.380000", "102002.840000", "102003.300000", "102003.760000", "102004.220000", "102004.680000", "102005.140000", "102005.600000", "102006.060000", "102006.520000", "102006.980000", "102007.440000", "102007.900000", "102008.360000", "102008.820000", "102009.280000", "102009.740000", "102010.200000", "102010.660000", "102011.120000", "102011.580000", "102012.040000", "102012.500000", "102012.960000", "102013.420000", "102013.880000", "102014.340000", "102014.800000", "102015.260000", "102015.720000", "102016.180000", "102016.640000", "102017.100000", "102017.560000", "102018.020000", "102018.480000", "102018.940000", "102019.400000", "102019.860000", "102020.320000", "102020.780000", "102021.240000", "102021.700000", "102022.160000", "102022.620000", "102023.080000", "102023.540000", "102024.000000", "102024.460000", "102024.920000", "102025.380000", "102025.840000", "102026.300000", "102026.760000", "102027.220000", "102027.680000", "102028.140000", "102028.600000", "102029.060000", "102029.520000", "102029.980000", "102030.440000", "102030.900000", "102031.360000", "102031.820000", "102032.280000", "102032.740000", "102033.200000", "102033.660000", "102034.120000", "102034.580000", "102035.040000", "102035.500000", "102035.960000", "102036.420000", "102036.880000", "102037.340000", "102037.800000", "102038.260000", "102038.720000", "102039.180000", "102039.640000", "102040.100000", "102040.560000", "102041.020000", "102041.480000", "102041.940000", "102042.400000", "102042.860000", "102043.320000", "102043.780000", "102044.240000", "102044.700000", "102045.160000", "102045.620000", "102046.080000", "102046.540000", "102047.000000", "102047.460000", "102047.920000", "102048.380000", "102048.840000", "102049.300000", "102049.760000", "102050.220000", "102050.680000", "102051.140000", "102051.600000", "102052.060000", "102052.520000"],
