{
  "AcquisitionMatrixPE": 82,
  "AcquisitionNumber": 1,
  "AcquisitionTime": "08:57:21.875000",
  "BandwidthPerPixelPhaseEncode": 24.888,
  "BaseResolution": 82,
  "BodyPartExamined": "BRAIN",
  "ConsistencyInfo": "N4_VE11E_LATEST_20181129",
  "ConversionSoftware": "dcm2niix",
  "ConversionSoftwareVersion": "v1.0.20201102",
  "DerivedVendorReportedEchoSpacing": 0.00049,
  "DeviceSerialNumber": "66112",
  "DwellTime": 2e-06,
  "EchoTime": 0.0272,
  "EchoTrainLength": 82,
  "EffectiveEchoSpacing": 0.00049,
  "FlipAngle": 44,
  "ImageComments": "Unaliased MB8/PE3",
  "ImageOrientationPatientDICOM": [0.99931, 0.0021389, -0.0370749, 0.00122086, 0.995908, 0.090362],
  "ImageType": [
    "ORIGINAL",
    "PRIMARY",
    "M",
    "MB",
    "ND",
    "NORM",
    "MOSAIC"
],
  "ImagingFrequency": 123.252,
  "InPlanePhaseEncodingDirectionDICOM": "COL",
  "InstitutionAddress": "Maynard 3,Hanover,NH,US,03755",
  "InstitutionName": "Dartmouth College - PBS",
  "InstitutionalDepartmentName": "Department",
  "MRAcquisitionType": "2D",
  "MagneticFieldStrength": 3,
  "Manufacturer": "Siemens",
  "ManufacturersModelName": "Prisma",
  "Modality": "MR",
  "MultibandAccelerationFactor": 8,
  "PartialFourier": 1,
  "PatientPosition": "HFS",
  "PercentPhaseFOV": 100,
  "PercentSampling": 100,
  "PhaseEncodingDirection": "j-",
  "PhaseEncodingSteps": 82,
  "PhaseResolution": 1,
  "PixelBandwidth": 3050,
  "ProcedureStepDescription": "Wager_Wager^1076_spacetop",
  "ProtocolName": "func_run-02_task-social_acq-ap-mb8",
  "PulseSequenceDetails": "%CustomerSeq%\\cmrr_mbep2d_bold",
  "ReceiveCoilActiveElements": "HEA;HEP",
  "ReceiveCoilName": "Head_32",
  "ReconMatrixPE": 82,
  "RepetitionTime": 0.46,
  "SAR": 0.0793542,
  "ScanOptions": "FS",
  "ScanningSequence": "EP",
  "SequenceName": "epfid2d1_82",
  "SequenceVariant": "SK\\SS",
  "SeriesDescription": "func_run-02_task-social_acq-ap-mb8",
  "SeriesNumber": 10,
  "ShimSetting": [4126, -7740, -7291, 688, -52, -139, 23, 83],
  "SliceThickness": 2.7,
  "SliceTiming": [0, 0.2525, 0.065, 0.315, 0.1275, 0.3775, 0.19, 0, 0.2525, 0.065, 0.315, 0.1275, 0.3775, 0.19, 0, 0.2525, 0.065, 0.315, 0.1275, 0.3775, 0.19, 0, 0.2525, 0.065, 0.315, 0.1275, 0.3775, 0.19, 0, 0.2525, 0.065, 0.315, 0.1275, 0.3775, 0.19, 0, 0.2525, 0.065, 0.315, 0.1275, 0.3775, 0.19, 0, 0.2525, 0.065, 0.315, 0.1275, 0.3775, 0.19, 0, 0.2525, 0.065, 0.315, 0.1275, 0.3775, 0.19],
  "SoftwareVersions": "syngo MR E11",
  "SpacingBetweenSlices": 2.7,
  "StationName": "AWP66112",
  "TaskName": "social",
  "TotalReadoutTime": 0.03969,
  "TxRefAmp": 229.016,
  "WipMemBlock": "a16fd812-b2ea-4b8e-911d-2b997425ff6c||Sequence: R016 ve11e/master r/434b28f1; Aug  7 2019 18:53:46 by eja",
  "dcmmeta_affine": [
    [-2.6810762882232666, 0.003275474300608039, -0.10021442919969559, 112.08827209472656],
    [-0.005738506093621254, 2.6719489097595215, 0.24393142759799957, -99.90277862548828],
    [-0.09946919977664948, -0.2424347698688507, 2.6870901584625244, -60.39604949951172],
    [0.0, 0.0, 0.0, 1.0]
],
  "dcmmeta_reorient_transform": [
    [0.0, -1.0, 0.0, 81.0],
    [1.0, 0.0, 0.0, 0.0],
    [0.0, 0.0, 1.0, 0.0],
    [0.0, 0.0, 0.0, 1.0]
],
  "dcmmeta_shape": [82, 82, 56, 872],
  "dcmmeta_slice_dim": 2,
  "dcmmeta_version": 0.6,
  "global": {
    "const": {
      "AccessionNumber": "A004248",
      "AcquisitionMatrix": [82, 0, 0, 82],
      "AngioFlag": "N",
      "BitsAllocated": 16,
      "BitsStored": 16,
      "BodyPartExamined": "BRAIN",
      "Columns": 656,
      "EchoNumbers": 1,
      "EchoTime": 27.2,
      "EchoTrainLength": 82,
      "FlipAngle": 44.0,
      "HighBit": 15,
      "ImageOrientationPatient": [0.99931020118375, 0.00213889770745, -0.0370748826929, 0.00122085861665, 0.99590823367014, 0.09036204741076],
      "ImagePositionPatient": [-882.7625177246, -885.02139761797, -121.06438270545],
      "ImageType": [
        "ORIGINAL",
        "PRIMARY",
        "M",
        "MB",
        "ND",
        "NORM",
        "MOSAIC"
],
      "ImagedNucleus": "1H",
      "ImagingFrequency": 123.252208,
      "InPlanePhaseEncodingDirection": "COL",
      "MRAcquisitionType": "2D",
      "MagneticFieldStrength": 3.0,
      "Manufacturer": "SIEMENS",
      "ManufacturerModelName": "Prisma",
      "Modality": "MR",
      "NumberOfAverages": 1.0,
      "NumberOfPhaseEncodingSteps": 82,
      "PercentPhaseFieldOfView": 100.0,
      "PercentSampling": 100.0,
      "PerformedProcedureStepStartTime": "081243.303000",
      "PhotometricInterpretation": "MONOCHROME2",
      "PixelBandwidth": 3050.0,
      "PixelRepresentation": 0,
      "PixelSpacing": [2.6829268932343, 2.6829268932343],
      "ProtocolName": "func_run-02_task-social_acq-ap-mb8",
      "RepetitionTime": 460.0,
      "Rows": 656,
      "SAR": 0.07935419583322,
      "SamplesPerPixel": 1,
      "ScanOptions": "FS",
      "ScanningSequence": "EP",
      "SequenceName": "epfid2d1_82",
      "SequenceVariant": [
        "SK",
        "SS"
],
      "SeriesDescription": "func_run-02_task-social_acq-ap-mb8",
      "SeriesNumber": 10,
      "SeriesTime": "085743.863000",
      "SliceLocation": -73.293307735118,
      "SliceThickness": 2.7000000476837,
      "SmallestImagePixelValue": 0,
      "SoftwareVersions": "syngo MR E11",
      "SpacingBetweenSlices": 2.6999998872611,
      "SpecificCharacterSet": "ISO_IR 100",
      "StudyID": "2",
      "StudyTime": "081243.193000",
      "TransmitCoilName": "Body",
      "VariableFlipAngleFlag": "N",
      "WindowCenterWidthExplanation": "Algo1"
    },
    "slices": {}
  },
  "time": {
    "samples": {
      "AcquisitionNumber": [1, 2, 3, 4, 5, 6, 7, 8, 9, 10, 11, 12, 13, 14, 15, 16, 17, 18, 19, 20, 21, 22, 23, 24, 25, 26, 27, 28, 29, 30, 31, 32, 33, 34, 35, 36, 37, 38, 39, 40, 41, 42, 43, 44, 45, 46, 47, 48, 49, 50, 51, 52, 53, 54, 55, 56, 57, 58, 59, 60, 61, 62, 63, 64, 65, 66, 67, 68, 69, 70, 71, 72, 73, 74, 75, 76, 77, 78, 79, 80, 81, 82, 83, 84, 85, 86, 87, 88, 89, 90, 91, 92, 93, 94, 95, 96, 97, 98, 99, 100, 101, 102, 103, 104, 105, 106, 107, 108, 109, 110, 111, 112, 113, 114, 115, 116, 117, 118, 119, 120, 121, 122, 123, 124, 125, 126, 127, 128, 129, 130, 131, 132, 133, 134, 135, 136, 137, 138, 139, 140, 141, 142, 143, 144, 145, 146, 147, 148, 149, 150, 151, 152, 153, 154, 155, 156, 157, 158, 159, 160, 161, 162, 163, 164, 165, 166, 167, 168, 169, 170, 171, 172, 173, 174, 175, 176, 177, 178, 179, 180, 181, 182, 183, 184, 185, 186, 187, 188, 189, 190, 191, 192, 193, 194, 195, 196, 197, 198, 199, 200, 201, 202, 203, 204, 205, 206, 207, 208, 209, 210, 211, 212, 213, 214, 215, 216, 217, 218, 219, 220, 221, 222, 223, 224, 225, 226, 227, 228, 229, 230, 231, 232, 233, 234, 235, 236, 237, 238, 239, 240, 241, 242, 243, 244, 245, 246, 247, 248, 249, 250, 251, 252, 253, 254, 255, 256, 257, 258, 259, 260, 261, 262, 263, 264, 265, 266, 267, 268, 269, 270, 271, 272, 273, 274, 275, 276, 277, 278, 279, 280, 281, 282, 283, 284, 285, 286, 287, 288, 289, 290, 291, 292, 293, 294, 295, 296, 297, 298, 299, 300, 301, 302, 303, 304, 305, 306, 307, 308, 309, 310, 311, 312, 313, 314, 315, 316, 317, 318, 319, 320, 321, 322, 323, 324, 325, 326, 327, 328, 329, 330, 331, 332, 333, 334, 335, 336, 337, 338, 339, 340, 341, 342, 343, 344, 345, 346, 347, 348, 349, 350, 351, 352, 353, 354, 355, 356, 357, 358, 359, 360, 361, 362, 363, 364, 365, 366, 367, 368, 369, 370, 371, 372, 373, 374, 375, 376, 377, 378, 379, 380, 381, 382, 383, 384, 385, 386, 387, 388, 389, 390, 391, 392, 393, 394, 395, 396, 397, 398, 399, 400, 401, 402, 403, 404, 405, 406, 407, 408, 409, 410, 411, 412, 413, 414, 415, 416, 417, 418, 419, 420, 421, 422, 423, 424, 425, 426, 427, 428, 429, 430, 431, 432, 433, 434, 435, 436, 437, 438, 439, 440, 441, 442, 443, 444, 445, 446, 447, 448, 449, 450, 451, 452, 453, 454, 455, 456, 457, 458, 459, 460, 461, 462, 463, 464, 465, 466, 467, 468, 469, 470, 471, 472, 473, 474, 475, 476, 477, 478, 479, 480, 481, 482, 483, 484, 485, 486, 487, 488, 489, 490, 491, 492, 493, 494, 495, 496, 497, 498, 499, 500, 501, 502, 503, 504, 505, 506, 507, 508, 509, 510, 511, 512, 513, 514, 515, 516, 517, 518, 519, 520, 521, 522, 523, 524, 525, 526, 527, 528, 529, 530, 531, 532, 533, 534, 535, 536, 537, 538, 539, 540, 541, 542, 543, 544, 545, 546, 547, 548, 549, 550, 551, 552, 553, 554, 555, 556, 557, 558, 559, 560, 561, 562, 563, 564, 565, 566, 567, 568, 569, 570, 571, 572, 573, 574, 575, 576, 577, 578, 579, 580, 581, 582, 583, 584, 585, 586, 587, 588, 589, 590, 591, 592, 593, 594, 595, 596, 597, 598, 599, 600, 601, 602, 603, 604, 605, 606, 607, 608, 609, 610, 611, 612, 613, 614, 615, 616, 617, 618, 619, 620, 621, 622, 623, 624, 625, 626, 627, 628, 629, 630, 631, 632, 633, 634, 635, 636, 637, 638, 639, 640, 641, 642, 643, 644, 645, 646, 647, 648, 649, 650, 651, 652, 653, 654, 655, 656, 657, 658, 659, 660, 661, 662, 663, 664, 665, 666, 667, 668, 669, 670, 671, 672, 673, 674, 675, 676, 677, 678, 679, 680, 681, 682, 683, 684, 685, 686, 687, 688, 689, 690, 691, 692, 693, 694, 695, 696, 697, 698, 699, 700, 701, 702, 703, 704, 705, 706, 707, 708, 709, 710, 711, 712, 713, 714, 715, 716, 717, 718, 719, 720, 721, 722, 723, 724, 725, 726, 727, 728, 729, 730, 731, 732, 733, 734, 735, 736, 737, 738, 739, 740, 741, 742, 743, 744, 745, 746, 747, 748, 749, 750, 751, 752, 753, 754, 755, 756, 757, 758, 759, 760, 761, 762, 763, 764, 765, 766, 767, 768, 769, 770, 771, 772, 773, 774, 775, 776, 777, 778, 779, 780, 781, 782, 783, 784, 785, 786, 787, 788, 789, 790, 791, 792, 793, 794, 795, 796, 797, 798, 799, 800, 801, 802, 803, 804, 805, 806, 807, 808, 809, 810, 811, 812, 813, 814, 815, 816, 817, 818, 819, 820, 821, 822, 823, 824, 825, 826, 827, 828, 829, 830, 831, 832, 833, 834, 835, 836, 837, 838, 839, 840, 841, 842, 843, 844, 845, 846, 847, 848, 849, 850, 851, 852, 853, 854, 855, 856, 857, 858, 859, 860, 861, 862, 863, 864, 865, 866, 867, 868, 869, 870, 871, 872],
      "AcquisitionTime": ["085721.875000", "085722.335000", "085722.795000", "085723.255000", "085723.715000", "085724.175000", "085724.635000", "085725.095000", "085725.555000", "085726.015000", "085726.475000", "085726.935000", "085727.395000", "085727.855000", "085728.315000", "085728.775000", "085729.235000", "085729.695000", "085730.155000", "085730.615000", "085731.075000", "085731.535000", "085731.995000", "085732.455000", "085732.915000", "085733.375000", "085733.835000", "085734.295000", "085734.755000", "085735.215000", "085735.675000", "085736.135000", "085736.595000", "085737.055000", "085737.515000", "085737.975000", "085738.435000", "085738.895000", "085739.355000", "085739.815000", "085740.275000", "085740.735000", "085741.195000", "085741.655000", "085742.115000", "085742.575000", "085743.035000", "085743.495000", "085743.955000", "085744.415000", "085744.875000", "085745.335000", "085745.795000", "085746.255000", "085746.715000", "085747.175000", "085747.635000", "085748.095000", "085748.555000", "085749.015000", "085749.475000", "085749.935000", "085750.395000", "085750.855000", "085751.315000", "085751.775000", "085752.235000", "085752.695000", "085753.155000", "085753.615000", "085754.075000", "085754.535000", "085754.995000", "085755.455000", "085755.915000", "085756.375000", "085756.835000", "085757.295000", "085757.755000", "085758.215000", "085758.675000", "085759.135000", "085759.595000", "085800.055000", "085800.515000", "085800.975000", "085801.435000", "085801.895000", "085802.355000", "085802.815000", "085803.275000", "085803.735000", "085804.195000", "085804.655000", "085805.115000", "085805.575000", "085806.035000", "085806.495000", "085806.955000", "085807.415000", "085807.875000", "085808.335000", "085808.795000", "085809.255000", "085809.715000", "085810.175000", "085810.635000", "085811.095000", "085811.555000", "085812.015000", "085812.475000", "085812.935000", "085813.395000", "085813.855000", "085814.315000", "085814.775000", "085815.235000", "085815.695000", "085816.155000", "085816.615000", "085817.075000", "085817.535000", "085817.995000", "085818.455000", "085818.915000", "085819.375000", "085819.835000", "085820.295000", "085820.755000", "085821.215000", "085821.675000", "085822.135000", "085822.595000", "085823.055000", "085823.515000", "085823.975000", "085824.435000", "085824.895000", "085825.355000", "085825.815000", "085826.275000", "085826.735000", "085827.195000", "085827.655000", "085828.115000", "085828.575000", "085829.035000", "085829.495000", "085829.955000", "085830.415000", "085830.875000", "085831.335000", "085831.795000", "085832.255000", "085832.715000", "085833.175000", "085833.635000", "085834.095000", "085834.555000", "085835.015000", "085835.475000", "085835.935000", "085836.395000", "085836.855000", "085837.315000", "085837.775000", "085838.235000", "085838.695000", "085839.155000", "085839.615000", "085840.075000", "085840.535000", "085840.995000", "085841.455000", "085841.915000", "085842.375000", "085842.835000", "085843.295000", "085843.755000", "085844.215000", "085844.675000", "085845.135000", "085845.595000", "085846.055000", "085846.515000", "085846.975000", "085847.435000", "085847.895000", "085848.355000", "085848.815000", "085849.275000", "085849.735000", "085850.195000", "085850.655000", "085851.115000", "085851.575000", "085852.035000", "085852.495000", "085852.955000", "085853.415000", "085853.875000", "085854.335000", "085854.795000", "085855.255000", "085855.715000", "085856.175000", "085856.635000", "085857.095000", "085857.555000", "085858.015000", "085858.475000", "085858.935000", "085859.395000", "085859.855000", "085900.315000", "085900.775000", "085901.235000", "085901.695000", "085902.155000", "085902.615000", "085903.075000", "085903.535000", "085903.995000", "085904.455000", "085904.915000", "085905.375000", "085905.835000", "085906.295000", "085906.755000", "085907.215000", "085907.675000", "085908.135000", "085908.595000", "085909.055000", "085909.515000", "085909.975000", "085910.435000", "085910.895000", "085911.355000", "085911.815000", "085912.275000", "085912.735000", "085913.195000", "085913.655000", "085914.115000", "085914.575000", "085915.035000", "085915.495000", "085915.955000", "085916.415000", "085916.875000", "085917.335000", "085917.795000", "085918.255000", "085918.715000", "085919.175000", "085919.635000", "085920.095000", "085920.555000", "085921.015000", "085921.475000", "085921.935000", "085922.395000", "085922.855000", "085923.315000", "085923.775000", "085924.235000", "085924.695000", "085925.155000", "085925.615000", "085926.075000", "085926.535000", "085926.995000", "085927.455000", "085927.915000", "085928.375000", "085928.835000", "085929.295000", "085929.755000", "085930.215000", "085930.675000", "085931.135000", "085931.595000", "085932.055000", "085932.515000", "085932.975000", "085933.435000", "085933.895000", "085934.355000", "085934.815000", "085935.275000", "085935.735000", "085936.195000", "085936.655000", "085937.115000", "085937.575000", "085938.035000", "085938.495000", "085938.955000", "085939.415000", "085939.875000", "085940.335000", "085940.795000", "085941.255000", "085941.715000", "085942.175000", "085942.635000", "085943.095000", "085943.555000", "085944.015000", "085944.475000", "085944.935000", "085945.395000", "085945.855000", "085946.315000", "085946.775000", "085947.235000", "085947.695000", "085948.155000", "085948.615000", "085949.075000", "085949.535000", "085949.995000", "085950.455000", "085950.915000", "085951.375000", "085951.835000", "085952.295000", "085952.755000", "085953.215000", "085953.675000", "085954.135000", "085954.595000", "085955.055000", "085955.515000", "085955.975000", "085956.435000", "085956.895000", "085957.355000", "085957.815000", "085958.275000", "085958.735000", "085959.195000", "085959.655000", "090000.115000", "090000.575000", "090001.035000", "090001.495000", "090001.955000", "090002.415000", "090002.875000", "090003.335000", "090003.795000", "090004.255000", "090004.715000", "090005.175000", "090005.635000", "090006.095000", "090006.555000", "090007.015000", "090007.475000", "090007.935000", "090008.395000", "090008.855000", "090009.315000", "090009.775000", "090010.235000", "090010.695000", "090011.155000", "090011.615000", "090012.075000", "090012.535000", "090012.995000", "090013.455000", "090013.915000", "090014.375000", "090014.835000", "090015.295000", "090015.755000", "090016.215000", "090016.675000", "090017.135000", "090017.595000", "090018.055000", "090018.515000", "090018.975000", "090019.435000", "090019.895000", "090020.355000", "090020.815000", "090021.275000", "090021.735000", "090022.195000", "090022.655000", "090023.115000", "090023.575000", "090024.035000", "090024.495000", "090024.955000", "090025.415000", "090025.875000", "090026.335000", "090026.795000", "090027.255000", "090027.715000", "090028.175000", "090028.635000", "090029.095000", "090029.555000", "090030.015000", "090030.475000", "090030.935000", "090031.395000", "090031.855000", "090032.315000", "090032.775000", "090033.235000", "090033.695000", "090034.155000", "090034.615000", "090035.075000", "090035.535000", "090035.995000", "090036.455000", "090036.915000", "090037.375000", "090037.835000", "090038.295000", "090038.755000", "090039.215000", "090039.675000", "090040.135000", "090040.595000", "090041.055000", "090041.515000", "090041.975000", "090042.435000", "090042.895000", "090043.355000", "090043.815000", "090044.275000", "090044.735000", "090045.195000", "090045.655000", "090046.115000", "090046.575000", "090047.035000", "090047.495000", "090047.955000", "090048.415000", "090048.875000", "090049.335000", "090049.795000", "090050.255000", "090050.715000", "090051.175000", "090051.635000", "090052.095000", "090052.555000", "090053.015000", "090053.475000", "090053.935000", "090054.395000", "090054.855000", "090055.315000", "090055.775000", "090056.235000", "090056.695000", "090057.155000", "090057.615000", "090058.075000", "090058.535000", "090058.995000", "090059.455000", "090059.915000", "090100.375000", "090100.835000", "090101.295000", "090101.755000", "090102.215000", "090102.675000", "090103.135000", "090103.595000", "090104.055000", "090104.515000", "090104.975000", "090105.435000", "090105.895000", "090106.355000", "090106.815000", "090107.275000", "090107.735000", "090108.195000", "090108.655000", "090109.115000", "090109.575000", "090110.035000", "090110.495000", "090110.955000", "090111.415000", "090111.875000", "090112.335000", "090112.795000", "090113.255000", "090113.715000", "090114.175000", "090114.635000", "090115.095000", "090115.555000", "090116.015000", "090116.475000", "090116.935000", "090117.395000", "090117.855000", "090118.315000", "090118.775000", "090119.235000", "090119.695000", "090120.155000", "090120.615000", "090121.075000", "090121.535000", "090121.995000", "090122.455000", "090122.915000", "090123.375000", "090123.835000", "090124.295000", "090124.755000", "090125.215000", "090125.675000", "090126.135000", "090126.595000", "090127.055000", "090127.515000", "090127.975000", "090128.435000", "090128.895000", "090129.355000", "090129.815000", "090130.275000", "090130.735000", "090131.195000", "090131.655000", "090132.115000", "090132.575000", "090133.035000", "090133.495000", "090133.955000", "090134.415000", "090134.875000", "090135.335000", "090135.795000", "090136.255000", "090136.715000", "090137.175000", "090137.635000", "090138.095000", "090138.555000", "090139.015000", "090139.475000", "090139.935000", "090140.395000", "090140.855000", "090141.315000", "090141.775000", "090142.235000", "090142.695000", "090143.155000", "090143.615000", "090144.075000", "090144.535000", "090144.995000", "090145.455000", "090145.915000", "090146.375000", "090146.835000", "090147.295000", "090147.755000", "090148.215000", "090148.675000", "090149.135000", "090149.595000", "090150.055000", "090150.515000", "090150.975000", "090151.435000", "090151.895000", "090152.355000", "090152.815000", "090153.275000", "090153.735000", "090154.195000", "090154.655000", "090155.115000", "090155.575000", "090156.035000", "090156.495000", "090156.955000", "090157.415000", "090157.875000", "090158.335000", "090158.795000", "090159.255000", "090159.715000", "090200.175000", "090200.635000", "090201.095000", "090201.555000", "090202.015000", "090202.475000", "090202.935000", "090203.395000", "090203.855000", "090204.315000", "090204.775000", "090205.235000", "090205.695000", "090206.155000", "090206.615000", "090207.075000", "090207.535000", "090207.995000", "090208.455000", "090208.915000", "090209.375000", "090209.835000", "090210.295000", "090210.755000", "090211.215000", "090211.675000", "090212.135000", "090212.595000", "090213.055000", "090213.515000", "090213.975000", "090214.435000", "090214.895000", "090215.355000", "090215.815000", "090216.275000", "090216.735000", "090217.195000", "090217.655000", "090218.115000", "090218.575000", "090219.035000", "090219.495000", "090219.955000", "090220.415000", "090220.875000", "090221.335000", "090221.795000", "090222.255000", "090222.715000", "090223.175000", "090223.635000", "090224.095000", "090224.555000", "090225.015000", "090225.475000", "090225.935000", "090226.395000", "090226.855000", "090227.315000", "090227.775000", "090228.235000", "090228.695000", "090229.155000", "090229.615000", "090230.075000", "090230.535000", "090230.995000", "090231.455000", "090231.915000", "090232.375000", "090232.835000", "090233.295000", "090233.755000", "090234.215000", "090234.675000", "090235.135000", "090235.595000", "090236.055000", "090236.515000", "090236.975000", "090237.435000", "090237.895000", "090238.355000", "090238.815000", "090239.275000", "090239.735000", "090240.195000", "090240.655000", "090241.115000", "090241.575000", "090242.035000", "090242.495000", "090242.955000", "090243.415000", "090243.875000", "090244.335000", "090244.795000", "090245.255000", "090245.715000", "090246.175000", "090246.635000", "090247.095000", "090247.555000", "090248.015000", "090248.475000", "090248.935000", "090249.395000", "090249.855000", "090250.315000", "090250.775000", "090251.235000", "090251.695000", "090252.155000", "090252.615000", "090253.075000", "090253.535000", "090253.995000", "090254.455000", "090254.915000", "090255.375000", "090255.835000", "090256.295000", "090256.755000", "090257.215000", "090257.675000", "090258.135000", "090258.595000", "090259.055000", "090259.515000", "090259.975000", "090300.435000", "090300.895000", "090301.355000", "090301.815000", "090302.275000", "090302.735000", "090303.195000", "090303.655000", "090304.115000", "090304.575000", "090305.035000", "090305.495000", "090305.955000", "090306.415000", "090306.875000", "090307.335000", "090307.795000", "090308.255000", "090308.715000", "090309.175000", "090309.635000", "090310.095000", "090310.555000", "090311.015000", "090311.475000", "090311.935000", "090312.395000", "090312.855000", "090313.315000", "090313.775000", "090314.235000", "090314.695000", "090315.155000", "090315.615000", "090316.075000", "090316.535000", "090316.995000", "090317.455000", "090317.915000", "090318.375000", "090318.835000", "090319.295000", "090319.755000", "090320.215000", "090320.675000", "090321.135000", "090321.595000", "090322.055000", "090322.515000", "090322.975000", "090323.435000", "090323.895000", "090324.355000", "090324.815000", "090325.275000", "090325.735000", "090326.195000", "090326.655000", "090327.115000", "090327.575000", "090328.035000", "090328.495000", "090328.955000", "090329.415000", "090329.875000", "090330.335000", "090330.795000", "090331.255000", "090331.715000", "090332.175000", "090332.635000", "090333.095000", "090333.555000", "090334.015000", "090334.475000", "090334.935000", "090335.395000", "090335.855000", "090336.315000", "090336.775000", "090337.235000", "090337.695000", "090338.155000", "090338.615000", "090339.075000", "090339.535000", "090339.995000", "090340.455000", "090340.915000", "090341.375000", "090341.835000", "090342.295000", "090342.755000", "090343.215000", "090343.675000", "090344.135000", "090344.595000", "090345.055000", "090345.515000", "090345.975000", "090346.435000", "090346.895000", "090347.355000", "090347.815000", "090348.275000", "090348.735000", "090349.195000", "090349.655000", "090350.115000", "090350.575000", "090351.035000", "090351.495000", "090351.955000", "090352.415000", "090352.875000", "090353.335000", "090353.795000", "090354.255000", "090354.715000", "090355.175000", "090355.635000", "090356.095000", "090356.555000", "090357.015000", "090357.475000", "090357.935000", "090358.395000", "090358.855000", "090359.315000", "090359.775000", "090400.235000", "090400.695000", "090401.155000", "090401.615000", "090402.075000", "090402.535000"],
