{
  "AcquisitionMatrixPE": 82,
  "AcquisitionNumber": 1,
  "AcquisitionTime": "09:04:23.510000",
  "BandwidthPerPixelPhaseEncode": 24.888,
  "BaseResolution": 82,
  "BodyPartExamined": "BRAIN",
  "ConsistencyInfo": "N4_VE11E_LATEST_20181129",
  "ConversionSoftware": "dcm2niix",
  "ConversionSoftwareVersion": "v1.0.20201102",
  "DerivedVendorReportedEchoSpacing": 0.00049,
  "DeviceSerialNumber": "66112",
  "DwellTime": 2e-06,
  "EchoTime": 0.0272,
  "EchoTrainLength": 82,
  "EffectiveEchoSpacing": 0.00049,
  "FlipAngle": 44,
  "ImageComments": "Unaliased MB8/PE3",
  "ImageOrientationPatientDICOM": [0.99931, 0.0021389, -0.0370749, 0.00122086, 0.995908, 0.090362],
  "ImageType": [
    "ORIGINAL",
    "PRIMARY",
    "M",
    "MB",
    "ND",
    "NORM",
    "MOSAIC"
],
  "ImagingFrequency": 123.252,
  "InPlanePhaseEncodingDirectionDICOM": "COL",
  "InstitutionAddress": "Maynard 3,Hanover,NH,US,03755",
  "InstitutionName": "Dartmouth College - PBS",
  "InstitutionalDepartmentName": "Department",
  "MRAcquisitionType": "2D",
  "MagneticFieldStrength": 3,
  "Manufacturer": "Siemens",
  "ManufacturersModelName": "Prisma",
  "Modality": "MR",
  "MultibandAccelerationFactor": 8,
  "PartialFourier": 1,
  "PatientPosition": "HFS",
  "PercentPhaseFOV": 100,
  "PercentSampling": 100,
  "PhaseEncodingDirection": "j-",
  "PhaseEncodingSteps": 82,
  "PhaseResolution": 1,
  "PixelBandwidth": 3050,
  "ProcedureStepDescription": "Wager_Wager^1076_spacetop",
  "ProtocolName": "func_run-03_task-social_acq-ap-mb8",
  "PulseSequenceDetails": "%CustomerSeq%\\cmrr_mbep2d_bold",
  "ReceiveCoilActiveElements": "HEA;HEP",
  "ReceiveCoilName": "Head_32",
  "ReconMatrixPE": 82,
  "RepetitionTime": 0.46,
  "SAR": 0.0793542,
  "ScanOptions": "FS",
  "ScanningSequence": "EP",
  "SequenceName": "epfid2d1_82",
  "SequenceVariant": "SK\\SS",
  "SeriesDescription": "func_run-03_task-social_acq-ap-mb8",
  "SeriesNumber": 12,
  "ShimSetting": [4126, -7740, -7291, 688, -52, -139, 23, 83],
  "SliceThickness": 2.7,
  "SliceTiming": [0, 0.25, 0.0625, 0.3125, 0.125, 0.3775, 0.1875, 0, 0.25, 0.0625, 0.3125, 0.125, 0.3775, 0.1875, 0, 0.25, 0.0625, 0.3125, 0.125, 0.3775, 0.1875, 0, 0.25, 0.0625, 0.3125, 0.125, 0.3775, 0.1875, 0, 0.25, 0.0625, 0.3125, 0.125, 0.3775, 0.1875, 0, 0.25, 0.0625, 0.3125, 0.125, 0.3775, 0.1875, 0, 0.25, 0.0625, 0.3125, 0.125, 0.3775, 0.1875, 0, 0.25, 0.0625, 0.3125, 0.125, 0.3775, 0.1875],
  "SoftwareVersions": "syngo MR E11",
  "SpacingBetweenSlices": 2.7,
  "StationName": "AWP66112",
  "TaskName": "social",
  "TotalReadoutTime": 0.03969,
  "TxRefAmp": 229.016,
  "WipMemBlock": "4a232aeb-3f3d-41b7-bb18-d610052e5e72||Sequence: R016 ve11e/master r/434b28f1; Aug  7 2019 18:53:46 by eja",
  "dcmmeta_affine": [
    [-2.6810762882232666, 0.003275474300608039, -0.10021442919969559, 112.08827209472656],
    [-0.005738506093621254, 2.6719489097595215, 0.24393142759799957, -99.90277862548828],
    [-0.09946919977664948, -0.2424347698688507, 2.6870901584625244, -60.39604949951172],
    [0.0, 0.0, 0.0, 1.0]
],
  "dcmmeta_reorient_transform": [
    [0.0, -1.0, 0.0, 81.0],
    [1.0, 0.0, 0.0, 0.0],
    [0.0, 0.0, 1.0, 0.0],
    [0.0, 0.0, 0.0, 1.0]
],
  "dcmmeta_shape": [82, 82, 56, 872],
  "dcmmeta_slice_dim": 2,
  "dcmmeta_version": 0.6,
  "global": {
    "const": {
      "AccessionNumber": "A004248",
      "AcquisitionMatrix": [82, 0, 0, 82],
      "AngioFlag": "N",
      "BitsAllocated": 16,
      "BitsStored": 16,
      "BodyPartExamined": "BRAIN",
      "Columns": 656,
      "EchoNumbers": 1,
      "EchoTime": 27.2,
      "EchoTrainLength": 82,
      "FlipAngle": 44.0,
      "HighBit": 15,
      "ImageOrientationPatient": [0.99931020118375, 0.00213889770745, -0.0370748826929, 0.00122085861665, 0.99590823367014, 0.09036204741076],
      "ImagePositionPatient": [-882.7625177246, -885.02139761797, -121.06438270545],
      "ImageType": [
        "ORIGINAL",
        "PRIMARY",
        "M",
        "MB",
        "ND",
        "NORM",
        "MOSAIC"
],
      "ImagedNucleus": "1H",
      "ImagingFrequency": 123.252212,
      "InPlanePhaseEncodingDirection": "COL",
      "MRAcquisitionType": "2D",
      "MagneticFieldStrength": 3.0,
      "Manufacturer": "SIEMENS",
      "ManufacturerModelName": "Prisma",
      "Modality": "MR",
      "NumberOfAverages": 1.0,
      "NumberOfPhaseEncodingSteps": 82,
      "PercentPhaseFieldOfView": 100.0,
      "PercentSampling": 100.0,
      "PerformedProcedureStepStartTime": "081243.303000",
      "PhotometricInterpretation": "MONOCHROME2",
      "PixelBandwidth": 3050.0,
      "PixelRepresentation": 0,
      "PixelSpacing": [2.6829268932343, 2.6829268932343],
      "ProtocolName": "func_run-03_task-social_acq-ap-mb8",
      "RepetitionTime": 460.0,
      "Rows": 656,
      "SAR": 0.07935419583322,
      "SamplesPerPixel": 1,
      "ScanOptions": "FS",
      "ScanningSequence": "EP",
      "SequenceName": "epfid2d1_82",
      "SequenceVariant": [
        "SK",
        "SS"
],
      "SeriesDescription": "func_run-03_task-social_acq-ap-mb8",
      "SeriesNumber": 12,
      "SeriesTime": "090443.687000",
      "SliceLocation": -73.293307735118,
      "SliceThickness": 2.7000000476837,
      "SmallestImagePixelValue": 0,
      "SoftwareVersions": "syngo MR E11",
      "SpacingBetweenSlices": 2.6999998872611,
      "SpecificCharacterSet": "ISO_IR 100",
      "StudyID": "2",
      "StudyTime": "081243.193000",
      "TransmitCoilName": "Body",
      "VariableFlipAngleFlag": "N",
      "WindowCenterWidthExplanation": "Algo1"
    },
    "slices": {}
  },
  "time": {
    "samples": {
      "AcquisitionNumber": [1, 2, 3, 4, 5, 6, 7, 8, 9, 10, 11, 12, 13, 14, 15, 16, 17, 18, 19, 20, 21, 22, 23, 24, 25, 26, 27, 28, 29, 30, 31, 32, 33, 34, 35, 36, 37, 38, 39, 40, 41, 42, 43, 44, 45, 46, 47, 48, 49, 50, 51, 52, 53, 54, 55, 56, 57, 58, 59, 60, 61, 62, 63, 64, 65, 66, 67, 68, 69, 70, 71, 72, 73, 74, 75, 76, 77, 78, 79, 80, 81, 82, 83, 84, 85, 86, 87, 88, 89, 90, 91, 92, 93, 94, 95, 96, 97, 98, 99, 100, 101, 102, 103, 104, 105, 106, 107, 108, 109, 110, 111, 112, 113, 114, 115, 116, 117, 118, 119, 120, 121, 122, 123, 124, 125, 126, 127, 128, 129, 130, 131, 132, 133, 134, 135, 136, 137, 138, 139, 140, 141, 142, 143, 144, 145, 146, 147, 148, 149, 150, 151, 152, 153, 154, 155, 156, 157, 158, 159, 160, 161, 162, 163, 164, 165, 166, 167, 168, 169, 170, 171, 172, 173, 174, 175, 176, 177, 178, 179, 180, 181, 182, 183, 184, 185, 186, 187, 188, 189, 190, 191, 192, 193, 194, 195, 196, 197, 198, 199, 200, 201, 202, 203, 204, 205, 206, 207, 208, 209, 210, 211, 212, 213, 214, 215, 216, 217, 218, 219, 220, 221, 222, 223, 224, 225, 226, 227, 228, 229, 230, 231, 232, 233, 234, 235, 236, 237, 238, 239, 240, 241, 242, 243, 244, 245, 246, 247, 248, 249, 250, 251, 252, 253, 254, 255, 256, 257, 258, 259, 260, 261, 262, 263, 264, 265, 266, 267, 268, 269, 270, 271, 272, 273, 274, 275, 276, 277, 278, 279, 280, 281, 282, 283, 284, 285, 286, 287, 288, 289, 290, 291, 292, 293, 294, 295, 296, 297, 298, 299, 300, 301, 302, 303, 304, 305, 306, 307, 308, 309, 310, 311, 312, 313, 314, 315, 316, 317, 318, 319, 320, 321, 322, 323, 324, 325, 326, 327, 328, 329, 330, 331, 332, 333, 334, 335, 336, 337, 338, 339, 340, 341, 342, 343, 344, 345, 346, 347, 348, 349, 350, 351, 352, 353, 354, 355, 356, 357, 358, 359, 360, 361, 362, 363, 364, 365, 366, 367, 368, 369, 370, 371, 372, 373, 374, 375, 376, 377, 378, 379, 380, 381, 382, 383, 384, 385, 386, 387, 388, 389, 390, 391, 392, 393, 394, 395, 396, 397, 398, 399, 400, 401, 402, 403, 404, 405, 406, 407, 408, 409, 410, 411, 412, 413, 414, 415, 416, 417, 418, 419, 420, 421, 422, 423, 424, 425, 426, 427, 428, 429, 430, 431, 432, 433, 434, 435, 436, 437, 438, 439, 440, 441, 442, 443, 444, 445, 446, 447, 448, 449, 450, 451, 452, 453, 454, 455, 456, 457, 458, 459, 460, 461, 462, 463, 464, 465, 466, 467, 468, 469, 470, 471, 472, 473, 474, 475, 476, 477, 478, 479, 480, 481, 482, 483, 484, 485, 486, 487, 488, 489, 490, 491, 492, 493, 494, 495, 496, 497, 498, 499, 500, 501, 502, 503, 504, 505, 506, 507, 508, 509, 510, 511, 512, 513, 514, 515, 516, 517, 518, 519, 520, 521, 522, 523, 524, 525, 526, 527, 528, 529, 530, 531, 532, 533, 534, 535, 536, 537, 538, 539, 540, 541, 542, 543, 544, 545, 546, 547, 548, 549, 550, 551, 552, 553, 554, 555, 556, 557, 558, 559, 560, 561, 562, 563, 564, 565, 566, 567, 568, 569, 570, 571, 572, 573, 574, 575, 576, 577, 578, 579, 580, 581, 582, 583, 584, 585, 586, 587, 588, 589, 590, 591, 592, 593, 594, 595, 596, 597, 598, 599, 600, 601, 602, 603, 604, 605, 606, 607, 608, 609, 610, 611, 612, 613, 614, 615, 616, 617, 618, 619, 620, 621, 622, 623, 624, 625, 626, 627, 628, 629, 630, 631, 632, 633, 634, 635, 636, 637, 638, 639, 640, 641, 642, 643, 644, 645, 646, 647, 648, 649, 650, 651, 652, 653, 654, 655, 656, 657, 658, 659, 660, 661, 662, 663, 664, 665, 666, 667, 668, 669, 670, 671, 672, 673, 674, 675, 676, 677, 678, 679, 680, 681, 682, 683, 684, 685, 686, 687, 688, 689, 690, 691, 692, 693, 694, 695, 696, 697, 698, 699, 700, 701, 702, 703, 704, 705, 706, 707, 708, 709, 710, 711, 712, 713, 714, 715, 716, 717, 718, 719, 720, 721, 722, 723, 724, 725, 726, 727, 728, 729, 730, 731, 732, 733, 734, 735, 736, 737, 738, 739, 740, 741, 742, 743, 744, 745, 746, 747, 748, 749, 750, 751, 752, 753, 754, 755, 756, 757, 758, 759, 760, 761, 762, 763, 764, 765, 766, 767, 768, 769, 770, 771, 772, 773, 774, 775, 776, 777, 778, 779, 780, 781, 782, 783, 784, 785, 786, 787, 788, 789, 790, 791, 792, 793, 794, 795, 796, 797, 798, 799, 800, 801, 802, 803, 804, 805, 806, 807, 808, 809, 810, 811, 812, 813, 814, 815, 816, 817, 818, 819, 820, 821, 822, 823, 824, 825, 826, 827, 828, 829, 830, 831, 832, 833, 834, 835, 836, 837, 838, 839, 840, 841, 842, 843, 844, 845, 846, 847, 848, 849, 850, 851, 852, 853, 854, 855, 856, 857, 858, 859, 860, 861, 862, 863, 864, 865, 866, 867, 868, 869, 870, 871, 872],
      "AcquisitionTime": ["090423.510000", "090423.970000", "090424.430000", "090424.890000", "090425.350000", "090425.810000", "090426.270000", "090426.730000", "090427.190000", "090427.650000", "090428.110000", "090428.570000", "090429.030000", "090429.490000", "090429.950000", "090430.410000", "090430.870000", "090431.330000", "090431.790000", "090432.250000", "090432.710000", "090433.170000", "090433.630000", "090434.090000", "090434.550000", "090435.010000", "090435.470000", "090435.930000", "090436.390000", "090436.850000", "090437.310000", "090437.770000", "090438.230000", "090438.690000", "090439.150000", "090439.610000", "090440.070000", "090440.530000", "090440.990000", "090441.450000", "090441.910000", "090442.370000", "090442.830000", "090443.290000", "090443.750000", "090444.210000", "090444.670000", "090445.130000", "090445.590000", "090446.050000", "090446.510000", "090446.970000", "090447.430000", "090447.890000", "090448.350000", "090448.810000", "090449.270000", "090449.730000", "090450.190000", "090450.650000", "090451.110000", "090451.570000", "090452.030000", "090452.490000", "090452.950000", "090453.410000", "090453.870000", "090454.330000", "090454.790000", "090455.250000", "090455.710000", "090456.170000", "090456.630000", "090457.090000", "090457.550000", "090458.010000", "090458.470000", "090458.930000", "090459.390000", "090459.850000", "090500.310000", "090500.770000", "090501.230000", "090501.690000", "090502.150000", "090502.610000", "090503.070000", "090503.530000", "090503.990000", "090504.450000", "090504.910000", "090505.370000", "090505.830000", "090506.290000", "090506.750000", "090507.210000", "090507.670000", "090508.130000", "090508.590000", "090509.050000", "090509.510000", "090509.970000", "090510.430000", "090510.890000", "090511.350000", "090511.810000", "090512.270000", "090512.730000", "090513.190000", "090513.650000", "090514.110000", "090514.570000", "090515.030000", "090515.490000", "090515.950000", "090516.410000", "090516.870000", "090517.330000", "090517.790000", "090518.250000", "090518.710000", "090519.170000", "090519.630000", "090520.090000", "090520.550000", "090521.010000", "090521.470000", "090521.930000", "090522.390000", "090522.850000", "090523.310000", "090523.770000", "090524.230000", "090524.690000", "090525.150000", "090525.610000", "090526.070000", "090526.530000", "090526.990000", "090527.450000", "090527.910000", "090528.370000", "090528.830000", "090529.290000", "090529.750000", "090530.210000", "090530.670000", "090531.130000", "090531.590000", "090532.050000", "090532.510000", "090532.970000", "090533.430000", "090533.890000", "090534.350000", "090534.810000", "090535.270000", "090535.730000", "090536.190000", "090536.650000", "090537.110000", "090537.570000", "090538.030000", "090538.490000", "090538.950000", "090539.410000", "090539.870000", "090540.330000", "090540.790000", "090541.250000", "090541.710000", "090542.170000", "090542.630000", "090543.090000", "090543.550000", "090544.010000", "090544.470000", "090544.930000", "090545.390000", "090545.850000", "090546.310000", "090546.770000", "090547.230000", "090547.690000", "090548.150000", "090548.610000", "090549.070000", "090549.530000", "090549.990000", "090550.450000", "090550.910000", "090551.370000", "090551.830000", "090552.290000", "090552.750000", "090553.210000", "090553.670000", "090554.130000", "090554.590000", "090555.050000", "090555.510000", "090555.970000", "090556.430000", "090556.890000", "090557.350000", "090557.810000", "090558.270000", "090558.730000", "090559.190000", "090559.650000", "090600.110000", "090600.570000", "090601.030000", "090601.490000", "090601.950000", "090602.410000", "090602.870000", "090603.330000", "090603.790000", "090604.250000", "090604.710000", "090605.170000", "090605.630000", "090606.090000", "090606.550000", "090607.010000", "090607.470000", "090607.930000", "090608.390000", "090608.850000", "090609.310000", "090609.770000", "090610.230000", "090610.690000", "090611.150000", "090611.610000", "090612.070000", "090612.530000", "090612.990000", "090613.450000", "090613.910000", "090614.370000", "090614.830000", "090615.290000", "090615.750000", "090616.210000", "090616.670000", "090617.130000", "090617.590000", "090618.050000", "090618.510000", "090618.970000", "090619.430000", "090619.890000", "090620.350000", "090620.810000", "090621.270000", "090621.730000", "090622.190000", "090622.650000", "090623.110000", "090623.570000", "090624.030000", "090624.490000", "090624.950000", "090625.410000", "090625.870000", "090626.330000", "090626.790000", "090627.250000", "090627.710000", "090628.170000", "090628.630000", "090629.090000", "090629.550000", "090630.010000", "090630.470000", "090630.930000", "090631.390000", "090631.850000", "090632.310000", "090632.770000", "090633.230000", "090633.690000", "090634.150000", "090634.610000", "090635.070000", "090635.530000", "090635.990000", "090636.450000", "090636.910000", "090637.370000", "090637.830000", "090638.290000", "090638.750000", "090639.210000", "090639.670000", "090640.130000", "090640.590000", "090641.050000", "090641.510000", "090641.970000", "090642.430000", "090642.890000", "090643.350000", "090643.810000", "090644.270000", "090644.730000", "090645.190000", "090645.650000", "090646.110000", "090646.570000", "090647.030000", "090647.490000", "090647.950000", "090648.410000", "090648.870000", "090649.330000", "090649.790000", "090650.250000", "090650.710000", "090651.170000", "090651.630000", "090652.090000", "090652.550000", "090653.010000", "090653.470000", "090653.930000", "090654.390000", "090654.850000", "090655.310000", "090655.770000", "090656.230000", "090656.690000", "090657.150000", "090657.610000", "090658.070000", "090658.530000", "090658.990000", "090659.450000", "090659.910000", "090700.370000", "090700.830000", "090701.290000", "090701.750000", "090702.210000", "090702.670000", "090703.130000", "090703.590000", "090704.050000", "090704.510000", "090704.970000", "090705.430000", "090705.890000", "090706.350000", "090706.810000", "090707.270000", "090707.730000", "090708.190000", "090708.650000", "090709.110000", "090709.570000", "090710.030000", "090710.490000", "090710.950000", "090711.410000", "090711.870000", "090712.330000", "090712.790000", "090713.250000", "090713.710000", "090714.170000", "090714.630000", "090715.090000", "090715.550000", "090716.010000", "090716.470000", "090716.930000", "090717.390000", "090717.850000", "090718.310000", "090718.770000", "090719.230000", "090719.690000", "090720.150000", "090720.610000", "090721.070000", "090721.530000", "090721.990000", "090722.450000", "090722.910000", "090723.370000", "090723.830000", "090724.290000", "090724.750000", "090725.210000", "090725.670000", "090726.130000", "090726.590000", "090727.050000", "090727.510000", "090727.970000", "090728.430000", "090728.890000", "090729.350000", "090729.810000", "090730.270000", "090730.730000", "090731.190000", "090731.650000", "090732.110000", "090732.570000", "090733.030000", "090733.490000", "090733.950000", "090734.410000", "090734.870000", "090735.330000", "090735.790000", "090736.250000", "090736.710000", "090737.170000", "090737.630000", "090738.090000", "090738.550000", "090739.010000", "090739.470000", "090739.930000", "090740.390000", "090740.850000", "090741.310000", "090741.770000", "090742.230000", "090742.690000", "090743.150000", "090743.610000", "090744.070000", "090744.530000", "090744.990000", "090745.450000", "090745.910000", "090746.370000", "090746.830000", "090747.290000", "090747.750000", "090748.210000", "090748.670000", "090749.130000", "090749.590000", "090750.050000", "090750.510000", "090750.970000", "090751.430000", "090751.890000", "090752.350000", "090752.810000", "090753.270000", "090753.730000", "090754.190000", "090754.650000", "090755.110000", "090755.570000", "090756.030000", "090756.490000", "090756.950000", "090757.410000", "090757.870000", "090758.330000", "090758.790000", "090759.250000", "090759.710000", "090800.170000", "090800.630000", "090801.090000", "090801.550000", "090802.010000", "090802.470000", "090802.930000", "090803.390000", "090803.850000", "090804.310000", "090804.770000", "090805.230000", "090805.690000", "090806.150000", "090806.610000", "090807.070000", "090807.530000", "090807.990000", "090808.450000", "090808.910000", "090809.370000", "090809.830000", "090810.290000", "090810.750000", "090811.210000", "090811.670000", "090812.130000", "090812.590000", "090813.050000", "090813.510000", "090813.970000", "090814.430000", "090814.890000", "090815.350000", "090815.810000", "090816.270000", "090816.730000", "090817.190000", "090817.650000", "090818.110000", "090818.570000", "090819.030000", "090819.490000", "090819.950000", "090820.410000", "090820.870000", "090821.330000", "090821.790000", "090822.250000", "090822.710000", "090823.170000", "090823.630000", "090824.090000", "090824.550000", "090825.010000", "090825.470000", "090825.930000", "090826.390000", "090826.850000", "090827.310000", "090827.770000", "090828.230000", "090828.690000", "090829.150000", "090829.610000", "090830.070000", "090830.530000", "090830.990000", "090831.450000", "090831.910000", "090832.370000", "090832.830000", "090833.290000", "090833.750000", "090834.210000", "090834.670000", "090835.130000", "090835.590000", "090836.050000", "090836.510000", "090836.970000", "090837.430000", "090837.890000", "090838.350000", "090838.810000", "090839.270000", "090839.730000", "090840.190000", "090840.650000", "090841.110000", "090841.570000", "090842.030000", "090842.490000", "090842.950000", "090843.410000", "090843.870000", "090844.330000", "090844.790000", "090845.250000", "090845.710000", "090846.170000", "090846.630000", "090847.090000", "090847.550000", "090848.010000", "090848.470000", "090848.930000", "090849.390000", "090849.850000", "090850.310000", "090850.770000", "090851.230000", "090851.690000", "090852.150000", "090852.610000", "090853.070000", "090853.530000", "090853.990000", "090854.450000", "090854.910000", "090855.370000", "090855.830000", "090856.290000", "090856.750000", "090857.210000", "090857.670000", "090858.130000", "090858.590000", "090859.050000", "090859.510000", "090859.970000", "090900.430000", "090900.890000", "090901.350000", "090901.810000", "090902.270000", "090902.730000", "090903.190000", "090903.650000", "090904.110000", "090904.570000", "090905.030000", "090905.490000", "090905.950000", "090906.410000", "090906.870000", "090907.330000", "090907.790000", "090908.250000", "090908.710000", "090909.170000", "090909.630000", "090910.090000", "090910.550000", "090911.010000", "090911.470000", "090911.930000", "090912.390000", "090912.850000", "090913.310000", "090913.770000", "090914.230000", "090914.690000", "090915.150000", "090915.610000", "090916.070000", "090916.530000", "090916.990000", "090917.450000", "090917.910000", "090918.370000", "090918.830000", "090919.290000", "090919.750000", "090920.210000", "090920.670000", "090921.130000", "090921.590000", "090922.050000", "090922.510000", "090922.970000", "090923.430000", "090923.890000", "090924.350000", "090924.810000", "090925.270000", "090925.730000", "090926.190000", "090926.650000", "090927.110000", "090927.570000", "090928.030000", "090928.490000", "090928.950000", "090929.410000", "090929.870000", "090930.330000", "090930.790000", "090931.250000", "090931.710000", "090932.170000", "090932.630000", "090933.090000", "090933.550000", "090934.010000", "090934.470000", "090934.930000", "090935.390000", "090935.850000", "090936.310000", "090936.770000", "090937.230000", "090937.690000", "090938.150000", "090938.610000", "090939.070000", "090939.530000", "090939.990000", "090940.450000", "090940.910000", "090941.370000", "090941.830000", "090942.290000", "090942.750000", "090943.210000", "090943.670000", "090944.130000", "090944.590000", "090945.050000", "090945.510000", "090945.970000", "090946.430000", "090946.890000", "090947.350000", "090947.810000", "090948.270000", "090948.730000", "090949.190000", "090949.650000", "090950.110000", "090950.570000", "090951.030000", "090951.490000", "090951.950000", "090952.410000", "090952.870000", "090953.330000", "090953.790000", "090954.250000", "090954.710000", "090955.170000", "090955.630000", "090956.090000", "090956.550000", "090957.010000", "090957.470000", "090957.930000", "090958.390000", "090958.850000", "090959.310000", "090959.770000", "091000.230000", "091000.690000", "091001.150000", "091001.610000", "091002.070000", "091002.530000", "091002.990000", "091003.450000", "091003.910000", "091004.370000", "091004.830000", "091005.290000", "091005.750000", "091006.210000", "091006.670000", "091007.130000", "091007.590000", "091008.050000", "091008.510000", "091008.970000", "091009.430000", "091009.890000", "091010.350000", "091010.810000", "091011.270000", "091011.730000", "091012.190000", "091012.650000", "091013.110000", "091013.570000", "091014.030000", "091014.490000", "091014.950000", "091015.410000", "091015.870000", "091016.330000", "091016.790000", "091017.250000", "091017.710000", "091018.170000", "091018.630000", "091019.090000", "091019.550000", "091020.010000", "091020.470000", "091020.930000", "091021.390000", "091021.850000", "091022.310000", "091022.770000", "091023.230000", "091023.690000", "091024.150000", "091024.610000", "091025.070000", "091025.530000", "091025.990000", "091026.450000", "091026.910000", "091027.370000", "091027.830000", "091028.290000", "091028.750000", "091029.210000", "091029.670000", "091030.130000", "091030.590000", "091031.050000", "091031.510000", "091031.970000", "091032.430000", "091032.890000", "091033.350000", "091033.810000", "091034.270000", "091034.730000", "091035.190000", "091035.650000", "091036.110000", "091036.570000", "091037.030000", "091037.490000", "091037.950000", "091038.410000", "091038.870000", "091039.330000", "091039.790000", "091040.250000", "091040.710000", "091041.170000", "091041.630000", "091042.090000", "091042.550000", "091043.010000", "091043.470000", "091043.930000", "091044.390000", "091044.850000", "091045.310000", "091045.770000", "091046.230000", "091046.690000", "091047.150000", "091047.610000", "091048.070000", "091048.530000", "091048.990000", "091049.450000", "091049.910000", "091050.370000", "091050.830000", "091051.290000", "091051.750000", "091052.210000", "091052.670000", "091053.130000", "091053.590000", "091054.050000", "091054.510000", "091054.970000", "091055.430000", "091055.890000", "091056.350000", "091056.810000", "091057.270000", "091057.730000", "091058.190000", "091058.650000", "091059.110000", "091059.570000", "091100.030000", "091100.490000", "091100.950000", "091101.410000", "091101.870000", "091102.330000", "091102.790000", "091103.250000", "091103.710000", "091104.170000"],
