{
  "AcquisitionMatrixPE": 82,
  "AcquisitionNumber": 1,
  "AcquisitionTime": "09:21:15.535000",
  "BandwidthPerPixelPhaseEncode": 24.888,
  "BaseResolution": 82,
  "BodyPartExamined": "BRAIN",
  "ConsistencyInfo": "N4_VE11E_LATEST_20181129",
  "ConversionSoftware": "dcm2niix",
  "ConversionSoftwareVersion": "v1.0.20201102",
  "DerivedVendorReportedEchoSpacing": 0.00049,
  "DeviceSerialNumber": "66112",
  "DwellTime": 2e-06,
  "EchoTime": 0.0272,
  "EchoTrainLength": 82,
  "EffectiveEchoSpacing": 0.00049,
  "FlipAngle": 44,
  "ImageComments": "Unaliased MB8/PE3",
  "ImageOrientationPatientDICOM": [0.99931, 0.0021389, -0.0370749, 0.00122086, 0.995908, 0.090362],
  "ImageType": [
    "ORIGINAL",
    "PRIMARY",
    "M",
    "MB",
    "ND",
    "NORM",
    "MOSAIC"
],
  "ImagingFrequency": 123.252,
  "InPlanePhaseEncodingDirectionDICOM": "COL",
  "InstitutionAddress": "Maynard 3,Hanover,NH,US,03755",
  "InstitutionName": "Dartmouth College - PBS",
  "InstitutionalDepartmentName": "Department",
  "MRAcquisitionType": "2D",
  "MagneticFieldStrength": 3,
  "Manufacturer": "Siemens",
  "ManufacturersModelName": "Prisma",
  "Modality": "MR",
  "MultibandAccelerationFactor": 8,
  "PartialFourier": 1,
  "PatientPosition": "HFS",
  "PercentPhaseFOV": 100,
  "PercentSampling": 100,
  "PhaseEncodingDirection": "j-",
  "PhaseEncodingSteps": 82,
  "PhaseResolution": 1,
  "PixelBandwidth": 3050,
  "ProcedureStepDescription": "Wager_Wager^1076_spacetop",
  "ProtocolName": "func_run-05_task-social_acq-ap-mb8",
  "PulseSequenceDetails": "%CustomerSeq%\\cmrr_mbep2d_bold",
  "ReceiveCoilActiveElements": "HEA;HEP",
  "ReceiveCoilName": "Head_32",
  "ReconMatrixPE": 82,
  "RepetitionTime": 0.46,
  "SAR": 0.0793542,
  "ScanOptions": "FS",
  "ScanningSequence": "EP",
  "SequenceName": "epfid2d1_82",
  "SequenceVariant": "SK\\SS",
  "SeriesDescription": "func_run-05_task-social_acq-ap-mb8",
  "SeriesNumber": 16,
  "ShimSetting": [4126, -7740, -7291, 688, -52, -139, 23, 83],
  "SliceThickness": 2.7,
  "SliceTiming": [0, 0.25, 0.0625, 0.3125, 0.125, 0.375, 0.1875, 0, 0.25, 0.0625, 0.3125, 0.125, 0.375, 0.1875, 0, 0.25, 0.0625, 0.3125, 0.125, 0.375, 0.1875, 0, 0.25, 0.0625, 0.3125, 0.125, 0.375, 0.1875, 0, 0.25, 0.0625, 0.3125, 0.125, 0.375, 0.1875, 0, 0.25, 0.0625, 0.3125, 0.125, 0.375, 0.1875, 0, 0.25, 0.0625, 0.3125, 0.125, 0.375, 0.1875, 0, 0.25, 0.0625, 0.3125, 0.125, 0.375, 0.1875],
  "SoftwareVersions": "syngo MR E11",
  "SpacingBetweenSlices": 2.7,
  "StationName": "AWP66112",
  "TaskName": "social",
  "TotalReadoutTime": 0.03969,
  "TxRefAmp": 229.016,
  "WipMemBlock": "661d07ab-cac7-4a99-b31c-b5ba09e4031e||Sequence: R016 ve11e/master r/434b28f1; Aug  7 2019 18:53:46 by eja",
  "dcmmeta_affine": [
    [-2.6810762882232666, 0.003275474300608039, -0.10021442919969559, 112.08827209472656],
    [-0.005738506093621254, 2.6719489097595215, 0.24393142759799957, -99.90277862548828],
    [-0.09946919977664948, -0.2424347698688507, 2.6870901584625244, -60.39604949951172],
    [0.0, 0.0, 0.0, 1.0]
],
  "dcmmeta_reorient_transform": [
    [0.0, -1.0, 0.0, 81.0],
    [1.0, 0.0, 0.0, 0.0],
    [0.0, 0.0, 1.0, 0.0],
    [0.0, 0.0, 0.0, 1.0]
],
  "dcmmeta_shape": [82, 82, 56, 872],
  "dcmmeta_slice_dim": 2,
  "dcmmeta_version": 0.6,
  "global": {
    "const": {
      "AccessionNumber": "A004248",
      "AcquisitionMatrix": [82, 0, 0, 82],
      "AngioFlag": "N",
      "BitsAllocated": 16,
      "BitsStored": 16,
      "BodyPartExamined": "BRAIN",
      "Columns": 656,
      "EchoNumbers": 1,
      "EchoTime": 27.2,
      "EchoTrainLength": 82,
      "FlipAngle": 44.0,
      "HighBit": 15,
      "ImageOrientationPatient": [0.99931020118375, 0.00213889770745, -0.0370748826929, 0.00122085861665, 0.99590823367014, 0.09036204741076],
      "ImagePositionPatient": [-882.7625177246, -885.02139761797, -121.06438270545],
      "ImageType": [
        "ORIGINAL",
        "PRIMARY",
        "M",
        "MB",
        "ND",
        "NORM",
        "MOSAIC"
],
      "ImagedNucleus": "1H",
      "ImagingFrequency": 123.252216,
      "InPlanePhaseEncodingDirection": "COL",
      "MRAcquisitionType": "2D",
      "MagneticFieldStrength": 3.0,
      "Manufacturer": "SIEMENS",
      "ManufacturerModelName": "Prisma",
      "Modality": "MR",
      "NumberOfAverages": 1.0,
      "NumberOfPhaseEncodingSteps": 82,
      "PercentPhaseFieldOfView": 100.0,
      "PercentSampling": 100.0,
      "PerformedProcedureStepStartTime": "081243.303000",
      "PhotometricInterpretation": "MONOCHROME2",
      "PixelBandwidth": 3050.0,
      "PixelRepresentation": 0,
      "PixelSpacing": [2.6829268932343, 2.6829268932343],
      "ProtocolName": "func_run-05_task-social_acq-ap-mb8",
      "RepetitionTime": 460.0,
      "Rows": 656,
      "SAR": 0.07935419583322,
      "SamplesPerPixel": 1,
      "ScanOptions": "FS",
      "ScanningSequence": "EP",
      "SequenceName": "epfid2d1_82",
      "SequenceVariant": [
        "SK",
        "SS"
],
      "SeriesDescription": "func_run-05_task-social_acq-ap-mb8",
      "SeriesNumber": 16,
      "SeriesTime": "092143.862000",
      "SliceLocation": -73.293307735118,
      "SliceThickness": 2.7000000476837,
      "SmallestImagePixelValue": 0,
      "SoftwareVersions": "syngo MR E11",
      "SpacingBetweenSlices": 2.6999998872611,
      "SpecificCharacterSet": "ISO_IR 100",
      "StudyID": "2",
      "StudyTime": "081243.193000",
      "TransmitCoilName": "Body",
      "VariableFlipAngleFlag": "N",
      "WindowCenterWidthExplanation": "Algo1"
    },
    "slices": {}
  },
  "time": {
    "samples": {
      "AcquisitionNumber": [1, 2, 3, 4, 5, 6, 7, 8, 9, 10, 11, 12, 13, 14, 15, 16, 17, 18, 19, 20, 21, 22, 23, 24, 25, 26, 27, 28, 29, 30, 31, 32, 33, 34, 35, 36, 37, 38, 39, 40, 41, 42, 43, 44, 45, 46, 47, 48, 49, 50, 51, 52, 53, 54, 55, 56, 57, 58, 59, 60, 61, 62, 63, 64, 65, 66, 67, 68, 69, 70, 71, 72, 73, 74, 75, 76, 77, 78, 79, 80, 81, 82, 83, 84, 85, 86, 87, 88, 89, 90, 91, 92, 93, 94, 95, 96, 97, 98, 99, 100, 101, 102, 103, 104, 105, 106, 107, 108, 109, 110, 111, 112, 113, 114, 115, 116, 117, 118, 119, 120, 121, 122, 123, 124, 125, 126, 127, 128, 129, 130, 131, 132, 133, 134, 135, 136, 137, 138, 139, 140, 141, 142, 143, 144, 145, 146, 147, 148, 149, 150, 151, 152, 153, 154, 155, 156, 157, 158, 159, 160, 161, 162, 163, 164, 165, 166, 167, 168, 169, 170, 171, 172, 173, 174, 175, 176, 177, 178, 179, 180, 181, 182, 183, 184, 185, 186, 187, 188, 189, 190, 191, 192, 193, 194, 195, 196, 197, 198, 199, 200, 201, 202, 203, 204, 205, 206, 207, 208, 209, 210, 211, 212, 213, 214, 215, 216, 217, 218, 219, 220, 221, 222, 223, 224, 225, 226, 227, 228, 229, 230, 231, 232, 233, 234, 235, 236, 237, 238, 239, 240, 241, 242, 243, 244, 245, 246, 247, 248, 249, 250, 251, 252, 253, 254, 255, 256, 257, 258, 259, 260, 261, 262, 263, 264, 265, 266, 267, 268, 269, 270, 271, 272, 273, 274, 275, 276, 277, 278, 279, 280, 281, 282, 283, 284, 285, 286, 287, 288, 289, 290, 291, 292, 293, 294, 295, 296, 297, 298, 299, 300, 301, 302, 303, 304, 305, 306, 307, 308, 309, 310, 311, 312, 313, 314, 315, 316, 317, 318, 319, 320, 321, 322, 323, 324, 325, 326, 327, 328, 329, 330, 331, 332, 333, 334, 335, 336, 337, 338, 339, 340, 341, 342, 343, 344, 345, 346, 347, 348, 349, 350, 351, 352, 353, 354, 355, 356, 357, 358, 359, 360, 361, 362, 363, 364, 365, 366, 367, 368, 369, 370, 371, 372, 373, 374, 375, 376, 377, 378, 379, 380, 381, 382, 383, 384, 385, 386, 387, 388, 389, 390, 391, 392, 393, 394, 395, 396, 397, 398, 399, 400, 401, 402, 403, 404, 405, 406, 407, 408, 409, 410, 411, 412, 413, 414, 415, 416, 417, 418, 419, 420, 421, 422, 423, 424, 425, 426, 427, 428, 429, 430, 431, 432, 433, 434, 435, 436, 437, 438, 439, 440, 441, 442, 443, 444, 445, 446, 447, 448, 449, 450, 451, 452, 453, 454, 455, 456, 457, 458, 459, 460, 461, 462, 463, 464, 465, 466, 467, 468, 469, 470, 471, 472, 473, 474, 475, 476, 477, 478, 479, 480, 481, 482, 483, 484, 485, 486, 487, 488, 489, 490, 491, 492, 493, 494, 495, 496, 497, 498, 499, 500, 501, 502, 503, 504, 505, 506, 507, 508, 509, 510, 511, 512, 513, 514, 515, 516, 517, 518, 519, 520, 521, 522, 523, 524, 525, 526, 527, 528, 529, 530, 531, 532, 533, 534, 535, 536, 537, 538, 539, 540, 541, 542, 543, 544, 545, 546, 547, 548, 549, 550, 551, 552, 553, 554, 555, 556, 557, 558, 559, 560, 561, 562, 563, 564, 565, 566, 567, 568, 569, 570, 571, 572, 573, 574, 575, 576, 577, 578, 579, 580, 581, 582, 583, 584, 585, 586, 587, 588, 589, 590, 591, 592, 593, 594, 595, 596, 597, 598, 599, 600, 601, 602, 603, 604, 605, 606, 607, 608, 609, 610, 611, 612, 613, 614, 615, 616, 617, 618, 619, 620, 621, 622, 623, 624, 625, 626, 627, 628, 629, 630, 631, 632, 633, 634, 635, 636, 637, 638, 639, 640, 641, 642, 643, 644, 645, 646, 647, 648, 649, 650, 651, 652, 653, 654, 655, 656, 657, 658, 659, 660, 661, 662, 663, 664, 665, 666, 667, 668, 669, 670, 671, 672, 673, 674, 675, 676, 677, 678, 679, 680, 681, 682, 683, 684, 685, 686, 687, 688, 689, 690, 691, 692, 693, 694, 695, 696, 697, 698, 699, 700, 701, 702, 703, 704, 705, 706, 707, 708, 709, 710, 711, 712, 713, 714, 715, 716, 717, 718, 719, 720, 721, 722, 723, 724, 725, 726, 727, 728, 729, 730, 731, 732, 733, 734, 735, 736, 737, 738, 739, 740, 741, 742, 743, 744, 745, 746, 747, 748, 749, 750, 751, 752, 753, 754, 755, 756, 757, 758, 759, 760, 761, 762, 763, 764, 765, 766, 767, 768, 769, 770, 771, 772, 773, 774, 775, 776, 777, 778, 779, 780, 781, 782, 783, 784, 785, 786, 787, 788, 789, 790, 791, 792, 793, 794, 795, 796, 797, 798, 799, 800, 801, 802, 803, 804, 805, 806, 807, 808, 809, 810, 811, 812, 813, 814, 815, 816, 817, 818, 819, 820, 821, 822, 823, 824, 825, 826, 827, 828, 829, 830, 831, 832, 833, 834, 835, 836, 837, 838, 839, 840, 841, 842, 843, 844, 845, 846, 847, 848, 849, 850, 851, 852, 853, 854, 855, 856, 857, 858, 859, 860, 861, 862, 863, 864, 865, 866, 867, 868, 869, 870, 871, 872],
      "AcquisitionTime": ["092115.535000", "092115.995000", "092116.455000", "092116.915000", "092117.375000", "092117.835000", "092118.295000", "092118.755000", "092119.215000", "092119.675000", "092120.135000", "092120.595000", "092121.055000", "092121.515000", "092121.975000", "092122.435000", "092122.895000", "092123.355000", "092123.815000", "092124.275000", "092124.735000", "092125.195000", "092125.655000", "092126.115000", "092126.575000", "092127.035000", "092127.495000", "092127.955000", "092128.415000", "092128.875000", "092129.335000", "092129.795000", "092130.255000", "092130.715000", "092131.175000", "092131.635000", "092132.095000", "092132.555000", "092133.015000", "092133.475000", "092133.935000", "092134.395000", "092134.855000", "092135.315000", "092135.775000", "092136.235000", "092136.695000", "092137.155000", "092137.615000", "092138.075000", "092138.535000", "092138.995000", "092139.455000", "092139.915000", "092140.375000", "092140.835000", "092141.295000", "092141.755000", "092142.215000", "092142.675000", "092143.135000", "092143.595000", "092144.055000", "092144.515000", "092144.975000", "092145.435000", "092145.895000", "092146.355000", "092146.815000", "092147.275000", "092147.735000", "092148.195000", "092148.655000", "092149.115000", "092149.575000", "092150.035000", "092150.495000", "092150.955000", "092151.415000", "092151.875000", "092152.335000", "092152.795000", "092153.255000", "092153.715000", "092154.175000", "092154.635000", "092155.095000", "092155.555000", "092156.015000", "092156.475000", "092156.935000", "092157.395000", "092157.855000", "092158.315000", "092158.775000", "092159.235000", "092159.695000", "092200.155000", "092200.615000", "092201.075000", "092201.535000", "092201.995000", "092202.455000", "092202.915000", "092203.375000", "092203.835000", "092204.295000", "092204.755000", "092205.215000", "092205.675000", "092206.135000", "092206.595000", "092207.055000", "092207.515000", "092207.975000", "092208.435000", "092208.895000", "092209.355000", "092209.815000", "092210.275000", "092210.735000", "092211.195000", "092211.655000", "092212.115000", "092212.575000", "092213.035000", "092213.495000", "092213.955000", "092214.415000", "092214.875000", "092215.335000", "092215.795000", "092216.255000", "092216.715000", "092217.175000", "092217.635000", "092218.095000", "092218.555000", "092219.015000", "092219.475000", "092219.935000", "092220.395000", "092220.855000", "092221.315000", "092221.775000", "092222.235000", "092222.695000", "092223.155000", "092223.615000", "092224.075000", "092224.535000", "092224.995000", "092225.455000", "092225.915000", "092226.375000", "092226.835000", "092227.295000", "092227.755000", "092228.215000", "092228.675000", "092229.135000", "092229.595000", "092230.055000", "092230.515000", "092230.975000", "092231.435000", "092231.895000", "092232.355000", "092232.815000", "092233.275000", "092233.735000", "092234.195000", "092234.655000", "092235.115000", "092235.575000", "092236.035000", "092236.495000", "092236.955000", "092237.415000", "092237.875000", "092238.335000", "092238.795000", "092239.255000", "092239.715000", "092240.175000", "092240.635000", "092241.095000", "092241.555000", "092242.015000", "092242.475000", "092242.935000", "092243.395000", "092243.855000", "092244.315000", "092244.775000", "092245.235000", "092245.695000", "092246.155000", "092246.615000", "092247.075000", "092247.535000", "092247.995000", "092248.455000", "092248.915000", "092249.375000", "092249.835000", "092250.295000", "092250.755000", "092251.215000", "092251.675000", "092252.135000", "092252.595000", "092253.055000", "092253.515000", "092253.975000", "092254.435000", "092254.895000", "092255.355000", "092255.815000", "092256.275000", "092256.735000", "092257.195000", "092257.655000", "092258.115000", "092258.575000", "092259.035000", "092259.495000", "092259.955000", "092300.415000", "092300.875000", "092301.335000", "092301.795000", "092302.255000", "092302.715000", "092303.175000", "092303.635000", "092304.095000", "092304.555000", "092305.015000", "092305.475000", "092305.935000", "092306.395000", "092306.855000", "092307.315000", "092307.775000", "092308.235000", "092308.695000", "092309.155000", "092309.615000", "092310.075000", "092310.535000", "092310.995000", "092311.455000", "092311.915000", "092312.375000", "092312.835000", "092313.295000", "092313.755000", "092314.215000", "092314.675000", "092315.135000", "092315.595000", "092316.055000", "092316.515000", "092316.975000", "092317.435000", "092317.895000", "092318.355000", "092318.815000", "092319.275000", "092319.735000", "092320.195000", "092320.655000", "092321.115000", "092321.575000", "092322.035000", "092322.495000", "092322.955000", "092323.415000", "092323.875000", "092324.335000", "092324.795000", "092325.255000", "092325.715000", "092326.175000", "092326.635000", "092327.095000", "092327.555000", "092328.015000", "092328.475000", "092328.935000", "092329.395000", "092329.855000", "092330.315000", "092330.775000", "092331.235000", "092331.695000", "092332.155000", "092332.615000", "092333.075000", "092333.535000", "092333.995000", "092334.455000", "092334.915000", "092335.375000", "092335.835000", "092336.295000", "092336.755000", "092337.215000", "092337.675000", "092338.135000", "092338.595000", "092339.055000", "092339.515000", "092339.975000", "092340.435000", "092340.895000", "092341.355000", "092341.815000", "092342.275000", "092342.735000", "092343.195000", "092343.655000", "092344.115000", "092344.575000", "092345.035000", "092345.495000", "092345.955000", "092346.415000", "092346.875000", "092347.335000", "092347.795000", "092348.255000", "092348.715000", "092349.175000", "092349.635000", "092350.095000", "092350.555000", "092351.015000", "092351.475000", "092351.935000", "092352.395000", "092352.855000", "092353.315000", "092353.775000", "092354.235000", "092354.695000", "092355.155000", "092355.615000", "092356.075000", "092356.535000", "092356.995000", "092357.455000", "092357.915000", "092358.375000", "092358.835000", "092359.295000", "092359.755000", "092400.215000", "092400.675000", "092401.135000", "092401.595000", "092402.055000", "092402.515000", "092402.975000", "092403.435000", "092403.895000", "092404.355000", "092404.815000", "092405.275000", "092405.735000", "092406.195000", "092406.655000", "092407.115000", "092407.575000", "092408.035000", "092408.495000", "092408.955000", "092409.415000", "092409.875000", "092410.335000", "092410.795000", "092411.255000", "092411.715000", "092412.175000", "092412.635000", "092413.095000", "092413.555000", "092414.015000", "092414.475000", "092414.935000", "092415.395000", "092415.855000", "092416.315000", "092416.775000", "092417.235000", "092417.695000", "092418.155000", "092418.615000", "092419.075000", "092419.535000", "092419.995000", "092420.455000", "092420.915000", "092421.375000", "092421.835000", "092422.295000", "092422.755000", "092423.215000", "092423.675000", "092424.135000", "092424.595000", "092425.055000", "092425.515000", "092425.975000", "092426.435000", "092426.895000", "092427.355000", "092427.815000", "092428.275000", "092428.735000", "092429.195000", "092429.655000", "092430.115000", "092430.575000", "092431.035000", "092431.495000", "092431.955000", "092432.415000", "092432.875000", "092433.335000", "092433.795000", "092434.255000", "092434.715000", "092435.175000", "092435.635000", "092436.095000", "092436.555000", "092437.015000", "092437.475000", "092437.935000", "092438.395000", "092438.855000", "092439.315000", "092439.775000", "092440.235000", "092440.695000", "092441.155000", "092441.615000", "092442.075000", "092442.535000", "092442.995000", "092443.455000", "092443.915000", "092444.375000", "092444.835000", "092445.295000", "092445.755000", "092446.215000", "092446.675000", "092447.135000", "092447.595000", "092448.055000", "092448.515000", "092448.975000", "092449.435000", "092449.895000", "092450.355000", "092450.815000", "092451.275000", "092451.735000", "092452.195000", "092452.655000", "092453.115000", "092453.575000", "092454.035000", "092454.495000", "092454.955000", "092455.415000", "092455.875000", "092456.335000", "092456.795000", "092457.255000", "092457.715000", "092458.175000", "092458.635000", "092459.095000", "092459.555000", "092500.015000", "092500.475000", "092500.935000", "092501.395000", "092501.855000", "092502.315000", "092502.775000", "092503.235000", "092503.695000", "092504.155000", "092504.615000", "092505.075000", "092505.535000", "092505.995000", "092506.455000", "092506.915000", "092507.375000", "092507.835000", "092508.295000", "092508.755000", "092509.215000", "092509.675000", "092510.135000", "092510.595000", "092511.055000", "092511.515000", "092511.975000", "092512.435000", "092512.895000", "092513.355000", "092513.815000", "092514.275000", "092514.735000", "092515.195000", "092515.655000", "092516.115000", "092516.575000", "092517.035000", "092517.495000", "092517.955000", "092518.415000", "092518.875000", "092519.335000", "092519.795000", "092520.255000", "092520.715000", "092521.175000", "092521.635000", "092522.095000", "092522.555000", "092523.015000", "092523.475000", "092523.935000", "092524.395000", "092524.855000", "092525.315000", "092525.775000", "092526.235000", "092526.695000", "092527.155000", "092527.615000", "092528.075000", "092528.535000", "092528.995000", "092529.455000", "092529.915000", "092530.375000", "092530.835000", "092531.295000", "092531.755000", "092532.215000", "092532.675000", "092533.135000", "092533.595000", "092534.055000", "092534.515000", "092534.975000", "092535.435000", "092535.895000", "092536.355000", "092536.815000", "092537.275000", "092537.735000", "092538.195000", "092538.655000", "092539.115000", "092539.575000", "092540.035000", "092540.495000", "092540.955000", "092541.415000", "092541.875000", "092542.335000", "092542.795000", "092543.255000", "092543.715000", "092544.175000", "092544.635000", "092545.095000", "092545.555000", "092546.015000", "092546.475000", "092546.935000", "092547.395000", "092547.855000", "092548.315000", "092548.775000", "092549.235000", "092549.695000", "092550.155000", "092550.615000", "092551.075000", "092551.535000", "092551.995000", "092552.455000", "092552.915000", "092553.375000", "092553.835000", "092554.295000", "092554.755000", "092555.215000", "092555.675000", "092556.135000", "092556.595000", "092557.055000", "092557.515000", "092557.975000", "092558.435000", "092558.895000", "092559.355000", "092559.815000", "092600.275000", "092600.735000", "092601.195000", "092601.655000", "092602.115000", "092602.575000", "092603.035000", "092603.495000", "092603.955000", "092604.415000", "092604.875000", "092605.335000", "092605.795000", "092606.255000", "092606.715000", "092607.175000", "092607.635000", "092608.095000", "092608.555000", "092609.015000", "092609.475000", "092609.935000", "092610.395000", "092610.855000", "092611.315000", "092611.775000", "092612.235000", "092612.695000", "092613.155000", "092613.615000", "092614.075000", "092614.535000", "092614.995000", "092615.455000", "092615.915000", "092616.375000", "092616.835000", "092617.295000", "092617.755000", "092618.215000", "092618.675000", "092619.135000", "092619.595000", "092620.055000", "092620.515000", "092620.975000", "092621.435000", "092621.895000", "092622.355000", "092622.815000", "092623.275000", "092623.735000", "092624.195000", "092624.655000", "092625.115000", "092625.575000", "092626.035000", "092626.495000", "092626.955000", "092627.415000", "092627.875000", "092628.335000", "092628.795000", "092629.255000", "092629.715000", "092630.175000", "092630.635000", "092631.095000", "092631.555000", "092632.015000", "092632.475000", "092632.935000", "092633.395000", "092633.855000", "092634.315000", "092634.775000", "092635.235000", "092635.695000", "092636.155000", "092636.615000", "092637.075000", "092637.535000", "092637.995000", "092638.455000", "092638.915000", "092639.375000", "092639.835000", "092640.295000", "092640.755000", "092641.215000", "092641.675000", "092642.135000", "092642.595000", "092643.055000", "092643.515000", "092643.975000", "092644.435000", "092644.895000", "092645.355000", "092645.815000", "092646.275000", "092646.735000", "092647.195000", "092647.655000", "092648.115000", "092648.575000", "092649.035000", "092649.495000", "092649.955000", "092650.415000", "092650.875000", "092651.335000", "092651.795000", "092652.255000", "092652.715000", "092653.175000", "092653.635000", "092654.095000", "092654.555000", "092655.015000", "092655.475000", "092655.935000", "092656.395000", "092656.855000", "092657.315000", "092657.775000", "092658.235000", "092658.695000", "092659.155000", "092659.615000", "092700.075000", "092700.535000", "092700.995000", "092701.455000", "092701.915000", "092702.375000", "092702.835000", "092703.295000", "092703.755000", "092704.215000", "092704.675000", "092705.135000", "092705.595000", "092706.055000", "092706.515000", "092706.975000", "092707.435000", "092707.895000", "092708.355000", "092708.815000", "092709.275000", "092709.735000", "092710.195000", "092710.655000", "092711.115000", "092711.575000", "092712.035000", "092712.495000", "092712.955000", "092713.415000", "092713.875000", "092714.335000", "092714.795000", "092715.255000", "092715.715000", "092716.175000", "092716.635000", "092717.095000", "092717.555000", "092718.015000", "092718.475000", "092718.935000", "092719.395000", "092719.855000", "092720.315000", "092720.775000", "092721.235000", "092721.695000", "092722.155000", "092722.615000", "092723.075000", "092723.535000", "092723.995000", "092724.455000", "092724.915000", "092725.375000", "092725.835000", "092726.295000", "092726.755000", "092727.215000", "092727.675000", "092728.135000", "092728.595000", "092729.055000", "092729.515000", "092729.975000", "092730.435000", "092730.895000", "092731.355000", "092731.815000", "092732.275000", "092732.735000", "092733.195000", "092733.655000", "092734.115000", "092734.575000", "092735.035000", "092735.495000", "092735.955000", "092736.415000", "092736.875000", "092737.335000", "092737.795000", "092738.255000", "092738.715000", "092739.175000", "092739.635000", "092740.095000", "092740.555000", "092741.015000", "092741.475000", "092741.935000", "092742.395000", "092742.855000", "092743.315000", "092743.775000", "092744.235000", "092744.695000", "092745.155000", "092745.615000", "092746.075000", "092746.535000", "092746.995000", "092747.455000", "092747.915000", "092748.375000", "092748.835000", "092749.295000", "092749.755000", "092750.215000", "092750.675000", "092751.135000", "092751.595000", "092752.055000", "092752.515000", "092752.975000", "092753.435000", "092753.895000", "092754.355000", "092754.815000", "092755.275000", "092755.735000", "092756.195000"],
