{
  "AcquisitionMatrixPE": 140,
  "AcquisitionNumber": 1,
  "AcquisitionTime": "09:00:45.720000",
  "BandwidthPerPixelPhaseEncode": 10.352,
  "BaseResolution": 140,
  "BodyPartExamined": "BRAIN",
  "ConsistencyInfo": "N4_VE11E_LATEST_20181129",
  "ConversionSoftware": "dcm2niix",
  "ConversionSoftwareVersion": "v1.0.20201102",
  "DerivedVendorReportedEchoSpacing": 0.000689998,
  "DeviceSerialNumber": "66112",
  "DiffusionScheme": "Monopolar",
  "DwellTime": 2.1e-06,
  "EchoTime": 0.088,
  "EchoTrainLength": 105,
  "EffectiveEchoSpacing": 0.000689998,
  "FlipAngle": 90,
  "ImageComments": "Unaliased MB3/PE3",
  "ImageOrientationPatientDICOM": [0.999212, -0.0211151, 0.0336171, 0.0163946, 0.990714, 0.13497],
  "ImageType": [
    "ORIGINAL",
    "PRIMARY",
    "DIFFUSION",
    "NONE",
    "MB",
    "ND"
],
  "ImagingFrequency": 123.252,
  "InPlanePhaseEncodingDirectionDICOM": "COL",
  "InstitutionAddress": "Maynard 3,Hanover,NH,US,03755",
  "InstitutionName": "Dartmouth College - PBS",
  "InstitutionalDepartmentName": "Department",
  "IntendedFor": [
    "ses-01/dwi/sub-0082_ses-01_acq-96dirX6b0Xmb_dwi.nii.gz"
],
  "MRAcquisitionType": "2D",
  "MagneticFieldStrength": 3,
  "Manufacturer": "Siemens",
  "ManufacturersModelName": "Prisma",
  "Modality": "MR",
  "MultibandAccelerationFactor": 3,
  "PartialFourier": 0.75,
  "PatientPosition": "HFS",
  "PercentPhaseFOV": 100,
  "PercentSampling": 100,
  "PhaseEncodingDirection": "j",
  "PhaseEncodingSteps": 105,
  "PhaseResolution": 1,
  "PixelBandwidth": 1700,
  "ProcedureStepDescription": "Wager_Wager^1076_spacetop",
  "ProtocolName": "dwi_acq-discorr-PA",
  "PulseSequenceDetails": "%CustomerSeq%\\cmrr_mbep2d_diff",
  "ReceiveCoilActiveElements": "HEA;HEP",
  "ReceiveCoilName": "Head_32",
  "ReconMatrixPE": 140,
  "RepetitionTime": 4.1,
  "SAR": 0.150454,
  "ScanOptions": "PFP\\FS",
  "ScanningSequence": "EP",
  "SequenceName": "ep_b0",
  "SequenceVariant": "SK\\SS",
  "SeriesDescription": "dwi_acq-discorr-PA",
  "SeriesNumber": 6,
  "ShimSetting": [4169, -7733, -7278, 544, 15, -274, 30, 14],
  "SliceThickness": 1.7,
  "SliceTiming": [0, 2.11719, 0.15625, 2.26562, 0.30469, 2.42188, 0.45312, 2.57031, 0.60938, 2.71875, 0.75781, 2.875, 0.90625, 3.02344, 1.0625, 3.17969, 1.21094, 3.32812, 1.35938, 3.47656, 1.51562, 3.625, 1.66406, 3.78125, 1.8125, 3.92969, 1.96875, 0, 2.11719, 0.15625, 2.26562, 0.30469, 2.42188, 0.45312, 2.57031, 0.60938, 2.71875, 0.75781, 2.875, 0.90625, 3.02344, 1.0625, 3.17969, 1.21094, 3.32812, 1.35938, 3.47656, 1.51562, 3.625, 1.66406, 3.78125, 1.8125, 3.92969, 1.96875, 0, 2.11719, 0.15625, 2.26562, 0.30469, 2.42188, 0.45312, 2.57031, 0.60938, 2.71875, 0.75781, 2.875, 0.90625, 3.02344, 1.0625, 3.17969, 1.21094, 3.32812, 1.35938, 3.47656, 1.51562, 3.625, 1.66406, 3.78125, 1.8125, 3.92969, 1.96875],
  "SoftwareVersions": "syngo MR E11",
  "SpacingBetweenSlices": 1.7,
  "StationName": "AWP66112",
  "TotalReadoutTime": 0.0959097,
  "TxRefAmp": 233.207,
  "WipMemBlock": "a8715ea0-c89a-4c94-9df7-d2bf54277209||Sequence: R016 ve11e/master r/434b28f1; Aug  7 2019 19:06:17 by eja",
  "dcmmeta_affine": [
    [-1.7129343748092651, 0.028105104342103004, 0.061463117599487305, 117.08111572265625],
    [0.03619733080267906, 1.6983668804168701, 0.22833251953125, -119.00011444091797],
    [0.05762926861643791, -0.231377974152565, 1.6834716796875, -56.67974853515625],
    [0.0, 0.0, 0.0, 1.0]
],
  "dcmmeta_reorient_transform": [
    [0.0, -1.0, 0.0, 139.0],
    [1.0, 0.0, 0.0, 0.0],
    [0.0, 0.0, -1.0, 80.0],
    [0.0, 0.0, 0.0, 1.0]
],
  "dcmmeta_shape": [140, 140, 81],
  "dcmmeta_slice_dim": 2,
  "dcmmeta_version": 0.6,
  "global": {
    "const": {
      "AccessionNumber": "A004073",
      "AcquisitionMatrix": [140, 0, 0, 140],
      "AcquisitionNumber": 1,
      "AngioFlag": "N",
      "BitsAllocated": 16,
      "BitsStored": 16,
      "BodyPartExamined": "BRAIN",
      "Columns": 140,
      "EchoNumbers": 1,
      "EchoTime": 88.0,
      "EchoTrainLength": 105,
      "FlipAngle": 90.0,
      "HighBit": 15,
      "ImageOrientationPatient": [0.99921171157913, -0.0211151083964, 0.033617073646, 0.01639464404008, 0.9907139770099, 0.13497048345482],
      "ImageType": [
        "ORIGINAL",
        "PRIMARY",
        "DIFFUSION",
        "NONE",
        "MB",
        "ND"
],
      "ImagedNucleus": "1H",
      "ImagingFrequency": 123.252201,
      "InPlanePhaseEncodingDirection": "COL",
      "MRAcquisitionType": "2D",
      "MagneticFieldStrength": 3.0,
      "Manufacturer": "SIEMENS",
      "ManufacturerModelName": "Prisma",
      "Modality": "MR",
      "NumberOfAverages": 1.0,
      "NumberOfPhaseEncodingSteps": 105,
      "PercentPhaseFieldOfView": 100.0,
      "PercentSampling": 100.0,
      "PerformedProcedureStepStartTime": "083933.816000",
      "PhotometricInterpretation": "MONOCHROME2",
      "PixelBandwidth": 1700.0,
      "PixelRepresentation": 0,
      "PixelSpacing": [1.7142857313156, 1.7142857313156],
      "ProtocolName": "dwi_acq-discorr-PA",
      "RepetitionTime": 4100.0,
      "Rows": 140,
      "SAR": 0.15045409675078,
      "SamplesPerPixel": 1,
      "ScanOptions": [
        "PFP",
        "FS"
],
      "ScanningSequence": "EP",
      "SequenceName": "ep_b0",
      "SequenceVariant": [
        "SK",
        "SS"
],
      "SeriesDescription": "dwi_acq-discorr-PA",
      "SeriesNumber": 6,
      "SeriesTime": "090050.037000",
      "SliceThickness": 1.7000000476837,
      "SmallestImagePixelValue": 0,
      "SoftwareVersions": "syngo MR E11",
      "SpacingBetweenSlices": 1.7,
      "SpecificCharacterSet": "ISO_IR 100",
      "StudyID": "1",
      "StudyTime": "083933.677000",
      "TransmitCoilName": "Body",
      "VariableFlipAngleFlag": "N",
      "WindowCenterWidthExplanation": "Algo1"
    },
    "slices": {
      "AcquisitionTime": ["090045.720000", "090047.837500", "090045.872500", "090047.987500", "090046.022500", "090048.140000", "090046.175000", "090048.290000", "090046.325000", "090048.440000", "090046.477500", "090048.592500", "090046.627500", "090048.742500", "090046.780000", "090048.895000", "090046.930000", "090049.045000", "090047.080000", "090049.197500", "090047.232500", "090049.347500", "090047.382500", "090049.500000", "090047.535000", "090049.650000", "090047.685000", "090045.720000", "090047.837500", "090045.872500", "090047.987500", "090046.022500", "090048.140000", "090046.175000", "090048.290000", "090046.325000", "090048.440000", "090046.477500", "090048.592500", "090046.627500", "090048.742500", "090046.780000", "090048.895000", "090046.930000", "090049.045000", "090047.080000", "090049.197500", "090047.232500", "090049.347500", "090047.382500", "090049.500000", "090047.535000", "090049.650000", "090047.685000", "090045.720000", "090047.837500", "090045.872500", "090047.987500", "090046.022500", "090048.140000", "090046.175000", "090048.290000", "090046.325000", "090048.440000", "090046.477500", "090048.592500", "090046.627500", "090048.742500", "090046.780000", "090048.895000", "090046.930000", "090049.045000", "090047.080000", "090049.197500", "090047.232500", "090049.347500", "090047.382500", "090049.500000", "090047.535000", "090049.650000", "090047.685000"],
      "ContentTime": ["090050.040000", "090050.144000", "090050.047000", "090050.151000", "090050.053000", "090050.158000", "090050.059000", "090050.164000", "090050.065000", "090050.171000", "090050.071000", "090050.178000", "090050.084000", "090050.184000", "090050.090000", "090050.190000", "090050.096000", "090050.255000", "090050.102000", "090050.261000", "090050.108000", "090050.268000", "090050.114000", "090050.290000", "090050.120000", "090050.303000", "090050.126000", "090050.043000", "090050.147000", "090050.049000", "090050.153000", "090050.055000", "090050.160000", "090050.061000", "090050.166000", "090050.067000", "090050.174000", "090050.073000", "090050.180000", "090050.086000", "090050.186000", "090050.092000", "090050.251000", "090050.098000", "090050.257000", "090050.104000", "090050.264000", "090050.110000", "090050.286000", "090050.116000", "090050.292000", "090050.122000", "090050.305000", "090050.129000", "090050.045000", "090050.149000", "090050.051000", "090050.155000", "090050.057000", "090050.162000", "090050.063000", "090050.169000", "090050.069000", "090050.176000", "090050.081000", "090050.182000", "090050.088000", "090050.188000", "090050.094000", "090050.253000", "090050.100000", "090050.259000", "090050.106000", "090050.266000", "090050.112000", "090050.288000", "090050.118000", "090050.294000", "090050.124000", "090050.307000", "090050.142000"],
      "CsaImage.GSWDDataType": [
        "predicted",
        "predicted",
        "predicted",
        "predicted",
        "predicted",
        "predicted",
        "predicted",
        "predicted",
        "predicted",
        "predicted",
        "predicted",
        "predicted",
        "predicted",
        "predicted",
        "predicted",
        "predicted",
        "predicted",
        "predicted",
        "predicted",
        "predicted",
        "predicted",
        "predicted",
        "predicted",
        "measured",
        "predicted",
        "measured",
        "predicted",
        "predicted",
        "predicted",
        "predicted",
        "predicted",
        "predicted",
        "predicted",
        "predicted",
        "predicted",
        "predicted",
        "predicted",
        "predicted",
        "predicted",
        "predicted",
        "predicted",
        "predicted",
        "predicted",
        "predicted",
        "predicted",
        "predicted",
        "predicted",
        "predicted",
        "predicted",
        "predicted",
        "measured",
        "predicted",
        "measured",
        "predicted",
        "predicted",
        "predicted",
        "predicted",
        "predicted",
        "predicted",
        "predicted",
        "predicted",
        "predicted",
        "predicted",
        "predicted",
        "predicted",
        "predicted",
        "predicted",
        "predicted",
        "predicted",
        "predicted",
        "predicted",
        "predicted",
        "predicted",
        "predicted",
        "predicted",
        "predicted",
        "predicted",
        "measured",
        "predicted",
        "measured",
        "predicted"
],
      "CsaImage.ICE_Dims": [
        "X_1_1_1_1_1_1_1_1_1_1_1_24",
        "X_1_1_1_1_1_1_42_1_1_2_1_24",
        "X_1_1_1_1_1_1_2_1_1_3_1_24",
        "X_1_1_1_1_1_1_43_1_1_4_1_24",
        "X_1_1_1_1_1_1_3_1_1_5_1_24",
        "X_1_1_1_1_1_1_44_1_1_6_1_24",
        "X_1_1_1_1_1_1_4_1_1_7_1_24",
        "X_1_1_1_1_1_1_45_1_1_8_1_24",
        "X_1_1_1_1_1_1_5_1_1_9_1_24",
        "X_1_1_1_1_1_1_46_1_1_10_1_24",
        "X_1_1_1_1_1_1_6_1_1_11_1_24",
        "X_1_1_1_1_1_1_47_1_1_12_1_24",
        "X_1_1_1_1_1_1_7_1_1_13_1_24",
        "X_1_1_1_1_1_1_48_1_1_14_1_24",
        "X_1_1_1_1_1_1_8_1_1_15_1_24",
        "X_1_1_1_1_1_1_49_1_1_16_1_24",
        "X_1_1_1_1_1_1_9_1_1_17_1_24",
        "X_1_1_1_1_1_1_50_1_1_18_1_24",
        "X_1_1_1_1_1_1_10_1_1_19_1_24",
        "X_1_1_1_1_1_1_51_1_1_20_1_24",
        "X_1_1_1_1_1_1_11_1_1_21_1_24",
        "X_1_1_1_1_1_1_52_1_1_22_1_24",
        "X_1_1_1_1_1_1_12_1_1_23_1_24",
        "X_1_1_1_1_1_1_53_1_1_24_1_24",
        "X_1_1_1_1_1_1_13_1_1_25_1_24",
        "X_1_1_1_1_1_1_54_1_1_26_1_24",
        "X_1_1_1_1_1_1_14_1_1_27_1_24",
        "X_1_1_1_1_1_1_55_1_1_28_1_24",
        "X_1_1_1_1_1_1_15_1_1_29_1_24",
        "X_1_1_1_1_1_1_56_1_1_30_1_24",
        "X_1_1_1_1_1_1_16_1_1_31_1_24",
        "X_1_1_1_1_1_1_57_1_1_32_1_24",
        "X_1_1_1_1_1_1_17_1_1_33_1_24",
        "X_1_1_1_1_1_1_58_1_1_34_1_24",
        "X_1_1_1_1_1_1_18_1_1_35_1_24",
        "X_1_1_1_1_1_1_59_1_1_36_1_24",
        "X_1_1_1_1_1_1_19_1_1_37_1_24",
        "X_1_1_1_1_1_1_60_1_1_38_1_24",
        "X_1_1_1_1_1_1_20_1_1_39_1_24",
        "X_1_1_1_1_1_1_61_1_1_40_1_24",
        "X_1_1_1_1_1_1_21_1_1_41_1_24",
        "X_1_1_1_1_1_1_62_1_1_42_1_24",
        "X_1_1_1_1_1_1_22_1_1_43_1_24",
        "X_1_1_1_1_1_1_63_1_1_44_1_24",
        "X_1_1_1_1_1_1_23_1_1_45_1_24",
        "X_1_1_1_1_1_1_64_1_1_46_1_24",
        "X_1_1_1_1_1_1_24_1_1_47_1_24",
        "X_1_1_1_1_1_1_65_1_1_48_1_24",
        "X_1_1_1_1_1_1_25_1_1_49_1_24",
        "X_1_1_1_1_1_1_66_1_1_50_1_24",
        "X_1_1_1_1_1_1_26_1_1_51_1_24",
        "X_1_1_1_1_1_1_67_1_1_52_1_24",
        "X_1_1_1_1_1_1_27_1_1_53_1_24",
        "X_1_1_1_1_1_1_68_1_1_54_1_24",
        "X_1_1_1_1_1_1_28_1_1_55_1_24",
        "X_1_1_1_1_1_1_69_1_1_56_1_24",
        "X_1_1_1_1_1_1_29_1_1_57_1_24",
        "X_1_1_1_1_1_1_70_1_1_58_1_24",
        "X_1_1_1_1_1_1_30_1_1_59_1_24",
        "X_1_1_1_1_1_1_71_1_1_60_1_24",
        "X_1_1_1_1_1_1_31_1_1_61_1_24",
        "X_1_1_1_1_1_1_72_1_1_62_1_24",
        "X_1_1_1_1_1_1_32_1_1_63_1_24",
        "X_1_1_1_1_1_1_73_1_1_64_1_24",
        "X_1_1_1_1_1_1_33_1_1_65_1_24",
        "X_1_1_1_1_1_1_74_1_1_66_1_24",
        "X_1_1_1_1_1_1_34_1_1_67_1_24",
        "X_1_1_1_1_1_1_75_1_1_68_1_24",
        "X_1_1_1_1_1_1_35_1_1_69_1_24",
        "X_1_1_1_1_1_1_76_1_1_70_1_24",
        "X_1_1_1_1_1_1_36_1_1_71_1_24",
        "X_1_1_1_1_1_1_77_1_1_72_1_24",
        "X_1_1_1_1_1_1_37_1_1_73_1_24",
        "X_1_1_1_1_1_1_78_1_1_74_1_24",
        "X_1_1_1_1_1_1_38_1_1_75_1_24",
        "X_1_1_1_1_1_1_79_1_1_76_1_24",
        "X_1_1_1_1_1_1_39_1_1_77_1_24",
        "X_1_1_1_1_1_1_80_1_1_78_1_24",
        "X_1_1_1_1_1_1_40_1_1_79_1_24",
        "X_1_1_1_1_1_1_81_1_1_80_1_24",
        "X_1_1_1_1_1_1_41_1_1_81_1_24"
],
      "CsaImage.ProtocolSliceNumber": [0, 1, 2, 3, 4, 5, 6, 7, 8, 9, 10, 11, 12, 13, 14, 15, 16, 17, 18, 19, 20, 21, 22, 23, 24, 25, 26, 27, 28, 29, 30, 31, 32, 33, 34, 35, 36, 37, 38, 39, 40, 41, 42, 43, 44, 45, 46, 47, 48, 49, 50, 51, 52, 53, 54, 55, 56, 57, 58, 59, 60, 61, 62, 63, 64, 65, 66, 67, 68, 69, 70, 71, 72, 73, 74, 75, 76, 77, 78, 79, 80],
      "CsaImage.RFSWDDataType": [
        "predicted",
        "predicted",
        "predicted",
        "predicted",
        "predicted",
        "predicted",
        "predicted",
        "predicted",
        "predicted",
        "predicted",
        "predicted",
        "predicted",
        "predicted",
        "predicted",
        "predicted",
        "predicted",
        "predicted",
        "predicted",
        "predicted",
        "predicted",
        "predicted",
        "predicted",
        "predicted",
        "measured",
        "predicted",
        "measured",
        "predicted",
        "predicted",
        "predicted",
        "predicted",
        "predicted",
        "predicted",
        "predicted",
        "predicted",
        "predicted",
        "predicted",
        "predicted",
        "predicted",
        "predicted",
        "predicted",
        "predicted",
        "predicted",
        "predicted",
        "predicted",
        "predicted",
        "predicted",
        "predicted",
        "predicted",
        "predicted",
        "predicted",
        "measured",
        "predicted",
        "measured",
        "predicted",
        "predicted",
        "predicted",
        "predicted",
        "predicted",
        "predicted",
        "predicted",
        "predicted",
        "predicted",
        "predicted",
        "predicted",
        "predicted",
        "predicted",
        "predicted",
        "predicted",
        "predicted",
        "predicted",
        "predicted",
        "predicted",
        "predicted",
        "predicted",
        "predicted",
        "predicted",
        "predicted",
        "measured",
        "predicted",
        "measured",
        "predicted"
],
      "CsaImage.SlicePosition_PCS": [
        [-120.98772283, -117.0729138, -88.84152237],
        [-121.049186, -117.30124579, -87.15804306],
        [-121.11064924, -117.52957783, -85.47457138],
        [-121.17211242, -117.75790987, -83.79109589],
        [-121.2335756, -117.9862418, -82.1076204],
        [-121.29503883, -118.21457384, -80.4241449],
        [-121.35650201, -118.44290576, -78.74067322],
        [-121.41796519, -118.67123781, -77.05719773],
        [-121.47942839, -118.89956985, -75.37372223],
        [-121.5408916, -119.12790189, -73.69024674],
        [-121.60235478, -119.35623393, -72.00677506],
        [-121.66381798, -119.58456598, -70.32329956],
        [-121.72528118, -119.81289802, -68.63982407],
        [-121.78674437, -120.04123006, -66.95634858],
        [-121.84820756, -120.26956187, -65.2728769],
        [-121.90967076, -120.49789391, -63.5894014],
        [-121.97113395, -120.72622595, -61.90592591],
        [-122.03259715, -120.95455799, -60.22245041],
        [-122.09406034, -121.18289004, -58.53897492],
        [-122.15552355, -121.41122208, -56.85550324],
        [-122.21698673, -121.63955412, -55.17202774],
        [-122.27844994, -121.86788616, -53.48855225],
        [-122.33991311, -122.09621821, -51.80507866],
        [-122.40137632, -122.32455025, -50.12160317],
        [-122.4628395, -122.55288229, -48.43812958],
        [-122.52430273, -122.78121434, -46.75465409],
        [-122.58576591, -123.00954638, -45.0711805],
        [-122.64722909, -123.23787794, -43.38770501],
        [-122.70869227, -123.46620999, -41.70423142],
        [-122.7701555, -123.69454203, -40.02075592],
        [-122.83161868, -123.92287407, -38.33728234],
        [-122.89308192, -124.15120611, -36.65380684],
        [-122.95454503, -124.37953816, -34.9703323],
        [-123.01600827, -124.60787068, -33.28685776],
        [-123.07747151, -124.83620224, -31.60338322],
        [-123.13893463, -125.06453381, -29.91990868],
        [-123.20039786, -125.29286633, -28.23643414],
        [-123.2618611, -125.52119789, -26.55295912],
        [-123.32332422, -125.74953041, -24.86948458],
        [-123.38478745, -125.97786198, -23.1860098],
        [-123.44625057, -126.2061945, -21.50253526],
        [-123.50771381, -126.43452606, -19.81906069],
        [-123.56917704, -126.66285858, -18.13558618],
        [-123.63064016, -126.89119015, -16.4521114],
        [-123.6921034, -127.11952267, -14.76863686],
        [-123.75356664, -127.34785424, -13.08516232],
        [-123.81502975, -127.57618675, -11.40168778],
        [-123.87649299, -127.80451832, -9.71821324],
        [-123.93795611, -128.03285084, -8.0347387],
        [-123.99941946, -128.26118241, -6.35126416],
        [-124.06088258, -128.48951493, -4.66778962],
        [-124.1223457, -128.71784649, -2.98431412],
        [-124.18380905, -128.94617806, -1.30084053],
        [-124.24527217, -129.17451058, 0.38263496],
        [-124.30673529, -129.40284214, 2.06610855],
        [-124.36819865, -129.63117466, 3.74958404],
        [-124.42966176, -129.85950623, 5.43305763],
        [-124.49112488, -130.08783875, 7.11653312],
        [-124.55258824, -130.31617031, 8.80000862],
        [-124.61405135, -130.54450283, 10.4834822],
        [-124.67551447, -130.7728344, 12.1669577],
        [-124.73697783, -131.00116692, 13.85043319],
        [-124.79844095, -131.22949848, 15.53390487],
        [-124.85990406, -131.457831, 17.21738037],
        [-124.92136742, -131.68616257, 18.90085586],
        [-124.98283054, -131.91449509, 20.58433136],
        [-125.04429365, -132.14282666, 22.26780304],
        [-125.10575677, -132.37115822, 23.95127853],
        [-125.16722013, -132.59949074, 25.63475402],
        [-125.22868325, -132.82782326, 27.31822952],
        [-125.29014636, -133.05615387, 29.0017012],
        [-125.35160972, -133.28448639, 30.68517669],
        [-125.41307284, -133.51281891, 32.36865219],
        [-125.47453595, -133.74115143, 34.05212768],
        [-125.53599931, -133.96948204, 35.73560318],
        [-125.59746243, -134.19781456, 37.41907486],
        [-125.65892555, -134.42614708, 39.10255035],
        [-125.7203889, -134.6544796, 40.78602584],
        [-125.78185202, -134.88281021, 42.46950134],
        [-125.84331514, -135.11114273, 44.15297683],
        [-125.90477825, -135.33947525, 45.83644851]
],
      "CsaImage.TimeAfterStart": [16.4, 18.515, 16.5525, 18.6675, 16.7025, 18.8175, 16.855, 18.97, 17.005, 19.12, 17.155, 19.2725, 17.3075, 19.4225, 17.4575, 19.575, 17.61, 19.725, 17.76, 19.875, 17.9125, 20.0275, 18.0625, 20.1775, 18.215, 20.33, 18.365, 16.4, 18.515, 16.5525, 18.6675, 16.7025, 18.8175, 16.855, 18.97, 17.005, 19.12, 17.155, 19.2725, 17.3075, 19.4225, 17.4575, 19.575, 17.61, 19.725, 17.76, 19.875, 17.9125, 20.0275, 18.0625, 20.1775, 18.215, 20.33, 18.365, 16.4, 18.515, 16.5525, 18.6675, 16.7025, 18.8175, 16.855, 18.97, 17.005, 19.12, 17.155, 19.2725, 17.3075, 19.4225, 17.4575, 19.575, 17.61, 19.725, 17.76, 19.875, 17.9125, 20.0275, 18.0625, 20.1775, 18.215, 20.33, 18.365],
      "ImagePositionPatient": [
        [-120.98772282694, -117.07291380418, -88.841522372895],
        [-121.04918600414, -117.30124578727, -87.158043063813],
        [-121.11064924095, -117.52957782997, -85.474571384125],
        [-121.17211241816, -117.75790987266, -83.791095889741],
        [-121.23357559536, -117.98624179615, -82.107620395356],
        [-121.29503883217, -118.21457383884, -80.424144900971],
        [-121.35650200937, -118.44290576232, -78.740673221284],
        [-121.41796518658, -118.67123780502, -77.057197726899],
        [-121.47942839358, -118.89956984771, -75.373722232514],
        [-121.54089160059, -119.12790189041, -73.690246738129],
        [-121.60235477779, -119.3562339331, -72.006775058442],
        [-121.6638179848, -119.5845659758, -70.323299564057],
        [-121.72528117691, -119.81289801849, -68.639824069672],
        [-121.78674436901, -120.04123006118, -66.956348575288],
        [-121.84820756298, -120.26956186546, -65.2728768956],
        [-121.90967075695, -120.49789390815, -63.589401401215],
        [-121.97113395278, -120.72622595085, -61.905925906831],
        [-122.03259715233, -120.95455799354, -60.222450412446],
        [-122.09406034444, -121.18289003624, -58.538974918061],
        [-122.15552355145, -121.41122207893, -56.855503238374],
        [-122.21698672865, -121.63955412162, -55.172027743989],
        [-122.27844993566, -121.86788616432, -53.488552249604],
        [-122.33991311286, -122.09621820701, -51.805078662568],
        [-122.40137631987, -122.32455024971, -50.121603168183],
        [-122.46283949707, -122.5528822924, -48.438129581147],
        [-122.52430273388, -122.78121433509, -46.754654086762],
        [-122.58576591108, -123.00954637779, -45.071180499726],
        [-122.64722908829, -123.23787794364, -43.387705005341],
        [-122.70869226549, -123.46620998634, -41.704231418305],
        [-122.7701555023, -123.69454202903, -40.02075592392],
        [-122.8316186795, -123.92287407173, -38.337282336884],
        [-122.89308191631, -124.15120611442, -36.653806842499],
        [-122.95454503391, -124.37953815712, -34.970332301789],
        [-123.01600827072, -124.60787067665, -33.286857761079],
        [-123.07747150753, -124.8362022425, -31.603383220368],
        [-123.13893462513, -125.06453380836, -29.919908679658],
        [-123.20039786194, -125.29286632789, -28.236434138947],
        [-123.26186109875, -125.52119789375, -26.5529591214],
        [-123.32332421635, -125.74953041328, -24.869484580689],
        [-123.38478745316, -125.97786197914, -23.18600980156],
        [-123.44625057076, -126.20619449867, -21.50253526085],
        [-123.50771380756, -126.43452606452, -19.819060690337],
        [-123.56917704437, -126.66285858406, -18.135586179429],
        [-123.63064016197, -126.89119014991, -16.4521114003],
        [-123.69210339878, -127.11952266944, -14.768636859589],
        [-123.75356663559, -127.3478542353, -13.085162318879],
        [-123.81502975319, -127.57618675483, -11.401687778168],
        [-123.87649299, -127.80451832069, -9.718213237458],
        [-123.9379561076, -128.03285084022, -8.0347386967475],
        [-123.99941946362, -128.26118240608, -6.3512641560371],
        [-124.06088258122, -128.48951492561, -4.6677896153266],
        [-124.12234569881, -128.71784649147, -2.9843141209419],
        [-124.18380905483, -128.94617805732, -1.3008405339058],
        [-124.24527217243, -129.17451057685, 0.38263496047902],
        [-124.30673529003, -129.40284214271, 2.0661085475151],
        [-124.36819864605, -129.63117466224, 3.7495840418999],
        [-124.42966176365, -129.8595062281, 5.433057628936],
        [-124.49112488125, -130.08783874763, 7.1165331233208],
        [-124.55258823727, -130.31617031349, 8.8000086177056],
        [-124.61405135487, -130.54450283302, 10.483482204742],
        [-124.67551447247, -130.77283439888, 12.166957699126],
        [-124.73697782848, -131.00116691841, 13.850433193511],
        [-124.79844094608, -131.22949848426, 15.533904873199],
        [-124.85990406368, -131.45783100379, 17.217380367584],
        [-124.9213674197, -131.68616256965, 18.900855861968],
        [-124.9828305373, -131.91449508918, 20.584331356353],
        [-125.0442936549, -132.14282665504, 22.267803036041],
        [-125.1057567725, -132.3711582209, 23.951278530425],
        [-125.16722012852, -132.59949074043, 25.63475402481],
        [-125.22868324612, -132.82782325996, 27.318229519195],
        [-125.29014636372, -133.05615387214, 29.001701198882],
        [-125.35160971973, -133.28448639167, 30.685176693267],
        [-125.41307283733, -133.5128189112, 32.368652187652],
        [-125.47453595493, -133.74115143074, 34.052127682037],
        [-125.53599931095, -133.96948204292, 35.735603176421],
        [-125.59746242855, -134.19781456245, 37.419074856109],
        [-125.65892554615, -134.42614708198, 39.102550350494],
        [-125.72038890217, -134.65447960151, 40.786025844878],
        [-125.78185201977, -134.88281021369, 42.469501339263],
        [-125.84331513737, -135.11114273323, 44.152976833648],
        [-125.90477825497, -135.33947525276, 45.836448513335]
],
      "InstanceCreationTime": ["090050.040000", "090050.144000", "090050.047000", "090050.151000", "090050.053000", "090050.158000", "090050.059000", "090050.164000", "090050.065000", "090050.171000", "090050.071000", "090050.178000", "090050.084000", "090050.184000", "090050.090000", "090050.190000", "090050.096000", "090050.255000", "090050.102000", "090050.261000", "090050.108000", "090050.268000", "090050.114000", "090050.290000", "090050.120000", "090050.303000", "090050.126000", "090050.043000", "090050.147000", "090050.049000", "090050.153000", "090050.055000", "090050.160000", "090050.061000", "090050.166000", "090050.067000", "090050.174000", "090050.073000", "090050.180000", "090050.086000", "090050.186000", "090050.092000", "090050.251000", "090050.098000", "090050.257000", "090050.104000", "090050.264000", "090050.110000", "090050.286000", "090050.116000", "090050.292000", "090050.122000", "090050.305000", "090050.129000", "090050.045000", "090050.149000", "090050.051000", "090050.155000", "090050.057000", "090050.162000", "090050.063000", "090050.169000", "090050.069000", "090050.176000", "090050.081000", "090050.182000", "090050.088000", "090050.188000", "090050.094000", "090050.253000", "090050.100000", "090050.259000", "090050.106000", "090050.266000", "090050.112000", "090050.288000", "090050.118000", "090050.294000", "090050.124000", "090050.307000", "090050.142000"],
      "InstanceNumber": [1, 2, 3, 4, 5, 6, 7, 8, 9, 10, 11, 12, 13, 14, 15, 16, 17, 18, 19, 20, 21, 22, 23, 24, 25, 26, 27, 28, 29, 30, 31, 32, 33, 34, 35, 36, 37, 38, 39, 40, 41, 42, 43, 44, 45, 46, 47, 48, 49, 50, 51, 52, 53, 54, 55, 56, 57, 58, 59, 60, 61, 62, 63, 64, 65, 66, 67, 68, 69, 70, 71, 72, 73, 74, 75, 76, 77, 78, 79, 80, 81],
      "LargestImagePixelValue": [34292, 27487, 30134, 28718, 28765, 37525, 39079, 38568, 31553, 32470, 34059, 34196, 28439, 27149, 28463, 32415, 29649, 27974, 26857, 26178, 28947, 30675, 33079, 37370, 44878, 50314, 62393, 51956, 59722, 65535, 65535, 65535, 65535, 65535, 65535, 49357, 53483, 47417, 56034, 48209, 34249, 46671, 45945, 36698, 35066, 35198, 41904, 44953, 45350, 43951, 48498, 35861, 34541, 40095, 33223, 35572, 36151, 30055, 35648, 31526, 30789, 30047, 31188, 27558, 31216, 31658, 32276, 39599, 35344, 41860, 39329, 34504, 40703, 44413, 42509, 37356, 25133, 11882, 7516, 7290, 7792],
      "SliceLocation": [-67.879212582033, -66.179207934757, -64.479210832551, -62.779209954885, -61.079209093229, -59.379208213408, -57.679211129368, -55.979210251702, -54.279209372958, -52.579208494214, -50.879211394162, -49.179210515418, -47.479209637213, -45.779208759008, -44.079211690373, -42.379210812101, -40.679209933761, -38.979209055286, -37.279208177081, -35.579211075952, -33.879210198285, -32.179209319541, -30.479210330683, -28.779209451939, -27.07921046308, -25.379209583258, -23.679210594399, -21.979209780778, -20.279210791919, -18.579209912098, -16.879210923239, -15.179210043418, -13.47921011231, -11.779210112847, -10.079210241474, -8.3792103744122, -6.6792103749491, -4.9792100313749, -3.2792100362218, -1.5792099287486, 0.12079006640451, 1.8207899672894, 3.5207899372399, 5.2207900404031, 6.9207900398662, 8.6207899112385, 10.320789906392, 12.020789777764, 13.720789772917, 15.420789648599, 17.120789643752, 18.820790455218, 20.520789386497, 22.220790326054, 23.920789248712, 25.620790196889, 27.320789119548, 29.020790059105, 30.720790879191, 32.42078992994, 34.120790741406, 35.820791689583, 37.520788723434, 39.220789662991, 40.920790483077, 42.620791422634, 44.320788456484, 46.020789267951, 47.720790216127, 49.420791155684, 51.120788061444, 52.820789009621, 54.520789949178, 56.220790888735, 57.92079158073, 59.620788742672, 61.320789682229, 63.020790630406, 64.720791313781, 66.420792253338, 68.12078941528],
