{
  "AcquisitionMatrixPE": 82,
  "AcquisitionNumber": 1,
  "AcquisitionTime": "16:07:25.070000",
  "BandwidthPerPixelPhaseEncode": 24.888,
  "BaseResolution": 82,
  "BodyPartExamined": "BRAIN",
  "ConsistencyInfo": "N4_VE11C_LATEST_20160120",
  "ConversionSoftware": "dcm2niix",
  "ConversionSoftwareVersion": "v1.0.20201102",
  "DerivedVendorReportedEchoSpacing": 0.00049,
  "DeviceSerialNumber": "66112",
  "DwellTime": 2e-06,
  "EchoTime": 0.0272,
  "EchoTrainLength": 82,
  "EffectiveEchoSpacing": 0.00049,
  "FlipAngle": 44,
  "ImageComments": "Unaliased MB8/PE3",
  "ImageOrientationPatientDICOM": [0.998801, 0.00851896, 0.0482091, -0.0111572, 0.998439, 0.0547229],
  "ImageType": [
    "ORIGINAL",
    "PRIMARY",
    "M",
    "MB",
    "ND",
    "NORM",
    "MOSAIC"
],
  "ImagingFrequency": 123.252,
  "InPlanePhaseEncodingDirectionDICOM": "COL",
  "InstitutionAddress": "Maynard 3,Hanover,NH,US,03755",
  "InstitutionName": "Dartmouth College - PBS",
  "InstitutionalDepartmentName": "Department",
  "MRAcquisitionType": "2D",
  "MagneticFieldStrength": 3,
  "Manufacturer": "Siemens",
  "ManufacturersModelName": "Prisma",
  "Modality": "MR",
  "MultibandAccelerationFactor": 8,
  "PartialFourier": 1,
  "PatientPosition": "HFS",
  "PercentPhaseFOV": 100,
  "PercentSampling": 100,
  "PhaseEncodingDirection": "j-",
  "PhaseEncodingSteps": 82,
  "PhaseResolution": 1,
  "PixelBandwidth": 3050,
  "ProcedureStepDescription": "Wager_Wager^1076_spacetop",
  "ProtocolName": "func_run-05_task-social_acq-ap-mb8",
  "PulseSequenceDetails": "%CustomerSeq%\\cmrr_mbep2d_bold",
  "ReceiveCoilActiveElements": "HEA;HEP",
  "ReceiveCoilName": "Head_32",
  "ReconMatrixPE": 82,
  "RepetitionTime": 0.46,
  "SAR": 0.0730798,
  "ScanOptions": "FS",
  "ScanningSequence": "EP",
  "SequenceName": "epfid2d1_82",
  "SequenceVariant": "SK\\SS",
  "SeriesDescription": "func_run-05_task-social_acq-ap-mb8",
  "SeriesNumber": 20,
  "ShimSetting": [4176, -7726, -7292, 683, -59, -33, 82, 84],
  "SliceThickness": 2.7,
  "SliceTiming": [0, 0.2525, 0.0625, 0.315, 0.1275, 0.3775, 0.19, 0, 0.2525, 0.0625, 0.315, 0.1275, 0.3775, 0.19, 0, 0.2525, 0.0625, 0.315, 0.1275, 0.3775, 0.19, 0, 0.2525, 0.0625, 0.315, 0.1275, 0.3775, 0.19, 0, 0.2525, 0.0625, 0.315, 0.1275, 0.3775, 0.19, 0, 0.2525, 0.0625, 0.315, 0.1275, 0.3775, 0.19, 0, 0.2525, 0.0625, 0.315, 0.1275, 0.3775, 0.19, 0, 0.2525, 0.0625, 0.315, 0.1275, 0.3775, 0.19],
  "SoftwareVersions": "syngo MR E11",
  "SpacingBetweenSlices": 2.7,
  "StationName": "AWP66112",
  "TaskName": "social",
  "TotalReadoutTime": 0.03969,
  "TxRefAmp": 229.239,
  "WipMemBlock": "505cc9d0-b42f-4adf-97ac-f388b421211e||Sequence: R016 ve11c/master r/e634e98; Dec 19 2017 11:00:25 by eja",
  "dcmmeta_affine": [
    [-2.6797099113464355, -0.029933903366327286, 0.12870275974273682, 104.8105239868164],
    [-0.022855738177895546, 2.678739547729492, 0.14902696013450623, -83.29873657226562],
    [0.12934152781963348, -0.14681755006313324, 2.692810297012329, -54.4382438659668],
    [0.0, 0.0, 0.0, 1.0]
],
  "dcmmeta_reorient_transform": [
    [0.0, -1.0, 0.0, 81.0],
    [1.0, 0.0, 0.0, 0.0],
    [0.0, 0.0, 1.0, 0.0],
    [0.0, 0.0, 0.0, 1.0]
],
  "dcmmeta_shape": [82, 82, 56, 872],
  "dcmmeta_slice_dim": 2,
  "dcmmeta_version": 0.6,
  "global": {
    "const": {
      "AccessionNumber": "A003484",
      "AcquisitionMatrix": [82, 0, 0, 82],
      "AngioFlag": "N",
      "BitsAllocated": 16,
      "BitsStored": 16,
      "BodyPartExamined": "BRAIN",
      "Columns": 656,
      "EchoNumbers": 1,
      "EchoTime": 27.2,
      "EchoTrainLength": 82,
      "FlipAngle": 44.0,
      "HighBit": 15,
      "ImageOrientationPatient": [0.99880093560784, 0.00851895696098, 0.04820911118457, -0.0111571817848, 0.99843924243182, 0.05472290623484],
      "ImagePositionPatient": [-862.87158357603, -909.0369977314, -145.58811968839],
      "ImageType": [
        "ORIGINAL",
        "PRIMARY",
        "M",
        "MB",
        "ND",
        "NORM",
        "MOSAIC"
],
      "ImagedNucleus": "1H",
      "ImagingFrequency": 123.252159,
      "InPlanePhaseEncodingDirection": "COL",
      "MRAcquisitionType": "2D",
      "MagneticFieldStrength": 3.0,
      "Manufacturer": "SIEMENS",
      "ManufacturerModelName": "Prisma",
      "Modality": "MR",
      "NumberOfAverages": 1.0,
      "NumberOfPhaseEncodingSteps": 82,
      "PercentPhaseFieldOfView": 100.0,
      "PercentSampling": 100.0,
      "PerformedProcedureStepStartTime": "144300.304000",
      "PhotometricInterpretation": "MONOCHROME2",
      "PixelBandwidth": 3050.0,
      "PixelRepresentation": 0,
      "PixelSpacing": [2.6829268932343, 2.6829268932343],
      "ProtocolName": "func_run-05_task-social_acq-ap-mb8",
      "RepetitionTime": 460.0,
      "Rows": 656,
      "SAR": 0.07307977544204,
      "SamplesPerPixel": 1,
      "ScanOptions": "FS",
      "ScanningSequence": "EP",
      "SequenceName": "epfid2d1_82",
      "SequenceVariant": [
        "SK",
        "SS"
],
      "SeriesDescription": "func_run-05_task-social_acq-ap-mb8",
      "SeriesNumber": 20,
      "SeriesTime": "160733.475000",
      "SliceLocation": -53.894891039897,
      "SliceThickness": 2.7000000476837,
      "SmallestImagePixelValue": 0,
      "SoftwareVersions": "syngo MR E11",
      "SpacingBetweenSlices": 2.7000000369307,
      "SpecificCharacterSet": "ISO_IR 100",
      "StudyID": "3",
      "StudyTime": "144300.250000",
      "TransmitCoilName": "Body",
      "VariableFlipAngleFlag": "N",
      "WindowCenterWidthExplanation": "Algo1",
      "dBdt": 0.0},
    "slices": {}
  },
  "time": {
    "samples": {
      "AcquisitionNumber": [1, 2, 3, 4, 5, 6, 7, 8, 9, 10, 11, 12, 13, 14, 15, 16, 17, 18, 19, 20, 21, 22, 23, 24, 25, 26, 27, 28, 29, 30, 31, 32, 33, 34, 35, 36, 37, 38, 39, 40, 41, 42, 43, 44, 45, 46, 47, 48, 49, 50, 51, 52, 53, 54, 55, 56, 57, 58, 59, 60, 61, 62, 63, 64, 65, 66, 67, 68, 69, 70, 71, 72, 73, 74, 75, 76, 77, 78, 79, 80, 81, 82, 83, 84, 85, 86, 87, 88, 89, 90, 91, 92, 93, 94, 95, 96, 97, 98, 99, 100, 101, 102, 103, 104, 105, 106, 107, 108, 109, 110, 111, 112, 113, 114, 115, 116, 117, 118, 119, 120, 121, 122, 123, 124, 125, 126, 127, 128, 129, 130, 131, 132, 133, 134, 135, 136, 137, 138, 139, 140, 141, 142, 143, 144, 145, 146, 147, 148, 149, 150, 151, 152, 153, 154, 155, 156, 157, 158, 159, 160, 161, 162, 163, 164, 165, 166, 167, 168, 169, 170, 171, 172, 173, 174, 175, 176, 177, 178, 179, 180, 181, 182, 183, 184, 185, 186, 187, 188, 189, 190, 191, 192, 193, 194, 195, 196, 197, 198, 199, 200, 201, 202, 203, 204, 205, 206, 207, 208, 209, 210, 211, 212, 213, 214, 215, 216, 217, 218, 219, 220, 221, 222, 223, 224, 225, 226, 227, 228, 229, 230, 231, 232, 233, 234, 235, 236, 237, 238, 239, 240, 241, 242, 243, 244, 245, 246, 247, 248, 249, 250, 251, 252, 253, 254, 255, 256, 257, 258, 259, 260, 261, 262, 263, 264, 265, 266, 267, 268, 269, 270, 271, 272, 273, 274, 275, 276, 277, 278, 279, 280, 281, 282, 283, 284, 285, 286, 287, 288, 289, 290, 291, 292, 293, 294, 295, 296, 297, 298, 299, 300, 301, 302, 303, 304, 305, 306, 307, 308, 309, 310, 311, 312, 313, 314, 315, 316, 317, 318, 319, 320, 321, 322, 323, 324, 325, 326, 327, 328, 329, 330, 331, 332, 333, 334, 335, 336, 337, 338, 339, 340, 341, 342, 343, 344, 345, 346, 347, 348, 349, 350, 351, 352, 353, 354, 355, 356, 357, 358, 359, 360, 361, 362, 363, 364, 365, 366, 367, 368, 369, 370, 371, 372, 373, 374, 375, 376, 377, 378, 379, 380, 381, 382, 383, 384, 385, 386, 387, 388, 389, 390, 391, 392, 393, 394, 395, 396, 397, 398, 399, 400, 401, 402, 403, 404, 405, 406, 407, 408, 409, 410, 411, 412, 413, 414, 415, 416, 417, 418, 419, 420, 421, 422, 423, 424, 425, 426, 427, 428, 429, 430, 431, 432, 433, 434, 435, 436, 437, 438, 439, 440, 441, 442, 443, 444, 445, 446, 447, 448, 449, 450, 451, 452, 453, 454, 455, 456, 457, 458, 459, 460, 461, 462, 463, 464, 465, 466, 467, 468, 469, 470, 471, 472, 473, 474, 475, 476, 477, 478, 479, 480, 481, 482, 483, 484, 485, 486, 487, 488, 489, 490, 491, 492, 493, 494, 495, 496, 497, 498, 499, 500, 501, 502, 503, 504, 505, 506, 507, 508, 509, 510, 511, 512, 513, 514, 515, 516, 517, 518, 519, 520, 521, 522, 523, 524, 525, 526, 527, 528, 529, 530, 531, 532, 533, 534, 535, 536, 537, 538, 539, 540, 541, 542, 543, 544, 545, 546, 547, 548, 549, 550, 551, 552, 553, 554, 555, 556, 557, 558, 559, 560, 561, 562, 563, 564, 565, 566, 567, 568, 569, 570, 571, 572, 573, 574, 575, 576, 577, 578, 579, 580, 581, 582, 583, 584, 585, 586, 587, 588, 589, 590, 591, 592, 593, 594, 595, 596, 597, 598, 599, 600, 601, 602, 603, 604, 605, 606, 607, 608, 609, 610, 611, 612, 613, 614, 615, 616, 617, 618, 619, 620, 621, 622, 623, 624, 625, 626, 627, 628, 629, 630, 631, 632, 633, 634, 635, 636, 637, 638, 639, 640, 641, 642, 643, 644, 645, 646, 647, 648, 649, 650, 651, 652, 653, 654, 655, 656, 657, 658, 659, 660, 661, 662, 663, 664, 665, 666, 667, 668, 669, 670, 671, 672, 673, 674, 675, 676, 677, 678, 679, 680, 681, 682, 683, 684, 685, 686, 687, 688, 689, 690, 691, 692, 693, 694, 695, 696, 697, 698, 699, 700, 701, 702, 703, 704, 705, 706, 707, 708, 709, 710, 711, 712, 713, 714, 715, 716, 717, 718, 719, 720, 721, 722, 723, 724, 725, 726, 727, 728, 729, 730, 731, 732, 733, 734, 735, 736, 737, 738, 739, 740, 741, 742, 743, 744, 745, 746, 747, 748, 749, 750, 751, 752, 753, 754, 755, 756, 757, 758, 759, 760, 761, 762, 763, 764, 765, 766, 767, 768, 769, 770, 771, 772, 773, 774, 775, 776, 777, 778, 779, 780, 781, 782, 783, 784, 785, 786, 787, 788, 789, 790, 791, 792, 793, 794, 795, 796, 797, 798, 799, 800, 801, 802, 803, 804, 805, 806, 807, 808, 809, 810, 811, 812, 813, 814, 815, 816, 817, 818, 819, 820, 821, 822, 823, 824, 825, 826, 827, 828, 829, 830, 831, 832, 833, 834, 835, 836, 837, 838, 839, 840, 841, 842, 843, 844, 845, 846, 847, 848, 849, 850, 851, 852, 853, 854, 855, 856, 857, 858, 859, 860, 861, 862, 863, 864, 865, 866, 867, 868, 869, 870, 871, 872],
      "AcquisitionTime": ["160725.070000", "160725.530000", "160725.990000", "160726.450000", "160726.910000", "160727.370000", "160727.830000", "160728.290000", "160728.750000", "160729.210000", "160729.670000", "160730.130000", "160730.590000", "160731.050000", "160731.510000", "160731.970000", "160732.430000", "160732.890000", "160733.350000", "160733.810000", "160734.270000", "160734.730000", "160735.190000", "160735.650000", "160736.110000", "160736.570000", "160737.030000", "160737.490000", "160737.950000", "160738.410000", "160738.870000", "160739.330000", "160739.790000", "160740.250000", "160740.710000", "160741.170000", "160741.630000", "160742.090000", "160742.550000", "160743.010000", "160743.470000", "160743.930000", "160744.390000", "160744.850000", "160745.310000", "160745.770000", "160746.230000", "160746.690000", "160747.150000", "160747.610000", "160748.070000", "160748.530000", "160748.990000", "160749.450000", "160749.910000", "160750.370000", "160750.830000", "160751.290000", "160751.750000", "160752.210000", "160752.670000", "160753.130000", "160753.590000", "160754.050000", "160754.510000", "160754.970000", "160755.430000", "160755.890000", "160756.350000", "160756.810000", "160757.270000", "160757.730000", "160758.190000", "160758.650000", "160759.110000", "160759.570000", "160800.030000", "160800.490000", "160800.950000", "160801.410000", "160801.870000", "160802.330000", "160802.790000", "160803.250000", "160803.710000", "160804.170000", "160804.630000", "160805.090000", "160805.550000", "160806.010000", "160806.470000", "160806.930000", "160807.390000", "160807.850000", "160808.310000", "160808.770000", "160809.230000", "160809.690000", "160810.150000", "160810.610000", "160811.070000", "160811.530000", "160811.990000", "160812.450000", "160812.910000", "160813.370000", "160813.830000", "160814.290000", "160814.750000", "160815.210000", "160815.670000", "160816.130000", "160816.590000", "160817.050000", "160817.510000", "160817.970000", "160818.430000", "160818.890000", "160819.350000", "160819.810000", "160820.270000", "160820.730000", "160821.190000", "160821.650000", "160822.110000", "160822.570000", "160823.030000", "160823.490000", "160823.950000", "160824.410000", "160824.870000", "160825.330000", "160825.790000", "160826.250000", "160826.710000", "160827.170000", "160827.630000", "160828.090000", "160828.550000", "160829.010000", "160829.470000", "160829.930000", "160830.390000", "160830.850000", "160831.310000", "160831.770000", "160832.230000", "160832.690000", "160833.150000", "160833.610000", "160834.070000", "160834.530000", "160834.990000", "160835.450000", "160835.910000", "160836.370000", "160836.830000", "160837.290000", "160837.750000", "160838.210000", "160838.670000", "160839.130000", "160839.590000", "160840.050000", "160840.510000", "160840.970000", "160841.430000", "160841.890000", "160842.350000", "160842.810000", "160843.270000", "160843.730000", "160844.190000", "160844.650000", "160845.110000", "160845.570000", "160846.030000", "160846.490000", "160846.950000", "160847.410000", "160847.870000", "160848.330000", "160848.790000", "160849.250000", "160849.710000", "160850.170000", "160850.630000", "160851.090000", "160851.550000", "160852.010000", "160852.470000", "160852.930000", "160853.390000", "160853.850000", "160854.310000", "160854.770000", "160855.230000", "160855.690000", "160856.150000", "160856.610000", "160857.070000", "160857.530000", "160857.990000", "160858.450000", "160858.910000", "160859.370000", "160859.830000", "160900.290000", "160900.750000", "160901.210000", "160901.670000", "160902.130000", "160902.590000", "160903.050000", "160903.510000", "160903.970000", "160904.430000", "160904.890000", "160905.350000", "160905.810000", "160906.270000", "160906.730000", "160907.190000", "160907.650000", "160908.110000", "160908.570000", "160909.030000", "160909.490000", "160909.950000", "160910.410000", "160910.870000", "160911.330000", "160911.790000", "160912.250000", "160912.710000", "160913.170000", "160913.630000", "160914.090000", "160914.550000", "160915.010000", "160915.470000", "160915.930000", "160916.390000", "160916.850000", "160917.310000", "160917.770000", "160918.230000", "160918.690000", "160919.150000", "160919.610000", "160920.070000", "160920.530000", "160920.990000", "160921.450000", "160921.910000", "160922.370000", "160922.830000", "160923.290000", "160923.750000", "160924.210000", "160924.670000", "160925.130000", "160925.590000", "160926.050000", "160926.510000", "160926.970000", "160927.430000", "160927.890000", "160928.350000", "160928.810000", "160929.270000", "160929.730000", "160930.190000", "160930.650000", "160931.110000", "160931.570000", "160932.030000", "160932.490000", "160932.950000", "160933.410000", "160933.870000", "160934.330000", "160934.790000", "160935.250000", "160935.710000", "160936.170000", "160936.630000", "160937.090000", "160937.550000", "160938.010000", "160938.470000", "160938.930000", "160939.390000", "160939.850000", "160940.310000", "160940.770000", "160941.230000", "160941.690000", "160942.150000", "160942.610000", "160943.070000", "160943.530000", "160943.990000", "160944.450000", "160944.910000", "160945.370000", "160945.830000", "160946.290000", "160946.750000", "160947.210000", "160947.670000", "160948.130000", "160948.590000", "160949.050000", "160949.510000", "160949.970000", "160950.430000", "160950.890000", "160951.350000", "160951.810000", "160952.270000", "160952.730000", "160953.190000", "160953.650000", "160954.110000", "160954.570000", "160955.030000", "160955.490000", "160955.950000", "160956.410000", "160956.870000", "160957.330000", "160957.790000", "160958.250000", "160958.710000", "160959.170000", "160959.630000", "161000.090000", "161000.550000", "161001.010000", "161001.470000", "161001.930000", "161002.390000", "161002.850000", "161003.310000", "161003.770000", "161004.230000", "161004.690000", "161005.150000", "161005.610000", "161006.070000", "161006.530000", "161006.990000", "161007.450000", "161007.910000", "161008.370000", "161008.830000", "161009.290000", "161009.750000", "161010.210000", "161010.670000", "161011.130000", "161011.590000", "161012.050000", "161012.510000", "161012.970000", "161013.430000", "161013.890000", "161014.350000", "161014.810000", "161015.270000", "161015.730000", "161016.190000", "161016.650000", "161017.110000", "161017.570000", "161018.030000", "161018.490000", "161018.950000", "161019.410000", "161019.870000", "161020.330000", "161020.790000", "161021.250000", "161021.710000", "161022.170000", "161022.630000", "161023.090000", "161023.550000", "161024.010000", "161024.470000", "161024.930000", "161025.390000", "161025.850000", "161026.310000", "161026.770000", "161027.230000", "161027.690000", "161028.150000", "161028.610000", "161029.070000", "161029.530000", "161029.990000", "161030.450000", "161030.910000", "161031.370000", "161031.830000", "161032.290000", "161032.750000", "161033.210000", "161033.670000", "161034.130000", "161034.590000", "161035.050000", "161035.510000", "161035.970000", "161036.430000", "161036.890000", "161037.350000", "161037.810000", "161038.270000", "161038.730000", "161039.190000", "161039.650000", "161040.110000", "161040.570000", "161041.030000", "161041.490000", "161041.950000", "161042.410000", "161042.870000", "161043.330000", "161043.790000", "161044.250000", "161044.710000", "161045.170000", "161045.630000", "161046.090000", "161046.550000", "161047.010000", "161047.470000", "161047.930000", "161048.390000", "161048.850000", "161049.310000", "161049.770000", "161050.230000", "161050.690000", "161051.150000", "161051.610000", "161052.070000", "161052.530000", "161052.990000", "161053.450000", "161053.910000", "161054.370000", "161054.830000", "161055.290000", "161055.750000", "161056.210000", "161056.670000", "161057.130000", "161057.590000", "161058.050000", "161058.510000", "161058.970000", "161059.430000", "161059.890000", "161100.350000", "161100.810000", "161101.270000", "161101.730000", "161102.190000", "161102.650000", "161103.110000", "161103.570000", "161104.030000", "161104.490000", "161104.950000", "161105.410000", "161105.870000", "161106.330000", "161106.790000", "161107.250000", "161107.710000", "161108.170000", "161108.630000", "161109.090000", "161109.550000", "161110.010000", "161110.470000", "161110.930000", "161111.390000", "161111.850000", "161112.310000", "161112.770000", "161113.230000", "161113.690000", "161114.150000", "161114.610000", "161115.070000", "161115.530000", "161115.990000", "161116.450000", "161116.910000", "161117.370000", "161117.830000", "161118.290000", "161118.750000", "161119.210000", "161119.670000", "161120.130000", "161120.590000", "161121.050000", "161121.510000", "161121.970000", "161122.430000", "161122.890000", "161123.350000", "161123.810000", "161124.270000", "161124.730000", "161125.190000", "161125.650000", "161126.110000", "161126.570000", "161127.030000", "161127.490000", "161127.950000", "161128.410000", "161128.870000", "161129.330000", "161129.790000", "161130.250000", "161130.710000", "161131.170000", "161131.630000", "161132.090000", "161132.550000", "161133.010000", "161133.470000", "161133.930000", "161134.390000", "161134.850000", "161135.310000", "161135.770000", "161136.230000", "161136.690000", "161137.150000", "161137.610000", "161138.070000", "161138.530000", "161138.990000", "161139.450000", "161139.910000", "161140.370000", "161140.830000", "161141.290000", "161141.750000", "161142.210000", "161142.670000", "161143.130000", "161143.590000", "161144.050000", "161144.510000", "161144.970000", "161145.430000", "161145.890000", "161146.350000", "161146.810000", "161147.270000", "161147.730000", "161148.190000", "161148.650000", "161149.110000", "161149.570000", "161150.030000", "161150.490000", "161150.950000", "161151.410000", "161151.870000", "161152.330000", "161152.790000", "161153.250000", "161153.710000", "161154.170000", "161154.630000", "161155.090000", "161155.550000", "161156.010000", "161156.470000", "161156.930000", "161157.390000", "161157.850000", "161158.310000", "161158.770000", "161159.230000", "161159.690000", "161200.150000", "161200.610000", "161201.070000", "161201.530000", "161201.990000", "161202.450000", "161202.910000", "161203.370000", "161203.830000", "161204.290000", "161204.750000", "161205.210000", "161205.670000", "161206.130000", "161206.590000", "161207.050000", "161207.510000", "161207.970000", "161208.430000", "161208.890000", "161209.350000", "161209.810000", "161210.270000", "161210.730000", "161211.190000", "161211.650000", "161212.110000", "161212.570000", "161213.030000", "161213.490000", "161213.950000", "161214.410000", "161214.870000", "161215.330000", "161215.790000", "161216.250000", "161216.710000", "161217.170000", "161217.630000", "161218.090000", "161218.550000", "161219.010000", "161219.470000", "161219.930000", "161220.390000", "161220.850000", "161221.310000", "161221.770000", "161222.230000", "161222.690000", "161223.150000", "161223.610000", "161224.070000", "161224.530000", "161224.990000", "161225.450000", "161225.910000", "161226.370000", "161226.830000", "161227.290000", "161227.750000", "161228.210000", "161228.670000", "161229.130000", "161229.590000", "161230.050000", "161230.510000", "161230.970000", "161231.430000", "161231.890000", "161232.350000", "161232.810000", "161233.270000", "161233.730000", "161234.190000", "161234.650000", "161235.110000", "161235.570000", "161236.030000", "161236.490000", "161236.950000", "161237.410000", "161237.870000", "161238.330000", "161238.790000", "161239.250000", "161239.710000", "161240.170000", "161240.630000", "161241.090000", "161241.550000", "161242.010000", "161242.470000", "161242.930000", "161243.390000", "161243.850000", "161244.310000", "161244.770000", "161245.230000", "161245.690000", "161246.150000", "161246.610000", "161247.070000", "161247.530000", "161247.990000", "161248.450000", "161248.910000", "161249.370000", "161249.830000", "161250.290000", "161250.750000", "161251.210000", "161251.670000", "161252.130000", "161252.590000", "161253.050000", "161253.510000", "161253.970000", "161254.430000", "161254.890000", "161255.350000", "161255.810000", "161256.270000", "161256.730000", "161257.190000", "161257.650000", "161258.110000", "161258.570000", "161259.030000", "161259.490000", "161259.950000", "161300.410000", "161300.870000", "161301.330000", "161301.790000", "161302.250000", "161302.710000", "161303.170000", "161303.630000", "161304.090000", "161304.550000", "161305.010000", "161305.470000", "161305.930000", "161306.390000", "161306.850000", "161307.310000", "161307.770000", "161308.230000", "161308.690000", "161309.150000", "161309.610000", "161310.070000", "161310.530000", "161310.990000", "161311.450000", "161311.910000", "161312.370000", "161312.830000", "161313.290000", "161313.750000", "161314.210000", "161314.670000", "161315.130000", "161315.590000", "161316.050000", "161316.510000", "161316.970000", "161317.430000", "161317.890000", "161318.350000", "161318.810000", "161319.270000", "161319.730000", "161320.190000", "161320.650000", "161321.110000", "161321.570000", "161322.030000", "161322.490000", "161322.950000", "161323.410000", "161323.870000", "161324.330000", "161324.790000", "161325.250000", "161325.710000", "161326.170000", "161326.630000", "161327.090000", "161327.550000", "161328.010000", "161328.470000", "161328.930000", "161329.390000", "161329.850000", "161330.310000", "161330.770000", "161331.230000", "161331.690000", "161332.150000", "161332.610000", "161333.070000", "161333.530000", "161333.990000", "161334.450000", "161334.910000", "161335.370000", "161335.830000", "161336.290000", "161336.750000", "161337.210000", "161337.670000", "161338.130000", "161338.590000", "161339.050000", "161339.510000", "161339.970000", "161340.430000", "161340.890000", "161341.350000", "161341.810000", "161342.270000", "161342.730000", "161343.190000", "161343.650000", "161344.110000", "161344.570000", "161345.030000", "161345.490000", "161345.950000", "161346.410000", "161346.870000", "161347.330000", "161347.790000", "161348.250000", "161348.710000", "161349.170000", "161349.630000", "161350.090000", "161350.550000", "161351.010000", "161351.470000", "161351.930000", "161352.390000", "161352.850000", "161353.310000", "161353.770000", "161354.230000", "161354.690000", "161355.150000", "161355.610000", "161356.070000", "161356.530000", "161356.990000", "161357.450000", "161357.910000", "161358.370000", "161358.830000", "161359.290000", "161359.750000", "161400.210000", "161400.670000", "161401.130000", "161401.590000", "161402.050000", "161402.510000", "161402.970000", "161403.430000", "161403.890000", "161404.350000", "161404.810000", "161405.270000", "161405.730000"],
