{
  "AcquisitionMatrixPE": 82,
  "AcquisitionNumber": 1,
  "AcquisitionTime": "16:35:5.742500",
  "BandwidthPerPixelPhaseEncode": 24.888,
  "BaseResolution": 82,
  "BodyPartExamined": "BRAIN",
  "ConsistencyInfo": "N4_VE11C_LATEST_20160120",
  "ConversionSoftware": "dcm2niix",
  "ConversionSoftwareVersion": "v1.0.20201102",
  "DerivedVendorReportedEchoSpacing": 0.00049,
  "DeviceSerialNumber": "66112",
  "DwellTime": 2e-06,
  "EchoTime": 0.0272,
  "EchoTrainLength": 82,
  "EffectiveEchoSpacing": 0.00049,
  "FlipAngle": 44,
  "ImageComments": "Unaliased MB8/PE3",
  "ImageOrientationPatientDICOM": [0.998943, 0.00686343, 0.045441, -0.0108101, 0.996134, 0.0871841],
  "ImageType": [
    "ORIGINAL",
    "PRIMARY",
    "M",
    "MB",
    "ND",
    "NORM",
    "MOSAIC"
],
  "ImagingFrequency": 123.252,
  "InPlanePhaseEncodingDirectionDICOM": "COL",
  "InstitutionAddress": "Maynard 3,Hanover,NH,US,03755",
  "InstitutionName": "Dartmouth College - PBS",
  "InstitutionalDepartmentName": "Department",
  "MRAcquisitionType": "2D",
  "MagneticFieldStrength": 3,
  "Manufacturer": "Siemens",
  "ManufacturersModelName": "Prisma",
  "Modality": "MR",
  "MultibandAccelerationFactor": 8,
  "PartialFourier": 1,
  "PatientPosition": "HFS",
  "PercentPhaseFOV": 100,
  "PercentSampling": 100,
  "PhaseEncodingDirection": "j-",
  "PhaseEncodingSteps": 82,
  "PhaseResolution": 1,
  "PixelBandwidth": 3050,
  "ProcedureStepDescription": "Wager_Wager^1076_spacetop",
  "ProtocolName": "func_run-02_task-alignvideo_acq-ap-mb8",
  "PulseSequenceDetails": "%CustomerSeq%\\cmrr_mbep2d_bold",
  "ReceiveCoilActiveElements": "HEA;HEP",
  "ReceiveCoilName": "Head_32",
  "ReconMatrixPE": 82,
  "RepetitionTime": 0.46,
  "SAR": 0.0731062,
  "ScanOptions": "FS",
  "ScanningSequence": "EP",
  "SequenceName": "epfid2d1_82",
  "SequenceVariant": "SK\\SS",
  "SeriesDescription": "func_run-02_task-alignvideo_acq-ap-mb8",
  "SeriesNumber": 32,
  "ShimSetting": [4175, -7726, -7297, 664, -61, -25, 90, 84],
  "SliceThickness": 2.7,
  "SliceTiming": [0, 0.2525, 0.0625, 0.315, 0.125, 0.3775, 0.1875, 0, 0.2525, 0.0625, 0.315, 0.125, 0.3775, 0.1875, 0, 0.2525, 0.0625, 0.315, 0.125, 0.3775, 0.1875, 0, 0.2525, 0.0625, 0.315, 0.125, 0.3775, 0.1875, 0, 0.2525, 0.0625, 0.315, 0.125, 0.3775, 0.1875, 0, 0.2525, 0.0625, 0.315, 0.125, 0.3775, 0.1875, 0, 0.2525, 0.0625, 0.315, 0.125, 0.3775, 0.1875, 0, 0.2525, 0.0625, 0.315, 0.125, 0.3775, 0.1875],
  "SoftwareVersions": "syngo MR E11",
  "SpacingBetweenSlices": 2.7,
  "StationName": "AWP66112",
  "TaskName": "alignvideo",
  "TotalReadoutTime": 0.03969,
  "TxRefAmp": 229.239,
  "WipMemBlock": "aa1e329f-bb3f-4851-ad0e-2d1b0c4c432b||Sequence: R016 ve11c/master r/e634e98; Dec 19 2017 11:00:25 by eja",
  "dcmmeta_affine": [
    [-2.6800923347473145, -0.029002580791711807, 0.12060079723596573, 107.87545013427734],
    [-0.018414082005620003, 2.672553539276123, 0.23647476732730865, -86.33125305175781],
    [0.12191498279571533, -0.23390866816043854, 2.6869194507598877, -48.64112854003906],
    [0.0, 0.0, 0.0, 1.0]
],
  "dcmmeta_reorient_transform": [
    [0.0, -1.0, 0.0, 81.0],
    [1.0, 0.0, 0.0, 0.0],
    [0.0, 0.0, 1.0, 0.0],
    [0.0, 0.0, 0.0, 1.0]
],
  "dcmmeta_shape": [82, 82, 56, 926],
  "dcmmeta_slice_dim": 2,
  "dcmmeta_version": 0.6,
  "global": {
    "const": {
      "AccessionNumber": "A003484",
      "AcquisitionMatrix": [82, 0, 0, 82],
      "AngioFlag": "N",
      "BitsAllocated": 16,
      "BitsStored": 16,
      "BodyPartExamined": "BRAIN",
      "Columns": 656,
      "EchoNumbers": 1,
      "EchoTime": 27.2,
      "EchoTrainLength": 82,
      "FlipAngle": 44.0,
      "HighBit": 15,
      "ImageOrientationPatient": [0.99894344456705, 0.00686343071052, 0.04544103734953, -0.0108100527769, 0.99613355970078, 0.08718413844743],
      "ImagePositionPatient": [-866.38897350989, -902.45328485237, -169.70911988625],
      "ImageType": [
        "ORIGINAL",
        "PRIMARY",
        "M",
        "MB",
        "ND",
        "NORM",
        "MOSAIC"
],
      "ImagedNucleus": "1H",
      "ImagingFrequency": 123.252164,
      "InPlanePhaseEncodingDirection": "COL",
      "MRAcquisitionType": "2D",
      "MagneticFieldStrength": 3.0,
      "Manufacturer": "SIEMENS",
      "ManufacturerModelName": "Prisma",
      "Modality": "MR",
      "NumberOfAverages": 1.0,
      "NumberOfPhaseEncodingSteps": 82,
      "PercentPhaseFieldOfView": 100.0,
      "PercentSampling": 100.0,
      "PerformedProcedureStepStartTime": "144300.304000",
      "PhotometricInterpretation": "MONOCHROME2",
      "PixelBandwidth": 3050.0,
      "PixelRepresentation": 0,
      "PixelSpacing": [2.6829268932343, 2.6829268932343],
      "ProtocolName": "func_run-02_task-alignvideo_acq-ap-mb8",
      "RepetitionTime": 460.0,
      "Rows": 656,
      "SAR": 0.07310624643112,
      "SamplesPerPixel": 1,
      "ScanOptions": "FS",
      "ScanningSequence": "EP",
      "SequenceName": "epfid2d1_82",
      "SequenceVariant": [
        "SK",
        "SS"
],
      "SeriesDescription": "func_run-02_task-alignvideo_acq-ap-mb8",
      "SeriesNumber": 32,
      "SeriesTime": "163533.482000",
      "SliceLocation": -51.148179806844,
      "SliceThickness": 2.7000000476837,
      "SmallestImagePixelValue": 0,
      "SoftwareVersions": "syngo MR E11",
      "SpacingBetweenSlices": 2.700000070118,
      "SpecificCharacterSet": "ISO_IR 100",
      "StudyID": "3",
      "StudyTime": "144300.250000",
      "TransmitCoilName": "Body",
      "VariableFlipAngleFlag": "N",
      "WindowCenterWidthExplanation": "Algo1",
      "dBdt": 0.0},
    "slices": {}
  },
  "time": {
    "samples": {
      "AcquisitionNumber": [1, 2, 3, 4, 5, 6, 7, 8, 9, 10, 11, 12, 13, 14, 15, 16, 17, 18, 19, 20, 21, 22, 23, 24, 25, 26, 27, 28, 29, 30, 31, 32, 33, 34, 35, 36, 37, 38, 39, 40, 41, 42, 43, 44, 45, 46, 47, 48, 49, 50, 51, 52, 53, 54, 55, 56, 57, 58, 59, 60, 61, 62, 63, 64, 65, 66, 67, 68, 69, 70, 71, 72, 73, 74, 75, 76, 77, 78, 79, 80, 81, 82, 83, 84, 85, 86, 87, 88, 89, 90, 91, 92, 93, 94, 95, 96, 97, 98, 99, 100, 101, 102, 103, 104, 105, 106, 107, 108, 109, 110, 111, 112, 113, 114, 115, 116, 117, 118, 119, 120, 121, 122, 123, 124, 125, 126, 127, 128, 129, 130, 131, 132, 133, 134, 135, 136, 137, 138, 139, 140, 141, 142, 143, 144, 145, 146, 147, 148, 149, 150, 151, 152, 153, 154, 155, 156, 157, 158, 159, 160, 161, 162, 163, 164, 165, 166, 167, 168, 169, 170, 171, 172, 173, 174, 175, 176, 177, 178, 179, 180, 181, 182, 183, 184, 185, 186, 187, 188, 189, 190, 191, 192, 193, 194, 195, 196, 197, 198, 199, 200, 201, 202, 203, 204, 205, 206, 207, 208, 209, 210, 211, 212, 213, 214, 215, 216, 217, 218, 219, 220, 221, 222, 223, 224, 225, 226, 227, 228, 229, 230, 231, 232, 233, 234, 235, 236, 237, 238, 239, 240, 241, 242, 243, 244, 245, 246, 247, 248, 249, 250, 251, 252, 253, 254, 255, 256, 257, 258, 259, 260, 261, 262, 263, 264, 265, 266, 267, 268, 269, 270, 271, 272, 273, 274, 275, 276, 277, 278, 279, 280, 281, 282, 283, 284, 285, 286, 287, 288, 289, 290, 291, 292, 293, 294, 295, 296, 297, 298, 299, 300, 301, 302, 303, 304, 305, 306, 307, 308, 309, 310, 311, 312, 313, 314, 315, 316, 317, 318, 319, 320, 321, 322, 323, 324, 325, 326, 327, 328, 329, 330, 331, 332, 333, 334, 335, 336, 337, 338, 339, 340, 341, 342, 343, 344, 345, 346, 347, 348, 349, 350, 351, 352, 353, 354, 355, 356, 357, 358, 359, 360, 361, 362, 363, 364, 365, 366, 367, 368, 369, 370, 371, 372, 373, 374, 375, 376, 377, 378, 379, 380, 381, 382, 383, 384, 385, 386, 387, 388, 389, 390, 391, 392, 393, 394, 395, 396, 397, 398, 399, 400, 401, 402, 403, 404, 405, 406, 407, 408, 409, 410, 411, 412, 413, 414, 415, 416, 417, 418, 419, 420, 421, 422, 423, 424, 425, 426, 427, 428, 429, 430, 431, 432, 433, 434, 435, 436, 437, 438, 439, 440, 441, 442, 443, 444, 445, 446, 447, 448, 449, 450, 451, 452, 453, 454, 455, 456, 457, 458, 459, 460, 461, 462, 463, 464, 465, 466, 467, 468, 469, 470, 471, 472, 473, 474, 475, 476, 477, 478, 479, 480, 481, 482, 483, 484, 485, 486, 487, 488, 489, 490, 491, 492, 493, 494, 495, 496, 497, 498, 499, 500, 501, 502, 503, 504, 505, 506, 507, 508, 509, 510, 511, 512, 513, 514, 515, 516, 517, 518, 519, 520, 521, 522, 523, 524, 525, 526, 527, 528, 529, 530, 531, 532, 533, 534, 535, 536, 537, 538, 539, 540, 541, 542, 543, 544, 545, 546, 547, 548, 549, 550, 551, 552, 553, 554, 555, 556, 557, 558, 559, 560, 561, 562, 563, 564, 565, 566, 567, 568, 569, 570, 571, 572, 573, 574, 575, 576, 577, 578, 579, 580, 581, 582, 583, 584, 585, 586, 587, 588, 589, 590, 591, 592, 593, 594, 595, 596, 597, 598, 599, 600, 601, 602, 603, 604, 605, 606, 607, 608, 609, 610, 611, 612, 613, 614, 615, 616, 617, 618, 619, 620, 621, 622, 623, 624, 625, 626, 627, 628, 629, 630, 631, 632, 633, 634, 635, 636, 637, 638, 639, 640, 641, 642, 643, 644, 645, 646, 647, 648, 649, 650, 651, 652, 653, 654, 655, 656, 657, 658, 659, 660, 661, 662, 663, 664, 665, 666, 667, 668, 669, 670, 671, 672, 673, 674, 675, 676, 677, 678, 679, 680, 681, 682, 683, 684, 685, 686, 687, 688, 689, 690, 691, 692, 693, 694, 695, 696, 697, 698, 699, 700, 701, 702, 703, 704, 705, 706, 707, 708, 709, 710, 711, 712, 713, 714, 715, 716, 717, 718, 719, 720, 721, 722, 723, 724, 725, 726, 727, 728, 729, 730, 731, 732, 733, 734, 735, 736, 737, 738, 739, 740, 741, 742, 743, 744, 745, 746, 747, 748, 749, 750, 751, 752, 753, 754, 755, 756, 757, 758, 759, 760, 761, 762, 763, 764, 765, 766, 767, 768, 769, 770, 771, 772, 773, 774, 775, 776, 777, 778, 779, 780, 781, 782, 783, 784, 785, 786, 787, 788, 789, 790, 791, 792, 793, 794, 795, 796, 797, 798, 799, 800, 801, 802, 803, 804, 805, 806, 807, 808, 809, 810, 811, 812, 813, 814, 815, 816, 817, 818, 819, 820, 821, 822, 823, 824, 825, 826, 827, 828, 829, 830, 831, 832, 833, 834, 835, 836, 837, 838, 839, 840, 841, 842, 843, 844, 845, 846, 847, 848, 849, 850, 851, 852, 853, 854, 855, 856, 857, 858, 859, 860, 861, 862, 863, 864, 865, 866, 867, 868, 869, 870, 871, 872, 873, 874, 875, 876, 877, 878, 879, 880, 881, 882, 883, 884, 885, 886, 887, 888, 889, 890, 891, 892, 893, 894, 895, 896, 897, 898, 899, 900, 901, 902, 903, 904, 905, 906, 907, 908, 909, 910, 911, 912, 913, 914, 915, 916, 917, 918, 919, 920, 921, 922, 923, 924, 925, 926],
      "AcquisitionTime": ["163505.742500", "163506.202500", "163506.662500", "163507.122500", "163507.582500", "163508.042500", "163508.502500", "163508.962500", "163509.422500", "163509.882500", "163510.342500", "163510.802500", "163511.262500", "163511.722500", "163512.182500", "163512.642500", "163513.102500", "163513.562500", "163514.022500", "163514.482500", "163514.942500", "163515.402500", "163515.862500", "163516.322500", "163516.782500", "163517.242500", "163517.702500", "163518.162500", "163518.622500", "163519.082500", "163519.542500", "163520.002500", "163520.462500", "163520.922500", "163521.382500", "163521.842500", "163522.302500", "163522.762500", "163523.222500", "163523.682500", "163524.142500", "163524.602500", "163525.062500", "163525.522500", "163525.982500", "163526.442500", "163526.902500", "163527.362500", "163527.822500", "163528.282500", "163528.742500", "163529.202500", "163529.662500", "163530.122500", "163530.582500", "163531.042500", "163531.502500", "163531.962500", "163532.422500", "163532.882500", "163533.342500", "163533.802500", "163534.262500", "163534.722500", "163535.182500", "163535.642500", "163536.102500", "163536.562500", "163537.022500", "163537.482500", "163537.942500", "163538.402500", "163538.862500", "163539.322500", "163539.782500", "163540.242500", "163540.702500", "163541.162500", "163541.622500", "163542.082500", "163542.542500", "163543.002500", "163543.462500", "163543.922500", "163544.382500", "163544.842500", "163545.302500", "163545.762500", "163546.222500", "163546.682500", "163547.142500", "163547.602500", "163548.062500", "163548.522500", "163548.982500", "163549.442500", "163549.902500", "163550.362500", "163550.822500", "163551.282500", "163551.742500", "163552.202500", "163552.662500", "163553.122500", "163553.582500", "163554.042500", "163554.502500", "163554.962500", "163555.422500", "163555.882500", "163556.342500", "163556.802500", "163557.262500", "163557.722500", "163558.182500", "163558.642500", "163559.102500", "163559.562500", "163600.022500", "163600.482500", "163600.942500", "163601.402500", "163601.862500", "163602.322500", "163602.782500", "163603.242500", "163603.702500", "163604.162500", "163604.622500", "163605.082500", "163605.542500", "163606.002500", "163606.462500", "163606.922500", "163607.382500", "163607.842500", "163608.302500", "163608.762500", "163609.222500", "163609.682500", "163610.142500", "163610.602500", "163611.062500", "163611.522500", "163611.982500", "163612.442500", "163612.902500", "163613.362500", "163613.822500", "163614.282500", "163614.742500", "163615.202500", "163615.662500", "163616.122500", "163616.582500", "163617.042500", "163617.502500", "163617.962500", "163618.422500", "163618.882500", "163619.342500", "163619.802500", "163620.262500", "163620.722500", "163621.182500", "163621.642500", "163622.102500", "163622.562500", "163623.022500", "163623.482500", "163623.942500", "163624.402500", "163624.862500", "163625.322500", "163625.782500", "163626.242500", "163626.702500", "163627.162500", "163627.622500", "163628.082500", "163628.542500", "163629.002500", "163629.462500", "163629.922500", "163630.382500", "163630.842500", "163631.302500", "163631.762500", "163632.222500", "163632.682500", "163633.142500", "163633.602500", "163634.062500", "163634.522500", "163634.982500", "163635.442500", "163635.902500", "163636.362500", "163636.822500", "163637.282500", "163637.742500", "163638.202500", "163638.662500", "163639.122500", "163639.582500", "163640.042500", "163640.502500", "163640.962500", "163641.422500", "163641.882500", "163642.342500", "163642.802500", "163643.262500", "163643.722500", "163644.182500", "163644.642500", "163645.102500", "163645.562500", "163646.022500", "163646.482500", "163646.942500", "163647.402500", "163647.862500", "163648.322500", "163648.782500", "163649.242500", "163649.702500", "163650.162500", "163650.622500", "163651.082500", "163651.542500", "163652.002500", "163652.462500", "163652.922500", "163653.382500", "163653.842500", "163654.302500", "163654.762500", "163655.222500", "163655.682500", "163656.142500", "163656.602500", "163657.062500", "163657.522500", "163657.982500", "163658.442500", "163658.902500", "163659.362500", "163659.822500", "163700.282500", "163700.742500", "163701.202500", "163701.662500", "163702.122500", "163702.582500", "163703.042500", "163703.502500", "163703.962500", "163704.422500", "163704.882500", "163705.342500", "163705.802500", "163706.262500", "163706.722500", "163707.182500", "163707.642500", "163708.102500", "163708.562500", "163709.022500", "163709.482500", "163709.942500", "163710.402500", "163710.862500", "163711.322500", "163711.782500", "163712.242500", "163712.702500", "163713.162500", "163713.622500", "163714.082500", "163714.542500", "163715.002500", "163715.462500", "163715.922500", "163716.382500", "163716.842500", "163717.302500", "163717.762500", "163718.222500", "163718.682500", "163719.142500", "163719.602500", "163720.062500", "163720.522500", "163720.982500", "163721.442500", "163721.902500", "163722.362500", "163722.822500", "163723.282500", "163723.742500", "163724.202500", "163724.662500", "163725.122500", "163725.582500", "163726.042500", "163726.502500", "163726.962500", "163727.422500", "163727.882500", "163728.342500", "163728.802500", "163729.262500", "163729.722500", "163730.182500", "163730.642500", "163731.102500", "163731.562500", "163732.022500", "163732.482500", "163732.942500", "163733.402500", "163733.862500", "163734.322500", "163734.782500", "163735.242500", "163735.702500", "163736.162500", "163736.622500", "163737.082500", "163737.542500", "163738.002500", "163738.462500", "163738.922500", "163739.382500", "163739.842500", "163740.302500", "163740.762500", "163741.222500", "163741.682500", "163742.142500", "163742.602500", "163743.062500", "163743.522500", "163743.982500", "163744.442500", "163744.902500", "163745.362500", "163745.822500", "163746.282500", "163746.742500", "163747.202500", "163747.662500", "163748.122500", "163748.582500", "163749.042500", "163749.502500", "163749.962500", "163750.422500", "163750.882500", "163751.342500", "163751.802500", "163752.262500", "163752.722500", "163753.182500", "163753.642500", "163754.102500", "163754.562500", "163755.022500", "163755.482500", "163755.942500", "163756.402500", "163756.862500", "163757.322500", "163757.782500", "163758.242500", "163758.702500", "163759.162500", "163759.622500", "163800.082500", "163800.542500", "163801.002500", "163801.462500", "163801.922500", "163802.382500", "163802.842500", "163803.302500", "163803.762500", "163804.222500", "163804.682500", "163805.142500", "163805.602500", "163806.062500", "163806.522500", "163806.982500", "163807.442500", "163807.902500", "163808.362500", "163808.822500", "163809.282500", "163809.742500", "163810.202500", "163810.662500", "163811.122500", "163811.582500", "163812.042500", "163812.502500", "163812.962500", "163813.422500", "163813.882500", "163814.342500", "163814.802500", "163815.262500", "163815.722500", "163816.182500", "163816.642500", "163817.102500", "163817.562500", "163818.022500", "163818.482500", "163818.942500", "163819.402500", "163819.862500", "163820.322500", "163820.782500", "163821.242500", "163821.702500", "163822.162500", "163822.622500", "163823.082500", "163823.542500", "163824.002500", "163824.462500", "163824.922500", "163825.382500", "163825.842500", "163826.302500", "163826.762500", "163827.222500", "163827.682500", "163828.142500", "163828.602500", "163829.062500", "163829.522500", "163829.982500", "163830.442500", "163830.902500", "163831.362500", "163831.822500", "163832.282500", "163832.742500", "163833.202500", "163833.662500", "163834.122500", "163834.582500", "163835.042500", "163835.502500", "163835.962500", "163836.422500", "163836.882500", "163837.342500", "163837.802500", "163838.262500", "163838.722500", "163839.182500", "163839.642500", "163840.102500", "163840.562500", "163841.022500", "163841.482500", "163841.942500", "163842.402500", "163842.862500", "163843.322500", "163843.782500", "163844.242500", "163844.702500", "163845.162500", "163845.622500", "163846.082500", "163846.542500", "163847.002500", "163847.462500", "163847.922500", "163848.382500", "163848.842500", "163849.302500", "163849.762500", "163850.222500", "163850.682500", "163851.142500", "163851.602500", "163852.062500", "163852.522500", "163852.982500", "163853.442500", "163853.902500", "163854.362500", "163854.822500", "163855.282500", "163855.742500", "163856.202500", "163856.662500", "163857.122500", "163857.582500", "163858.042500", "163858.502500", "163858.962500", "163859.422500", "163859.882500", "163900.342500", "163900.802500", "163901.262500", "163901.722500", "163902.182500", "163902.642500", "163903.102500", "163903.562500", "163904.022500", "163904.482500", "163904.942500", "163905.402500", "163905.862500", "163906.322500", "163906.782500", "163907.242500", "163907.702500", "163908.162500", "163908.622500", "163909.082500", "163909.542500", "163910.002500", "163910.462500", "163910.922500", "163911.382500", "163911.842500", "163912.302500", "163912.762500", "163913.222500", "163913.682500", "163914.142500", "163914.602500", "163915.062500", "163915.522500", "163915.982500", "163916.442500", "163916.902500", "163917.362500", "163917.822500", "163918.282500", "163918.742500", "163919.202500", "163919.662500", "163920.122500", "163920.582500", "163921.042500", "163921.502500", "163921.962500", "163922.422500", "163922.882500", "163923.342500", "163923.802500", "163924.262500", "163924.722500", "163925.182500", "163925.642500", "163926.102500", "163926.562500", "163927.022500", "163927.482500", "163927.942500", "163928.402500", "163928.862500", "163929.322500", "163929.782500", "163930.242500", "163930.702500", "163931.162500", "163931.622500", "163932.082500", "163932.542500", "163933.002500", "163933.462500", "163933.922500", "163934.382500", "163934.842500", "163935.302500", "163935.762500", "163936.222500", "163936.682500", "163937.142500", "163937.602500", "163938.062500", "163938.522500", "163938.982500", "163939.442500", "163939.902500", "163940.362500", "163940.822500", "163941.282500", "163941.742500", "163942.202500", "163942.662500", "163943.122500", "163943.582500", "163944.042500", "163944.502500", "163944.962500", "163945.422500", "163945.882500", "163946.342500", "163946.802500", "163947.262500", "163947.722500", "163948.182500", "163948.642500", "163949.102500", "163949.562500", "163950.022500", "163950.482500", "163950.942500", "163951.402500", "163951.862500", "163952.322500", "163952.782500", "163953.242500", "163953.702500", "163954.162500", "163954.622500", "163955.082500", "163955.542500", "163956.002500", "163956.462500", "163956.922500", "163957.382500", "163957.842500", "163958.302500", "163958.762500", "163959.222500", "163959.682500", "164000.142500", "164000.602500", "164001.062500", "164001.522500", "164001.982500", "164002.442500", "164002.902500", "164003.362500", "164003.822500", "164004.282500", "164004.742500", "164005.202500", "164005.662500", "164006.122500", "164006.582500", "164007.042500", "164007.502500", "164007.962500", "164008.422500", "164008.882500", "164009.342500", "164009.802500", "164010.262500", "164010.722500", "164011.182500", "164011.642500", "164012.102500", "164012.562500", "164013.022500", "164013.482500", "164013.942500", "164014.402500", "164014.862500", "164015.322500", "164015.782500", "164016.242500", "164016.702500", "164017.162500", "164017.622500", "164018.082500", "164018.542500", "164019.002500", "164019.462500", "164019.922500", "164020.382500", "164020.842500", "164021.302500", "164021.762500", "164022.222500", "164022.682500", "164023.142500", "164023.602500", "164024.062500", "164024.522500", "164024.982500", "164025.442500", "164025.902500", "164026.362500", "164026.822500", "164027.282500", "164027.742500", "164028.202500", "164028.662500", "164029.122500", "164029.582500", "164030.042500", "164030.502500", "164030.962500", "164031.422500", "164031.882500", "164032.342500", "164032.802500", "164033.262500", "164033.722500", "164034.182500", "164034.642500", "164035.102500", "164035.562500", "164036.022500", "164036.482500", "164036.942500", "164037.402500", "164037.862500", "164038.322500", "164038.782500", "164039.242500", "164039.702500", "164040.162500", "164040.622500", "164041.082500", "164041.542500", "164042.002500", "164042.462500", "164042.922500", "164043.382500", "164043.842500", "164044.302500", "164044.762500", "164045.222500", "164045.682500", "164046.142500", "164046.602500", "164047.062500", "164047.522500", "164047.982500", "164048.442500", "164048.902500", "164049.362500", "164049.822500", "164050.282500", "164050.742500", "164051.202500", "164051.662500", "164052.122500", "164052.582500", "164053.042500", "164053.502500", "164053.962500", "164054.422500", "164054.882500", "164055.342500", "164055.802500", "164056.262500", "164056.722500", "164057.182500", "164057.642500", "164058.102500", "164058.562500", "164059.022500", "164059.482500", "164059.942500", "164100.402500", "164100.862500", "164101.322500", "164101.782500", "164102.242500", "164102.702500", "164103.162500", "164103.622500", "164104.082500", "164104.542500", "164105.002500", "164105.462500", "164105.922500", "164106.382500", "164106.842500", "164107.302500", "164107.762500", "164108.222500", "164108.682500", "164109.142500", "164109.602500", "164110.062500", "164110.522500", "164110.982500", "164111.442500", "164111.902500", "164112.362500", "164112.822500", "164113.282500", "164113.742500", "164114.202500", "164114.662500", "164115.122500", "164115.582500", "164116.042500", "164116.502500", "164116.962500", "164117.422500", "164117.882500", "164118.342500", "164118.802500", "164119.262500", "164119.722500", "164120.182500", "164120.642500", "164121.102500", "164121.562500", "164122.022500", "164122.482500", "164122.942500", "164123.402500", "164123.862500", "164124.322500", "164124.782500", "164125.242500", "164125.702500", "164126.162500", "164126.622500", "164127.082500", "164127.542500", "164128.002500", "164128.462500", "164128.922500", "164129.382500", "164129.842500", "164130.302500", "164130.762500", "164131.222500", "164131.682500", "164132.142500", "164132.602500", "164133.062500", "164133.522500", "164133.982500", "164134.442500", "164134.902500", "164135.362500", "164135.822500", "164136.282500", "164136.742500", "164137.202500", "164137.662500", "164138.122500", "164138.582500", "164139.042500", "164139.502500", "164139.962500", "164140.422500", "164140.882500", "164141.342500", "164141.802500", "164142.262500", "164142.722500", "164143.182500", "164143.642500", "164144.102500", "164144.562500", "164145.022500", "164145.482500", "164145.942500", "164146.402500", "164146.862500", "164147.322500", "164147.782500", "164148.242500", "164148.702500", "164149.162500", "164149.622500", "164150.082500", "164150.542500", "164151.002500", "164151.462500", "164151.922500", "164152.382500", "164152.842500", "164153.302500", "164153.762500", "164154.222500", "164154.682500", "164155.142500", "164155.602500", "164156.062500", "164156.522500", "164156.982500", "164157.442500", "164157.902500", "164158.362500", "164158.822500", "164159.282500", "164159.742500", "164200.202500", "164200.662500", "164201.122500", "164201.582500", "164202.042500", "164202.502500", "164202.962500", "164203.422500", "164203.882500", "164204.342500", "164204.802500", "164205.262500", "164205.722500", "164206.182500", "164206.642500", "164207.102500", "164207.562500", "164208.022500", "164208.482500", "164208.942500", "164209.402500", "164209.862500", "164210.322500", "164210.782500", "164211.242500"],
