{
  "AcquisitionMatrixPE": 82,
  "AcquisitionNumber": 1,
  "AcquisitionTime": "15:51:33.315000",
  "BandwidthPerPixelPhaseEncode": 24.888,
  "BaseResolution": 82,
  "BodyPartExamined": "BRAIN",
  "ConsistencyInfo": "N4_VE11C_LATEST_20160120",
  "ConversionSoftware": "dcm2niix",
  "ConversionSoftwareVersion": "v1.0.20201102",
  "DerivedVendorReportedEchoSpacing": 0.00049,
  "DeviceSerialNumber": "66112",
  "DwellTime": 2e-06,
  "EchoTime": 0.0272,
  "EchoTrainLength": 82,
  "EffectiveEchoSpacing": 0.00049,
  "FlipAngle": 44,
  "ImageComments": "Unaliased MB8/PE3",
  "ImageOrientationPatientDICOM": [0.998801, 0.00851896, 0.0482091, -0.0111572, 0.998439, 0.0547229],
  "ImageType": [
    "ORIGINAL",
    "PRIMARY",
    "M",
    "MB",
    "ND",
    "NORM",
    "MOSAIC"
],
  "ImagingFrequency": 123.252,
  "InPlanePhaseEncodingDirectionDICOM": "COL",
  "InstitutionAddress": "Maynard 3,Hanover,NH,US,03755",
  "InstitutionName": "Dartmouth College - PBS",
  "InstitutionalDepartmentName": "Department",
  "MRAcquisitionType": "2D",
  "MagneticFieldStrength": 3,
  "Manufacturer": "Siemens",
  "ManufacturersModelName": "Prisma",
  "Modality": "MR",
  "MultibandAccelerationFactor": 8,
  "PartialFourier": 1,
  "PatientPosition": "HFS",
  "PercentPhaseFOV": 100,
  "PercentSampling": 100,
  "PhaseEncodingDirection": "j-",
  "PhaseEncodingSteps": 82,
  "PhaseResolution": 1,
  "PixelBandwidth": 3050,
  "ProcedureStepDescription": "Wager_Wager^1076_spacetop",
  "ProtocolName": "func_run-03_task-social_acq-ap-mb8",
  "PulseSequenceDetails": "%CustomerSeq%\\cmrr_mbep2d_bold",
  "ReceiveCoilActiveElements": "HEA;HEP",
  "ReceiveCoilName": "Head_32",
  "ReconMatrixPE": 82,
  "RepetitionTime": 0.46,
  "SAR": 0.0730798,
  "ScanOptions": "FS",
  "ScanningSequence": "EP",
  "SequenceName": "epfid2d1_82",
  "SequenceVariant": "SK\\SS",
  "SeriesDescription": "func_run-03_task-social_acq-ap-mb8",
  "SeriesNumber": 16,
  "ShimSetting": [4176, -7726, -7292, 683, -59, -33, 82, 84],
  "SliceThickness": 2.7,
  "SliceTiming": [0, 0.2525, 0.0625, 0.315, 0.125, 0.3775, 0.19, 0, 0.2525, 0.0625, 0.315, 0.125, 0.3775, 0.19, 0, 0.2525, 0.0625, 0.315, 0.125, 0.3775, 0.19, 0, 0.2525, 0.0625, 0.315, 0.125, 0.3775, 0.19, 0, 0.2525, 0.0625, 0.315, 0.125, 0.3775, 0.19, 0, 0.2525, 0.0625, 0.315, 0.125, 0.3775, 0.19, 0, 0.2525, 0.0625, 0.315, 0.125, 0.3775, 0.19, 0, 0.2525, 0.0625, 0.315, 0.125, 0.3775, 0.19],
  "SoftwareVersions": "syngo MR E11",
  "SpacingBetweenSlices": 2.7,
  "StationName": "AWP66112",
  "TaskName": "social",
  "TotalReadoutTime": 0.03969,
  "TxRefAmp": 229.239,
  "WipMemBlock": "d1817d25-197c-4794-b5c9-60bedd1ecec9||Sequence: R016 ve11c/master r/e634e98; Dec 19 2017 11:00:25 by eja",
  "dcmmeta_affine": [
    [-2.6797099113464355, -0.029933903366327286, 0.12870275974273682, 104.8105239868164],
    [-0.022855738177895546, 2.678739547729492, 0.14902696013450623, -83.29873657226562],
    [0.12934152781963348, -0.14681755006313324, 2.692810297012329, -54.4382438659668],
    [0.0, 0.0, 0.0, 1.0]
],
  "dcmmeta_reorient_transform": [
    [0.0, -1.0, 0.0, 81.0],
    [1.0, 0.0, 0.0, 0.0],
    [0.0, 0.0, 1.0, 0.0],
    [0.0, 0.0, 0.0, 1.0]
],
  "dcmmeta_shape": [82, 82, 56, 872],
  "dcmmeta_slice_dim": 2,
  "dcmmeta_version": 0.6,
  "global": {
    "const": {
      "AccessionNumber": "A003484",
      "AcquisitionMatrix": [82, 0, 0, 82],
      "AngioFlag": "N",
      "BitsAllocated": 16,
      "BitsStored": 16,
      "BodyPartExamined": "BRAIN",
      "Columns": 656,
      "EchoNumbers": 1,
      "EchoTime": 27.2,
      "EchoTrainLength": 82,
      "FlipAngle": 44.0,
      "HighBit": 15,
      "ImageOrientationPatient": [0.99880093560784, 0.00851895696098, 0.04820911118457, -0.0111571817848, 0.99843924243182, 0.05472290623484],
      "ImagePositionPatient": [-862.87158357603, -909.0369977314, -145.58811968839],
      "ImageType": [
        "ORIGINAL",
        "PRIMARY",
        "M",
        "MB",
        "ND",
        "NORM",
        "MOSAIC"
],
      "ImagedNucleus": "1H",
      "ImagingFrequency": 123.252153,
      "InPlanePhaseEncodingDirection": "COL",
      "MRAcquisitionType": "2D",
      "MagneticFieldStrength": 3.0,
      "Manufacturer": "SIEMENS",
      "ManufacturerModelName": "Prisma",
      "Modality": "MR",
      "NumberOfAverages": 1.0,
      "NumberOfPhaseEncodingSteps": 82,
      "PercentPhaseFieldOfView": 100.0,
      "PercentSampling": 100.0,
      "PerformedProcedureStepStartTime": "144300.304000",
      "PhotometricInterpretation": "MONOCHROME2",
      "PixelBandwidth": 3050.0,
      "PixelRepresentation": 0,
      "PixelSpacing": [2.6829268932343, 2.6829268932343],
      "ProtocolName": "func_run-03_task-social_acq-ap-mb8",
      "RepetitionTime": 460.0,
      "Rows": 656,
      "SAR": 0.07307977544204,
      "SamplesPerPixel": 1,
      "ScanOptions": "FS",
      "ScanningSequence": "EP",
      "SequenceName": "epfid2d1_82",
      "SequenceVariant": [
        "SK",
        "SS"
],
      "SeriesDescription": "func_run-03_task-social_acq-ap-mb8",
      "SeriesNumber": 16,
      "SeriesTime": "155153.541000",
      "SliceLocation": -53.894891039897,
      "SliceThickness": 2.7000000476837,
      "SmallestImagePixelValue": 0,
      "SoftwareVersions": "syngo MR E11",
      "SpacingBetweenSlices": 2.7000000369307,
      "SpecificCharacterSet": "ISO_IR 100",
      "StudyID": "3",
      "StudyTime": "144300.250000",
      "TransmitCoilName": "Body",
      "VariableFlipAngleFlag": "N",
      "WindowCenterWidthExplanation": "Algo1",
      "dBdt": 0.0},
    "slices": {}
  },
  "time": {
    "samples": {
      "AcquisitionNumber": [1, 2, 3, 4, 5, 6, 7, 8, 9, 10, 11, 12, 13, 14, 15, 16, 17, 18, 19, 20, 21, 22, 23, 24, 25, 26, 27, 28, 29, 30, 31, 32, 33, 34, 35, 36, 37, 38, 39, 40, 41, 42, 43, 44, 45, 46, 47, 48, 49, 50, 51, 52, 53, 54, 55, 56, 57, 58, 59, 60, 61, 62, 63, 64, 65, 66, 67, 68, 69, 70, 71, 72, 73, 74, 75, 76, 77, 78, 79, 80, 81, 82, 83, 84, 85, 86, 87, 88, 89, 90, 91, 92, 93, 94, 95, 96, 97, 98, 99, 100, 101, 102, 103, 104, 105, 106, 107, 108, 109, 110, 111, 112, 113, 114, 115, 116, 117, 118, 119, 120, 121, 122, 123, 124, 125, 126, 127, 128, 129, 130, 131, 132, 133, 134, 135, 136, 137, 138, 139, 140, 141, 142, 143, 144, 145, 146, 147, 148, 149, 150, 151, 152, 153, 154, 155, 156, 157, 158, 159, 160, 161, 162, 163, 164, 165, 166, 167, 168, 169, 170, 171, 172, 173, 174, 175, 176, 177, 178, 179, 180, 181, 182, 183, 184, 185, 186, 187, 188, 189, 190, 191, 192, 193, 194, 195, 196, 197, 198, 199, 200, 201, 202, 203, 204, 205, 206, 207, 208, 209, 210, 211, 212, 213, 214, 215, 216, 217, 218, 219, 220, 221, 222, 223, 224, 225, 226, 227, 228, 229, 230, 231, 232, 233, 234, 235, 236, 237, 238, 239, 240, 241, 242, 243, 244, 245, 246, 247, 248, 249, 250, 251, 252, 253, 254, 255, 256, 257, 258, 259, 260, 261, 262, 263, 264, 265, 266, 267, 268, 269, 270, 271, 272, 273, 274, 275, 276, 277, 278, 279, 280, 281, 282, 283, 284, 285, 286, 287, 288, 289, 290, 291, 292, 293, 294, 295, 296, 297, 298, 299, 300, 301, 302, 303, 304, 305, 306, 307, 308, 309, 310, 311, 312, 313, 314, 315, 316, 317, 318, 319, 320, 321, 322, 323, 324, 325, 326, 327, 328, 329, 330, 331, 332, 333, 334, 335, 336, 337, 338, 339, 340, 341, 342, 343, 344, 345, 346, 347, 348, 349, 350, 351, 352, 353, 354, 355, 356, 357, 358, 359, 360, 361, 362, 363, 364, 365, 366, 367, 368, 369, 370, 371, 372, 373, 374, 375, 376, 377, 378, 379, 380, 381, 382, 383, 384, 385, 386, 387, 388, 389, 390, 391, 392, 393, 394, 395, 396, 397, 398, 399, 400, 401, 402, 403, 404, 405, 406, 407, 408, 409, 410, 411, 412, 413, 414, 415, 416, 417, 418, 419, 420, 421, 422, 423, 424, 425, 426, 427, 428, 429, 430, 431, 432, 433, 434, 435, 436, 437, 438, 439, 440, 441, 442, 443, 444, 445, 446, 447, 448, 449, 450, 451, 452, 453, 454, 455, 456, 457, 458, 459, 460, 461, 462, 463, 464, 465, 466, 467, 468, 469, 470, 471, 472, 473, 474, 475, 476, 477, 478, 479, 480, 481, 482, 483, 484, 485, 486, 487, 488, 489, 490, 491, 492, 493, 494, 495, 496, 497, 498, 499, 500, 501, 502, 503, 504, 505, 506, 507, 508, 509, 510, 511, 512, 513, 514, 515, 516, 517, 518, 519, 520, 521, 522, 523, 524, 525, 526, 527, 528, 529, 530, 531, 532, 533, 534, 535, 536, 537, 538, 539, 540, 541, 542, 543, 544, 545, 546, 547, 548, 549, 550, 551, 552, 553, 554, 555, 556, 557, 558, 559, 560, 561, 562, 563, 564, 565, 566, 567, 568, 569, 570, 571, 572, 573, 574, 575, 576, 577, 578, 579, 580, 581, 582, 583, 584, 585, 586, 587, 588, 589, 590, 591, 592, 593, 594, 595, 596, 597, 598, 599, 600, 601, 602, 603, 604, 605, 606, 607, 608, 609, 610, 611, 612, 613, 614, 615, 616, 617, 618, 619, 620, 621, 622, 623, 624, 625, 626, 627, 628, 629, 630, 631, 632, 633, 634, 635, 636, 637, 638, 639, 640, 641, 642, 643, 644, 645, 646, 647, 648, 649, 650, 651, 652, 653, 654, 655, 656, 657, 658, 659, 660, 661, 662, 663, 664, 665, 666, 667, 668, 669, 670, 671, 672, 673, 674, 675, 676, 677, 678, 679, 680, 681, 682, 683, 684, 685, 686, 687, 688, 689, 690, 691, 692, 693, 694, 695, 696, 697, 698, 699, 700, 701, 702, 703, 704, 705, 706, 707, 708, 709, 710, 711, 712, 713, 714, 715, 716, 717, 718, 719, 720, 721, 722, 723, 724, 725, 726, 727, 728, 729, 730, 731, 732, 733, 734, 735, 736, 737, 738, 739, 740, 741, 742, 743, 744, 745, 746, 747, 748, 749, 750, 751, 752, 753, 754, 755, 756, 757, 758, 759, 760, 761, 762, 763, 764, 765, 766, 767, 768, 769, 770, 771, 772, 773, 774, 775, 776, 777, 778, 779, 780, 781, 782, 783, 784, 785, 786, 787, 788, 789, 790, 791, 792, 793, 794, 795, 796, 797, 798, 799, 800, 801, 802, 803, 804, 805, 806, 807, 808, 809, 810, 811, 812, 813, 814, 815, 816, 817, 818, 819, 820, 821, 822, 823, 824, 825, 826, 827, 828, 829, 830, 831, 832, 833, 834, 835, 836, 837, 838, 839, 840, 841, 842, 843, 844, 845, 846, 847, 848, 849, 850, 851, 852, 853, 854, 855, 856, 857, 858, 859, 860, 861, 862, 863, 864, 865, 866, 867, 868, 869, 870, 871, 872],
      "AcquisitionTime": ["155133.315000", "155133.775000", "155134.235000", "155134.695000", "155135.155000", "155135.615000", "155136.075000", "155136.535000", "155136.995000", "155137.455000", "155137.915000", "155138.375000", "155138.835000", "155139.295000", "155139.755000", "155140.215000", "155140.675000", "155141.135000", "155141.595000", "155142.055000", "155142.515000", "155142.975000", "155143.435000", "155143.895000", "155144.355000", "155144.815000", "155145.275000", "155145.735000", "155146.195000", "155146.655000", "155147.115000", "155147.575000", "155148.035000", "155148.495000", "155148.955000", "155149.415000", "155149.875000", "155150.335000", "155150.795000", "155151.255000", "155151.715000", "155152.175000", "155152.635000", "155153.095000", "155153.555000", "155154.015000", "155154.475000", "155154.935000", "155155.395000", "155155.855000", "155156.315000", "155156.775000", "155157.235000", "155157.695000", "155158.155000", "155158.615000", "155159.075000", "155159.535000", "155159.995000", "155200.455000", "155200.915000", "155201.375000", "155201.835000", "155202.295000", "155202.755000", "155203.215000", "155203.675000", "155204.135000", "155204.595000", "155205.055000", "155205.515000", "155205.975000", "155206.435000", "155206.895000", "155207.355000", "155207.815000", "155208.275000", "155208.735000", "155209.195000", "155209.655000", "155210.115000", "155210.575000", "155211.035000", "155211.495000", "155211.955000", "155212.415000", "155212.875000", "155213.335000", "155213.795000", "155214.255000", "155214.715000", "155215.175000", "155215.635000", "155216.095000", "155216.555000", "155217.015000", "155217.475000", "155217.935000", "155218.395000", "155218.855000", "155219.315000", "155219.775000", "155220.235000", "155220.695000", "155221.155000", "155221.615000", "155222.075000", "155222.535000", "155222.995000", "155223.455000", "155223.915000", "155224.375000", "155224.835000", "155225.295000", "155225.755000", "155226.215000", "155226.675000", "155227.135000", "155227.595000", "155228.055000", "155228.515000", "155228.975000", "155229.435000", "155229.895000", "155230.355000", "155230.815000", "155231.275000", "155231.735000", "155232.195000", "155232.655000", "155233.115000", "155233.575000", "155234.035000", "155234.495000", "155234.955000", "155235.415000", "155235.875000", "155236.335000", "155236.795000", "155237.255000", "155237.715000", "155238.175000", "155238.635000", "155239.095000", "155239.555000", "155240.015000", "155240.475000", "155240.935000", "155241.395000", "155241.855000", "155242.315000", "155242.775000", "155243.235000", "155243.695000", "155244.155000", "155244.615000", "155245.075000", "155245.535000", "155245.995000", "155246.455000", "155246.915000", "155247.375000", "155247.835000", "155248.295000", "155248.755000", "155249.215000", "155249.675000", "155250.135000", "155250.595000", "155251.055000", "155251.515000", "155251.975000", "155252.435000", "155252.895000", "155253.355000", "155253.815000", "155254.275000", "155254.735000", "155255.195000", "155255.655000", "155256.115000", "155256.575000", "155257.035000", "155257.495000", "155257.955000", "155258.415000", "155258.875000", "155259.335000", "155259.795000", "155300.255000", "155300.715000", "155301.175000", "155301.635000", "155302.095000", "155302.555000", "155303.015000", "155303.475000", "155303.935000", "155304.395000", "155304.855000", "155305.315000", "155305.775000", "155306.235000", "155306.695000", "155307.155000", "155307.615000", "155308.075000", "155308.535000", "155308.995000", "155309.455000", "155309.915000", "155310.375000", "155310.835000", "155311.295000", "155311.755000", "155312.215000", "155312.675000", "155313.135000", "155313.595000", "155314.055000", "155314.515000", "155314.975000", "155315.435000", "155315.895000", "155316.355000", "155316.815000", "155317.275000", "155317.735000", "155318.195000", "155318.655000", "155319.115000", "155319.575000", "155320.035000", "155320.495000", "155320.955000", "155321.415000", "155321.875000", "155322.335000", "155322.795000", "155323.255000", "155323.715000", "155324.175000", "155324.635000", "155325.095000", "155325.555000", "155326.015000", "155326.475000", "155326.935000", "155327.395000", "155327.855000", "155328.315000", "155328.775000", "155329.235000", "155329.695000", "155330.155000", "155330.615000", "155331.075000", "155331.535000", "155331.995000", "155332.455000", "155332.915000", "155333.375000", "155333.835000", "155334.295000", "155334.755000", "155335.215000", "155335.675000", "155336.135000", "155336.595000", "155337.055000", "155337.515000", "155337.975000", "155338.435000", "155338.895000", "155339.355000", "155339.815000", "155340.275000", "155340.735000", "155341.195000", "155341.655000", "155342.115000", "155342.575000", "155343.035000", "155343.495000", "155343.955000", "155344.415000", "155344.875000", "155345.335000", "155345.795000", "155346.255000", "155346.715000", "155347.175000", "155347.635000", "155348.095000", "155348.555000", "155349.015000", "155349.475000", "155349.935000", "155350.395000", "155350.855000", "155351.315000", "155351.775000", "155352.235000", "155352.695000", "155353.155000", "155353.615000", "155354.075000", "155354.535000", "155354.995000", "155355.455000", "155355.915000", "155356.375000", "155356.835000", "155357.295000", "155357.755000", "155358.215000", "155358.675000", "155359.135000", "155359.595000", "155400.055000", "155400.515000", "155400.975000", "155401.435000", "155401.895000", "155402.355000", "155402.815000", "155403.275000", "155403.735000", "155404.195000", "155404.655000", "155405.115000", "155405.575000", "155406.035000", "155406.495000", "155406.955000", "155407.415000", "155407.875000", "155408.335000", "155408.795000", "155409.255000", "155409.715000", "155410.175000", "155410.635000", "155411.095000", "155411.555000", "155412.015000", "155412.475000", "155412.935000", "155413.395000", "155413.855000", "155414.315000", "155414.775000", "155415.235000", "155415.695000", "155416.155000", "155416.615000", "155417.075000", "155417.535000", "155417.995000", "155418.455000", "155418.915000", "155419.375000", "155419.835000", "155420.295000", "155420.755000", "155421.215000", "155421.675000", "155422.135000", "155422.595000", "155423.055000", "155423.515000", "155423.975000", "155424.435000", "155424.895000", "155425.355000", "155425.815000", "155426.275000", "155426.735000", "155427.195000", "155427.655000", "155428.115000", "155428.575000", "155429.035000", "155429.495000", "155429.955000", "155430.415000", "155430.875000", "155431.335000", "155431.795000", "155432.255000", "155432.715000", "155433.175000", "155433.635000", "155434.095000", "155434.555000", "155435.015000", "155435.475000", "155435.935000", "155436.395000", "155436.855000", "155437.315000", "155437.775000", "155438.235000", "155438.695000", "155439.155000", "155439.615000", "155440.075000", "155440.535000", "155440.995000", "155441.455000", "155441.915000", "155442.375000", "155442.835000", "155443.295000", "155443.755000", "155444.215000", "155444.675000", "155445.135000", "155445.595000", "155446.055000", "155446.515000", "155446.975000", "155447.435000", "155447.895000", "155448.355000", "155448.815000", "155449.275000", "155449.735000", "155450.195000", "155450.655000", "155451.115000", "155451.575000", "155452.035000", "155452.495000", "155452.955000", "155453.415000", "155453.875000", "155454.335000", "155454.795000", "155455.255000", "155455.715000", "155456.175000", "155456.635000", "155457.095000", "155457.555000", "155458.015000", "155458.475000", "155458.935000", "155459.395000", "155459.855000", "155500.315000", "155500.775000", "155501.235000", "155501.695000", "155502.155000", "155502.615000", "155503.075000", "155503.535000", "155503.995000", "155504.455000", "155504.915000", "155505.375000", "155505.835000", "155506.295000", "155506.755000", "155507.215000", "155507.675000", "155508.135000", "155508.595000", "155509.055000", "155509.515000", "155509.975000", "155510.435000", "155510.895000", "155511.355000", "155511.815000", "155512.275000", "155512.735000", "155513.195000", "155513.655000", "155514.115000", "155514.575000", "155515.035000", "155515.495000", "155515.955000", "155516.415000", "155516.875000", "155517.335000", "155517.795000", "155518.255000", "155518.715000", "155519.175000", "155519.635000", "155520.095000", "155520.555000", "155521.015000", "155521.475000", "155521.935000", "155522.395000", "155522.855000", "155523.315000", "155523.775000", "155524.235000", "155524.695000", "155525.155000", "155525.615000", "155526.075000", "155526.535000", "155526.995000", "155527.455000", "155527.915000", "155528.375000", "155528.835000", "155529.295000", "155529.755000", "155530.215000", "155530.675000", "155531.135000", "155531.595000", "155532.055000", "155532.515000", "155532.975000", "155533.435000", "155533.895000", "155534.355000", "155534.815000", "155535.275000", "155535.735000", "155536.195000", "155536.655000", "155537.115000", "155537.575000", "155538.035000", "155538.495000", "155538.955000", "155539.415000", "155539.875000", "155540.335000", "155540.795000", "155541.255000", "155541.715000", "155542.175000", "155542.635000", "155543.095000", "155543.555000", "155544.015000", "155544.475000", "155544.935000", "155545.395000", "155545.855000", "155546.315000", "155546.775000", "155547.235000", "155547.695000", "155548.155000", "155548.615000", "155549.075000", "155549.535000", "155549.995000", "155550.455000", "155550.915000", "155551.375000", "155551.835000", "155552.295000", "155552.755000", "155553.215000", "155553.675000", "155554.135000", "155554.595000", "155555.055000", "155555.515000", "155555.975000", "155556.435000", "155556.895000", "155557.355000", "155557.815000", "155558.275000", "155558.735000", "155559.195000", "155559.655000", "155600.115000", "155600.575000", "155601.035000", "155601.495000", "155601.955000", "155602.415000", "155602.875000", "155603.335000", "155603.795000", "155604.255000", "155604.715000", "155605.175000", "155605.635000", "155606.095000", "155606.555000", "155607.015000", "155607.475000", "155607.935000", "155608.395000", "155608.855000", "155609.315000", "155609.775000", "155610.235000", "155610.695000", "155611.155000", "155611.615000", "155612.075000", "155612.535000", "155612.995000", "155613.455000", "155613.915000", "155614.375000", "155614.835000", "155615.295000", "155615.755000", "155616.215000", "155616.675000", "155617.135000", "155617.595000", "155618.055000", "155618.515000", "155618.975000", "155619.435000", "155619.895000", "155620.355000", "155620.815000", "155621.275000", "155621.735000", "155622.195000", "155622.655000", "155623.115000", "155623.575000", "155624.035000", "155624.495000", "155624.955000", "155625.415000", "155625.875000", "155626.335000", "155626.795000", "155627.255000", "155627.715000", "155628.175000", "155628.635000", "155629.095000", "155629.555000", "155630.015000", "155630.475000", "155630.935000", "155631.395000", "155631.855000", "155632.315000", "155632.775000", "155633.235000", "155633.695000", "155634.155000", "155634.615000", "155635.075000", "155635.535000", "155635.995000", "155636.455000", "155636.915000", "155637.375000", "155637.835000", "155638.295000", "155638.755000", "155639.215000", "155639.675000", "155640.135000", "155640.595000", "155641.055000", "155641.515000", "155641.975000", "155642.435000", "155642.895000", "155643.355000", "155643.815000", "155644.275000", "155644.735000", "155645.195000", "155645.655000", "155646.115000", "155646.575000", "155647.035000", "155647.495000", "155647.955000", "155648.415000", "155648.875000", "155649.335000", "155649.795000", "155650.255000", "155650.715000", "155651.175000", "155651.635000", "155652.095000", "155652.555000", "155653.015000", "155653.475000", "155653.935000", "155654.395000", "155654.855000", "155655.315000", "155655.775000", "155656.235000", "155656.695000", "155657.155000", "155657.615000", "155658.075000", "155658.535000", "155658.995000", "155659.455000", "155659.915000", "155700.375000", "155700.835000", "155701.295000", "155701.755000", "155702.215000", "155702.675000", "155703.135000", "155703.595000", "155704.055000", "155704.515000", "155704.975000", "155705.435000", "155705.895000", "155706.355000", "155706.815000", "155707.275000", "155707.735000", "155708.195000", "155708.655000", "155709.115000", "155709.575000", "155710.035000", "155710.495000", "155710.955000", "155711.415000", "155711.875000", "155712.335000", "155712.795000", "155713.255000", "155713.715000", "155714.175000", "155714.635000", "155715.095000", "155715.555000", "155716.015000", "155716.475000", "155716.935000", "155717.395000", "155717.855000", "155718.315000", "155718.775000", "155719.235000", "155719.695000", "155720.155000", "155720.615000", "155721.075000", "155721.535000", "155721.995000", "155722.455000", "155722.915000", "155723.375000", "155723.835000", "155724.295000", "155724.755000", "155725.215000", "155725.675000", "155726.135000", "155726.595000", "155727.055000", "155727.515000", "155727.975000", "155728.435000", "155728.895000", "155729.355000", "155729.815000", "155730.275000", "155730.735000", "155731.195000", "155731.655000", "155732.115000", "155732.575000", "155733.035000", "155733.495000", "155733.955000", "155734.415000", "155734.875000", "155735.335000", "155735.795000", "155736.255000", "155736.715000", "155737.175000", "155737.635000", "155738.095000", "155738.555000", "155739.015000", "155739.475000", "155739.935000", "155740.395000", "155740.855000", "155741.315000", "155741.775000", "155742.235000", "155742.695000", "155743.155000", "155743.615000", "155744.075000", "155744.535000", "155744.995000", "155745.455000", "155745.915000", "155746.375000", "155746.835000", "155747.295000", "155747.755000", "155748.215000", "155748.675000", "155749.135000", "155749.595000", "155750.055000", "155750.515000", "155750.975000", "155751.435000", "155751.895000", "155752.355000", "155752.815000", "155753.275000", "155753.735000", "155754.195000", "155754.655000", "155755.115000", "155755.575000", "155756.035000", "155756.495000", "155756.955000", "155757.415000", "155757.875000", "155758.335000", "155758.795000", "155759.255000", "155759.715000", "155800.175000", "155800.635000", "155801.095000", "155801.555000", "155802.015000", "155802.475000", "155802.935000", "155803.395000", "155803.855000", "155804.315000", "155804.775000", "155805.235000", "155805.695000", "155806.155000", "155806.615000", "155807.075000", "155807.535000", "155807.995000", "155808.455000", "155808.915000", "155809.375000", "155809.835000", "155810.295000", "155810.755000", "155811.215000", "155811.675000", "155812.135000", "155812.595000", "155813.055000", "155813.515000", "155813.975000"],
