{
  "AcquisitionMatrixPE": 82,
  "AcquisitionNumber": 1,
  "AcquisitionTime": "08:56:36.662500",
  "BandwidthPerPixelPhaseEncode": 24.888,
  "BaseResolution": 82,
  "BodyPartExamined": "BRAIN",
  "ConsistencyInfo": "N4_VE11E_LATEST_20181129",
  "ConversionSoftware": "dcm2niix",
  "ConversionSoftwareVersion": "v1.0.20201102",
  "DerivedVendorReportedEchoSpacing": 0.00049,
  "DeviceSerialNumber": "66112",
  "DwellTime": 2e-06,
  "EchoTime": 0.0272,
  "EchoTrainLength": 82,
  "EffectiveEchoSpacing": 0.00049,
  "FlipAngle": 44,
  "ImageComments": "Unaliased MB8/PE3",
  "ImageOrientationPatientDICOM": [0.997892, -0.050478, -0.0407824, 0.0502018, 0.998709, -0.00776815],
  "ImageType": [
    "ORIGINAL",
    "PRIMARY",
    "M",
    "MB",
    "ND",
    "NORM",
    "MOSAIC"
],
  "ImagingFrequency": 123.252,
  "InPlanePhaseEncodingDirectionDICOM": "COL",
  "InstitutionAddress": "Maynard 3,Hanover,NH,US,03755",
  "InstitutionName": "Dartmouth College - PBS",
  "InstitutionalDepartmentName": "Department",
  "MRAcquisitionType": "2D",
  "MagneticFieldStrength": 3,
  "Manufacturer": "Siemens",
  "ManufacturersModelName": "Prisma",
  "Modality": "MR",
  "MultibandAccelerationFactor": 8,
  "PartialFourier": 1,
  "PatientPosition": "HFS",
  "PercentPhaseFOV": 100,
  "PercentSampling": 100,
  "PhaseEncodingDirection": "j-",
  "PhaseEncodingSteps": 82,
  "PhaseResolution": 1,
  "PixelBandwidth": 3050,
  "ProcedureStepDescription": "Wager_Wager^1076_spacetop",
  "ProtocolName": "func_run-02_task-social_acq-ap-mb8",
  "PulseSequenceDetails": "%CustomerSeq%\\cmrr_mbep2d_bold",
  "ReceiveCoilActiveElements": "HEA;HEP",
  "ReceiveCoilName": "Head_32",
  "ReconMatrixPE": 82,
  "RepetitionTime": 0.46,
  "SAR": 0.0819112,
  "ScanOptions": "FS",
  "ScanningSequence": "EP",
  "SequenceName": "epfid2d1_82",
  "SequenceVariant": "SK\\SS",
  "SeriesDescription": "func_run-02_task-social_acq-ap-mb8",
  "SeriesNumber": 10,
  "ShimSetting": [4116, -7733, -7250, 563, -26, -99, -29, 118],
  "SliceThickness": 2.7,
  "SliceTiming": [0, 0.25, 0.0625, 0.3125, 0.125, 0.375, 0.1875, 0, 0.25, 0.0625, 0.3125, 0.125, 0.375, 0.1875, 0, 0.25, 0.0625, 0.3125, 0.125, 0.375, 0.1875, 0, 0.25, 0.0625, 0.3125, 0.125, 0.375, 0.1875, 0, 0.25, 0.0625, 0.3125, 0.125, 0.375, 0.1875, 0, 0.25, 0.0625, 0.3125, 0.125, 0.375, 0.1875, 0, 0.25, 0.0625, 0.3125, 0.125, 0.375, 0.1875, 0, 0.25, 0.0625, 0.3125, 0.125, 0.375, 0.1875],
  "SoftwareVersions": "syngo MR E11",
  "SpacingBetweenSlices": 2.7,
  "StationName": "AWP66112",
  "TaskName": "social",
  "TotalReadoutTime": 0.03969,
  "TxRefAmp": 219.288,
  "WipMemBlock": "abb2645c-43bb-4070-a4c2-3ce83ecbbe79||Sequence: R016 ve11e/master r/434b28f1; Aug  7 2019 18:53:46 by eja",
  "dcmmeta_affine": [
    [-2.677271604537964, 0.1346878558397293, -0.11102907359600067, 112.24956512451172],
    [0.1354287713766098, 2.6794629096984863, -0.01540195569396019, -98.00543975830078],
    [-0.10941623151302338, 0.020841389894485474, 2.697672128677368, -63.24856185913086],
    [0.0, 0.0, 0.0, 1.0]
],
  "dcmmeta_reorient_transform": [
    [0.0, -1.0, 0.0, 81.0],
    [1.0, 0.0, 0.0, 0.0],
    [0.0, 0.0, 1.0, 0.0],
    [0.0, 0.0, 0.0, 1.0]
],
  "dcmmeta_shape": [82, 82, 56, 872],
  "dcmmeta_slice_dim": 2,
  "dcmmeta_version": 0.6,
  "global": {
    "const": {
      "AccessionNumber": "A004013",
      "AcquisitionMatrix": [82, 0, 0, 82],
      "AngioFlag": "N",
      "BitsAllocated": 16,
      "BitsStored": 16,
      "BodyPartExamined": "BRAIN",
      "Columns": 656,
      "EchoNumbers": 1,
      "EchoTime": 27.2,
      "EchoTrainLength": 82,
      "FlipAngle": 44.0,
      "HighBit": 15,
      "ImageOrientationPatient": [0.9978921619296, -0.0504779946649, -0.0407824130488, 0.05020183490996, 0.99870888228591, -0.0077681538922],
      "ImagePositionPatient": [-930.19167717791, -849.16886037161, -24.176470532272],
      "ImageType": [
        "ORIGINAL",
        "PRIMARY",
        "M",
        "MB",
        "ND",
        "NORM",
        "MOSAIC"
],
      "ImagedNucleus": "1H",
      "ImagingFrequency": 123.252192,
      "InPlanePhaseEncodingDirection": "COL",
      "MRAcquisitionType": "2D",
      "MagneticFieldStrength": 3.0,
      "Manufacturer": "SIEMENS",
      "ManufacturerModelName": "Prisma",
      "Modality": "MR",
      "NumberOfAverages": 1.0,
      "NumberOfPhaseEncodingSteps": 82,
      "PercentPhaseFieldOfView": 100.0,
      "PercentSampling": 100.0,
      "PerformedProcedureStepStartTime": "083148.600000",
      "PhotometricInterpretation": "MONOCHROME2",
      "PixelBandwidth": 3050.0,
      "PixelRepresentation": 0,
      "PixelSpacing": [2.6829268932343, 2.6829268932343],
      "ProtocolName": "func_run-02_task-social_acq-ap-mb8",
      "RepetitionTime": 460.0,
      "Rows": 656,
      "SAR": 0.08191118542163,
      "SamplesPerPixel": 1,
      "ScanOptions": "FS",
      "ScanningSequence": "EP",
      "SequenceName": "epfid2d1_82",
      "SequenceVariant": [
        "SK",
        "SS"
],
      "SeriesDescription": "func_run-02_task-social_acq-ap-mb8",
      "SeriesNumber": 10,
      "SeriesTime": "085655.391000",
      "SliceLocation": -67.250879007917,
      "SliceThickness": 2.7000000476837,
      "SmallestImagePixelValue": 0,
      "SoftwareVersions": "syngo MR E11",
      "SpacingBetweenSlices": 2.6999999977237,
      "SpecificCharacterSet": "ISO_IR 100",
      "StudyID": "2",
      "StudyTime": "083148.443000",
      "TransmitCoilName": "Body",
      "VariableFlipAngleFlag": "N",
      "WindowCenterWidthExplanation": "Algo1"
    },
    "slices": {}
  },
  "time": {
    "samples": {
      "AcquisitionNumber": [1, 2, 3, 4, 5, 6, 7, 8, 9, 10, 11, 12, 13, 14, 15, 16, 17, 18, 19, 20, 21, 22, 23, 24, 25, 26, 27, 28, 29, 30, 31, 32, 33, 34, 35, 36, 37, 38, 39, 40, 41, 42, 43, 44, 45, 46, 47, 48, 49, 50, 51, 52, 53, 54, 55, 56, 57, 58, 59, 60, 61, 62, 63, 64, 65, 66, 67, 68, 69, 70, 71, 72, 73, 74, 75, 76, 77, 78, 79, 80, 81, 82, 83, 84, 85, 86, 87, 88, 89, 90, 91, 92, 93, 94, 95, 96, 97, 98, 99, 100, 101, 102, 103, 104, 105, 106, 107, 108, 109, 110, 111, 112, 113, 114, 115, 116, 117, 118, 119, 120, 121, 122, 123, 124, 125, 126, 127, 128, 129, 130, 131, 132, 133, 134, 135, 136, 137, 138, 139, 140, 141, 142, 143, 144, 145, 146, 147, 148, 149, 150, 151, 152, 153, 154, 155, 156, 157, 158, 159, 160, 161, 162, 163, 164, 165, 166, 167, 168, 169, 170, 171, 172, 173, 174, 175, 176, 177, 178, 179, 180, 181, 182, 183, 184, 185, 186, 187, 188, 189, 190, 191, 192, 193, 194, 195, 196, 197, 198, 199, 200, 201, 202, 203, 204, 205, 206, 207, 208, 209, 210, 211, 212, 213, 214, 215, 216, 217, 218, 219, 220, 221, 222, 223, 224, 225, 226, 227, 228, 229, 230, 231, 232, 233, 234, 235, 236, 237, 238, 239, 240, 241, 242, 243, 244, 245, 246, 247, 248, 249, 250, 251, 252, 253, 254, 255, 256, 257, 258, 259, 260, 261, 262, 263, 264, 265, 266, 267, 268, 269, 270, 271, 272, 273, 274, 275, 276, 277, 278, 279, 280, 281, 282, 283, 284, 285, 286, 287, 288, 289, 290, 291, 292, 293, 294, 295, 296, 297, 298, 299, 300, 301, 302, 303, 304, 305, 306, 307, 308, 309, 310, 311, 312, 313, 314, 315, 316, 317, 318, 319, 320, 321, 322, 323, 324, 325, 326, 327, 328, 329, 330, 331, 332, 333, 334, 335, 336, 337, 338, 339, 340, 341, 342, 343, 344, 345, 346, 347, 348, 349, 350, 351, 352, 353, 354, 355, 356, 357, 358, 359, 360, 361, 362, 363, 364, 365, 366, 367, 368, 369, 370, 371, 372, 373, 374, 375, 376, 377, 378, 379, 380, 381, 382, 383, 384, 385, 386, 387, 388, 389, 390, 391, 392, 393, 394, 395, 396, 397, 398, 399, 400, 401, 402, 403, 404, 405, 406, 407, 408, 409, 410, 411, 412, 413, 414, 415, 416, 417, 418, 419, 420, 421, 422, 423, 424, 425, 426, 427, 428, 429, 430, 431, 432, 433, 434, 435, 436, 437, 438, 439, 440, 441, 442, 443, 444, 445, 446, 447, 448, 449, 450, 451, 452, 453, 454, 455, 456, 457, 458, 459, 460, 461, 462, 463, 464, 465, 466, 467, 468, 469, 470, 471, 472, 473, 474, 475, 476, 477, 478, 479, 480, 481, 482, 483, 484, 485, 486, 487, 488, 489, 490, 491, 492, 493, 494, 495, 496, 497, 498, 499, 500, 501, 502, 503, 504, 505, 506, 507, 508, 509, 510, 511, 512, 513, 514, 515, 516, 517, 518, 519, 520, 521, 522, 523, 524, 525, 526, 527, 528, 529, 530, 531, 532, 533, 534, 535, 536, 537, 538, 539, 540, 541, 542, 543, 544, 545, 546, 547, 548, 549, 550, 551, 552, 553, 554, 555, 556, 557, 558, 559, 560, 561, 562, 563, 564, 565, 566, 567, 568, 569, 570, 571, 572, 573, 574, 575, 576, 577, 578, 579, 580, 581, 582, 583, 584, 585, 586, 587, 588, 589, 590, 591, 592, 593, 594, 595, 596, 597, 598, 599, 600, 601, 602, 603, 604, 605, 606, 607, 608, 609, 610, 611, 612, 613, 614, 615, 616, 617, 618, 619, 620, 621, 622, 623, 624, 625, 626, 627, 628, 629, 630, 631, 632, 633, 634, 635, 636, 637, 638, 639, 640, 641, 642, 643, 644, 645, 646, 647, 648, 649, 650, 651, 652, 653, 654, 655, 656, 657, 658, 659, 660, 661, 662, 663, 664, 665, 666, 667, 668, 669, 670, 671, 672, 673, 674, 675, 676, 677, 678, 679, 680, 681, 682, 683, 684, 685, 686, 687, 688, 689, 690, 691, 692, 693, 694, 695, 696, 697, 698, 699, 700, 701, 702, 703, 704, 705, 706, 707, 708, 709, 710, 711, 712, 713, 714, 715, 716, 717, 718, 719, 720, 721, 722, 723, 724, 725, 726, 727, 728, 729, 730, 731, 732, 733, 734, 735, 736, 737, 738, 739, 740, 741, 742, 743, 744, 745, 746, 747, 748, 749, 750, 751, 752, 753, 754, 755, 756, 757, 758, 759, 760, 761, 762, 763, 764, 765, 766, 767, 768, 769, 770, 771, 772, 773, 774, 775, 776, 777, 778, 779, 780, 781, 782, 783, 784, 785, 786, 787, 788, 789, 790, 791, 792, 793, 794, 795, 796, 797, 798, 799, 800, 801, 802, 803, 804, 805, 806, 807, 808, 809, 810, 811, 812, 813, 814, 815, 816, 817, 818, 819, 820, 821, 822, 823, 824, 825, 826, 827, 828, 829, 830, 831, 832, 833, 834, 835, 836, 837, 838, 839, 840, 841, 842, 843, 844, 845, 846, 847, 848, 849, 850, 851, 852, 853, 854, 855, 856, 857, 858, 859, 860, 861, 862, 863, 864, 865, 866, 867, 868, 869, 870, 871, 872],
      "AcquisitionTime": ["085636.662500", "085637.122500", "085637.582500", "085638.042500", "085638.502500", "085638.962500", "085639.422500", "085639.882500", "085640.342500", "085640.802500", "085641.262500", "085641.722500", "085642.182500", "085642.642500", "085643.102500", "085643.562500", "085644.022500", "085644.482500", "085644.942500", "085645.402500", "085645.862500", "085646.322500", "085646.782500", "085647.242500", "085647.702500", "085648.162500", "085648.622500", "085649.082500", "085649.542500", "085650.002500", "085650.462500", "085650.922500", "085651.382500", "085651.842500", "085652.302500", "085652.762500", "085653.222500", "085653.682500", "085654.142500", "085654.602500", "085655.062500", "085655.522500", "085655.982500", "085656.442500", "085656.902500", "085657.362500", "085657.822500", "085658.282500", "085658.742500", "085659.202500", "085659.662500", "085700.122500", "085700.582500", "085701.042500", "085701.502500", "085701.962500", "085702.422500", "085702.882500", "085703.342500", "085703.802500", "085704.262500", "085704.722500", "085705.182500", "085705.642500", "085706.102500", "085706.562500", "085707.022500", "085707.482500", "085707.942500", "085708.402500", "085708.862500", "085709.322500", "085709.782500", "085710.242500", "085710.702500", "085711.162500", "085711.622500", "085712.082500", "085712.542500", "085713.002500", "085713.462500", "085713.922500", "085714.382500", "085714.842500", "085715.302500", "085715.762500", "085716.222500", "085716.682500", "085717.142500", "085717.602500", "085718.062500", "085718.522500", "085718.982500", "085719.442500", "085719.902500", "085720.362500", "085720.822500", "085721.282500", "085721.742500", "085722.202500", "085722.662500", "085723.122500", "085723.582500", "085724.042500", "085724.502500", "085724.962500", "085725.422500", "085725.882500", "085726.342500", "085726.802500", "085727.262500", "085727.722500", "085728.182500", "085728.642500", "085729.102500", "085729.562500", "085730.022500", "085730.482500", "085730.942500", "085731.402500", "085731.862500", "085732.322500", "085732.782500", "085733.242500", "085733.702500", "085734.162500", "085734.622500", "085735.082500", "085735.542500", "085736.002500", "085736.462500", "085736.922500", "085737.382500", "085737.842500", "085738.302500", "085738.762500", "085739.222500", "085739.682500", "085740.142500", "085740.602500", "085741.062500", "085741.522500", "085741.982500", "085742.442500", "085742.902500", "085743.362500", "085743.822500", "085744.282500", "085744.742500", "085745.202500", "085745.662500", "085746.122500", "085746.582500", "085747.042500", "085747.502500", "085747.962500", "085748.422500", "085748.882500", "085749.342500", "085749.802500", "085750.262500", "085750.722500", "085751.182500", "085751.642500", "085752.102500", "085752.562500", "085753.022500", "085753.482500", "085753.942500", "085754.402500", "085754.862500", "085755.322500", "085755.782500", "085756.242500", "085756.702500", "085757.162500", "085757.622500", "085758.082500", "085758.542500", "085759.002500", "085759.462500", "085759.922500", "085800.382500", "085800.842500", "085801.302500", "085801.762500", "085802.222500", "085802.682500", "085803.142500", "085803.602500", "085804.062500", "085804.522500", "085804.982500", "085805.442500", "085805.902500", "085806.362500", "085806.822500", "085807.282500", "085807.742500", "085808.202500", "085808.662500", "085809.122500", "085809.582500", "085810.042500", "085810.502500", "085810.962500", "085811.422500", "085811.882500", "085812.342500", "085812.802500", "085813.262500", "085813.722500", "085814.182500", "085814.642500", "085815.102500", "085815.562500", "085816.022500", "085816.482500", "085816.942500", "085817.402500", "085817.862500", "085818.322500", "085818.782500", "085819.242500", "085819.702500", "085820.162500", "085820.622500", "085821.082500", "085821.542500", "085822.002500", "085822.462500", "085822.922500", "085823.382500", "085823.842500", "085824.302500", "085824.762500", "085825.222500", "085825.682500", "085826.142500", "085826.602500", "085827.062500", "085827.522500", "085827.982500", "085828.442500", "085828.902500", "085829.362500", "085829.822500", "085830.282500", "085830.742500", "085831.202500", "085831.662500", "085832.122500", "085832.582500", "085833.042500", "085833.502500", "085833.962500", "085834.422500", "085834.882500", "085835.342500", "085835.802500", "085836.262500", "085836.722500", "085837.182500", "085837.642500", "085838.102500", "085838.562500", "085839.022500", "085839.482500", "085839.942500", "085840.402500", "085840.862500", "085841.322500", "085841.782500", "085842.242500", "085842.702500", "085843.162500", "085843.622500", "085844.082500", "085844.542500", "085845.002500", "085845.462500", "085845.922500", "085846.382500", "085846.842500", "085847.302500", "085847.762500", "085848.222500", "085848.682500", "085849.142500", "085849.602500", "085850.062500", "085850.522500", "085850.982500", "085851.442500", "085851.902500", "085852.362500", "085852.822500", "085853.282500", "085853.742500", "085854.202500", "085854.662500", "085855.122500", "085855.582500", "085856.042500", "085856.502500", "085856.962500", "085857.422500", "085857.882500", "085858.342500", "085858.802500", "085859.262500", "085859.722500", "085900.182500", "085900.642500", "085901.102500", "085901.562500", "085902.022500", "085902.482500", "085902.942500", "085903.402500", "085903.862500", "085904.322500", "085904.782500", "085905.242500", "085905.702500", "085906.162500", "085906.622500", "085907.082500", "085907.542500", "085908.002500", "085908.462500", "085908.922500", "085909.382500", "085909.842500", "085910.302500", "085910.762500", "085911.222500", "085911.682500", "085912.142500", "085912.602500", "085913.062500", "085913.522500", "085913.982500", "085914.442500", "085914.902500", "085915.362500", "085915.822500", "085916.282500", "085916.742500", "085917.202500", "085917.662500", "085918.122500", "085918.582500", "085919.042500", "085919.502500", "085919.962500", "085920.422500", "085920.882500", "085921.342500", "085921.802500", "085922.262500", "085922.722500", "085923.182500", "085923.642500", "085924.102500", "085924.562500", "085925.022500", "085925.482500", "085925.942500", "085926.402500", "085926.862500", "085927.322500", "085927.782500", "085928.242500", "085928.702500", "085929.162500", "085929.622500", "085930.082500", "085930.542500", "085931.002500", "085931.462500", "085931.922500", "085932.382500", "085932.842500", "085933.302500", "085933.762500", "085934.222500", "085934.682500", "085935.142500", "085935.602500", "085936.062500", "085936.522500", "085936.982500", "085937.442500", "085937.902500", "085938.362500", "085938.822500", "085939.282500", "085939.742500", "085940.202500", "085940.662500", "085941.122500", "085941.582500", "085942.042500", "085942.502500", "085942.962500", "085943.422500", "085943.882500", "085944.342500", "085944.802500", "085945.262500", "085945.722500", "085946.182500", "085946.642500", "085947.102500", "085947.562500", "085948.022500", "085948.482500", "085948.942500", "085949.402500", "085949.862500", "085950.322500", "085950.782500", "085951.242500", "085951.702500", "085952.162500", "085952.622500", "085953.082500", "085953.542500", "085954.002500", "085954.462500", "085954.922500", "085955.382500", "085955.842500", "085956.302500", "085956.762500", "085957.222500", "085957.682500", "085958.142500", "085958.602500", "085959.062500", "085959.522500", "085959.982500", "090000.442500", "090000.902500", "090001.362500", "090001.822500", "090002.282500", "090002.742500", "090003.202500", "090003.662500", "090004.122500", "090004.582500", "090005.042500", "090005.502500", "090005.962500", "090006.422500", "090006.882500", "090007.342500", "090007.802500", "090008.262500", "090008.722500", "090009.182500", "090009.642500", "090010.102500", "090010.562500", "090011.022500", "090011.482500", "090011.942500", "090012.402500", "090012.862500", "090013.322500", "090013.782500", "090014.242500", "090014.702500", "090015.162500", "090015.622500", "090016.082500", "090016.542500", "090017.002500", "090017.462500", "090017.922500", "090018.382500", "090018.842500", "090019.302500", "090019.762500", "090020.222500", "090020.682500", "090021.142500", "090021.602500", "090022.062500", "090022.522500", "090022.982500", "090023.442500", "090023.902500", "090024.362500", "090024.822500", "090025.282500", "090025.742500", "090026.202500", "090026.662500", "090027.122500", "090027.582500", "090028.042500", "090028.502500", "090028.962500", "090029.422500", "090029.882500", "090030.342500", "090030.802500", "090031.262500", "090031.722500", "090032.182500", "090032.642500", "090033.102500", "090033.562500", "090034.022500", "090034.482500", "090034.942500", "090035.402500", "090035.862500", "090036.322500", "090036.782500", "090037.242500", "090037.702500", "090038.162500", "090038.622500", "090039.082500", "090039.542500", "090040.002500", "090040.462500", "090040.922500", "090041.382500", "090041.842500", "090042.302500", "090042.762500", "090043.222500", "090043.682500", "090044.142500", "090044.602500", "090045.062500", "090045.522500", "090045.982500", "090046.442500", "090046.902500", "090047.362500", "090047.822500", "090048.282500", "090048.742500", "090049.202500", "090049.662500", "090050.122500", "090050.582500", "090051.042500", "090051.502500", "090051.962500", "090052.422500", "090052.882500", "090053.342500", "090053.802500", "090054.262500", "090054.722500", "090055.182500", "090055.642500", "090056.102500", "090056.562500", "090057.022500", "090057.482500", "090057.942500", "090058.402500", "090058.862500", "090059.322500", "090059.782500", "090100.242500", "090100.702500", "090101.162500", "090101.622500", "090102.082500", "090102.542500", "090103.002500", "090103.462500", "090103.922500", "090104.382500", "090104.842500", "090105.302500", "090105.762500", "090106.222500", "090106.682500", "090107.142500", "090107.602500", "090108.062500", "090108.522500", "090108.982500", "090109.442500", "090109.902500", "090110.362500", "090110.822500", "090111.282500", "090111.742500", "090112.202500", "090112.662500", "090113.122500", "090113.582500", "090114.042500", "090114.502500", "090114.962500", "090115.422500", "090115.882500", "090116.342500", "090116.802500", "090117.262500", "090117.722500", "090118.182500", "090118.642500", "090119.102500", "090119.562500", "090120.022500", "090120.482500", "090120.942500", "090121.402500", "090121.862500", "090122.322500", "090122.782500", "090123.242500", "090123.702500", "090124.162500", "090124.622500", "090125.082500", "090125.542500", "090126.002500", "090126.462500", "090126.922500", "090127.382500", "090127.842500", "090128.302500", "090128.762500", "090129.222500", "090129.682500", "090130.142500", "090130.602500", "090131.062500", "090131.522500", "090131.982500", "090132.442500", "090132.902500", "090133.362500", "090133.822500", "090134.282500", "090134.742500", "090135.202500", "090135.662500", "090136.122500", "090136.582500", "090137.042500", "090137.502500", "090137.962500", "090138.422500", "090138.882500", "090139.342500", "090139.802500", "090140.262500", "090140.722500", "090141.182500", "090141.642500", "090142.102500", "090142.562500", "090143.022500", "090143.482500", "090143.942500", "090144.402500", "090144.862500", "090145.322500", "090145.782500", "090146.242500", "090146.702500", "090147.162500", "090147.622500", "090148.082500", "090148.542500", "090149.002500", "090149.462500", "090149.922500", "090150.382500", "090150.842500", "090151.302500", "090151.762500", "090152.222500", "090152.682500", "090153.142500", "090153.602500", "090154.062500", "090154.522500", "090154.982500", "090155.442500", "090155.902500", "090156.362500", "090156.822500", "090157.282500", "090157.742500", "090158.202500", "090158.662500", "090159.122500", "090159.582500", "090200.042500", "090200.502500", "090200.962500", "090201.422500", "090201.882500", "090202.342500", "090202.802500", "090203.262500", "090203.722500", "090204.182500", "090204.642500", "090205.102500", "090205.562500", "090206.022500", "090206.482500", "090206.942500", "090207.402500", "090207.862500", "090208.322500", "090208.782500", "090209.242500", "090209.702500", "090210.162500", "090210.622500", "090211.082500", "090211.542500", "090212.002500", "090212.462500", "090212.922500", "090213.382500", "090213.842500", "090214.302500", "090214.762500", "090215.222500", "090215.682500", "090216.142500", "090216.602500", "090217.062500", "090217.522500", "090217.982500", "090218.442500", "090218.902500", "090219.362500", "090219.822500", "090220.282500", "090220.742500", "090221.202500", "090221.662500", "090222.122500", "090222.582500", "090223.042500", "090223.502500", "090223.962500", "090224.422500", "090224.882500", "090225.342500", "090225.802500", "090226.262500", "090226.722500", "090227.182500", "090227.642500", "090228.102500", "090228.562500", "090229.022500", "090229.482500", "090229.942500", "090230.402500", "090230.862500", "090231.322500", "090231.782500", "090232.242500", "090232.702500", "090233.162500", "090233.622500", "090234.082500", "090234.542500", "090235.002500", "090235.462500", "090235.922500", "090236.382500", "090236.842500", "090237.302500", "090237.762500", "090238.222500", "090238.682500", "090239.142500", "090239.602500", "090240.062500", "090240.522500", "090240.982500", "090241.442500", "090241.902500", "090242.362500", "090242.822500", "090243.282500", "090243.742500", "090244.202500", "090244.662500", "090245.122500", "090245.582500", "090246.042500", "090246.502500", "090246.962500", "090247.422500", "090247.882500", "090248.342500", "090248.802500", "090249.262500", "090249.722500", "090250.182500", "090250.642500", "090251.102500", "090251.562500", "090252.022500", "090252.482500", "090252.942500", "090253.402500", "090253.862500", "090254.322500", "090254.782500", "090255.242500", "090255.702500", "090256.162500", "090256.622500", "090257.082500", "090257.542500", "090258.002500", "090258.462500", "090258.922500", "090259.382500", "090259.842500", "090300.302500", "090300.762500", "090301.222500", "090301.682500", "090302.142500", "090302.602500", "090303.062500", "090303.522500", "090303.982500", "090304.442500", "090304.902500", "090305.362500", "090305.822500", "090306.282500", "090306.742500", "090307.202500", "090307.662500", "090308.122500", "090308.582500", "090309.042500", "090309.502500", "090309.962500", "090310.422500", "090310.882500", "090311.342500", "090311.802500", "090312.262500", "090312.722500", "090313.182500", "090313.642500", "090314.102500", "090314.562500", "090315.022500", "090315.482500", "090315.942500", "090316.402500", "090316.862500", "090317.322500"],
