{
  "AcquisitionMatrixPE": 82,
  "AcquisitionNumber": 1,
  "AcquisitionTime": "09:04:47.537500",
  "BandwidthPerPixelPhaseEncode": 24.888,
  "BaseResolution": 82,
  "BodyPartExamined": "BRAIN",
  "ConsistencyInfo": "N4_VE11E_LATEST_20181129",
  "ConversionSoftware": "dcm2niix",
  "ConversionSoftwareVersion": "v1.0.20201102",
  "DerivedVendorReportedEchoSpacing": 0.00049,
  "DeviceSerialNumber": "66112",
  "DwellTime": 2e-06,
  "EchoTime": 0.0272,
  "EchoTrainLength": 82,
  "EffectiveEchoSpacing": 0.00049,
  "FlipAngle": 44,
  "ImageComments": "Unaliased MB8/PE3",
  "ImageOrientationPatientDICOM": [0.997892, -0.050478, -0.0407824, 0.0502018, 0.998709, -0.00776815],
  "ImageType": [
    "ORIGINAL",
    "PRIMARY",
    "M",
    "MB",
    "ND",
    "NORM",
    "MOSAIC"
],
  "ImagingFrequency": 123.252,
  "InPlanePhaseEncodingDirectionDICOM": "COL",
  "InstitutionAddress": "Maynard 3,Hanover,NH,US,03755",
  "InstitutionName": "Dartmouth College - PBS",
  "InstitutionalDepartmentName": "Department",
  "MRAcquisitionType": "2D",
  "MagneticFieldStrength": 3,
  "Manufacturer": "Siemens",
  "ManufacturersModelName": "Prisma",
  "Modality": "MR",
  "MultibandAccelerationFactor": 8,
  "PartialFourier": 1,
  "PatientPosition": "HFS",
  "PercentPhaseFOV": 100,
  "PercentSampling": 100,
  "PhaseEncodingDirection": "j-",
  "PhaseEncodingSteps": 82,
  "PhaseResolution": 1,
  "PixelBandwidth": 3050,
  "ProcedureStepDescription": "Wager_Wager^1076_spacetop",
  "ProtocolName": "func_run-04_task-social_acq-ap-mb8",
  "PulseSequenceDetails": "%CustomerSeq%\\cmrr_mbep2d_bold",
  "ReceiveCoilActiveElements": "HEA;HEP",
  "ReceiveCoilName": "Head_32",
  "ReconMatrixPE": 82,
  "RepetitionTime": 0.46,
  "SAR": 0.0819112,
  "ScanOptions": "FS",
  "ScanningSequence": "EP",
  "SequenceName": "epfid2d1_82",
  "SequenceVariant": "SK\\SS",
  "SeriesDescription": "func_run-04_task-social_acq-ap-mb8",
  "SeriesNumber": 12,
  "ShimSetting": [4116, -7733, -7250, 563, -26, -99, -29, 118],
  "SliceThickness": 2.7,
  "SliceTiming": [0, 0.25, 0.0625, 0.3125, 0.125, 0.3775, 0.1875, 0, 0.25, 0.0625, 0.3125, 0.125, 0.3775, 0.1875, 0, 0.25, 0.0625, 0.3125, 0.125, 0.3775, 0.1875, 0, 0.25, 0.0625, 0.3125, 0.125, 0.3775, 0.1875, 0, 0.25, 0.0625, 0.3125, 0.125, 0.3775, 0.1875, 0, 0.25, 0.0625, 0.3125, 0.125, 0.3775, 0.1875, 0, 0.25, 0.0625, 0.3125, 0.125, 0.3775, 0.1875, 0, 0.25, 0.0625, 0.3125, 0.125, 0.3775, 0.1875],
  "SoftwareVersions": "syngo MR E11",
  "SpacingBetweenSlices": 2.7,
  "StationName": "AWP66112",
  "TaskName": "social",
  "TotalReadoutTime": 0.03969,
  "TxRefAmp": 219.288,
  "WipMemBlock": "0e152a9a-15c4-4c48-b180-5e3471b5fdd6||Sequence: R016 ve11e/master r/434b28f1; Aug  7 2019 18:53:46 by eja",
  "dcmmeta_affine": [
    [-2.677271604537964, 0.1346878558397293, -0.11102907359600067, 112.24956512451172],
    [0.1354287713766098, 2.6794629096984863, -0.01540195569396019, -98.00543975830078],
    [-0.10941623151302338, 0.020841389894485474, 2.697672128677368, -63.24856185913086],
    [0.0, 0.0, 0.0, 1.0]
],
  "dcmmeta_reorient_transform": [
    [0.0, -1.0, 0.0, 81.0],
    [1.0, 0.0, 0.0, 0.0],
    [0.0, 0.0, 1.0, 0.0],
    [0.0, 0.0, 0.0, 1.0]
],
  "dcmmeta_shape": [82, 82, 56, 872],
  "dcmmeta_slice_dim": 2,
  "dcmmeta_version": 0.6,
  "global": {
    "const": {
      "AccessionNumber": "A004013",
      "AcquisitionMatrix": [82, 0, 0, 82],
      "AngioFlag": "N",
      "BitsAllocated": 16,
      "BitsStored": 16,
      "BodyPartExamined": "BRAIN",
      "Columns": 656,
      "EchoNumbers": 1,
      "EchoTime": 27.2,
      "EchoTrainLength": 82,
      "FlipAngle": 44.0,
      "HighBit": 15,
      "ImageOrientationPatient": [0.9978921619296, -0.0504779946649, -0.0407824130488, 0.05020183490996, 0.99870888228591, -0.0077681538922],
      "ImagePositionPatient": [-930.19167717791, -849.16886037161, -24.176470532272],
      "ImageType": [
        "ORIGINAL",
        "PRIMARY",
        "M",
        "MB",
        "ND",
        "NORM",
        "MOSAIC"
],
      "ImagedNucleus": "1H",
      "ImagingFrequency": 123.252199,
      "InPlanePhaseEncodingDirection": "COL",
      "MRAcquisitionType": "2D",
      "MagneticFieldStrength": 3.0,
      "Manufacturer": "SIEMENS",
      "ManufacturerModelName": "Prisma",
      "Modality": "MR",
      "NumberOfAverages": 1.0,
      "NumberOfPhaseEncodingSteps": 82,
      "PercentPhaseFieldOfView": 100.0,
      "PercentSampling": 100.0,
      "PerformedProcedureStepStartTime": "083148.600000",
      "PhotometricInterpretation": "MONOCHROME2",
      "PixelBandwidth": 3050.0,
      "PixelRepresentation": 0,
      "PixelSpacing": [2.6829268932343, 2.6829268932343],
      "ProtocolName": "func_run-04_task-social_acq-ap-mb8",
      "RepetitionTime": 460.0,
      "Rows": 656,
      "SAR": 0.08191118542163,
      "SamplesPerPixel": 1,
      "ScanOptions": "FS",
      "ScanningSequence": "EP",
      "SequenceName": "epfid2d1_82",
      "SequenceVariant": [
        "SK",
        "SS"
],
      "SeriesDescription": "func_run-04_task-social_acq-ap-mb8",
      "SeriesNumber": 12,
      "SeriesTime": "090515.292000",
      "SliceLocation": -67.250879007917,
      "SliceThickness": 2.7000000476837,
      "SmallestImagePixelValue": 0,
      "SoftwareVersions": "syngo MR E11",
      "SpacingBetweenSlices": 2.6999999977237,
      "SpecificCharacterSet": "ISO_IR 100",
      "StudyID": "2",
      "StudyTime": "083148.443000",
      "TransmitCoilName": "Body",
      "VariableFlipAngleFlag": "N",
      "WindowCenterWidthExplanation": "Algo1"
    },
    "slices": {}
  },
  "time": {
    "samples": {
      "AcquisitionNumber": [1, 2, 3, 4, 5, 6, 7, 8, 9, 10, 11, 12, 13, 14, 15, 16, 17, 18, 19, 20, 21, 22, 23, 24, 25, 26, 27, 28, 29, 30, 31, 32, 33, 34, 35, 36, 37, 38, 39, 40, 41, 42, 43, 44, 45, 46, 47, 48, 49, 50, 51, 52, 53, 54, 55, 56, 57, 58, 59, 60, 61, 62, 63, 64, 65, 66, 67, 68, 69, 70, 71, 72, 73, 74, 75, 76, 77, 78, 79, 80, 81, 82, 83, 84, 85, 86, 87, 88, 89, 90, 91, 92, 93, 94, 95, 96, 97, 98, 99, 100, 101, 102, 103, 104, 105, 106, 107, 108, 109, 110, 111, 112, 113, 114, 115, 116, 117, 118, 119, 120, 121, 122, 123, 124, 125, 126, 127, 128, 129, 130, 131, 132, 133, 134, 135, 136, 137, 138, 139, 140, 141, 142, 143, 144, 145, 146, 147, 148, 149, 150, 151, 152, 153, 154, 155, 156, 157, 158, 159, 160, 161, 162, 163, 164, 165, 166, 167, 168, 169, 170, 171, 172, 173, 174, 175, 176, 177, 178, 179, 180, 181, 182, 183, 184, 185, 186, 187, 188, 189, 190, 191, 192, 193, 194, 195, 196, 197, 198, 199, 200, 201, 202, 203, 204, 205, 206, 207, 208, 209, 210, 211, 212, 213, 214, 215, 216, 217, 218, 219, 220, 221, 222, 223, 224, 225, 226, 227, 228, 229, 230, 231, 232, 233, 234, 235, 236, 237, 238, 239, 240, 241, 242, 243, 244, 245, 246, 247, 248, 249, 250, 251, 252, 253, 254, 255, 256, 257, 258, 259, 260, 261, 262, 263, 264, 265, 266, 267, 268, 269, 270, 271, 272, 273, 274, 275, 276, 277, 278, 279, 280, 281, 282, 283, 284, 285, 286, 287, 288, 289, 290, 291, 292, 293, 294, 295, 296, 297, 298, 299, 300, 301, 302, 303, 304, 305, 306, 307, 308, 309, 310, 311, 312, 313, 314, 315, 316, 317, 318, 319, 320, 321, 322, 323, 324, 325, 326, 327, 328, 329, 330, 331, 332, 333, 334, 335, 336, 337, 338, 339, 340, 341, 342, 343, 344, 345, 346, 347, 348, 349, 350, 351, 352, 353, 354, 355, 356, 357, 358, 359, 360, 361, 362, 363, 364, 365, 366, 367, 368, 369, 370, 371, 372, 373, 374, 375, 376, 377, 378, 379, 380, 381, 382, 383, 384, 385, 386, 387, 388, 389, 390, 391, 392, 393, 394, 395, 396, 397, 398, 399, 400, 401, 402, 403, 404, 405, 406, 407, 408, 409, 410, 411, 412, 413, 414, 415, 416, 417, 418, 419, 420, 421, 422, 423, 424, 425, 426, 427, 428, 429, 430, 431, 432, 433, 434, 435, 436, 437, 438, 439, 440, 441, 442, 443, 444, 445, 446, 447, 448, 449, 450, 451, 452, 453, 454, 455, 456, 457, 458, 459, 460, 461, 462, 463, 464, 465, 466, 467, 468, 469, 470, 471, 472, 473, 474, 475, 476, 477, 478, 479, 480, 481, 482, 483, 484, 485, 486, 487, 488, 489, 490, 491, 492, 493, 494, 495, 496, 497, 498, 499, 500, 501, 502, 503, 504, 505, 506, 507, 508, 509, 510, 511, 512, 513, 514, 515, 516, 517, 518, 519, 520, 521, 522, 523, 524, 525, 526, 527, 528, 529, 530, 531, 532, 533, 534, 535, 536, 537, 538, 539, 540, 541, 542, 543, 544, 545, 546, 547, 548, 549, 550, 551, 552, 553, 554, 555, 556, 557, 558, 559, 560, 561, 562, 563, 564, 565, 566, 567, 568, 569, 570, 571, 572, 573, 574, 575, 576, 577, 578, 579, 580, 581, 582, 583, 584, 585, 586, 587, 588, 589, 590, 591, 592, 593, 594, 595, 596, 597, 598, 599, 600, 601, 602, 603, 604, 605, 606, 607, 608, 609, 610, 611, 612, 613, 614, 615, 616, 617, 618, 619, 620, 621, 622, 623, 624, 625, 626, 627, 628, 629, 630, 631, 632, 633, 634, 635, 636, 637, 638, 639, 640, 641, 642, 643, 644, 645, 646, 647, 648, 649, 650, 651, 652, 653, 654, 655, 656, 657, 658, 659, 660, 661, 662, 663, 664, 665, 666, 667, 668, 669, 670, 671, 672, 673, 674, 675, 676, 677, 678, 679, 680, 681, 682, 683, 684, 685, 686, 687, 688, 689, 690, 691, 692, 693, 694, 695, 696, 697, 698, 699, 700, 701, 702, 703, 704, 705, 706, 707, 708, 709, 710, 711, 712, 713, 714, 715, 716, 717, 718, 719, 720, 721, 722, 723, 724, 725, 726, 727, 728, 729, 730, 731, 732, 733, 734, 735, 736, 737, 738, 739, 740, 741, 742, 743, 744, 745, 746, 747, 748, 749, 750, 751, 752, 753, 754, 755, 756, 757, 758, 759, 760, 761, 762, 763, 764, 765, 766, 767, 768, 769, 770, 771, 772, 773, 774, 775, 776, 777, 778, 779, 780, 781, 782, 783, 784, 785, 786, 787, 788, 789, 790, 791, 792, 793, 794, 795, 796, 797, 798, 799, 800, 801, 802, 803, 804, 805, 806, 807, 808, 809, 810, 811, 812, 813, 814, 815, 816, 817, 818, 819, 820, 821, 822, 823, 824, 825, 826, 827, 828, 829, 830, 831, 832, 833, 834, 835, 836, 837, 838, 839, 840, 841, 842, 843, 844, 845, 846, 847, 848, 849, 850, 851, 852, 853, 854, 855, 856, 857, 858, 859, 860, 861, 862, 863, 864, 865, 866, 867, 868, 869, 870, 871, 872],
      "AcquisitionTime": ["090447.537500", "090447.997500", "090448.457500", "090448.917500", "090449.377500", "090449.837500", "090450.297500", "090450.757500", "090451.217500", "090451.677500", "090452.137500", "090452.597500", "090453.057500", "090453.517500", "090453.977500", "090454.437500", "090454.897500", "090455.357500", "090455.817500", "090456.277500", "090456.737500", "090457.197500", "090457.657500", "090458.117500", "090458.577500", "090459.037500", "090459.497500", "090459.957500", "090500.417500", "090500.877500", "090501.337500", "090501.797500", "090502.257500", "090502.717500", "090503.177500", "090503.637500", "090504.097500", "090504.557500", "090505.017500", "090505.477500", "090505.937500", "090506.397500", "090506.857500", "090507.317500", "090507.777500", "090508.237500", "090508.697500", "090509.157500", "090509.617500", "090510.077500", "090510.537500", "090510.997500", "090511.457500", "090511.917500", "090512.377500", "090512.837500", "090513.297500", "090513.757500", "090514.217500", "090514.677500", "090515.137500", "090515.597500", "090516.057500", "090516.517500", "090516.977500", "090517.437500", "090517.897500", "090518.357500", "090518.817500", "090519.277500", "090519.737500", "090520.197500", "090520.657500", "090521.117500", "090521.577500", "090522.037500", "090522.497500", "090522.957500", "090523.417500", "090523.877500", "090524.337500", "090524.797500", "090525.257500", "090525.717500", "090526.177500", "090526.637500", "090527.097500", "090527.557500", "090528.017500", "090528.477500", "090528.937500", "090529.397500", "090529.857500", "090530.317500", "090530.777500", "090531.237500", "090531.697500", "090532.157500", "090532.617500", "090533.077500", "090533.537500", "090533.997500", "090534.457500", "090534.917500", "090535.377500", "090535.837500", "090536.297500", "090536.757500", "090537.217500", "090537.677500", "090538.137500", "090538.597500", "090539.057500", "090539.517500", "090539.977500", "090540.437500", "090540.897500", "090541.357500", "090541.817500", "090542.277500", "090542.737500", "090543.197500", "090543.657500", "090544.117500", "090544.577500", "090545.037500", "090545.497500", "090545.957500", "090546.417500", "090546.877500", "090547.337500", "090547.797500", "090548.257500", "090548.717500", "090549.177500", "090549.637500", "090550.097500", "090550.557500", "090551.017500", "090551.477500", "090551.937500", "090552.397500", "090552.857500", "090553.317500", "090553.777500", "090554.237500", "090554.697500", "090555.157500", "090555.617500", "090556.077500", "090556.537500", "090556.997500", "090557.457500", "090557.917500", "090558.377500", "090558.837500", "090559.297500", "090559.757500", "090600.217500", "090600.677500", "090601.137500", "090601.597500", "090602.057500", "090602.517500", "090602.977500", "090603.437500", "090603.897500", "090604.357500", "090604.817500", "090605.277500", "090605.737500", "090606.197500", "090606.657500", "090607.117500", "090607.577500", "090608.037500", "090608.497500", "090608.957500", "090609.417500", "090609.877500", "090610.337500", "090610.797500", "090611.257500", "090611.717500", "090612.177500", "090612.637500", "090613.097500", "090613.557500", "090614.017500", "090614.477500", "090614.937500", "090615.397500", "090615.857500", "090616.317500", "090616.777500", "090617.237500", "090617.697500", "090618.157500", "090618.617500", "090619.077500", "090619.537500", "090619.997500", "090620.457500", "090620.917500", "090621.377500", "090621.837500", "090622.297500", "090622.757500", "090623.217500", "090623.677500", "090624.137500", "090624.597500", "090625.057500", "090625.517500", "090625.977500", "090626.437500", "090626.897500", "090627.357500", "090627.817500", "090628.277500", "090628.737500", "090629.197500", "090629.657500", "090630.117500", "090630.577500", "090631.037500", "090631.497500", "090631.957500", "090632.417500", "090632.877500", "090633.337500", "090633.797500", "090634.257500", "090634.717500", "090635.177500", "090635.637500", "090636.097500", "090636.557500", "090637.017500", "090637.477500", "090637.937500", "090638.397500", "090638.857500", "090639.317500", "090639.777500", "090640.237500", "090640.697500", "090641.157500", "090641.617500", "090642.077500", "090642.537500", "090642.997500", "090643.457500", "090643.917500", "090644.377500", "090644.837500", "090645.297500", "090645.757500", "090646.217500", "090646.677500", "090647.137500", "090647.597500", "090648.057500", "090648.517500", "090648.977500", "090649.437500", "090649.897500", "090650.357500", "090650.817500", "090651.277500", "090651.737500", "090652.197500", "090652.657500", "090653.117500", "090653.577500", "090654.037500", "090654.497500", "090654.957500", "090655.417500", "090655.877500", "090656.337500", "090656.797500", "090657.257500", "090657.717500", "090658.177500", "090658.637500", "090659.097500", "090659.557500", "090700.017500", "090700.477500", "090700.937500", "090701.397500", "090701.857500", "090702.317500", "090702.777500", "090703.237500", "090703.697500", "090704.157500", "090704.617500", "090705.077500", "090705.537500", "090705.997500", "090706.457500", "090706.917500", "090707.377500", "090707.837500", "090708.297500", "090708.757500", "090709.217500", "090709.677500", "090710.137500", "090710.597500", "090711.057500", "090711.517500", "090711.977500", "090712.437500", "090712.897500", "090713.357500", "090713.817500", "090714.277500", "090714.737500", "090715.197500", "090715.657500", "090716.117500", "090716.577500", "090717.037500", "090717.497500", "090717.957500", "090718.417500", "090718.877500", "090719.337500", "090719.797500", "090720.257500", "090720.717500", "090721.177500", "090721.637500", "090722.097500", "090722.557500", "090723.017500", "090723.477500", "090723.937500", "090724.397500", "090724.857500", "090725.317500", "090725.777500", "090726.237500", "090726.697500", "090727.157500", "090727.617500", "090728.077500", "090728.537500", "090728.997500", "090729.457500", "090729.917500", "090730.377500", "090730.837500", "090731.297500", "090731.757500", "090732.217500", "090732.677500", "090733.137500", "090733.597500", "090734.057500", "090734.517500", "090734.977500", "090735.437500", "090735.897500", "090736.357500", "090736.817500", "090737.277500", "090737.737500", "090738.197500", "090738.657500", "090739.117500", "090739.577500", "090740.037500", "090740.497500", "090740.957500", "090741.417500", "090741.877500", "090742.337500", "090742.797500", "090743.257500", "090743.717500", "090744.177500", "090744.637500", "090745.097500", "090745.557500", "090746.017500", "090746.477500", "090746.937500", "090747.397500", "090747.857500", "090748.317500", "090748.777500", "090749.237500", "090749.697500", "090750.157500", "090750.617500", "090751.077500", "090751.537500", "090751.997500", "090752.457500", "090752.917500", "090753.377500", "090753.837500", "090754.297500", "090754.757500", "090755.217500", "090755.677500", "090756.137500", "090756.597500", "090757.057500", "090757.517500", "090757.977500", "090758.437500", "090758.897500", "090759.357500", "090759.817500", "090800.277500", "090800.737500", "090801.197500", "090801.657500", "090802.117500", "090802.577500", "090803.037500", "090803.497500", "090803.957500", "090804.417500", "090804.877500", "090805.337500", "090805.797500", "090806.257500", "090806.717500", "090807.177500", "090807.637500", "090808.097500", "090808.557500", "090809.017500", "090809.477500", "090809.937500", "090810.397500", "090810.857500", "090811.317500", "090811.777500", "090812.237500", "090812.697500", "090813.157500", "090813.617500", "090814.077500", "090814.537500", "090814.997500", "090815.457500", "090815.917500", "090816.377500", "090816.837500", "090817.297500", "090817.757500", "090818.217500", "090818.677500", "090819.137500", "090819.597500", "090820.057500", "090820.517500", "090820.977500", "090821.437500", "090821.897500", "090822.357500", "090822.817500", "090823.277500", "090823.737500", "090824.197500", "090824.657500", "090825.117500", "090825.577500", "090826.037500", "090826.497500", "090826.957500", "090827.417500", "090827.877500", "090828.337500", "090828.797500", "090829.257500", "090829.717500", "090830.177500", "090830.637500", "090831.097500", "090831.557500", "090832.017500", "090832.477500", "090832.937500", "090833.397500", "090833.857500", "090834.317500", "090834.777500", "090835.237500", "090835.697500", "090836.157500", "090836.617500", "090837.077500", "090837.537500", "090837.997500", "090838.457500", "090838.917500", "090839.377500", "090839.837500", "090840.297500", "090840.757500", "090841.217500", "090841.677500", "090842.137500", "090842.597500", "090843.057500", "090843.517500", "090843.977500", "090844.437500", "090844.897500", "090845.357500", "090845.817500", "090846.277500", "090846.737500", "090847.197500", "090847.657500", "090848.117500", "090848.577500", "090849.037500", "090849.497500", "090849.957500", "090850.417500", "090850.877500", "090851.337500", "090851.797500", "090852.257500", "090852.717500", "090853.177500", "090853.637500", "090854.097500", "090854.557500", "090855.017500", "090855.477500", "090855.937500", "090856.397500", "090856.857500", "090857.317500", "090857.777500", "090858.237500", "090858.697500", "090859.157500", "090859.617500", "090900.077500", "090900.537500", "090900.997500", "090901.457500", "090901.917500", "090902.377500", "090902.837500", "090903.297500", "090903.757500", "090904.217500", "090904.677500", "090905.137500", "090905.597500", "090906.057500", "090906.517500", "090906.977500", "090907.437500", "090907.897500", "090908.357500", "090908.817500", "090909.277500", "090909.737500", "090910.197500", "090910.657500", "090911.117500", "090911.577500", "090912.037500", "090912.497500", "090912.957500", "090913.417500", "090913.877500", "090914.337500", "090914.797500", "090915.257500", "090915.717500", "090916.177500", "090916.637500", "090917.097500", "090917.557500", "090918.017500", "090918.477500", "090918.937500", "090919.397500", "090919.857500", "090920.317500", "090920.777500", "090921.237500", "090921.697500", "090922.157500", "090922.617500", "090923.077500", "090923.537500", "090923.997500", "090924.457500", "090924.917500", "090925.377500", "090925.837500", "090926.297500", "090926.757500", "090927.217500", "090927.677500", "090928.137500", "090928.597500", "090929.057500", "090929.517500", "090929.977500", "090930.437500", "090930.897500", "090931.357500", "090931.817500", "090932.277500", "090932.737500", "090933.197500", "090933.657500", "090934.117500", "090934.577500", "090935.037500", "090935.497500", "090935.957500", "090936.417500", "090936.877500", "090937.337500", "090937.797500", "090938.257500", "090938.717500", "090939.177500", "090939.637500", "090940.097500", "090940.557500", "090941.017500", "090941.477500", "090941.937500", "090942.397500", "090942.857500", "090943.317500", "090943.777500", "090944.237500", "090944.697500", "090945.157500", "090945.617500", "090946.077500", "090946.537500", "090946.997500", "090947.457500", "090947.917500", "090948.377500", "090948.837500", "090949.297500", "090949.757500", "090950.217500", "090950.677500", "090951.137500", "090951.597500", "090952.057500", "090952.517500", "090952.977500", "090953.437500", "090953.897500", "090954.357500", "090954.817500", "090955.277500", "090955.737500", "090956.197500", "090956.657500", "090957.117500", "090957.577500", "090958.037500", "090958.497500", "090958.957500", "090959.417500", "090959.877500", "091000.337500", "091000.797500", "091001.257500", "091001.717500", "091002.177500", "091002.637500", "091003.097500", "091003.557500", "091004.017500", "091004.477500", "091004.937500", "091005.397500", "091005.857500", "091006.317500", "091006.777500", "091007.237500", "091007.697500", "091008.157500", "091008.617500", "091009.077500", "091009.537500", "091009.997500", "091010.457500", "091010.917500", "091011.377500", "091011.837500", "091012.297500", "091012.757500", "091013.217500", "091013.677500", "091014.137500", "091014.597500", "091015.057500", "091015.517500", "091015.977500", "091016.437500", "091016.897500", "091017.357500", "091017.817500", "091018.277500", "091018.737500", "091019.197500", "091019.657500", "091020.117500", "091020.577500", "091021.037500", "091021.497500", "091021.957500", "091022.417500", "091022.877500", "091023.337500", "091023.797500", "091024.257500", "091024.717500", "091025.177500", "091025.637500", "091026.097500", "091026.557500", "091027.017500", "091027.477500", "091027.937500", "091028.397500", "091028.857500", "091029.317500", "091029.777500", "091030.237500", "091030.697500", "091031.157500", "091031.617500", "091032.077500", "091032.537500", "091032.997500", "091033.457500", "091033.917500", "091034.377500", "091034.837500", "091035.297500", "091035.757500", "091036.217500", "091036.677500", "091037.137500", "091037.597500", "091038.057500", "091038.517500", "091038.977500", "091039.437500", "091039.897500", "091040.357500", "091040.817500", "091041.277500", "091041.737500", "091042.197500", "091042.657500", "091043.117500", "091043.577500", "091044.037500", "091044.497500", "091044.957500", "091045.417500", "091045.877500", "091046.337500", "091046.797500", "091047.257500", "091047.717500", "091048.177500", "091048.637500", "091049.097500", "091049.557500", "091050.017500", "091050.477500", "091050.937500", "091051.397500", "091051.857500", "091052.317500", "091052.777500", "091053.237500", "091053.697500", "091054.157500", "091054.617500", "091055.077500", "091055.537500", "091055.997500", "091056.457500", "091056.917500", "091057.377500", "091057.837500", "091058.297500", "091058.757500", "091059.217500", "091059.677500", "091100.137500", "091100.597500", "091101.057500", "091101.517500", "091101.977500", "091102.437500", "091102.897500", "091103.357500", "091103.817500", "091104.277500", "091104.737500", "091105.197500", "091105.657500", "091106.117500", "091106.577500", "091107.037500", "091107.497500", "091107.957500", "091108.417500", "091108.877500", "091109.337500", "091109.797500", "091110.257500", "091110.717500", "091111.177500", "091111.637500", "091112.097500", "091112.557500", "091113.017500", "091113.477500", "091113.937500", "091114.397500", "091114.857500", "091115.317500", "091115.777500", "091116.237500", "091116.697500", "091117.157500", "091117.617500", "091118.077500", "091118.537500", "091118.997500", "091119.457500", "091119.917500", "091120.377500", "091120.837500", "091121.297500", "091121.757500", "091122.217500", "091122.677500", "091123.137500", "091123.597500", "091124.057500", "091124.517500", "091124.977500", "091125.437500", "091125.897500", "091126.357500", "091126.817500", "091127.277500", "091127.737500", "091128.197500"],
