{
  "AcquisitionMatrixPE": 82,
  "AcquisitionNumber": 1,
  "AcquisitionTime": "09:55:10.087500",
  "BandwidthPerPixelPhaseEncode": 24.888,
  "BaseResolution": 82,
  "BodyPartExamined": "BRAIN",
  "ConsistencyInfo": "N4_VE11E_LATEST_20181129",
  "ConversionSoftware": "dcm2niix",
  "ConversionSoftwareVersion": "v1.0.20201102",
  "DerivedVendorReportedEchoSpacing": 0.00049,
  "DeviceSerialNumber": "66112",
  "DwellTime": 2e-06,
  "EchoTime": 0.0272,
  "EchoTrainLength": 82,
  "EffectiveEchoSpacing": 0.00049,
  "FlipAngle": 44,
  "ImageComments": "Unaliased MB8/PE3",
  "ImageOrientationPatientDICOM": [0.997056, -0.0675931, -0.0361936, 0.0683221, 0.997477, 0.0192975],
  "ImageType": [
    "ORIGINAL",
    "PRIMARY",
    "M",
    "MB",
    "ND",
    "NORM",
    "MOSAIC"
],
  "ImagingFrequency": 123.252,
  "InPlanePhaseEncodingDirectionDICOM": "COL",
  "InstitutionAddress": "Maynard 3,Hanover,NH,US,03755",
  "InstitutionName": "Dartmouth College - PBS",
  "InstitutionalDepartmentName": "Department",
  "MRAcquisitionType": "2D",
  "MagneticFieldStrength": 3,
  "Manufacturer": "Siemens",
  "ManufacturersModelName": "Prisma",
  "Modality": "MR",
  "MultibandAccelerationFactor": 8,
  "PartialFourier": 1,
  "PatientPosition": "HFS",
  "PercentPhaseFOV": 100,
  "PercentSampling": 100,
  "PhaseEncodingDirection": "j-",
  "PhaseEncodingSteps": 82,
  "PhaseResolution": 1,
  "PixelBandwidth": 3050,
  "ProcedureStepDescription": "Wager_Wager^1076_spacetop",
  "ProtocolName": "func_run-03_task-alignvideo_acq-ap-mb8",
  "PulseSequenceDetails": "%CustomerSeq%\\cmrr_mbep2d_bold",
  "ReceiveCoilActiveElements": "HEA;HEP",
  "ReceiveCoilName": "Head_32",
  "ReconMatrixPE": 82,
  "RepetitionTime": 0.46,
  "SAR": 0.0820036,
  "ScanOptions": "FS",
  "ScanningSequence": "EP",
  "SequenceName": "epfid2d1_82",
  "SequenceVariant": "SK\\SS",
  "SeriesDescription": "func_run-03_task-alignvideo_acq-ap-mb8",
  "SeriesNumber": 28,
  "ShimSetting": [4116, -7737, -7251, 555, -20, -134, -23, 119],
  "SliceThickness": 2.7,
  "SliceTiming": [0, 0.25, 0.0625, 0.3125, 0.125, 0.375, 0.1875, 0, 0.25, 0.0625, 0.3125, 0.125, 0.375, 0.1875, 0, 0.25, 0.0625, 0.3125, 0.125, 0.375, 0.1875, 0, 0.25, 0.0625, 0.3125, 0.125, 0.375, 0.1875, 0, 0.25, 0.0625, 0.3125, 0.125, 0.375, 0.1875, 0, 0.25, 0.0625, 0.3125, 0.125, 0.375, 0.1875, 0, 0.25, 0.0625, 0.3125, 0.125, 0.375, 0.1875, 0, 0.25, 0.0625, 0.3125, 0.125, 0.375, 0.1875],
  "SoftwareVersions": "syngo MR E11",
  "SpacingBetweenSlices": 2.7,
  "StationName": "AWP66112",
  "TaskName": "alignvideo",
  "TotalReadoutTime": 0.03969,
  "TxRefAmp": 219.288,
  "WipMemBlock": "adf24489-f631-4e65-a76b-290e94fe8513||Sequence: R016 ve11e/master r/434b28f1; Aug  7 2019 18:53:46 by eja",
  "dcmmeta_affine": [
    [-2.6750290393829346, 0.18330326676368713, -0.0939544141292572, 110.84032440185547],
    [0.18134738504886627, 2.676156997680664, 0.058626629412174225, -101.91388702392578],
    [-0.09710489213466644, -0.051773909479379654, 2.697727918624878, -66.48027801513672],
    [0.0, 0.0, 0.0, 1.0]
],
  "dcmmeta_reorient_transform": [
    [0.0, -1.0, 0.0, 81.0],
    [1.0, 0.0, 0.0, 0.0],
    [0.0, 0.0, 1.0, 0.0],
    [0.0, 0.0, 0.0, 1.0]
],
  "dcmmeta_shape": [82, 82, 56, 1065],
  "dcmmeta_slice_dim": 2,
  "dcmmeta_version": 0.6,
  "global": {
    "const": {
      "AccessionNumber": "A004013",
      "AcquisitionMatrix": [82, 0, 0, 82],
      "AngioFlag": "N",
      "BitsAllocated": 16,
      "BitsStored": 16,
      "BodyPartExamined": "BRAIN",
      "Columns": 656,
      "EchoNumbers": 1,
      "EchoTime": 27.2,
      "EchoTrainLength": 82,
      "FlipAngle": 44.0,
      "HighBit": 15,
      "ImageOrientationPatient": [0.99705626282708, -0.0675931144423, -0.0361936408406, 0.06832212505747, 0.99747666233606, 0.01929754706057],
      "ImagePositionPatient": [-946.02926433394, -830.86517909979, -57.663968857403],
      "ImageType": [
        "ORIGINAL",
        "PRIMARY",
        "M",
        "MB",
        "ND",
        "NORM",
        "MOSAIC"
],
      "ImagedNucleus": "1H",
      "ImagingFrequency": 123.25222,
      "InPlanePhaseEncodingDirection": "COL",
      "MRAcquisitionType": "2D",
      "MagneticFieldStrength": 3.0,
      "Manufacturer": "SIEMENS",
      "ManufacturerModelName": "Prisma",
      "Modality": "MR",
      "NumberOfAverages": 1.0,
      "NumberOfPhaseEncodingSteps": 82,
      "PercentPhaseFieldOfView": 100.0,
      "PercentSampling": 100.0,
      "PerformedProcedureStepStartTime": "083148.600000",
      "PhotometricInterpretation": "MONOCHROME2",
      "PixelBandwidth": 3050.0,
      "PixelRepresentation": 0,
      "PixelSpacing": [2.6829268932343, 2.6829268932343],
      "ProtocolName": "func_run-03_task-alignvideo_acq-ap-mb8",
      "RepetitionTime": 460.0,
      "Rows": 656,
      "SAR": 0.08200358661688,
      "SamplesPerPixel": 1,
      "ScanOptions": "FS",
      "ScanningSequence": "EP",
      "SequenceName": "epfid2d1_82",
      "SequenceVariant": [
        "SK",
        "SS"
],
      "SeriesDescription": "func_run-03_task-alignvideo_acq-ap-mb8",
      "SeriesNumber": 28,
      "SeriesTime": "095535.295000",
      "SliceLocation": -72.494256653995,
      "SliceThickness": 2.7000000476837,
      "SmallestImagePixelValue": 0,
      "SoftwareVersions": "syngo MR E11",
      "SpacingBetweenSlices": 2.6999999900126,
      "SpecificCharacterSet": "ISO_IR 100",
      "StudyID": "2",
      "StudyTime": "083148.443000",
      "TransmitCoilName": "Body",
      "VariableFlipAngleFlag": "N",
      "WindowCenterWidthExplanation": "Algo1"
    },
    "slices": {}
  },
  "time": {
    "samples": {
      "AcquisitionNumber": [1, 2, 3, 4, 5, 6, 7, 8, 9, 10, 11, 12, 13, 14, 15, 16, 17, 18, 19, 20, 21, 22, 23, 24, 25, 26, 27, 28, 29, 30, 31, 32, 33, 34, 35, 36, 37, 38, 39, 40, 41, 42, 43, 44, 45, 46, 47, 48, 49, 50, 51, 52, 53, 54, 55, 56, 57, 58, 59, 60, 61, 62, 63, 64, 65, 66, 67, 68, 69, 70, 71, 72, 73, 74, 75, 76, 77, 78, 79, 80, 81, 82, 83, 84, 85, 86, 87, 88, 89, 90, 91, 92, 93, 94, 95, 96, 97, 98, 99, 100, 101, 102, 103, 104, 105, 106, 107, 108, 109, 110, 111, 112, 113, 114, 115, 116, 117, 118, 119, 120, 121, 122, 123, 124, 125, 126, 127, 128, 129, 130, 131, 132, 133, 134, 135, 136, 137, 138, 139, 140, 141, 142, 143, 144, 145, 146, 147, 148, 149, 150, 151, 152, 153, 154, 155, 156, 157, 158, 159, 160, 161, 162, 163, 164, 165, 166, 167, 168, 169, 170, 171, 172, 173, 174, 175, 176, 177, 178, 179, 180, 181, 182, 183, 184, 185, 186, 187, 188, 189, 190, 191, 192, 193, 194, 195, 196, 197, 198, 199, 200, 201, 202, 203, 204, 205, 206, 207, 208, 209, 210, 211, 212, 213, 214, 215, 216, 217, 218, 219, 220, 221, 222, 223, 224, 225, 226, 227, 228, 229, 230, 231, 232, 233, 234, 235, 236, 237, 238, 239, 240, 241, 242, 243, 244, 245, 246, 247, 248, 249, 250, 251, 252, 253, 254, 255, 256, 257, 258, 259, 260, 261, 262, 263, 264, 265, 266, 267, 268, 269, 270, 271, 272, 273, 274, 275, 276, 277, 278, 279, 280, 281, 282, 283, 284, 285, 286, 287, 288, 289, 290, 291, 292, 293, 294, 295, 296, 297, 298, 299, 300, 301, 302, 303, 304, 305, 306, 307, 308, 309, 310, 311, 312, 313, 314, 315, 316, 317, 318, 319, 320, 321, 322, 323, 324, 325, 326, 327, 328, 329, 330, 331, 332, 333, 334, 335, 336, 337, 338, 339, 340, 341, 342, 343, 344, 345, 346, 347, 348, 349, 350, 351, 352, 353, 354, 355, 356, 357, 358, 359, 360, 361, 362, 363, 364, 365, 366, 367, 368, 369, 370, 371, 372, 373, 374, 375, 376, 377, 378, 379, 380, 381, 382, 383, 384, 385, 386, 387, 388, 389, 390, 391, 392, 393, 394, 395, 396, 397, 398, 399, 400, 401, 402, 403, 404, 405, 406, 407, 408, 409, 410, 411, 412, 413, 414, 415, 416, 417, 418, 419, 420, 421, 422, 423, 424, 425, 426, 427, 428, 429, 430, 431, 432, 433, 434, 435, 436, 437, 438, 439, 440, 441, 442, 443, 444, 445, 446, 447, 448, 449, 450, 451, 452, 453, 454, 455, 456, 457, 458, 459, 460, 461, 462, 463, 464, 465, 466, 467, 468, 469, 470, 471, 472, 473, 474, 475, 476, 477, 478, 479, 480, 481, 482, 483, 484, 485, 486, 487, 488, 489, 490, 491, 492, 493, 494, 495, 496, 497, 498, 499, 500, 501, 502, 503, 504, 505, 506, 507, 508, 509, 510, 511, 512, 513, 514, 515, 516, 517, 518, 519, 520, 521, 522, 523, 524, 525, 526, 527, 528, 529, 530, 531, 532, 533, 534, 535, 536, 537, 538, 539, 540, 541, 542, 543, 544, 545, 546, 547, 548, 549, 550, 551, 552, 553, 554, 555, 556, 557, 558, 559, 560, 561, 562, 563, 564, 565, 566, 567, 568, 569, 570, 571, 572, 573, 574, 575, 576, 577, 578, 579, 580, 581, 582, 583, 584, 585, 586, 587, 588, 589, 590, 591, 592, 593, 594, 595, 596, 597, 598, 599, 600, 601, 602, 603, 604, 605, 606, 607, 608, 609, 610, 611, 612, 613, 614, 615, 616, 617, 618, 619, 620, 621, 622, 623, 624, 625, 626, 627, 628, 629, 630, 631, 632, 633, 634, 635, 636, 637, 638, 639, 640, 641, 642, 643, 644, 645, 646, 647, 648, 649, 650, 651, 652, 653, 654, 655, 656, 657, 658, 659, 660, 661, 662, 663, 664, 665, 666, 667, 668, 669, 670, 671, 672, 673, 674, 675, 676, 677, 678, 679, 680, 681, 682, 683, 684, 685, 686, 687, 688, 689, 690, 691, 692, 693, 694, 695, 696, 697, 698, 699, 700, 701, 702, 703, 704, 705, 706, 707, 708, 709, 710, 711, 712, 713, 714, 715, 716, 717, 718, 719, 720, 721, 722, 723, 724, 725, 726, 727, 728, 729, 730, 731, 732, 733, 734, 735, 736, 737, 738, 739, 740, 741, 742, 743, 744, 745, 746, 747, 748, 749, 750, 751, 752, 753, 754, 755, 756, 757, 758, 759, 760, 761, 762, 763, 764, 765, 766, 767, 768, 769, 770, 771, 772, 773, 774, 775, 776, 777, 778, 779, 780, 781, 782, 783, 784, 785, 786, 787, 788, 789, 790, 791, 792, 793, 794, 795, 796, 797, 798, 799, 800, 801, 802, 803, 804, 805, 806, 807, 808, 809, 810, 811, 812, 813, 814, 815, 816, 817, 818, 819, 820, 821, 822, 823, 824, 825, 826, 827, 828, 829, 830, 831, 832, 833, 834, 835, 836, 837, 838, 839, 840, 841, 842, 843, 844, 845, 846, 847, 848, 849, 850, 851, 852, 853, 854, 855, 856, 857, 858, 859, 860, 861, 862, 863, 864, 865, 866, 867, 868, 869, 870, 871, 872, 873, 874, 875, 876, 877, 878, 879, 880, 881, 882, 883, 884, 885, 886, 887, 888, 889, 890, 891, 892, 893, 894, 895, 896, 897, 898, 899, 900, 901, 902, 903, 904, 905, 906, 907, 908, 909, 910, 911, 912, 913, 914, 915, 916, 917, 918, 919, 920, 921, 922, 923, 924, 925, 926, 927, 928, 929, 930, 931, 932, 933, 934, 935, 936, 937, 938, 939, 940, 941, 942, 943, 944, 945, 946, 947, 948, 949, 950, 951, 952, 953, 954, 955, 956, 957, 958, 959, 960, 961, 962, 963, 964, 965, 966, 967, 968, 969, 970, 971, 972, 973, 974, 975, 976, 977, 978, 979, 980, 981, 982, 983, 984, 985, 986, 987, 988, 989, 990, 991, 992, 993, 994, 995, 996, 997, 998, 999, 1000, 1001, 1002, 1003, 1004, 1005, 1006, 1007, 1008, 1009, 1010, 1011, 1012, 1013, 1014, 1015, 1016, 1017, 1018, 1019, 1020, 1021, 1022, 1023, 1024, 1025, 1026, 1027, 1028, 1029, 1030, 1031, 1032, 1033, 1034, 1035, 1036, 1037, 1038, 1039, 1040, 1041, 1042, 1043, 1044, 1045, 1046, 1047, 1048, 1049, 1050, 1051, 1052, 1053, 1054, 1055, 1056, 1057, 1058, 1059, 1060, 1061, 1062, 1063, 1064, 1065],
      "AcquisitionTime": ["095510.087500", "095510.547500", "095511.007500", "095511.467500", "095511.927500", "095512.387500", "095512.847500", "095513.307500", "095513.767500", "095514.227500", "095514.687500", "095515.147500", "095515.607500", "095516.067500", "095516.527500", "095516.987500", "095517.447500", "095517.907500", "095518.367500", "095518.827500", "095519.287500", "095519.747500", "095520.207500", "095520.667500", "095521.127500", "095521.587500", "095522.047500", "095522.507500", "095522.967500", "095523.427500", "095523.887500", "095524.347500", "095524.807500", "095525.267500", "095525.727500", "095526.187500", "095526.647500", "095527.107500", "095527.567500", "095528.027500", "095528.487500", "095528.947500", "095529.407500", "095529.867500", "095530.327500", "095530.787500", "095531.247500", "095531.707500", "095532.167500", "095532.627500", "095533.087500", "095533.547500", "095534.007500", "095534.467500", "095534.927500", "095535.387500", "095535.847500", "095536.307500", "095536.767500", "095537.227500", "095537.687500", "095538.147500", "095538.607500", "095539.067500", "095539.527500", "095539.987500", "095540.447500", "095540.907500", "095541.367500", "095541.827500", "095542.287500", "095542.747500", "095543.207500", "095543.667500", "095544.127500", "095544.587500", "095545.047500", "095545.507500", "095545.967500", "095546.427500", "095546.887500", "095547.347500", "095547.807500", "095548.267500", "095548.727500", "095549.187500", "095549.647500", "095550.107500", "095550.567500", "095551.027500", "095551.487500", "095551.947500", "095552.407500", "095552.867500", "095553.327500", "095553.787500", "095554.247500", "095554.707500", "095555.167500", "095555.627500", "095556.087500", "095556.547500", "095557.007500", "095557.467500", "095557.927500", "095558.387500", "095558.847500", "095559.307500", "095559.767500", "095600.227500", "095600.687500", "095601.147500", "095601.607500", "095602.067500", "095602.527500", "095602.987500", "095603.447500", "095603.907500", "095604.367500", "095604.827500", "095605.287500", "095605.747500", "095606.207500", "095606.667500", "095607.127500", "095607.587500", "095608.047500", "095608.507500", "095608.967500", "095609.427500", "095609.887500", "095610.347500", "095610.807500", "095611.267500", "095611.727500", "095612.187500", "095612.647500", "095613.107500", "095613.567500", "095614.027500", "095614.487500", "095614.947500", "095615.407500", "095615.867500", "095616.327500", "095616.787500", "095617.247500", "095617.707500", "095618.167500", "095618.627500", "095619.087500", "095619.547500", "095620.007500", "095620.467500", "095620.927500", "095621.387500", "095621.847500", "095622.307500", "095622.767500", "095623.227500", "095623.687500", "095624.147500", "095624.607500", "095625.067500", "095625.527500", "095625.987500", "095626.447500", "095626.907500", "095627.367500", "095627.827500", "095628.287500", "095628.747500", "095629.207500", "095629.667500", "095630.127500", "095630.587500", "095631.047500", "095631.507500", "095631.967500", "095632.427500", "095632.887500", "095633.347500", "095633.807500", "095634.267500", "095634.727500", "095635.187500", "095635.647500", "095636.107500", "095636.567500", "095637.027500", "095637.487500", "095637.947500", "095638.407500", "095638.867500", "095639.327500", "095639.787500", "095640.247500", "095640.707500", "095641.167500", "095641.627500", "095642.087500", "095642.547500", "095643.007500", "095643.467500", "095643.927500", "095644.387500", "095644.847500", "095645.307500", "095645.767500", "095646.227500", "095646.687500", "095647.147500", "095647.607500", "095648.067500", "095648.527500", "095648.987500", "095649.447500", "095649.907500", "095650.367500", "095650.827500", "095651.287500", "095651.747500", "095652.207500", "095652.667500", "095653.127500", "095653.587500", "095654.047500", "095654.507500", "095654.967500", "095655.427500", "095655.887500", "095656.347500", "095656.807500", "095657.267500", "095657.727500", "095658.187500", "095658.647500", "095659.107500", "095659.567500", "095700.027500", "095700.487500", "095700.947500", "095701.407500", "095701.867500", "095702.327500", "095702.787500", "095703.247500", "095703.707500", "095704.167500", "095704.627500", "095705.087500", "095705.547500", "095706.007500", "095706.467500", "095706.927500", "095707.387500", "095707.847500", "095708.307500", "095708.767500", "095709.227500", "095709.687500", "095710.147500", "095710.607500", "095711.067500", "095711.527500", "095711.987500", "095712.447500", "095712.907500", "095713.367500", "095713.827500", "095714.287500", "095714.747500", "095715.207500", "095715.667500", "095716.127500", "095716.587500", "095717.047500", "095717.507500", "095717.967500", "095718.427500", "095718.887500", "095719.347500", "095719.807500", "095720.267500", "095720.727500", "095721.187500", "095721.647500", "095722.107500", "095722.567500", "095723.027500", "095723.487500", "095723.947500", "095724.407500", "095724.867500", "095725.327500", "095725.787500", "095726.247500", "095726.707500", "095727.167500", "095727.627500", "095728.087500", "095728.547500", "095729.007500", "095729.467500", "095729.927500", "095730.387500", "095730.847500", "095731.307500", "095731.767500", "095732.227500", "095732.687500", "095733.147500", "095733.607500", "095734.067500", "095734.527500", "095734.987500", "095735.447500", "095735.907500", "095736.367500", "095736.827500", "095737.287500", "095737.747500", "095738.207500", "095738.667500", "095739.127500", "095739.587500", "095740.047500", "095740.507500", "095740.967500", "095741.427500", "095741.887500", "095742.347500", "095742.807500", "095743.267500", "095743.727500", "095744.187500", "095744.647500", "095745.107500", "095745.567500", "095746.027500", "095746.487500", "095746.947500", "095747.407500", "095747.867500", "095748.327500", "095748.787500", "095749.247500", "095749.707500", "095750.167500", "095750.627500", "095751.087500", "095751.547500", "095752.007500", "095752.467500", "095752.927500", "095753.387500", "095753.847500", "095754.307500", "095754.767500", "095755.227500", "095755.687500", "095756.147500", "095756.607500", "095757.067500", "095757.527500", "095757.987500", "095758.447500", "095758.907500", "095759.367500", "095759.827500", "095800.287500", "095800.747500", "095801.207500", "095801.667500", "095802.127500", "095802.587500", "095803.047500", "095803.507500", "095803.967500", "095804.427500", "095804.887500", "095805.347500", "095805.807500", "095806.267500", "095806.727500", "095807.187500", "095807.647500", "095808.107500", "095808.567500", "095809.027500", "095809.487500", "095809.947500", "095810.407500", "095810.867500", "095811.327500", "095811.787500", "095812.247500", "095812.707500", "095813.167500", "095813.627500", "095814.087500", "095814.547500", "095815.007500", "095815.467500", "095815.927500", "095816.387500", "095816.847500", "095817.307500", "095817.767500", "095818.227500", "095818.687500", "095819.147500", "095819.607500", "095820.067500", "095820.527500", "095820.987500", "095821.447500", "095821.907500", "095822.367500", "095822.827500", "095823.287500", "095823.747500", "095824.207500", "095824.667500", "095825.127500", "095825.587500", "095826.047500", "095826.507500", "095826.967500", "095827.427500", "095827.887500", "095828.347500", "095828.807500", "095829.267500", "095829.727500", "095830.187500", "095830.647500", "095831.107500", "095831.567500", "095832.027500", "095832.487500", "095832.947500", "095833.407500", "095833.867500", "095834.327500", "095834.787500", "095835.247500", "095835.707500", "095836.167500", "095836.627500", "095837.087500", "095837.547500", "095838.007500", "095838.467500", "095838.927500", "095839.387500", "095839.847500", "095840.307500", "095840.767500", "095841.227500", "095841.687500", "095842.147500", "095842.607500", "095843.067500", "095843.527500", "095843.987500", "095844.447500", "095844.907500", "095845.367500", "095845.827500", "095846.287500", "095846.747500", "095847.207500", "095847.667500", "095848.127500", "095848.587500", "095849.047500", "095849.507500", "095849.967500", "095850.427500", "095850.887500", "095851.347500", "095851.807500", "095852.267500", "095852.727500", "095853.187500", "095853.647500", "095854.107500", "095854.567500", "095855.027500", "095855.487500", "095855.947500", "095856.407500", "095856.867500", "095857.327500", "095857.787500", "095858.247500", "095858.707500", "095859.167500", "095859.627500", "095900.087500", "095900.547500", "095901.007500", "095901.467500", "095901.927500", "095902.387500", "095902.847500", "095903.307500", "095903.767500", "095904.227500", "095904.687500", "095905.147500", "095905.607500", "095906.067500", "095906.527500", "095906.987500", "095907.447500", "095907.907500", "095908.367500", "095908.827500", "095909.287500", "095909.747500", "095910.207500", "095910.667500", "095911.127500", "095911.587500", "095912.047500", "095912.507500", "095912.967500", "095913.427500", "095913.887500", "095914.347500", "095914.807500", "095915.267500", "095915.727500", "095916.187500", "095916.647500", "095917.107500", "095917.567500", "095918.027500", "095918.487500", "095918.947500", "095919.407500", "095919.867500", "095920.327500", "095920.787500", "095921.247500", "095921.707500", "095922.167500", "095922.627500", "095923.087500", "095923.547500", "095924.007500", "095924.467500", "095924.927500", "095925.387500", "095925.847500", "095926.307500", "095926.767500", "095927.227500", "095927.687500", "095928.147500", "095928.607500", "095929.067500", "095929.527500", "095929.987500", "095930.447500", "095930.907500", "095931.367500", "095931.827500", "095932.287500", "095932.747500", "095933.207500", "095933.667500", "095934.127500", "095934.587500", "095935.047500", "095935.507500", "095935.967500", "095936.427500", "095936.887500", "095937.347500", "095937.807500", "095938.267500", "095938.727500", "095939.187500", "095939.647500", "095940.107500", "095940.567500", "095941.027500", "095941.487500", "095941.947500", "095942.407500", "095942.867500", "095943.327500", "095943.787500", "095944.247500", "095944.707500", "095945.167500", "095945.627500", "095946.087500", "095946.547500", "095947.007500", "095947.467500", "095947.927500", "095948.387500", "095948.847500", "095949.307500", "095949.767500", "095950.227500", "095950.687500", "095951.147500", "095951.607500", "095952.067500", "095952.527500", "095952.987500", "095953.447500", "095953.907500", "095954.367500", "095954.827500", "095955.287500", "095955.747500", "095956.207500", "095956.667500", "095957.127500", "095957.587500", "095958.047500", "095958.507500", "095958.967500", "095959.427500", "095959.887500", "100000.347500", "100000.807500", "100001.267500", "100001.727500", "100002.187500", "100002.647500", "100003.107500", "100003.567500", "100004.027500", "100004.487500", "100004.947500", "100005.407500", "100005.867500", "100006.327500", "100006.787500", "100007.247500", "100007.707500", "100008.167500", "100008.627500", "100009.087500", "100009.547500", "100010.007500", "100010.467500", "100010.927500", "100011.387500", "100011.847500", "100012.307500", "100012.767500", "100013.227500", "100013.687500", "100014.147500", "100014.607500", "100015.067500", "100015.527500", "100015.987500", "100016.447500", "100016.907500", "100017.367500", "100017.827500", "100018.287500", "100018.747500", "100019.207500", "100019.667500", "100020.127500", "100020.587500", "100021.047500", "100021.507500", "100021.967500", "100022.427500", "100022.887500", "100023.347500", "100023.807500", "100024.267500", "100024.727500", "100025.187500", "100025.647500", "100026.107500", "100026.567500", "100027.027500", "100027.487500", "100027.947500", "100028.407500", "100028.867500", "100029.327500", "100029.787500", "100030.247500", "100030.707500", "100031.167500", "100031.627500", "100032.087500", "100032.547500", "100033.007500", "100033.467500", "100033.927500", "100034.387500", "100034.847500", "100035.307500", "100035.767500", "100036.227500", "100036.687500", "100037.147500", "100037.607500", "100038.067500", "100038.527500", "100038.987500", "100039.447500", "100039.907500", "100040.367500", "100040.827500", "100041.287500", "100041.747500", "100042.207500", "100042.667500", "100043.127500", "100043.587500", "100044.047500", "100044.507500", "100044.967500", "100045.427500", "100045.887500", "100046.347500", "100046.807500", "100047.267500", "100047.727500", "100048.187500", "100048.647500", "100049.107500", "100049.567500", "100050.027500", "100050.487500", "100050.947500", "100051.407500", "100051.867500", "100052.327500", "100052.787500", "100053.247500", "100053.707500", "100054.167500", "100054.627500", "100055.087500", "100055.547500", "100056.007500", "100056.467500", "100056.927500", "100057.387500", "100057.847500", "100058.307500", "100058.767500", "100059.227500", "100059.687500", "100100.147500", "100100.607500", "100101.067500", "100101.527500", "100101.987500", "100102.447500", "100102.907500", "100103.367500", "100103.827500", "100104.287500", "100104.747500", "100105.207500", "100105.667500", "100106.127500", "100106.587500", "100107.047500", "100107.507500", "100107.967500", "100108.427500", "100108.887500", "100109.347500", "100109.807500", "100110.267500", "100110.727500", "100111.187500", "100111.647500", "100112.107500", "100112.567500", "100113.027500", "100113.487500", "100113.947500", "100114.407500", "100114.867500", "100115.327500", "100115.787500", "100116.247500", "100116.707500", "100117.167500", "100117.627500", "100118.087500", "100118.547500", "100119.007500", "100119.467500", "100119.927500", "100120.387500", "100120.847500", "100121.307500", "100121.767500", "100122.227500", "100122.687500", "100123.147500", "100123.607500", "100124.067500", "100124.527500", "100124.987500", "100125.447500", "100125.907500", "100126.367500", "100126.827500", "100127.287500", "100127.747500", "100128.207500", "100128.667500", "100129.127500", "100129.587500", "100130.047500", "100130.507500", "100130.967500", "100131.427500", "100131.887500", "100132.347500", "100132.807500", "100133.267500", "100133.727500", "100134.187500", "100134.647500", "100135.107500", "100135.567500", "100136.027500", "100136.487500", "100136.947500", "100137.407500", "100137.867500", "100138.327500", "100138.787500", "100139.247500", "100139.707500", "100140.167500", "100140.627500", "100141.087500", "100141.547500", "100142.007500", "100142.467500", "100142.927500", "100143.387500", "100143.847500", "100144.307500", "100144.767500", "100145.227500", "100145.687500", "100146.147500", "100146.607500", "100147.067500", "100147.527500", "100147.987500", "100148.447500", "100148.907500", "100149.367500", "100149.827500", "100150.287500", "100150.747500", "100151.207500", "100151.667500", "100152.127500", "100152.587500", "100153.047500", "100153.507500", "100153.967500", "100154.427500", "100154.887500", "100155.347500", "100155.807500", "100156.267500", "100156.727500", "100157.187500", "100157.647500", "100158.107500", "100158.567500", "100159.027500", "100159.487500", "100159.947500", "100200.407500", "100200.867500", "100201.327500", "100201.787500", "100202.247500", "100202.707500", "100203.167500", "100203.627500", "100204.087500", "100204.547500", "100205.007500", "100205.467500", "100205.927500", "100206.387500", "100206.847500", "100207.307500", "100207.767500", "100208.227500", "100208.687500", "100209.147500", "100209.607500", "100210.067500", "100210.527500", "100210.987500", "100211.447500", "100211.907500", "100212.367500", "100212.827500", "100213.287500", "100213.747500", "100214.207500", "100214.667500", "100215.127500", "100215.587500", "100216.047500", "100216.507500", "100216.967500", "100217.427500", "100217.887500", "100218.347500", "100218.807500", "100219.267500", "100219.727500", "100220.187500", "100220.647500", "100221.107500", "100221.567500", "100222.027500", "100222.487500", "100222.947500", "100223.407500", "100223.867500", "100224.327500", "100224.787500", "100225.247500", "100225.707500", "100226.167500", "100226.627500", "100227.087500", "100227.547500", "100228.007500", "100228.467500", "100228.927500", "100229.387500", "100229.847500", "100230.307500", "100230.767500", "100231.227500", "100231.687500", "100232.147500", "100232.607500", "100233.067500", "100233.527500", "100233.987500", "100234.447500", "100234.907500", "100235.367500", "100235.827500", "100236.287500", "100236.747500", "100237.207500", "100237.667500", "100238.127500", "100238.587500", "100239.047500", "100239.507500", "100239.967500", "100240.427500", "100240.887500", "100241.347500", "100241.807500", "100242.267500", "100242.727500", "100243.187500", "100243.647500", "100244.107500", "100244.567500", "100245.027500", "100245.487500", "100245.947500", "100246.407500", "100246.867500", "100247.327500", "100247.787500", "100248.247500", "100248.707500", "100249.167500", "100249.627500", "100250.087500", "100250.547500", "100251.007500", "100251.467500", "100251.927500", "100252.387500", "100252.847500", "100253.307500", "100253.767500", "100254.227500", "100254.687500", "100255.147500", "100255.607500", "100256.067500", "100256.527500", "100256.987500", "100257.447500", "100257.907500", "100258.367500", "100258.827500", "100259.287500", "100259.747500", "100300.207500", "100300.667500", "100301.127500", "100301.587500", "100302.047500", "100302.507500", "100302.967500", "100303.427500", "100303.887500", "100304.347500", "100304.807500", "100305.267500", "100305.727500", "100306.187500", "100306.647500", "100307.107500", "100307.567500", "100308.027500", "100308.487500", "100308.947500", "100309.407500", "100309.867500", "100310.327500", "100310.787500", "100311.247500", "100311.707500", "100312.167500", "100312.627500", "100313.087500", "100313.547500", "100314.007500", "100314.467500", "100314.927500", "100315.387500", "100315.847500", "100316.307500", "100316.767500", "100317.227500", "100317.687500", "100318.147500", "100318.607500", "100319.067500", "100319.527500"],
