{
  "AcquisitionMatrixPE": 82,
  "AcquisitionNumber": 1,
  "AcquisitionTime": "09:04:39.295000",
  "BandwidthPerPixelPhaseEncode": 24.888,
  "BaseResolution": 82,
  "BodyPartExamined": "BRAIN",
  "ConsistencyInfo": "N4_VE11E_LATEST_20181129",
  "ConversionSoftware": "dcm2niix",
  "ConversionSoftwareVersion": "v1.0.20201102",
  "DerivedVendorReportedEchoSpacing": 0.00049,
  "DeviceSerialNumber": "66112",
  "DwellTime": 2e-06,
  "EchoTime": 0.0272,
  "EchoTrainLength": 82,
  "EffectiveEchoSpacing": 0.00049,
  "FlipAngle": 44,
  "ImageComments": "Unaliased MB8/PE3",
  "ImageOrientationPatientDICOM": [0.998693, -0.046373, -0.0214683, 0.0497179, 0.978843, 0.198481],
  "ImageType": [
    "ORIGINAL",
    "PRIMARY",
    "M",
    "MB",
    "ND",
    "NORM",
    "MOSAIC"
],
  "ImagingFrequency": 123.252,
  "InPlanePhaseEncodingDirectionDICOM": "COL",
  "InstitutionAddress": "Maynard 3,Hanover,NH,US,03755",
  "InstitutionName": "Dartmouth College - PBS",
  "InstitutionalDepartmentName": "Department",
  "MRAcquisitionType": "2D",
  "MagneticFieldStrength": 3,
  "Manufacturer": "Siemens",
  "ManufacturersModelName": "Prisma",
  "Modality": "MR",
  "MultibandAccelerationFactor": 8,
  "PartialFourier": 1,
  "PatientPosition": "HFS",
  "PercentPhaseFOV": 100,
  "PercentSampling": 100,
  "PhaseEncodingDirection": "j-",
  "PhaseEncodingSteps": 82,
  "PhaseResolution": 1,
  "PixelBandwidth": 3050,
  "ProcedureStepDescription": "Wager_Wager^1076_spacetop",
  "ProtocolName": "func_run-03_task-social_acq-ap-mb8",
  "PulseSequenceDetails": "%CustomerSeq%\\cmrr_mbep2d_bold",
  "ReceiveCoilActiveElements": "HEA;HEP",
  "ReceiveCoilName": "Head_32",
  "ReconMatrixPE": 82,
  "RepetitionTime": 0.46,
  "SAR": 0.0774463,
  "ScanOptions": "FS",
  "ScanningSequence": "EP",
  "SequenceName": "epfid2d1_82",
  "SequenceVariant": "SK\\SS",
  "SeriesDescription": "func_run-03_task-social_acq-ap-mb8",
  "SeriesNumber": 16,
  "ShimSetting": [4129, -7740, -7155, 778, -67, -71, 179, 67],
  "SliceThickness": 2.7,
  "SliceTiming": [0, 0.25, 0.0625, 0.315, 0.125, 0.3775, 0.1875, 0, 0.25, 0.0625, 0.315, 0.125, 0.3775, 0.1875, 0, 0.25, 0.0625, 0.315, 0.125, 0.3775, 0.1875, 0, 0.25, 0.0625, 0.315, 0.125, 0.3775, 0.1875, 0, 0.25, 0.0625, 0.315, 0.125, 0.3775, 0.1875, 0, 0.25, 0.0625, 0.315, 0.125, 0.3775, 0.1875, 0, 0.25, 0.0625, 0.315, 0.125, 0.3775, 0.1875, 0, 0.25, 0.0625, 0.315, 0.125, 0.3775, 0.1875],
  "SoftwareVersions": "syngo MR E11",
  "SpacingBetweenSlices": 2.7,
  "StationName": "AWP66112",
  "TaskName": "social",
  "TotalReadoutTime": 0.03969,
  "TxRefAmp": 222.531,
  "WipMemBlock": "1e300153-8495-42e3-a7a3-d4f0b0d1fe58||Sequence: R016 ve11e/master r/434b28f1; Aug  7 2019 18:53:46 by eja",
  "dcmmeta_affine": [
    [-2.6794216632843018, 0.13338950276374817, -0.03188687935471535, 105.01686096191406],
    [0.12441539764404297, 2.626163959503174, 0.5380802154541016, -112.60397338867188],
    [-0.05759793147444725, -0.5325098037719727, 2.6456480026245117, -6.346395492553711],
    [0.0, 0.0, 0.0, 1.0]
],
  "dcmmeta_reorient_transform": [
    [0.0, -1.0, 0.0, 81.0],
    [1.0, 0.0, 0.0, 0.0],
    [0.0, 0.0, 1.0, 0.0],
    [0.0, 0.0, 0.0, 1.0]
],
  "dcmmeta_shape": [82, 82, 56, 872],
  "dcmmeta_slice_dim": 2,
  "dcmmeta_version": 0.6,
  "global": {
    "const": {
      "AccessionNumber": "A004183",
      "AcquisitionMatrix": [82, 0, 0, 82],
      "AngioFlag": "N",
      "BitsAllocated": 16,
      "BitsStored": 16,
      "BodyPartExamined": "BRAIN",
      "Columns": 656,
      "EchoNumbers": 1,
      "EchoTime": 27.2,
      "EchoTrainLength": 82,
      "FlipAngle": 44.0,
      "HighBit": 15,
      "ImageOrientationPatient": [0.99869347408974, -0.0463730098885, -0.0214683200193, 0.0497179018515, 0.9788429165023, 0.19848091860117],
      "ImagePositionPatient": [-923.09818984517, -818.11715415581, -185.77939315453],
      "ImageType": [
        "ORIGINAL",
        "PRIMARY",
        "M",
        "MB",
        "ND",
        "NORM",
        "MOSAIC"
],
      "ImagedNucleus": "1H",
      "ImagingFrequency": 123.252136,
      "InPlanePhaseEncodingDirection": "COL",
      "MRAcquisitionType": "2D",
      "MagneticFieldStrength": 3.0,
      "Manufacturer": "SIEMENS",
      "ManufacturerModelName": "Prisma",
      "Modality": "MR",
      "NumberOfAverages": 1.0,
      "NumberOfPhaseEncodingSteps": 82,
      "PercentPhaseFieldOfView": 100.0,
      "PercentSampling": 100.0,
      "PerformedProcedureStepStartTime": "081026.590000",
      "PhotometricInterpretation": "MONOCHROME2",
      "PixelBandwidth": 3050.0,
      "PixelRepresentation": 0,
      "PixelSpacing": [2.6829268932343, 2.6829268932343],
      "ProtocolName": "func_run-03_task-social_acq-ap-mb8",
      "RepetitionTime": 460.0,
      "Rows": 656,
      "SAR": 0.07744625949685,
      "SamplesPerPixel": 1,
      "ScanOptions": "FS",
      "ScanningSequence": "EP",
      "SequenceName": "epfid2d1_82",
      "SequenceVariant": [
        "SK",
        "SS"
],
      "SeriesDescription": "func_run-03_task-social_acq-ap-mb8",
      "SeriesNumber": 16,
      "SeriesTime": "090447.591000",
      "SliceLocation": -29.899613247094,
      "SliceThickness": 2.7000000476837,
      "SmallestImagePixelValue": 0,
      "SoftwareVersions": "syngo MR E11",
      "SpacingBetweenSlices": 2.7000000264181,
      "SpecificCharacterSet": "ISO_IR 100",
      "StudyID": "2",
      "StudyTime": "081026.478000",
      "TransmitCoilName": "Body",
      "VariableFlipAngleFlag": "N",
      "WindowCenterWidthExplanation": "Algo1"
    },
    "slices": {}
  },
  "time": {
    "samples": {
      "AcquisitionNumber": [1, 2, 3, 4, 5, 6, 7, 8, 9, 10, 11, 12, 13, 14, 15, 16, 17, 18, 19, 20, 21, 22, 23, 24, 25, 26, 27, 28, 29, 30, 31, 32, 33, 34, 35, 36, 37, 38, 39, 40, 41, 42, 43, 44, 45, 46, 47, 48, 49, 50, 51, 52, 53, 54, 55, 56, 57, 58, 59, 60, 61, 62, 63, 64, 65, 66, 67, 68, 69, 70, 71, 72, 73, 74, 75, 76, 77, 78, 79, 80, 81, 82, 83, 84, 85, 86, 87, 88, 89, 90, 91, 92, 93, 94, 95, 96, 97, 98, 99, 100, 101, 102, 103, 104, 105, 106, 107, 108, 109, 110, 111, 112, 113, 114, 115, 116, 117, 118, 119, 120, 121, 122, 123, 124, 125, 126, 127, 128, 129, 130, 131, 132, 133, 134, 135, 136, 137, 138, 139, 140, 141, 142, 143, 144, 145, 146, 147, 148, 149, 150, 151, 152, 153, 154, 155, 156, 157, 158, 159, 160, 161, 162, 163, 164, 165, 166, 167, 168, 169, 170, 171, 172, 173, 174, 175, 176, 177, 178, 179, 180, 181, 182, 183, 184, 185, 186, 187, 188, 189, 190, 191, 192, 193, 194, 195, 196, 197, 198, 199, 200, 201, 202, 203, 204, 205, 206, 207, 208, 209, 210, 211, 212, 213, 214, 215, 216, 217, 218, 219, 220, 221, 222, 223, 224, 225, 226, 227, 228, 229, 230, 231, 232, 233, 234, 235, 236, 237, 238, 239, 240, 241, 242, 243, 244, 245, 246, 247, 248, 249, 250, 251, 252, 253, 254, 255, 256, 257, 258, 259, 260, 261, 262, 263, 264, 265, 266, 267, 268, 269, 270, 271, 272, 273, 274, 275, 276, 277, 278, 279, 280, 281, 282, 283, 284, 285, 286, 287, 288, 289, 290, 291, 292, 293, 294, 295, 296, 297, 298, 299, 300, 301, 302, 303, 304, 305, 306, 307, 308, 309, 310, 311, 312, 313, 314, 315, 316, 317, 318, 319, 320, 321, 322, 323, 324, 325, 326, 327, 328, 329, 330, 331, 332, 333, 334, 335, 336, 337, 338, 339, 340, 341, 342, 343, 344, 345, 346, 347, 348, 349, 350, 351, 352, 353, 354, 355, 356, 357, 358, 359, 360, 361, 362, 363, 364, 365, 366, 367, 368, 369, 370, 371, 372, 373, 374, 375, 376, 377, 378, 379, 380, 381, 382, 383, 384, 385, 386, 387, 388, 389, 390, 391, 392, 393, 394, 395, 396, 397, 398, 399, 400, 401, 402, 403, 404, 405, 406, 407, 408, 409, 410, 411, 412, 413, 414, 415, 416, 417, 418, 419, 420, 421, 422, 423, 424, 425, 426, 427, 428, 429, 430, 431, 432, 433, 434, 435, 436, 437, 438, 439, 440, 441, 442, 443, 444, 445, 446, 447, 448, 449, 450, 451, 452, 453, 454, 455, 456, 457, 458, 459, 460, 461, 462, 463, 464, 465, 466, 467, 468, 469, 470, 471, 472, 473, 474, 475, 476, 477, 478, 479, 480, 481, 482, 483, 484, 485, 486, 487, 488, 489, 490, 491, 492, 493, 494, 495, 496, 497, 498, 499, 500, 501, 502, 503, 504, 505, 506, 507, 508, 509, 510, 511, 512, 513, 514, 515, 516, 517, 518, 519, 520, 521, 522, 523, 524, 525, 526, 527, 528, 529, 530, 531, 532, 533, 534, 535, 536, 537, 538, 539, 540, 541, 542, 543, 544, 545, 546, 547, 548, 549, 550, 551, 552, 553, 554, 555, 556, 557, 558, 559, 560, 561, 562, 563, 564, 565, 566, 567, 568, 569, 570, 571, 572, 573, 574, 575, 576, 577, 578, 579, 580, 581, 582, 583, 584, 585, 586, 587, 588, 589, 590, 591, 592, 593, 594, 595, 596, 597, 598, 599, 600, 601, 602, 603, 604, 605, 606, 607, 608, 609, 610, 611, 612, 613, 614, 615, 616, 617, 618, 619, 620, 621, 622, 623, 624, 625, 626, 627, 628, 629, 630, 631, 632, 633, 634, 635, 636, 637, 638, 639, 640, 641, 642, 643, 644, 645, 646, 647, 648, 649, 650, 651, 652, 653, 654, 655, 656, 657, 658, 659, 660, 661, 662, 663, 664, 665, 666, 667, 668, 669, 670, 671, 672, 673, 674, 675, 676, 677, 678, 679, 680, 681, 682, 683, 684, 685, 686, 687, 688, 689, 690, 691, 692, 693, 694, 695, 696, 697, 698, 699, 700, 701, 702, 703, 704, 705, 706, 707, 708, 709, 710, 711, 712, 713, 714, 715, 716, 717, 718, 719, 720, 721, 722, 723, 724, 725, 726, 727, 728, 729, 730, 731, 732, 733, 734, 735, 736, 737, 738, 739, 740, 741, 742, 743, 744, 745, 746, 747, 748, 749, 750, 751, 752, 753, 754, 755, 756, 757, 758, 759, 760, 761, 762, 763, 764, 765, 766, 767, 768, 769, 770, 771, 772, 773, 774, 775, 776, 777, 778, 779, 780, 781, 782, 783, 784, 785, 786, 787, 788, 789, 790, 791, 792, 793, 794, 795, 796, 797, 798, 799, 800, 801, 802, 803, 804, 805, 806, 807, 808, 809, 810, 811, 812, 813, 814, 815, 816, 817, 818, 819, 820, 821, 822, 823, 824, 825, 826, 827, 828, 829, 830, 831, 832, 833, 834, 835, 836, 837, 838, 839, 840, 841, 842, 843, 844, 845, 846, 847, 848, 849, 850, 851, 852, 853, 854, 855, 856, 857, 858, 859, 860, 861, 862, 863, 864, 865, 866, 867, 868, 869, 870, 871, 872],
      "AcquisitionTime": ["090439.295000", "090439.755000", "090440.215000", "090440.675000", "090441.135000", "090441.595000", "090442.055000", "090442.515000", "090442.975000", "090443.435000", "090443.895000", "090444.355000", "090444.815000", "090445.275000", "090445.735000", "090446.195000", "090446.655000", "090447.115000", "090447.575000", "090448.035000", "090448.495000", "090448.955000", "090449.415000", "090449.875000", "090450.335000", "090450.795000", "090451.255000", "090451.715000", "090452.175000", "090452.635000", "090453.095000", "090453.555000", "090454.015000", "090454.475000", "090454.935000", "090455.395000", "090455.855000", "090456.315000", "090456.775000", "090457.235000", "090457.695000", "090458.155000", "090458.615000", "090459.075000", "090459.535000", "090459.995000", "090500.455000", "090500.915000", "090501.375000", "090501.835000", "090502.295000", "090502.755000", "090503.215000", "090503.675000", "090504.135000", "090504.595000", "090505.055000", "090505.515000", "090505.975000", "090506.435000", "090506.895000", "090507.355000", "090507.815000", "090508.275000", "090508.735000", "090509.195000", "090509.655000", "090510.115000", "090510.575000", "090511.035000", "090511.495000", "090511.955000", "090512.415000", "090512.875000", "090513.335000", "090513.795000", "090514.255000", "090514.715000", "090515.175000", "090515.635000", "090516.095000", "090516.555000", "090517.015000", "090517.475000", "090517.935000", "090518.395000", "090518.855000", "090519.315000", "090519.775000", "090520.235000", "090520.695000", "090521.155000", "090521.615000", "090522.075000", "090522.535000", "090522.995000", "090523.455000", "090523.915000", "090524.375000", "090524.835000", "090525.295000", "090525.755000", "090526.215000", "090526.675000", "090527.135000", "090527.595000", "090528.055000", "090528.515000", "090528.975000", "090529.435000", "090529.895000", "090530.355000", "090530.815000", "090531.275000", "090531.735000", "090532.195000", "090532.655000", "090533.115000", "090533.575000", "090534.035000", "090534.495000", "090534.955000", "090535.415000", "090535.875000", "090536.335000", "090536.795000", "090537.255000", "090537.715000", "090538.175000", "090538.635000", "090539.095000", "090539.555000", "090540.015000", "090540.475000", "090540.935000", "090541.395000", "090541.855000", "090542.315000", "090542.775000", "090543.235000", "090543.695000", "090544.155000", "090544.615000", "090545.075000", "090545.535000", "090545.995000", "090546.455000", "090546.915000", "090547.375000", "090547.835000", "090548.295000", "090548.755000", "090549.215000", "090549.675000", "090550.135000", "090550.595000", "090551.055000", "090551.515000", "090551.975000", "090552.435000", "090552.895000", "090553.355000", "090553.815000", "090554.275000", "090554.735000", "090555.195000", "090555.655000", "090556.115000", "090556.575000", "090557.035000", "090557.495000", "090557.955000", "090558.415000", "090558.875000", "090559.335000", "090559.795000", "090600.255000", "090600.715000", "090601.175000", "090601.635000", "090602.095000", "090602.555000", "090603.015000", "090603.475000", "090603.935000", "090604.395000", "090604.855000", "090605.315000", "090605.775000", "090606.235000", "090606.695000", "090607.155000", "090607.615000", "090608.075000", "090608.535000", "090608.995000", "090609.455000", "090609.915000", "090610.375000", "090610.835000", "090611.295000", "090611.755000", "090612.215000", "090612.675000", "090613.135000", "090613.595000", "090614.055000", "090614.515000", "090614.975000", "090615.435000", "090615.895000", "090616.355000", "090616.815000", "090617.275000", "090617.735000", "090618.195000", "090618.655000", "090619.115000", "090619.575000", "090620.035000", "090620.495000", "090620.955000", "090621.415000", "090621.875000", "090622.335000", "090622.795000", "090623.255000", "090623.715000", "090624.175000", "090624.635000", "090625.095000", "090625.555000", "090626.015000", "090626.475000", "090626.935000", "090627.395000", "090627.855000", "090628.315000", "090628.775000", "090629.235000", "090629.695000", "090630.155000", "090630.615000", "090631.075000", "090631.535000", "090631.995000", "090632.455000", "090632.915000", "090633.375000", "090633.835000", "090634.295000", "090634.755000", "090635.215000", "090635.675000", "090636.135000", "090636.595000", "090637.055000", "090637.515000", "090637.975000", "090638.435000", "090638.895000", "090639.355000", "090639.815000", "090640.275000", "090640.735000", "090641.195000", "090641.655000", "090642.115000", "090642.575000", "090643.035000", "090643.495000", "090643.955000", "090644.415000", "090644.875000", "090645.335000", "090645.795000", "090646.255000", "090646.715000", "090647.175000", "090647.635000", "090648.095000", "090648.555000", "090649.015000", "090649.475000", "090649.935000", "090650.395000", "090650.855000", "090651.315000", "090651.775000", "090652.235000", "090652.695000", "090653.155000", "090653.615000", "090654.075000", "090654.535000", "090654.995000", "090655.455000", "090655.915000", "090656.375000", "090656.835000", "090657.295000", "090657.755000", "090658.215000", "090658.675000", "090659.135000", "090659.595000", "090700.055000", "090700.515000", "090700.975000", "090701.435000", "090701.895000", "090702.355000", "090702.815000", "090703.275000", "090703.735000", "090704.195000", "090704.655000", "090705.115000", "090705.575000", "090706.035000", "090706.495000", "090706.955000", "090707.415000", "090707.875000", "090708.335000", "090708.795000", "090709.255000", "090709.715000", "090710.175000", "090710.635000", "090711.095000", "090711.555000", "090712.015000", "090712.475000", "090712.935000", "090713.395000", "090713.855000", "090714.315000", "090714.775000", "090715.235000", "090715.695000", "090716.155000", "090716.615000", "090717.075000", "090717.535000", "090717.995000", "090718.455000", "090718.915000", "090719.375000", "090719.835000", "090720.295000", "090720.755000", "090721.215000", "090721.675000", "090722.135000", "090722.595000", "090723.055000", "090723.515000", "090723.975000", "090724.435000", "090724.895000", "090725.355000", "090725.815000", "090726.275000", "090726.735000", "090727.195000", "090727.655000", "090728.115000", "090728.575000", "090729.035000", "090729.495000", "090729.955000", "090730.415000", "090730.875000", "090731.335000", "090731.795000", "090732.255000", "090732.715000", "090733.175000", "090733.635000", "090734.095000", "090734.555000", "090735.015000", "090735.475000", "090735.935000", "090736.395000", "090736.855000", "090737.315000", "090737.775000", "090738.235000", "090738.695000", "090739.155000", "090739.615000", "090740.075000", "090740.535000", "090740.995000", "090741.455000", "090741.915000", "090742.375000", "090742.835000", "090743.295000", "090743.755000", "090744.215000", "090744.675000", "090745.135000", "090745.595000", "090746.055000", "090746.515000", "090746.975000", "090747.435000", "090747.895000", "090748.355000", "090748.815000", "090749.275000", "090749.735000", "090750.195000", "090750.655000", "090751.115000", "090751.575000", "090752.035000", "090752.495000", "090752.955000", "090753.415000", "090753.875000", "090754.335000", "090754.795000", "090755.255000", "090755.715000", "090756.175000", "090756.635000", "090757.095000", "090757.555000", "090758.015000", "090758.475000", "090758.935000", "090759.395000", "090759.855000", "090800.315000", "090800.775000", "090801.235000", "090801.695000", "090802.155000", "090802.615000", "090803.075000", "090803.535000", "090803.995000", "090804.455000", "090804.915000", "090805.375000", "090805.835000", "090806.295000", "090806.755000", "090807.215000", "090807.675000", "090808.135000", "090808.595000", "090809.055000", "090809.515000", "090809.975000", "090810.435000", "090810.895000", "090811.355000", "090811.815000", "090812.275000", "090812.735000", "090813.195000", "090813.655000", "090814.115000", "090814.575000", "090815.035000", "090815.495000", "090815.955000", "090816.415000", "090816.875000", "090817.335000", "090817.795000", "090818.255000", "090818.715000", "090819.175000", "090819.635000", "090820.095000", "090820.555000", "090821.015000", "090821.475000", "090821.935000", "090822.395000", "090822.855000", "090823.315000", "090823.775000", "090824.235000", "090824.695000", "090825.155000", "090825.615000", "090826.075000", "090826.535000", "090826.995000", "090827.455000", "090827.915000", "090828.375000", "090828.835000", "090829.295000", "090829.755000", "090830.215000", "090830.675000", "090831.135000", "090831.595000", "090832.055000", "090832.515000", "090832.975000", "090833.435000", "090833.895000", "090834.355000", "090834.815000", "090835.275000", "090835.735000", "090836.195000", "090836.655000", "090837.115000", "090837.575000", "090838.035000", "090838.495000", "090838.955000", "090839.415000", "090839.875000", "090840.335000", "090840.795000", "090841.255000", "090841.715000", "090842.175000", "090842.635000", "090843.095000", "090843.555000", "090844.015000", "090844.475000", "090844.935000", "090845.395000", "090845.855000", "090846.315000", "090846.775000", "090847.235000", "090847.695000", "090848.155000", "090848.615000", "090849.075000", "090849.535000", "090849.995000", "090850.455000", "090850.915000", "090851.375000", "090851.835000", "090852.295000", "090852.755000", "090853.215000", "090853.675000", "090854.135000", "090854.595000", "090855.055000", "090855.515000", "090855.975000", "090856.435000", "090856.895000", "090857.355000", "090857.815000", "090858.275000", "090858.735000", "090859.195000", "090859.655000", "090900.115000", "090900.575000", "090901.035000", "090901.495000", "090901.955000", "090902.415000", "090902.875000", "090903.335000", "090903.795000", "090904.255000", "090904.715000", "090905.175000", "090905.635000", "090906.095000", "090906.555000", "090907.015000", "090907.475000", "090907.935000", "090908.395000", "090908.855000", "090909.315000", "090909.775000", "090910.235000", "090910.695000", "090911.155000", "090911.615000", "090912.075000", "090912.535000", "090912.995000", "090913.455000", "090913.915000", "090914.375000", "090914.835000", "090915.295000", "090915.755000", "090916.215000", "090916.675000", "090917.135000", "090917.595000", "090918.055000", "090918.515000", "090918.975000", "090919.435000", "090919.895000", "090920.355000", "090920.815000", "090921.275000", "090921.735000", "090922.195000", "090922.655000", "090923.115000", "090923.575000", "090924.035000", "090924.495000", "090924.955000", "090925.415000", "090925.875000", "090926.335000", "090926.795000", "090927.255000", "090927.715000", "090928.175000", "090928.635000", "090929.095000", "090929.555000", "090930.015000", "090930.475000", "090930.935000", "090931.395000", "090931.855000", "090932.315000", "090932.775000", "090933.235000", "090933.695000", "090934.155000", "090934.615000", "090935.075000", "090935.535000", "090935.995000", "090936.455000", "090936.915000", "090937.375000", "090937.835000", "090938.295000", "090938.755000", "090939.215000", "090939.675000", "090940.135000", "090940.595000", "090941.055000", "090941.515000", "090941.975000", "090942.435000", "090942.895000", "090943.355000", "090943.815000", "090944.275000", "090944.735000", "090945.195000", "090945.655000", "090946.115000", "090946.575000", "090947.035000", "090947.495000", "090947.955000", "090948.415000", "090948.875000", "090949.335000", "090949.795000", "090950.255000", "090950.715000", "090951.175000", "090951.635000", "090952.095000", "090952.555000", "090953.015000", "090953.475000", "090953.935000", "090954.395000", "090954.855000", "090955.315000", "090955.775000", "090956.235000", "090956.695000", "090957.155000", "090957.615000", "090958.075000", "090958.535000", "090958.995000", "090959.455000", "090959.915000", "091000.375000", "091000.835000", "091001.295000", "091001.755000", "091002.215000", "091002.675000", "091003.135000", "091003.595000", "091004.055000", "091004.515000", "091004.975000", "091005.435000", "091005.895000", "091006.355000", "091006.815000", "091007.275000", "091007.735000", "091008.195000", "091008.655000", "091009.115000", "091009.575000", "091010.035000", "091010.495000", "091010.955000", "091011.415000", "091011.875000", "091012.335000", "091012.795000", "091013.255000", "091013.715000", "091014.175000", "091014.635000", "091015.095000", "091015.555000", "091016.015000", "091016.475000", "091016.935000", "091017.395000", "091017.855000", "091018.315000", "091018.775000", "091019.235000", "091019.695000", "091020.155000", "091020.615000", "091021.075000", "091021.535000", "091021.995000", "091022.455000", "091022.915000", "091023.375000", "091023.835000", "091024.295000", "091024.755000", "091025.215000", "091025.675000", "091026.135000", "091026.595000", "091027.055000", "091027.515000", "091027.975000", "091028.435000", "091028.895000", "091029.355000", "091029.815000", "091030.275000", "091030.735000", "091031.195000", "091031.655000", "091032.115000", "091032.575000", "091033.035000", "091033.495000", "091033.955000", "091034.415000", "091034.875000", "091035.335000", "091035.795000", "091036.255000", "091036.715000", "091037.175000", "091037.635000", "091038.095000", "091038.555000", "091039.015000", "091039.475000", "091039.935000", "091040.395000", "091040.855000", "091041.315000", "091041.775000", "091042.235000", "091042.695000", "091043.155000", "091043.615000", "091044.075000", "091044.535000", "091044.995000", "091045.455000", "091045.915000", "091046.375000", "091046.835000", "091047.295000", "091047.755000", "091048.215000", "091048.675000", "091049.135000", "091049.595000", "091050.055000", "091050.515000", "091050.975000", "091051.435000", "091051.895000", "091052.355000", "091052.815000", "091053.275000", "091053.735000", "091054.195000", "091054.655000", "091055.115000", "091055.575000", "091056.035000", "091056.495000", "091056.955000", "091057.415000", "091057.875000", "091058.335000", "091058.795000", "091059.255000", "091059.715000", "091100.175000", "091100.635000", "091101.095000", "091101.555000", "091102.015000", "091102.475000", "091102.935000", "091103.395000", "091103.855000", "091104.315000", "091104.775000", "091105.235000", "091105.695000", "091106.155000", "091106.615000", "091107.075000", "091107.535000", "091107.995000", "091108.455000", "091108.915000", "091109.375000", "091109.835000", "091110.295000", "091110.755000", "091111.215000", "091111.675000", "091112.135000", "091112.595000", "091113.055000", "091113.515000", "091113.975000", "091114.435000", "091114.895000", "091115.355000", "091115.815000", "091116.275000", "091116.735000", "091117.195000", "091117.655000", "091118.115000", "091118.575000", "091119.035000", "091119.495000", "091119.955000"],
