{
  "AcquisitionMatrixPE": 82,
  "AcquisitionNumber": 1,
  "AcquisitionTime": "08:54:2.022500",
  "BandwidthPerPixelPhaseEncode": 24.888,
  "BaseResolution": 82,
  "BodyPartExamined": "BRAIN",
  "ConsistencyInfo": "N4_VE11E_LATEST_20181129",
  "ConversionSoftware": "dcm2niix",
  "ConversionSoftwareVersion": "v1.0.20201102",
  "DerivedVendorReportedEchoSpacing": 0.00049,
  "DeviceSerialNumber": "66112",
  "DwellTime": 2e-06,
  "EchoTime": 0.0272,
  "EchoTrainLength": 82,
  "EffectiveEchoSpacing": 0.00049,
  "FlipAngle": 44,
  "ImageComments": "Unaliased MB8/PE3",
  "ImageOrientationPatientDICOM": [0.998693, -0.046373, -0.0214683, 0.0497179, 0.978843, 0.198481],
  "ImageType": [
    "ORIGINAL",
    "PRIMARY",
    "M",
    "MB",
    "ND",
    "NORM",
    "MOSAIC"
],
  "ImagingFrequency": 123.252,
  "InPlanePhaseEncodingDirectionDICOM": "COL",
  "InstitutionAddress": "Maynard 3,Hanover,NH,US,03755",
  "InstitutionName": "Dartmouth College - PBS",
  "InstitutionalDepartmentName": "Department",
  "MRAcquisitionType": "2D",
  "MagneticFieldStrength": 3,
  "Manufacturer": "Siemens",
  "ManufacturersModelName": "Prisma",
  "Modality": "MR",
  "MultibandAccelerationFactor": 8,
  "PartialFourier": 1,
  "PatientPosition": "HFS",
  "PercentPhaseFOV": 100,
  "PercentSampling": 100,
  "PhaseEncodingDirection": "j-",
  "PhaseEncodingSteps": 82,
  "PhaseResolution": 1,
  "PixelBandwidth": 3050,
  "ProcedureStepDescription": "Wager_Wager^1076_spacetop",
  "ProtocolName": "func_run-02_task-social_acq-ap-mb8",
  "PulseSequenceDetails": "%CustomerSeq%\\cmrr_mbep2d_bold",
  "ReceiveCoilActiveElements": "HEA;HEP",
  "ReceiveCoilName": "Head_32",
  "ReconMatrixPE": 82,
  "RepetitionTime": 0.46,
  "SAR": 0.0774463,
  "ScanOptions": "FS",
  "ScanningSequence": "EP",
  "SequenceName": "epfid2d1_82",
  "SequenceVariant": "SK\\SS",
  "SeriesDescription": "func_run-02_task-social_acq-ap-mb8",
  "SeriesNumber": 14,
  "ShimSetting": [4129, -7740, -7155, 778, -67, -71, 179, 67],
  "SliceThickness": 2.7,
  "SliceTiming": [0, 0.25, 0.0625, 0.315, 0.125, 0.3775, 0.1875, 0, 0.25, 0.0625, 0.315, 0.125, 0.3775, 0.1875, 0, 0.25, 0.0625, 0.315, 0.125, 0.3775, 0.1875, 0, 0.25, 0.0625, 0.315, 0.125, 0.3775, 0.1875, 0, 0.25, 0.0625, 0.315, 0.125, 0.3775, 0.1875, 0, 0.25, 0.0625, 0.315, 0.125, 0.3775, 0.1875, 0, 0.25, 0.0625, 0.315, 0.125, 0.3775, 0.1875, 0, 0.25, 0.0625, 0.315, 0.125, 0.3775, 0.1875],
  "SoftwareVersions": "syngo MR E11",
  "SpacingBetweenSlices": 2.7,
  "StationName": "AWP66112",
  "TaskName": "social",
  "TotalReadoutTime": 0.03969,
  "TxRefAmp": 222.531,
  "WipMemBlock": "63984111-6007-47af-bcff-0e44d132a1b2||Sequence: R016 ve11e/master r/434b28f1; Aug  7 2019 18:53:46 by eja",
  "dcmmeta_affine": [
    [-2.6794216632843018, 0.13338950276374817, -0.03188687935471535, 105.01686096191406],
    [0.12441539764404297, 2.626163959503174, 0.5380802154541016, -112.60397338867188],
    [-0.05759793147444725, -0.5325098037719727, 2.6456480026245117, -6.346395492553711],
    [0.0, 0.0, 0.0, 1.0]
],
  "dcmmeta_reorient_transform": [
    [0.0, -1.0, 0.0, 81.0],
    [1.0, 0.0, 0.0, 0.0],
    [0.0, 0.0, 1.0, 0.0],
    [0.0, 0.0, 0.0, 1.0]
],
  "dcmmeta_shape": [82, 82, 56, 872],
  "dcmmeta_slice_dim": 2,
  "dcmmeta_version": 0.6,
  "global": {
    "const": {
      "AccessionNumber": "A004183",
      "AcquisitionMatrix": [82, 0, 0, 82],
      "AngioFlag": "N",
      "BitsAllocated": 16,
      "BitsStored": 16,
      "BodyPartExamined": "BRAIN",
      "Columns": 656,
      "EchoNumbers": 1,
      "EchoTime": 27.2,
      "EchoTrainLength": 82,
      "FlipAngle": 44.0,
      "HighBit": 15,
      "ImageOrientationPatient": [0.99869347408974, -0.0463730098885, -0.0214683200193, 0.0497179018515, 0.9788429165023, 0.19848091860117],
      "ImagePositionPatient": [-923.09818984517, -818.11715415581, -185.77939315453],
      "ImageType": [
        "ORIGINAL",
        "PRIMARY",
        "M",
        "MB",
        "ND",
        "NORM",
        "MOSAIC"
],
      "ImagedNucleus": "1H",
      "ImagingFrequency": 123.252134,
      "InPlanePhaseEncodingDirection": "COL",
      "MRAcquisitionType": "2D",
      "MagneticFieldStrength": 3.0,
      "Manufacturer": "SIEMENS",
      "ManufacturerModelName": "Prisma",
      "Modality": "MR",
      "NumberOfAverages": 1.0,
      "NumberOfPhaseEncodingSteps": 82,
      "PercentPhaseFieldOfView": 100.0,
      "PercentSampling": 100.0,
      "PerformedProcedureStepStartTime": "081026.590000",
      "PhotometricInterpretation": "MONOCHROME2",
      "PixelBandwidth": 3050.0,
      "PixelRepresentation": 0,
      "PixelSpacing": [2.6829268932343, 2.6829268932343],
      "ProtocolName": "func_run-02_task-social_acq-ap-mb8",
      "RepetitionTime": 460.0,
      "Rows": 656,
      "SAR": 0.07744625949685,
      "SamplesPerPixel": 1,
      "ScanOptions": "FS",
      "ScanningSequence": "EP",
      "SequenceName": "epfid2d1_82",
      "SequenceVariant": [
        "SK",
        "SS"
],
      "SeriesDescription": "func_run-02_task-social_acq-ap-mb8",
      "SeriesNumber": 14,
      "SeriesTime": "085427.521000",
      "SliceLocation": -29.899613247094,
      "SliceThickness": 2.7000000476837,
      "SmallestImagePixelValue": 0,
      "SoftwareVersions": "syngo MR E11",
      "SpacingBetweenSlices": 2.7000000264181,
      "SpecificCharacterSet": "ISO_IR 100",
      "StudyID": "2",
      "StudyTime": "081026.478000",
      "TransmitCoilName": "Body",
      "VariableFlipAngleFlag": "N",
      "WindowCenterWidthExplanation": "Algo1"
    },
    "slices": {}
  },
  "time": {
    "samples": {
      "AcquisitionNumber": [1, 2, 3, 4, 5, 6, 7, 8, 9, 10, 11, 12, 13, 14, 15, 16, 17, 18, 19, 20, 21, 22, 23, 24, 25, 26, 27, 28, 29, 30, 31, 32, 33, 34, 35, 36, 37, 38, 39, 40, 41, 42, 43, 44, 45, 46, 47, 48, 49, 50, 51, 52, 53, 54, 55, 56, 57, 58, 59, 60, 61, 62, 63, 64, 65, 66, 67, 68, 69, 70, 71, 72, 73, 74, 75, 76, 77, 78, 79, 80, 81, 82, 83, 84, 85, 86, 87, 88, 89, 90, 91, 92, 93, 94, 95, 96, 97, 98, 99, 100, 101, 102, 103, 104, 105, 106, 107, 108, 109, 110, 111, 112, 113, 114, 115, 116, 117, 118, 119, 120, 121, 122, 123, 124, 125, 126, 127, 128, 129, 130, 131, 132, 133, 134, 135, 136, 137, 138, 139, 140, 141, 142, 143, 144, 145, 146, 147, 148, 149, 150, 151, 152, 153, 154, 155, 156, 157, 158, 159, 160, 161, 162, 163, 164, 165, 166, 167, 168, 169, 170, 171, 172, 173, 174, 175, 176, 177, 178, 179, 180, 181, 182, 183, 184, 185, 186, 187, 188, 189, 190, 191, 192, 193, 194, 195, 196, 197, 198, 199, 200, 201, 202, 203, 204, 205, 206, 207, 208, 209, 210, 211, 212, 213, 214, 215, 216, 217, 218, 219, 220, 221, 222, 223, 224, 225, 226, 227, 228, 229, 230, 231, 232, 233, 234, 235, 236, 237, 238, 239, 240, 241, 242, 243, 244, 245, 246, 247, 248, 249, 250, 251, 252, 253, 254, 255, 256, 257, 258, 259, 260, 261, 262, 263, 264, 265, 266, 267, 268, 269, 270, 271, 272, 273, 274, 275, 276, 277, 278, 279, 280, 281, 282, 283, 284, 285, 286, 287, 288, 289, 290, 291, 292, 293, 294, 295, 296, 297, 298, 299, 300, 301, 302, 303, 304, 305, 306, 307, 308, 309, 310, 311, 312, 313, 314, 315, 316, 317, 318, 319, 320, 321, 322, 323, 324, 325, 326, 327, 328, 329, 330, 331, 332, 333, 334, 335, 336, 337, 338, 339, 340, 341, 342, 343, 344, 345, 346, 347, 348, 349, 350, 351, 352, 353, 354, 355, 356, 357, 358, 359, 360, 361, 362, 363, 364, 365, 366, 367, 368, 369, 370, 371, 372, 373, 374, 375, 376, 377, 378, 379, 380, 381, 382, 383, 384, 385, 386, 387, 388, 389, 390, 391, 392, 393, 394, 395, 396, 397, 398, 399, 400, 401, 402, 403, 404, 405, 406, 407, 408, 409, 410, 411, 412, 413, 414, 415, 416, 417, 418, 419, 420, 421, 422, 423, 424, 425, 426, 427, 428, 429, 430, 431, 432, 433, 434, 435, 436, 437, 438, 439, 440, 441, 442, 443, 444, 445, 446, 447, 448, 449, 450, 451, 452, 453, 454, 455, 456, 457, 458, 459, 460, 461, 462, 463, 464, 465, 466, 467, 468, 469, 470, 471, 472, 473, 474, 475, 476, 477, 478, 479, 480, 481, 482, 483, 484, 485, 486, 487, 488, 489, 490, 491, 492, 493, 494, 495, 496, 497, 498, 499, 500, 501, 502, 503, 504, 505, 506, 507, 508, 509, 510, 511, 512, 513, 514, 515, 516, 517, 518, 519, 520, 521, 522, 523, 524, 525, 526, 527, 528, 529, 530, 531, 532, 533, 534, 535, 536, 537, 538, 539, 540, 541, 542, 543, 544, 545, 546, 547, 548, 549, 550, 551, 552, 553, 554, 555, 556, 557, 558, 559, 560, 561, 562, 563, 564, 565, 566, 567, 568, 569, 570, 571, 572, 573, 574, 575, 576, 577, 578, 579, 580, 581, 582, 583, 584, 585, 586, 587, 588, 589, 590, 591, 592, 593, 594, 595, 596, 597, 598, 599, 600, 601, 602, 603, 604, 605, 606, 607, 608, 609, 610, 611, 612, 613, 614, 615, 616, 617, 618, 619, 620, 621, 622, 623, 624, 625, 626, 627, 628, 629, 630, 631, 632, 633, 634, 635, 636, 637, 638, 639, 640, 641, 642, 643, 644, 645, 646, 647, 648, 649, 650, 651, 652, 653, 654, 655, 656, 657, 658, 659, 660, 661, 662, 663, 664, 665, 666, 667, 668, 669, 670, 671, 672, 673, 674, 675, 676, 677, 678, 679, 680, 681, 682, 683, 684, 685, 686, 687, 688, 689, 690, 691, 692, 693, 694, 695, 696, 697, 698, 699, 700, 701, 702, 703, 704, 705, 706, 707, 708, 709, 710, 711, 712, 713, 714, 715, 716, 717, 718, 719, 720, 721, 722, 723, 724, 725, 726, 727, 728, 729, 730, 731, 732, 733, 734, 735, 736, 737, 738, 739, 740, 741, 742, 743, 744, 745, 746, 747, 748, 749, 750, 751, 752, 753, 754, 755, 756, 757, 758, 759, 760, 761, 762, 763, 764, 765, 766, 767, 768, 769, 770, 771, 772, 773, 774, 775, 776, 777, 778, 779, 780, 781, 782, 783, 784, 785, 786, 787, 788, 789, 790, 791, 792, 793, 794, 795, 796, 797, 798, 799, 800, 801, 802, 803, 804, 805, 806, 807, 808, 809, 810, 811, 812, 813, 814, 815, 816, 817, 818, 819, 820, 821, 822, 823, 824, 825, 826, 827, 828, 829, 830, 831, 832, 833, 834, 835, 836, 837, 838, 839, 840, 841, 842, 843, 844, 845, 846, 847, 848, 849, 850, 851, 852, 853, 854, 855, 856, 857, 858, 859, 860, 861, 862, 863, 864, 865, 866, 867, 868, 869, 870, 871, 872],
      "AcquisitionTime": ["085402.022500", "085402.482500", "085402.942500", "085403.402500", "085403.862500", "085404.322500", "085404.782500", "085405.242500", "085405.702500", "085406.162500", "085406.622500", "085407.082500", "085407.542500", "085408.002500", "085408.462500", "085408.922500", "085409.382500", "085409.842500", "085410.302500", "085410.762500", "085411.222500", "085411.682500", "085412.142500", "085412.602500", "085413.062500", "085413.522500", "085413.982500", "085414.442500", "085414.902500", "085415.362500", "085415.822500", "085416.282500", "085416.742500", "085417.202500", "085417.662500", "085418.122500", "085418.582500", "085419.042500", "085419.502500", "085419.962500", "085420.422500", "085420.882500", "085421.342500", "085421.802500", "085422.262500", "085422.722500", "085423.182500", "085423.642500", "085424.102500", "085424.562500", "085425.022500", "085425.482500", "085425.942500", "085426.402500", "085426.862500", "085427.322500", "085427.782500", "085428.242500", "085428.702500", "085429.162500", "085429.622500", "085430.082500", "085430.542500", "085431.002500", "085431.462500", "085431.922500", "085432.382500", "085432.842500", "085433.302500", "085433.762500", "085434.222500", "085434.682500", "085435.142500", "085435.602500", "085436.062500", "085436.522500", "085436.982500", "085437.442500", "085437.902500", "085438.362500", "085438.822500", "085439.282500", "085439.742500", "085440.202500", "085440.662500", "085441.122500", "085441.582500", "085442.042500", "085442.502500", "085442.962500", "085443.422500", "085443.882500", "085444.342500", "085444.802500", "085445.262500", "085445.722500", "085446.182500", "085446.642500", "085447.102500", "085447.562500", "085448.022500", "085448.482500", "085448.942500", "085449.402500", "085449.862500", "085450.322500", "085450.782500", "085451.242500", "085451.702500", "085452.162500", "085452.622500", "085453.082500", "085453.542500", "085454.002500", "085454.462500", "085454.922500", "085455.382500", "085455.842500", "085456.302500", "085456.762500", "085457.222500", "085457.682500", "085458.142500", "085458.602500", "085459.062500", "085459.522500", "085459.982500", "085500.442500", "085500.902500", "085501.362500", "085501.822500", "085502.282500", "085502.742500", "085503.202500", "085503.662500", "085504.122500", "085504.582500", "085505.042500", "085505.502500", "085505.962500", "085506.422500", "085506.882500", "085507.342500", "085507.802500", "085508.262500", "085508.722500", "085509.182500", "085509.642500", "085510.102500", "085510.562500", "085511.022500", "085511.482500", "085511.942500", "085512.402500", "085512.862500", "085513.322500", "085513.782500", "085514.242500", "085514.702500", "085515.162500", "085515.622500", "085516.082500", "085516.542500", "085517.002500", "085517.462500", "085517.922500", "085518.382500", "085518.842500", "085519.302500", "085519.762500", "085520.222500", "085520.682500", "085521.142500", "085521.602500", "085522.062500", "085522.522500", "085522.982500", "085523.442500", "085523.902500", "085524.362500", "085524.822500", "085525.282500", "085525.742500", "085526.202500", "085526.662500", "085527.122500", "085527.582500", "085528.042500", "085528.502500", "085528.962500", "085529.422500", "085529.882500", "085530.342500", "085530.802500", "085531.262500", "085531.722500", "085532.182500", "085532.642500", "085533.102500", "085533.562500", "085534.022500", "085534.482500", "085534.942500", "085535.402500", "085535.862500", "085536.322500", "085536.782500", "085537.242500", "085537.702500", "085538.162500", "085538.622500", "085539.082500", "085539.542500", "085540.002500", "085540.462500", "085540.922500", "085541.382500", "085541.842500", "085542.302500", "085542.762500", "085543.222500", "085543.682500", "085544.142500", "085544.602500", "085545.062500", "085545.522500", "085545.982500", "085546.442500", "085546.902500", "085547.362500", "085547.822500", "085548.282500", "085548.742500", "085549.202500", "085549.662500", "085550.122500", "085550.582500", "085551.042500", "085551.502500", "085551.962500", "085552.422500", "085552.882500", "085553.342500", "085553.802500", "085554.262500", "085554.722500", "085555.182500", "085555.642500", "085556.102500", "085556.562500", "085557.022500", "085557.482500", "085557.942500", "085558.402500", "085558.862500", "085559.322500", "085559.782500", "085600.242500", "085600.702500", "085601.162500", "085601.622500", "085602.082500", "085602.542500", "085603.002500", "085603.462500", "085603.922500", "085604.382500", "085604.842500", "085605.302500", "085605.762500", "085606.222500", "085606.682500", "085607.142500", "085607.602500", "085608.062500", "085608.522500", "085608.982500", "085609.442500", "085609.902500", "085610.362500", "085610.822500", "085611.282500", "085611.742500", "085612.202500", "085612.662500", "085613.122500", "085613.582500", "085614.042500", "085614.502500", "085614.962500", "085615.422500", "085615.882500", "085616.342500", "085616.802500", "085617.262500", "085617.722500", "085618.182500", "085618.642500", "085619.102500", "085619.562500", "085620.022500", "085620.482500", "085620.942500", "085621.402500", "085621.862500", "085622.322500", "085622.782500", "085623.242500", "085623.702500", "085624.162500", "085624.622500", "085625.082500", "085625.542500", "085626.002500", "085626.462500", "085626.922500", "085627.382500", "085627.842500", "085628.302500", "085628.762500", "085629.222500", "085629.682500", "085630.142500", "085630.602500", "085631.062500", "085631.522500", "085631.982500", "085632.442500", "085632.902500", "085633.362500", "085633.822500", "085634.282500", "085634.742500", "085635.202500", "085635.662500", "085636.122500", "085636.582500", "085637.042500", "085637.502500", "085637.962500", "085638.422500", "085638.882500", "085639.342500", "085639.802500", "085640.262500", "085640.722500", "085641.182500", "085641.642500", "085642.102500", "085642.562500", "085643.022500", "085643.482500", "085643.942500", "085644.402500", "085644.862500", "085645.322500", "085645.782500", "085646.242500", "085646.702500", "085647.162500", "085647.622500", "085648.082500", "085648.542500", "085649.002500", "085649.462500", "085649.922500", "085650.382500", "085650.842500", "085651.302500", "085651.762500", "085652.222500", "085652.682500", "085653.142500", "085653.602500", "085654.062500", "085654.522500", "085654.982500", "085655.442500", "085655.902500", "085656.362500", "085656.822500", "085657.282500", "085657.742500", "085658.202500", "085658.662500", "085659.122500", "085659.582500", "085700.042500", "085700.502500", "085700.962500", "085701.422500", "085701.882500", "085702.342500", "085702.802500", "085703.262500", "085703.722500", "085704.182500", "085704.642500", "085705.102500", "085705.562500", "085706.022500", "085706.482500", "085706.942500", "085707.402500", "085707.862500", "085708.322500", "085708.782500", "085709.242500", "085709.702500", "085710.162500", "085710.622500", "085711.082500", "085711.542500", "085712.002500", "085712.462500", "085712.922500", "085713.382500", "085713.842500", "085714.302500", "085714.762500", "085715.222500", "085715.682500", "085716.142500", "085716.602500", "085717.062500", "085717.522500", "085717.982500", "085718.442500", "085718.902500", "085719.362500", "085719.822500", "085720.282500", "085720.742500", "085721.202500", "085721.662500", "085722.122500", "085722.582500", "085723.042500", "085723.502500", "085723.962500", "085724.422500", "085724.882500", "085725.342500", "085725.802500", "085726.262500", "085726.722500", "085727.182500", "085727.642500", "085728.102500", "085728.562500", "085729.022500", "085729.482500", "085729.942500", "085730.402500", "085730.862500", "085731.322500", "085731.782500", "085732.242500", "085732.702500", "085733.162500", "085733.622500", "085734.082500", "085734.542500", "085735.002500", "085735.462500", "085735.922500", "085736.382500", "085736.842500", "085737.302500", "085737.762500", "085738.222500", "085738.682500", "085739.142500", "085739.602500", "085740.062500", "085740.522500", "085740.982500", "085741.442500", "085741.902500", "085742.362500", "085742.822500", "085743.282500", "085743.742500", "085744.202500", "085744.662500", "085745.122500", "085745.582500", "085746.042500", "085746.502500", "085746.962500", "085747.422500", "085747.882500", "085748.342500", "085748.802500", "085749.262500", "085749.722500", "085750.182500", "085750.642500", "085751.102500", "085751.562500", "085752.022500", "085752.482500", "085752.942500", "085753.402500", "085753.862500", "085754.322500", "085754.782500", "085755.242500", "085755.702500", "085756.162500", "085756.622500", "085757.082500", "085757.542500", "085758.002500", "085758.462500", "085758.922500", "085759.382500", "085759.842500", "085800.302500", "085800.762500", "085801.222500", "085801.682500", "085802.142500", "085802.602500", "085803.062500", "085803.522500", "085803.982500", "085804.442500", "085804.902500", "085805.362500", "085805.822500", "085806.282500", "085806.742500", "085807.202500", "085807.662500", "085808.122500", "085808.582500", "085809.042500", "085809.502500", "085809.962500", "085810.422500", "085810.882500", "085811.342500", "085811.802500", "085812.262500", "085812.722500", "085813.182500", "085813.642500", "085814.102500", "085814.562500", "085815.022500", "085815.482500", "085815.942500", "085816.402500", "085816.862500", "085817.322500", "085817.782500", "085818.242500", "085818.702500", "085819.162500", "085819.622500", "085820.082500", "085820.542500", "085821.002500", "085821.462500", "085821.922500", "085822.382500", "085822.842500", "085823.302500", "085823.762500", "085824.222500", "085824.682500", "085825.142500", "085825.602500", "085826.062500", "085826.522500", "085826.982500", "085827.442500", "085827.902500", "085828.362500", "085828.822500", "085829.282500", "085829.742500", "085830.202500", "085830.662500", "085831.122500", "085831.582500", "085832.042500", "085832.502500", "085832.962500", "085833.422500", "085833.882500", "085834.342500", "085834.802500", "085835.262500", "085835.722500", "085836.182500", "085836.642500", "085837.102500", "085837.562500", "085838.022500", "085838.482500", "085838.942500", "085839.402500", "085839.862500", "085840.322500", "085840.782500", "085841.242500", "085841.702500", "085842.162500", "085842.622500", "085843.082500", "085843.542500", "085844.002500", "085844.462500", "085844.922500", "085845.382500", "085845.842500", "085846.302500", "085846.762500", "085847.222500", "085847.682500", "085848.142500", "085848.602500", "085849.062500", "085849.522500", "085849.982500", "085850.442500", "085850.902500", "085851.362500", "085851.822500", "085852.282500", "085852.742500", "085853.202500", "085853.662500", "085854.122500", "085854.582500", "085855.042500", "085855.502500", "085855.962500", "085856.422500", "085856.882500", "085857.342500", "085857.802500", "085858.262500", "085858.722500", "085859.182500", "085859.642500", "085900.102500", "085900.562500", "085901.022500", "085901.482500", "085901.942500", "085902.402500", "085902.862500", "085903.322500", "085903.782500", "085904.242500", "085904.702500", "085905.162500", "085905.622500", "085906.082500", "085906.542500", "085907.002500", "085907.462500", "085907.922500", "085908.382500", "085908.842500", "085909.302500", "085909.762500", "085910.222500", "085910.682500", "085911.142500", "085911.602500", "085912.062500", "085912.522500", "085912.982500", "085913.442500", "085913.902500", "085914.362500", "085914.822500", "085915.282500", "085915.742500", "085916.202500", "085916.662500", "085917.122500", "085917.582500", "085918.042500", "085918.502500", "085918.962500", "085919.422500", "085919.882500", "085920.342500", "085920.802500", "085921.262500", "085921.722500", "085922.182500", "085922.642500", "085923.102500", "085923.562500", "085924.022500", "085924.482500", "085924.942500", "085925.402500", "085925.862500", "085926.322500", "085926.782500", "085927.242500", "085927.702500", "085928.162500", "085928.622500", "085929.082500", "085929.542500", "085930.002500", "085930.462500", "085930.922500", "085931.382500", "085931.842500", "085932.302500", "085932.762500", "085933.222500", "085933.682500", "085934.142500", "085934.602500", "085935.062500", "085935.522500", "085935.982500", "085936.442500", "085936.902500", "085937.362500", "085937.822500", "085938.282500", "085938.742500", "085939.202500", "085939.662500", "085940.122500", "085940.582500", "085941.042500", "085941.502500", "085941.962500", "085942.422500", "085942.882500", "085943.342500", "085943.802500", "085944.262500", "085944.722500", "085945.182500", "085945.642500", "085946.102500", "085946.562500", "085947.022500", "085947.482500", "085947.942500", "085948.402500", "085948.862500", "085949.322500", "085949.782500", "085950.242500", "085950.702500", "085951.162500", "085951.622500", "085952.082500", "085952.542500", "085953.002500", "085953.462500", "085953.922500", "085954.382500", "085954.842500", "085955.302500", "085955.762500", "085956.222500", "085956.682500", "085957.142500", "085957.602500", "085958.062500", "085958.522500", "085958.982500", "085959.442500", "085959.902500", "090000.362500", "090000.822500", "090001.282500", "090001.742500", "090002.202500", "090002.662500", "090003.122500", "090003.582500", "090004.042500", "090004.502500", "090004.962500", "090005.422500", "090005.882500", "090006.342500", "090006.802500", "090007.262500", "090007.722500", "090008.182500", "090008.642500", "090009.102500", "090009.562500", "090010.022500", "090010.482500", "090010.942500", "090011.402500", "090011.862500", "090012.322500", "090012.782500", "090013.242500", "090013.702500", "090014.162500", "090014.622500", "090015.082500", "090015.542500", "090016.002500", "090016.462500", "090016.922500", "090017.382500", "090017.842500", "090018.302500", "090018.762500", "090019.222500", "090019.682500", "090020.142500", "090020.602500", "090021.062500", "090021.522500", "090021.982500", "090022.442500", "090022.902500", "090023.362500", "090023.822500", "090024.282500", "090024.742500", "090025.202500", "090025.662500", "090026.122500", "090026.582500", "090027.042500", "090027.502500", "090027.962500", "090028.422500", "090028.882500", "090029.342500", "090029.802500", "090030.262500", "090030.722500", "090031.182500", "090031.642500", "090032.102500", "090032.562500", "090033.022500", "090033.482500", "090033.942500", "090034.402500", "090034.862500", "090035.322500", "090035.782500", "090036.242500", "090036.702500", "090037.162500", "090037.622500", "090038.082500", "090038.542500", "090039.002500", "090039.462500", "090039.922500", "090040.382500", "090040.842500", "090041.302500", "090041.762500", "090042.222500", "090042.682500"],
