{
  "AcquisitionMatrixPE": 82,
  "AcquisitionNumber": 1,
  "AcquisitionTime": "10:03:44.802500",
  "BandwidthPerPixelPhaseEncode": 24.888,
  "BaseResolution": 82,
  "BodyPartExamined": "BRAIN",
  "ConsistencyInfo": "N4_VE11E_LATEST_20181129",
  "ConversionSoftware": "dcm2niix",
  "ConversionSoftwareVersion": "v1.0.20201102",
  "DerivedVendorReportedEchoSpacing": 0.00049,
  "DeviceSerialNumber": "66112",
  "DwellTime": 2e-06,
  "EchoTime": 0.0272,
  "EchoTrainLength": 82,
  "EffectiveEchoSpacing": 0.00049,
  "FlipAngle": 44,
  "ImageComments": "Unaliased MB8/PE3",
  "ImageOrientationPatientDICOM": [0.999113, -0.00401156, -0.0419238, 0.0127304, 0.977654, 0.209836],
  "ImageType": [
    "ORIGINAL",
    "PRIMARY",
    "M",
    "MB",
    "ND",
    "NORM",
    "MOSAIC"
],
  "ImagingFrequency": 123.252,
  "InPlanePhaseEncodingDirectionDICOM": "COL",
  "InstitutionAddress": "Maynard 3,Hanover,NH,US,03755",
  "InstitutionName": "Dartmouth College - PBS",
  "InstitutionalDepartmentName": "Department",
  "MRAcquisitionType": "2D",
  "MagneticFieldStrength": 3,
  "Manufacturer": "Siemens",
  "ManufacturersModelName": "Prisma",
  "Modality": "MR",
  "MultibandAccelerationFactor": 8,
  "PartialFourier": 1,
  "PatientPosition": "HFS",
  "PercentPhaseFOV": 100,
  "PercentSampling": 100,
  "PhaseEncodingDirection": "j-",
  "PhaseEncodingSteps": 82,
  "PhaseResolution": 1,
  "PixelBandwidth": 3050,
  "ProcedureStepDescription": "Wager_Wager^1076_spacetop",
  "ProtocolName": "func_run-03_task-alignvideo_acq-ap-mb8",
  "PulseSequenceDetails": "%CustomerSeq%\\cmrr_mbep2d_bold",
  "ReceiveCoilActiveElements": "HEA;HEP",
  "ReceiveCoilName": "Head_32",
  "ReconMatrixPE": 82,
  "RepetitionTime": 0.46,
  "SAR": 0.0858566,
  "ScanOptions": "FS",
  "ScanningSequence": "EP",
  "SequenceName": "epfid2d1_82",
  "SequenceVariant": "SK\\SS",
  "SeriesDescription": "func_run-03_task-alignvideo_acq-ap-mb8",
  "SeriesNumber": 24,
  "ShimSetting": [4133, -7750, -7162, 756, -39, -73, 155, 54],
  "SliceThickness": 2.7,
  "SliceTiming": [0, 0.25, 0.0625, 0.3125, 0.125, 0.3775, 0.1875, 0, 0.25, 0.0625, 0.3125, 0.125, 0.3775, 0.1875, 0, 0.25, 0.0625, 0.3125, 0.125, 0.3775, 0.1875, 0, 0.25, 0.0625, 0.3125, 0.125, 0.3775, 0.1875, 0, 0.25, 0.0625, 0.3125, 0.125, 0.3775, 0.1875, 0, 0.25, 0.0625, 0.3125, 0.125, 0.3775, 0.1875, 0, 0.25, 0.0625, 0.3125, 0.125, 0.3775, 0.1875, 0, 0.25, 0.0625, 0.3125, 0.125, 0.3775, 0.1875],
  "SoftwareVersions": "syngo MR E11",
  "SpacingBetweenSlices": 2.7,
  "StationName": "AWP66112",
  "TaskName": "alignvideo",
  "TotalReadoutTime": 0.03969,
  "TxRefAmp": 232.909,
  "WipMemBlock": "6c000d17-b9ad-44e9-99aa-8dd97dc70a71||Sequence: R016 ve11e/master r/434b28f1; Aug  7 2019 18:53:46 by eja",
  "dcmmeta_affine": [
    [-2.680546522140503, 0.034154605120420456, -0.10839201509952545, 111.14048767089844],
    [0.010762713849544525, 2.6229732036590576, 0.5674968361854553, -111.73584747314453],
    [-0.11247850954532623, -0.5629759430885315, 2.637460708618164, -8.634929656982422],
    [0.0, 0.0, 0.0, 1.0]
],
  "dcmmeta_reorient_transform": [
    [0.0, -1.0, 0.0, 81.0],
    [1.0, 0.0, 0.0, 0.0],
    [0.0, 0.0, 1.0, 0.0],
    [0.0, 0.0, 0.0, 1.0]
],
  "dcmmeta_shape": [82, 82, 56, 1016],
  "dcmmeta_slice_dim": 2,
  "dcmmeta_version": 0.6,
  "global": {
    "const": {
      "AccessionNumber": "A004183",
      "AcquisitionMatrix": [82, 0, 0, 82],
      "AngioFlag": "N",
      "BitsAllocated": 16,
      "BitsStored": 16,
      "BodyPartExamined": "BRAIN",
      "Columns": 656,
      "EchoNumbers": 1,
      "EchoTime": 27.2,
      "EchoTrainLength": 82,
      "FlipAngle": 44.0,
      "HighBit": 15,
      "ImageOrientationPatient": [0.9991127572681, -0.0040115567305, -0.0419238079941, 0.01273035233761, 0.97765361342632, 0.20983648463461],
      "ImagePositionPatient": [-893.02622647163, -850.4293818216, -183.52874581964],
      "ImageType": [
        "ORIGINAL",
        "PRIMARY",
        "M",
        "MB",
        "ND",
        "NORM",
        "MOSAIC"
],
      "ImagedNucleus": "1H",
      "ImagingFrequency": 123.252144,
      "InPlanePhaseEncodingDirection": "COL",
      "MRAcquisitionType": "2D",
      "MagneticFieldStrength": 3.0,
      "Manufacturer": "SIEMENS",
      "ManufacturerModelName": "Prisma",
      "Modality": "MR",
      "NumberOfAverages": 1.0,
      "NumberOfPhaseEncodingSteps": 82,
      "PercentPhaseFieldOfView": 100.0,
      "PercentSampling": 100.0,
      "PerformedProcedureStepStartTime": "091302.941000",
      "PhotometricInterpretation": "MONOCHROME2",
      "PixelBandwidth": 3050.0,
      "PixelRepresentation": 0,
      "PixelSpacing": [2.6829268932343, 2.6829268932343],
      "ProtocolName": "func_run-03_task-alignvideo_acq-ap-mb8",
      "RepetitionTime": 460.0,
      "Rows": 656,
      "SAR": 0.08585662229131,
      "SamplesPerPixel": 1,
      "ScanOptions": "FS",
      "ScanningSequence": "EP",
      "SequenceName": "epfid2d1_82",
      "SequenceVariant": [
        "SK",
        "SS"
],
      "SeriesDescription": "func_run-03_task-alignvideo_acq-ap-mb8",
      "SeriesNumber": 24,
      "SeriesTime": "100407.662000",
      "SliceLocation": -36.381766334278,
      "SliceThickness": 2.7000000476837,
      "SmallestImagePixelValue": 0,
      "SoftwareVersions": "syngo MR E11",
      "SpacingBetweenSlices": 2.6999999876504,
      "SpecificCharacterSet": "ISO_IR 100",
      "StudyID": "3",
      "StudyTime": "091302.890000",
      "TransmitCoilName": "Body",
      "VariableFlipAngleFlag": "N",
      "WindowCenterWidthExplanation": "Algo1"
    },
    "slices": {}
  },
  "time": {
    "samples": {
      "AcquisitionNumber": [1, 2, 3, 4, 5, 6, 7, 8, 9, 10, 11, 12, 13, 14, 15, 16, 17, 18, 19, 20, 21, 22, 23, 24, 25, 26, 27, 28, 29, 30, 31, 32, 33, 34, 35, 36, 37, 38, 39, 40, 41, 42, 43, 44, 45, 46, 47, 48, 49, 50, 51, 52, 53, 54, 55, 56, 57, 58, 59, 60, 61, 62, 63, 64, 65, 66, 67, 68, 69, 70, 71, 72, 73, 74, 75, 76, 77, 78, 79, 80, 81, 82, 83, 84, 85, 86, 87, 88, 89, 90, 91, 92, 93, 94, 95, 96, 97, 98, 99, 100, 101, 102, 103, 104, 105, 106, 107, 108, 109, 110, 111, 112, 113, 114, 115, 116, 117, 118, 119, 120, 121, 122, 123, 124, 125, 126, 127, 128, 129, 130, 131, 132, 133, 134, 135, 136, 137, 138, 139, 140, 141, 142, 143, 144, 145, 146, 147, 148, 149, 150, 151, 152, 153, 154, 155, 156, 157, 158, 159, 160, 161, 162, 163, 164, 165, 166, 167, 168, 169, 170, 171, 172, 173, 174, 175, 176, 177, 178, 179, 180, 181, 182, 183, 184, 185, 186, 187, 188, 189, 190, 191, 192, 193, 194, 195, 196, 197, 198, 199, 200, 201, 202, 203, 204, 205, 206, 207, 208, 209, 210, 211, 212, 213, 214, 215, 216, 217, 218, 219, 220, 221, 222, 223, 224, 225, 226, 227, 228, 229, 230, 231, 232, 233, 234, 235, 236, 237, 238, 239, 240, 241, 242, 243, 244, 245, 246, 247, 248, 249, 250, 251, 252, 253, 254, 255, 256, 257, 258, 259, 260, 261, 262, 263, 264, 265, 266, 267, 268, 269, 270, 271, 272, 273, 274, 275, 276, 277, 278, 279, 280, 281, 282, 283, 284, 285, 286, 287, 288, 289, 290, 291, 292, 293, 294, 295, 296, 297, 298, 299, 300, 301, 302, 303, 304, 305, 306, 307, 308, 309, 310, 311, 312, 313, 314, 315, 316, 317, 318, 319, 320, 321, 322, 323, 324, 325, 326, 327, 328, 329, 330, 331, 332, 333, 334, 335, 336, 337, 338, 339, 340, 341, 342, 343, 344, 345, 346, 347, 348, 349, 350, 351, 352, 353, 354, 355, 356, 357, 358, 359, 360, 361, 362, 363, 364, 365, 366, 367, 368, 369, 370, 371, 372, 373, 374, 375, 376, 377, 378, 379, 380, 381, 382, 383, 384, 385, 386, 387, 388, 389, 390, 391, 392, 393, 394, 395, 396, 397, 398, 399, 400, 401, 402, 403, 404, 405, 406, 407, 408, 409, 410, 411, 412, 413, 414, 415, 416, 417, 418, 419, 420, 421, 422, 423, 424, 425, 426, 427, 428, 429, 430, 431, 432, 433, 434, 435, 436, 437, 438, 439, 440, 441, 442, 443, 444, 445, 446, 447, 448, 449, 450, 451, 452, 453, 454, 455, 456, 457, 458, 459, 460, 461, 462, 463, 464, 465, 466, 467, 468, 469, 470, 471, 472, 473, 474, 475, 476, 477, 478, 479, 480, 481, 482, 483, 484, 485, 486, 487, 488, 489, 490, 491, 492, 493, 494, 495, 496, 497, 498, 499, 500, 501, 502, 503, 504, 505, 506, 507, 508, 509, 510, 511, 512, 513, 514, 515, 516, 517, 518, 519, 520, 521, 522, 523, 524, 525, 526, 527, 528, 529, 530, 531, 532, 533, 534, 535, 536, 537, 538, 539, 540, 541, 542, 543, 544, 545, 546, 547, 548, 549, 550, 551, 552, 553, 554, 555, 556, 557, 558, 559, 560, 561, 562, 563, 564, 565, 566, 567, 568, 569, 570, 571, 572, 573, 574, 575, 576, 577, 578, 579, 580, 581, 582, 583, 584, 585, 586, 587, 588, 589, 590, 591, 592, 593, 594, 595, 596, 597, 598, 599, 600, 601, 602, 603, 604, 605, 606, 607, 608, 609, 610, 611, 612, 613, 614, 615, 616, 617, 618, 619, 620, 621, 622, 623, 624, 625, 626, 627, 628, 629, 630, 631, 632, 633, 634, 635, 636, 637, 638, 639, 640, 641, 642, 643, 644, 645, 646, 647, 648, 649, 650, 651, 652, 653, 654, 655, 656, 657, 658, 659, 660, 661, 662, 663, 664, 665, 666, 667, 668, 669, 670, 671, 672, 673, 674, 675, 676, 677, 678, 679, 680, 681, 682, 683, 684, 685, 686, 687, 688, 689, 690, 691, 692, 693, 694, 695, 696, 697, 698, 699, 700, 701, 702, 703, 704, 705, 706, 707, 708, 709, 710, 711, 712, 713, 714, 715, 716, 717, 718, 719, 720, 721, 722, 723, 724, 725, 726, 727, 728, 729, 730, 731, 732, 733, 734, 735, 736, 737, 738, 739, 740, 741, 742, 743, 744, 745, 746, 747, 748, 749, 750, 751, 752, 753, 754, 755, 756, 757, 758, 759, 760, 761, 762, 763, 764, 765, 766, 767, 768, 769, 770, 771, 772, 773, 774, 775, 776, 777, 778, 779, 780, 781, 782, 783, 784, 785, 786, 787, 788, 789, 790, 791, 792, 793, 794, 795, 796, 797, 798, 799, 800, 801, 802, 803, 804, 805, 806, 807, 808, 809, 810, 811, 812, 813, 814, 815, 816, 817, 818, 819, 820, 821, 822, 823, 824, 825, 826, 827, 828, 829, 830, 831, 832, 833, 834, 835, 836, 837, 838, 839, 840, 841, 842, 843, 844, 845, 846, 847, 848, 849, 850, 851, 852, 853, 854, 855, 856, 857, 858, 859, 860, 861, 862, 863, 864, 865, 866, 867, 868, 869, 870, 871, 872, 873, 874, 875, 876, 877, 878, 879, 880, 881, 882, 883, 884, 885, 886, 887, 888, 889, 890, 891, 892, 893, 894, 895, 896, 897, 898, 899, 900, 901, 902, 903, 904, 905, 906, 907, 908, 909, 910, 911, 912, 913, 914, 915, 916, 917, 918, 919, 920, 921, 922, 923, 924, 925, 926, 927, 928, 929, 930, 931, 932, 933, 934, 935, 936, 937, 938, 939, 940, 941, 942, 943, 944, 945, 946, 947, 948, 949, 950, 951, 952, 953, 954, 955, 956, 957, 958, 959, 960, 961, 962, 963, 964, 965, 966, 967, 968, 969, 970, 971, 972, 973, 974, 975, 976, 977, 978, 979, 980, 981, 982, 983, 984, 985, 986, 987, 988, 989, 990, 991, 992, 993, 994, 995, 996, 997, 998, 999, 1000, 1001, 1002, 1003, 1004, 1005, 1006, 1007, 1008, 1009, 1010, 1011, 1012, 1013, 1014, 1015, 1016],
      "AcquisitionTime": ["100344.802500", "100345.262500", "100345.722500", "100346.182500", "100346.642500", "100347.102500", "100347.562500", "100348.022500", "100348.482500", "100348.942500", "100349.402500", "100349.862500", "100350.322500", "100350.782500", "100351.242500", "100351.702500", "100352.162500", "100352.622500", "100353.082500", "100353.542500", "100354.002500", "100354.462500", "100354.922500", "100355.382500", "100355.842500", "100356.302500", "100356.762500", "100357.222500", "100357.682500", "100358.142500", "100358.602500", "100359.062500", "100359.522500", "100359.982500", "100400.442500", "100400.902500", "100401.362500", "100401.822500", "100402.282500", "100402.742500", "100403.202500", "100403.662500", "100404.122500", "100404.582500", "100405.042500", "100405.502500", "100405.962500", "100406.422500", "100406.882500", "100407.342500", "100407.802500", "100408.262500", "100408.722500", "100409.182500", "100409.642500", "100410.102500", "100410.562500", "100411.022500", "100411.482500", "100411.942500", "100412.402500", "100412.862500", "100413.322500", "100413.782500", "100414.242500", "100414.702500", "100415.162500", "100415.622500", "100416.082500", "100416.542500", "100417.002500", "100417.462500", "100417.922500", "100418.382500", "100418.842500", "100419.302500", "100419.762500", "100420.222500", "100420.682500", "100421.142500", "100421.602500", "100422.062500", "100422.522500", "100422.982500", "100423.442500", "100423.902500", "100424.362500", "100424.822500", "100425.282500", "100425.742500", "100426.202500", "100426.662500", "100427.122500", "100427.582500", "100428.042500", "100428.502500", "100428.962500", "100429.422500", "100429.882500", "100430.342500", "100430.802500", "100431.262500", "100431.722500", "100432.182500", "100432.642500", "100433.102500", "100433.562500", "100434.022500", "100434.482500", "100434.942500", "100435.402500", "100435.862500", "100436.322500", "100436.782500", "100437.242500", "100437.702500", "100438.162500", "100438.622500", "100439.082500", "100439.542500", "100440.002500", "100440.462500", "100440.922500", "100441.382500", "100441.842500", "100442.302500", "100442.762500", "100443.222500", "100443.682500", "100444.142500", "100444.602500", "100445.062500", "100445.522500", "100445.982500", "100446.442500", "100446.902500", "100447.362500", "100447.822500", "100448.282500", "100448.742500", "100449.202500", "100449.662500", "100450.122500", "100450.582500", "100451.042500", "100451.502500", "100451.962500", "100452.422500", "100452.882500", "100453.342500", "100453.802500", "100454.262500", "100454.722500", "100455.182500", "100455.642500", "100456.102500", "100456.562500", "100457.022500", "100457.482500", "100457.942500", "100458.402500", "100458.862500", "100459.322500", "100459.782500", "100500.242500", "100500.702500", "100501.162500", "100501.622500", "100502.082500", "100502.542500", "100503.002500", "100503.462500", "100503.922500", "100504.382500", "100504.842500", "100505.302500", "100505.762500", "100506.222500", "100506.682500", "100507.142500", "100507.602500", "100508.062500", "100508.522500", "100508.982500", "100509.442500", "100509.902500", "100510.362500", "100510.822500", "100511.282500", "100511.742500", "100512.202500", "100512.662500", "100513.122500", "100513.582500", "100514.042500", "100514.502500", "100514.962500", "100515.422500", "100515.882500", "100516.342500", "100516.802500", "100517.262500", "100517.722500", "100518.182500", "100518.642500", "100519.102500", "100519.562500", "100520.022500", "100520.482500", "100520.942500", "100521.402500", "100521.862500", "100522.322500", "100522.782500", "100523.242500", "100523.702500", "100524.162500", "100524.622500", "100525.082500", "100525.542500", "100526.002500", "100526.462500", "100526.922500", "100527.382500", "100527.842500", "100528.302500", "100528.762500", "100529.222500", "100529.682500", "100530.142500", "100530.602500", "100531.062500", "100531.522500", "100531.982500", "100532.442500", "100532.902500", "100533.362500", "100533.822500", "100534.282500", "100534.742500", "100535.202500", "100535.662500", "100536.122500", "100536.582500", "100537.042500", "100537.502500", "100537.962500", "100538.422500", "100538.882500", "100539.342500", "100539.802500", "100540.262500", "100540.722500", "100541.182500", "100541.642500", "100542.102500", "100542.562500", "100543.022500", "100543.482500", "100543.942500", "100544.402500", "100544.862500", "100545.322500", "100545.782500", "100546.242500", "100546.702500", "100547.162500", "100547.622500", "100548.082500", "100548.542500", "100549.002500", "100549.462500", "100549.922500", "100550.382500", "100550.842500", "100551.302500", "100551.762500", "100552.222500", "100552.682500", "100553.142500", "100553.602500", "100554.062500", "100554.522500", "100554.982500", "100555.442500", "100555.902500", "100556.362500", "100556.822500", "100557.282500", "100557.742500", "100558.202500", "100558.662500", "100559.122500", "100559.582500", "100600.042500", "100600.502500", "100600.962500", "100601.422500", "100601.882500", "100602.342500", "100602.802500", "100603.262500", "100603.722500", "100604.182500", "100604.642500", "100605.102500", "100605.562500", "100606.022500", "100606.482500", "100606.942500", "100607.402500", "100607.862500", "100608.322500", "100608.782500", "100609.242500", "100609.702500", "100610.162500", "100610.622500", "100611.082500", "100611.542500", "100612.002500", "100612.462500", "100612.922500", "100613.382500", "100613.842500", "100614.302500", "100614.762500", "100615.222500", "100615.682500", "100616.142500", "100616.602500", "100617.062500", "100617.522500", "100617.982500", "100618.442500", "100618.902500", "100619.362500", "100619.822500", "100620.282500", "100620.742500", "100621.202500", "100621.662500", "100622.122500", "100622.582500", "100623.042500", "100623.502500", "100623.962500", "100624.422500", "100624.882500", "100625.342500", "100625.802500", "100626.262500", "100626.722500", "100627.182500", "100627.642500", "100628.102500", "100628.562500", "100629.022500", "100629.482500", "100629.942500", "100630.402500", "100630.862500", "100631.322500", "100631.782500", "100632.242500", "100632.702500", "100633.162500", "100633.622500", "100634.082500", "100634.542500", "100635.002500", "100635.462500", "100635.922500", "100636.382500", "100636.842500", "100637.302500", "100637.762500", "100638.222500", "100638.682500", "100639.142500", "100639.602500", "100640.062500", "100640.522500", "100640.982500", "100641.442500", "100641.902500", "100642.362500", "100642.822500", "100643.282500", "100643.742500", "100644.202500", "100644.662500", "100645.122500", "100645.582500", "100646.042500", "100646.502500", "100646.962500", "100647.422500", "100647.882500", "100648.342500", "100648.802500", "100649.262500", "100649.722500", "100650.182500", "100650.642500", "100651.102500", "100651.562500", "100652.022500", "100652.482500", "100652.942500", "100653.402500", "100653.862500", "100654.322500", "100654.782500", "100655.242500", "100655.702500", "100656.162500", "100656.622500", "100657.082500", "100657.542500", "100658.002500", "100658.462500", "100658.922500", "100659.382500", "100659.842500", "100700.302500", "100700.762500", "100701.222500", "100701.682500", "100702.142500", "100702.602500", "100703.062500", "100703.522500", "100703.982500", "100704.442500", "100704.902500", "100705.362500", "100705.822500", "100706.282500", "100706.742500", "100707.202500", "100707.662500", "100708.122500", "100708.582500", "100709.042500", "100709.502500", "100709.962500", "100710.422500", "100710.882500", "100711.342500", "100711.802500", "100712.262500", "100712.722500", "100713.182500", "100713.642500", "100714.102500", "100714.562500", "100715.022500", "100715.482500", "100715.942500", "100716.402500", "100716.862500", "100717.322500", "100717.782500", "100718.242500", "100718.702500", "100719.162500", "100719.622500", "100720.082500", "100720.542500", "100721.002500", "100721.462500", "100721.922500", "100722.382500", "100722.842500", "100723.302500", "100723.762500", "100724.222500", "100724.682500", "100725.142500", "100725.602500", "100726.062500", "100726.522500", "100726.982500", "100727.442500", "100727.902500", "100728.362500", "100728.822500", "100729.282500", "100729.742500", "100730.202500", "100730.662500", "100731.122500", "100731.582500", "100732.042500", "100732.502500", "100732.962500", "100733.422500", "100733.882500", "100734.342500", "100734.802500", "100735.262500", "100735.722500", "100736.182500", "100736.642500", "100737.102500", "100737.562500", "100738.022500", "100738.482500", "100738.942500", "100739.402500", "100739.862500", "100740.322500", "100740.782500", "100741.242500", "100741.702500", "100742.162500", "100742.622500", "100743.082500", "100743.542500", "100744.002500", "100744.462500", "100744.922500", "100745.382500", "100745.842500", "100746.302500", "100746.762500", "100747.222500", "100747.682500", "100748.142500", "100748.602500", "100749.062500", "100749.522500", "100749.982500", "100750.442500", "100750.902500", "100751.362500", "100751.822500", "100752.282500", "100752.742500", "100753.202500", "100753.662500", "100754.122500", "100754.582500", "100755.042500", "100755.502500", "100755.962500", "100756.422500", "100756.882500", "100757.342500", "100757.802500", "100758.262500", "100758.722500", "100759.182500", "100759.642500", "100800.102500", "100800.562500", "100801.022500", "100801.482500", "100801.942500", "100802.402500", "100802.862500", "100803.322500", "100803.782500", "100804.242500", "100804.702500", "100805.162500", "100805.622500", "100806.082500", "100806.542500", "100807.002500", "100807.462500", "100807.922500", "100808.382500", "100808.842500", "100809.302500", "100809.762500", "100810.222500", "100810.682500", "100811.142500", "100811.602500", "100812.062500", "100812.522500", "100812.982500", "100813.442500", "100813.902500", "100814.362500", "100814.822500", "100815.282500", "100815.742500", "100816.202500", "100816.662500", "100817.122500", "100817.582500", "100818.042500", "100818.502500", "100818.962500", "100819.422500", "100819.882500", "100820.342500", "100820.802500", "100821.262500", "100821.722500", "100822.182500", "100822.642500", "100823.102500", "100823.562500", "100824.022500", "100824.482500", "100824.942500", "100825.402500", "100825.862500", "100826.322500", "100826.782500", "100827.242500", "100827.702500", "100828.162500", "100828.622500", "100829.082500", "100829.542500", "100830.002500", "100830.462500", "100830.922500", "100831.382500", "100831.842500", "100832.302500", "100832.762500", "100833.222500", "100833.682500", "100834.142500", "100834.602500", "100835.062500", "100835.522500", "100835.982500", "100836.442500", "100836.902500", "100837.362500", "100837.822500", "100838.282500", "100838.742500", "100839.202500", "100839.662500", "100840.122500", "100840.582500", "100841.042500", "100841.502500", "100841.962500", "100842.422500", "100842.882500", "100843.342500", "100843.802500", "100844.262500", "100844.722500", "100845.182500", "100845.642500", "100846.102500", "100846.562500", "100847.022500", "100847.482500", "100847.942500", "100848.402500", "100848.862500", "100849.322500", "100849.782500", "100850.242500", "100850.702500", "100851.162500", "100851.622500", "100852.082500", "100852.542500", "100853.002500", "100853.462500", "100853.922500", "100854.382500", "100854.842500", "100855.302500", "100855.762500", "100856.222500", "100856.682500", "100857.142500", "100857.602500", "100858.062500", "100858.522500", "100858.982500", "100859.442500", "100859.902500", "100900.362500", "100900.822500", "100901.282500", "100901.742500", "100902.202500", "100902.662500", "100903.122500", "100903.582500", "100904.042500", "100904.502500", "100904.962500", "100905.422500", "100905.882500", "100906.342500", "100906.802500", "100907.262500", "100907.722500", "100908.182500", "100908.642500", "100909.102500", "100909.562500", "100910.022500", "100910.482500", "100910.942500", "100911.402500", "100911.862500", "100912.322500", "100912.782500", "100913.242500", "100913.702500", "100914.162500", "100914.622500", "100915.082500", "100915.542500", "100916.002500", "100916.462500", "100916.922500", "100917.382500", "100917.842500", "100918.302500", "100918.762500", "100919.222500", "100919.682500", "100920.142500", "100920.602500", "100921.062500", "100921.522500", "100921.982500", "100922.442500", "100922.902500", "100923.362500", "100923.822500", "100924.282500", "100924.742500", "100925.202500", "100925.662500", "100926.122500", "100926.582500", "100927.042500", "100927.502500", "100927.962500", "100928.422500", "100928.882500", "100929.342500", "100929.802500", "100930.262500", "100930.722500", "100931.182500", "100931.642500", "100932.102500", "100932.562500", "100933.022500", "100933.482500", "100933.942500", "100934.402500", "100934.862500", "100935.322500", "100935.782500", "100936.242500", "100936.702500", "100937.162500", "100937.622500", "100938.082500", "100938.542500", "100939.002500", "100939.462500", "100939.922500", "100940.382500", "100940.842500", "100941.302500", "100941.762500", "100942.222500", "100942.682500", "100943.142500", "100943.602500", "100944.062500", "100944.522500", "100944.982500", "100945.442500", "100945.902500", "100946.362500", "100946.822500", "100947.282500", "100947.742500", "100948.202500", "100948.662500", "100949.122500", "100949.582500", "100950.042500", "100950.502500", "100950.962500", "100951.422500", "100951.882500", "100952.342500", "100952.802500", "100953.262500", "100953.722500", "100954.182500", "100954.642500", "100955.102500", "100955.562500", "100956.022500", "100956.482500", "100956.942500", "100957.402500", "100957.862500", "100958.322500", "100958.782500", "100959.242500", "100959.702500", "101000.162500", "101000.622500", "101001.082500", "101001.542500", "101002.002500", "101002.462500", "101002.922500", "101003.382500", "101003.842500", "101004.302500", "101004.762500", "101005.222500", "101005.682500", "101006.142500", "101006.602500", "101007.062500", "101007.522500", "101007.982500", "101008.442500", "101008.902500", "101009.362500", "101009.822500", "101010.282500", "101010.742500", "101011.202500", "101011.662500", "101012.122500", "101012.582500", "101013.042500", "101013.502500", "101013.962500", "101014.422500", "101014.882500", "101015.342500", "101015.802500", "101016.262500", "101016.722500", "101017.182500", "101017.642500", "101018.102500", "101018.562500", "101019.022500", "101019.482500", "101019.942500", "101020.402500", "101020.862500", "101021.322500", "101021.782500", "101022.242500", "101022.702500", "101023.162500", "101023.622500", "101024.082500", "101024.542500", "101025.002500", "101025.462500", "101025.922500", "101026.382500", "101026.842500", "101027.302500", "101027.762500", "101028.222500", "101028.682500", "101029.142500", "101029.602500", "101030.062500", "101030.522500", "101030.982500", "101031.442500", "101031.902500", "101032.362500", "101032.822500", "101033.282500", "101033.742500", "101034.202500", "101034.662500", "101035.122500", "101035.582500", "101036.042500", "101036.502500", "101036.962500", "101037.422500", "101037.882500", "101038.342500", "101038.802500", "101039.262500", "101039.722500", "101040.182500", "101040.642500", "101041.102500", "101041.562500", "101042.022500", "101042.482500", "101042.942500", "101043.402500", "101043.862500", "101044.322500", "101044.782500", "101045.242500", "101045.702500", "101046.162500", "101046.622500", "101047.082500", "101047.542500", "101048.002500", "101048.462500", "101048.922500", "101049.382500", "101049.842500", "101050.302500", "101050.762500", "101051.222500", "101051.682500", "101052.142500", "101052.602500", "101053.062500", "101053.522500", "101053.982500", "101054.442500", "101054.902500", "101055.362500", "101055.822500", "101056.282500", "101056.742500", "101057.202500", "101057.662500", "101058.122500", "101058.582500", "101059.042500", "101059.502500", "101059.962500", "101100.422500", "101100.882500", "101101.342500", "101101.802500", "101102.262500", "101102.722500", "101103.182500", "101103.642500", "101104.102500", "101104.562500", "101105.022500", "101105.482500", "101105.942500", "101106.402500", "101106.862500", "101107.322500", "101107.782500", "101108.242500", "101108.702500", "101109.162500", "101109.622500", "101110.082500", "101110.542500", "101111.002500", "101111.462500", "101111.922500", "101112.382500", "101112.842500", "101113.302500", "101113.762500", "101114.222500", "101114.682500", "101115.142500", "101115.602500", "101116.062500", "101116.522500", "101116.982500", "101117.442500", "101117.902500", "101118.362500", "101118.822500", "101119.282500", "101119.742500", "101120.202500", "101120.662500", "101121.122500", "101121.582500", "101122.042500", "101122.502500", "101122.962500", "101123.422500", "101123.882500", "101124.342500", "101124.802500", "101125.262500", "101125.722500", "101126.182500", "101126.642500", "101127.102500", "101127.562500", "101128.022500", "101128.482500", "101128.942500", "101129.402500", "101129.862500", "101130.322500", "101130.782500", "101131.242500", "101131.702500"],
