{
  "AcquisitionMatrixPE": 82,
  "AcquisitionNumber": 1,
  "AcquisitionTime": "09:32:36.165000",
  "BandwidthPerPixelPhaseEncode": 24.888,
  "BaseResolution": 82,
  "BodyPartExamined": "BRAIN",
  "ConsistencyInfo": "N4_VE11E_LATEST_20181129",
  "ConversionSoftware": "dcm2niix",
  "ConversionSoftwareVersion": "v1.0.20201102",
  "DerivedVendorReportedEchoSpacing": 0.00049,
  "DeviceSerialNumber": "66112",
  "DwellTime": 2e-06,
  "EchoTime": 0.0272,
  "EchoTrainLength": 82,
  "EffectiveEchoSpacing": 0.00049,
  "FlipAngle": 44,
  "ImageComments": "Unaliased MB8/PE3",
  "ImageOrientationPatientDICOM": [0.999048, -0.0276418, -0.0337569, 0.0336655, 0.980536, 0.193433],
  "ImageType": [
    "ORIGINAL",
    "PRIMARY",
    "M",
    "MB",
    "ND",
    "NORM",
    "MOSAIC"
],
  "ImagingFrequency": 123.252,
  "InPlanePhaseEncodingDirectionDICOM": "COL",
  "InstitutionAddress": "Maynard 3,Hanover,NH,US,03755",
  "InstitutionName": "Dartmouth College - PBS",
  "InstitutionalDepartmentName": "Department",
  "MRAcquisitionType": "2D",
  "MagneticFieldStrength": 3,
  "Manufacturer": "Siemens",
  "ManufacturersModelName": "Prisma",
  "Modality": "MR",
  "MultibandAccelerationFactor": 8,
  "PartialFourier": 1,
  "PatientPosition": "HFS",
  "PercentPhaseFOV": 100,
  "PercentSampling": 100,
  "PhaseEncodingDirection": "j-",
  "PhaseEncodingSteps": 82,
  "PhaseResolution": 1,
  "PixelBandwidth": 3050,
  "ProcedureStepDescription": "Wager_Wager^1076_spacetop",
  "ProtocolName": "func_run-06_task-social_acq-ap-mb8",
  "PulseSequenceDetails": "%CustomerSeq%\\cmrr_mbep2d_bold",
  "ReceiveCoilActiveElements": "HEA;HEP",
  "ReceiveCoilName": "Head_32",
  "ReconMatrixPE": 82,
  "RepetitionTime": 0.46,
  "SAR": 0.085781,
  "ScanOptions": "FS",
  "ScanningSequence": "EP",
  "SequenceName": "epfid2d1_82",
  "SequenceVariant": "SK\\SS",
  "SeriesDescription": "func_run-06_task-social_acq-ap-mb8",
  "SeriesNumber": 12,
  "ShimSetting": [4133, -7755, -7164, 743, -34, -91, 155, 55],
  "SliceThickness": 2.7,
  "SliceTiming": [0, 0.2525, 0.065, 0.315, 0.1275, 0.3775, 0.19, 0, 0.2525, 0.065, 0.315, 0.1275, 0.3775, 0.19, 0, 0.2525, 0.065, 0.315, 0.1275, 0.3775, 0.19, 0, 0.2525, 0.065, 0.315, 0.1275, 0.3775, 0.19, 0, 0.2525, 0.065, 0.315, 0.1275, 0.3775, 0.19, 0, 0.2525, 0.065, 0.315, 0.1275, 0.3775, 0.19, 0, 0.2525, 0.065, 0.315, 0.1275, 0.3775, 0.19, 0, 0.2525, 0.065, 0.315, 0.1275, 0.3775, 0.19],
  "SoftwareVersions": "syngo MR E11",
  "SpacingBetweenSlices": 2.7,
  "StationName": "AWP66112",
  "TaskName": "social",
  "TotalReadoutTime": 0.03969,
  "TxRefAmp": 232.909,
  "WipMemBlock": "fc121422-3f60-4bf6-9d1d-cc70b0fca398||Sequence: R016 ve11e/master r/434b28f1; Aug  7 2019 18:53:46 by eja",
  "dcmmeta_affine": [
    [-2.6803719997406006, 0.09032218903303146, -0.07493318617343903, 109.16268920898438],
    [0.07416100054979324, 2.6307058334350586, 0.524838924407959, -107.7889633178711],
    [-0.09056732058525085, -0.5189653635025024, 2.6474382877349854, -16.535572052001953],
    [0.0, 0.0, 0.0, 1.0]
],
  "dcmmeta_reorient_transform": [
    [0.0, -1.0, 0.0, 81.0],
    [1.0, 0.0, 0.0, 0.0],
    [0.0, 0.0, 1.0, 0.0],
    [0.0, 0.0, 0.0, 1.0]
],
  "dcmmeta_shape": [82, 82, 56, 872],
  "dcmmeta_slice_dim": 2,
  "dcmmeta_version": 0.6,
  "global": {
    "const": {
      "AccessionNumber": "A004183",
      "AcquisitionMatrix": [82, 0, 0, 82],
      "AngioFlag": "N",
      "BitsAllocated": 16,
      "BitsStored": 16,
      "BodyPartExamined": "BRAIN",
      "Columns": 656,
      "EchoNumbers": 1,
      "EchoTime": 27.2,
      "EchoTrainLength": 82,
      "FlipAngle": 44.0,
      "HighBit": 15,
      "ImageOrientationPatient": [0.99904774681152, -0.0276418261895, -0.033756910933, 0.03366554358356, 0.9805358154063, 0.19343253573461],
      "ImagePositionPatient": [-911.6680368102, -839.02660186577, -181.52199946465],
      "ImageType": [
        "ORIGINAL",
        "PRIMARY",
        "M",
        "MB",
        "ND",
        "NORM",
        "MOSAIC"
],
      "ImagedNucleus": "1H",
      "ImagingFrequency": 123.252142,
      "InPlanePhaseEncodingDirection": "COL",
      "MRAcquisitionType": "2D",
      "MagneticFieldStrength": 3.0,
      "Manufacturer": "SIEMENS",
      "ManufacturerModelName": "Prisma",
      "Modality": "MR",
      "NumberOfAverages": 1.0,
      "NumberOfPhaseEncodingSteps": 82,
      "PercentPhaseFieldOfView": 100.0,
      "PercentSampling": 100.0,
      "PerformedProcedureStepStartTime": "091302.941000",
      "PhotometricInterpretation": "MONOCHROME2",
      "PixelBandwidth": 3050.0,
      "PixelRepresentation": 0,
      "PixelSpacing": [2.6829268932343, 2.6829268932343],
      "ProtocolName": "func_run-06_task-social_acq-ap-mb8",
      "RepetitionTime": 460.0,
      "Rows": 656,
      "SAR": 0.08578098483501,
      "SamplesPerPixel": 1,
      "ScanOptions": "FS",
      "ScanningSequence": "EP",
      "SequenceName": "epfid2d1_82",
      "SequenceVariant": [
        "SK",
        "SS"
],
      "SeriesDescription": "func_run-06_task-social_acq-ap-mb8",
      "SeriesNumber": 12,
      "SeriesTime": "093247.658000",
      "SliceLocation": -40.195798879933,
      "SliceThickness": 2.7000000476837,
      "SmallestImagePixelValue": 0,
      "SoftwareVersions": "syngo MR E11",
      "SpacingBetweenSlices": 2.6999999629676,
      "SpecificCharacterSet": "ISO_IR 100",
      "StudyID": "3",
      "StudyTime": "091302.890000",
      "TransmitCoilName": "Body",
      "VariableFlipAngleFlag": "N",
      "WindowCenterWidthExplanation": "Algo1"
    },
    "slices": {}
  },
  "time": {
    "samples": {
      "AcquisitionNumber": [1, 2, 3, 4, 5, 6, 7, 8, 9, 10, 11, 12, 13, 14, 15, 16, 17, 18, 19, 20, 21, 22, 23, 24, 25, 26, 27, 28, 29, 30, 31, 32, 33, 34, 35, 36, 37, 38, 39, 40, 41, 42, 43, 44, 45, 46, 47, 48, 49, 50, 51, 52, 53, 54, 55, 56, 57, 58, 59, 60, 61, 62, 63, 64, 65, 66, 67, 68, 69, 70, 71, 72, 73, 74, 75, 76, 77, 78, 79, 80, 81, 82, 83, 84, 85, 86, 87, 88, 89, 90, 91, 92, 93, 94, 95, 96, 97, 98, 99, 100, 101, 102, 103, 104, 105, 106, 107, 108, 109, 110, 111, 112, 113, 114, 115, 116, 117, 118, 119, 120, 121, 122, 123, 124, 125, 126, 127, 128, 129, 130, 131, 132, 133, 134, 135, 136, 137, 138, 139, 140, 141, 142, 143, 144, 145, 146, 147, 148, 149, 150, 151, 152, 153, 154, 155, 156, 157, 158, 159, 160, 161, 162, 163, 164, 165, 166, 167, 168, 169, 170, 171, 172, 173, 174, 175, 176, 177, 178, 179, 180, 181, 182, 183, 184, 185, 186, 187, 188, 189, 190, 191, 192, 193, 194, 195, 196, 197, 198, 199, 200, 201, 202, 203, 204, 205, 206, 207, 208, 209, 210, 211, 212, 213, 214, 215, 216, 217, 218, 219, 220, 221, 222, 223, 224, 225, 226, 227, 228, 229, 230, 231, 232, 233, 234, 235, 236, 237, 238, 239, 240, 241, 242, 243, 244, 245, 246, 247, 248, 249, 250, 251, 252, 253, 254, 255, 256, 257, 258, 259, 260, 261, 262, 263, 264, 265, 266, 267, 268, 269, 270, 271, 272, 273, 274, 275, 276, 277, 278, 279, 280, 281, 282, 283, 284, 285, 286, 287, 288, 289, 290, 291, 292, 293, 294, 295, 296, 297, 298, 299, 300, 301, 302, 303, 304, 305, 306, 307, 308, 309, 310, 311, 312, 313, 314, 315, 316, 317, 318, 319, 320, 321, 322, 323, 324, 325, 326, 327, 328, 329, 330, 331, 332, 333, 334, 335, 336, 337, 338, 339, 340, 341, 342, 343, 344, 345, 346, 347, 348, 349, 350, 351, 352, 353, 354, 355, 356, 357, 358, 359, 360, 361, 362, 363, 364, 365, 366, 367, 368, 369, 370, 371, 372, 373, 374, 375, 376, 377, 378, 379, 380, 381, 382, 383, 384, 385, 386, 387, 388, 389, 390, 391, 392, 393, 394, 395, 396, 397, 398, 399, 400, 401, 402, 403, 404, 405, 406, 407, 408, 409, 410, 411, 412, 413, 414, 415, 416, 417, 418, 419, 420, 421, 422, 423, 424, 425, 426, 427, 428, 429, 430, 431, 432, 433, 434, 435, 436, 437, 438, 439, 440, 441, 442, 443, 444, 445, 446, 447, 448, 449, 450, 451, 452, 453, 454, 455, 456, 457, 458, 459, 460, 461, 462, 463, 464, 465, 466, 467, 468, 469, 470, 471, 472, 473, 474, 475, 476, 477, 478, 479, 480, 481, 482, 483, 484, 485, 486, 487, 488, 489, 490, 491, 492, 493, 494, 495, 496, 497, 498, 499, 500, 501, 502, 503, 504, 505, 506, 507, 508, 509, 510, 511, 512, 513, 514, 515, 516, 517, 518, 519, 520, 521, 522, 523, 524, 525, 526, 527, 528, 529, 530, 531, 532, 533, 534, 535, 536, 537, 538, 539, 540, 541, 542, 543, 544, 545, 546, 547, 548, 549, 550, 551, 552, 553, 554, 555, 556, 557, 558, 559, 560, 561, 562, 563, 564, 565, 566, 567, 568, 569, 570, 571, 572, 573, 574, 575, 576, 577, 578, 579, 580, 581, 582, 583, 584, 585, 586, 587, 588, 589, 590, 591, 592, 593, 594, 595, 596, 597, 598, 599, 600, 601, 602, 603, 604, 605, 606, 607, 608, 609, 610, 611, 612, 613, 614, 615, 616, 617, 618, 619, 620, 621, 622, 623, 624, 625, 626, 627, 628, 629, 630, 631, 632, 633, 634, 635, 636, 637, 638, 639, 640, 641, 642, 643, 644, 645, 646, 647, 648, 649, 650, 651, 652, 653, 654, 655, 656, 657, 658, 659, 660, 661, 662, 663, 664, 665, 666, 667, 668, 669, 670, 671, 672, 673, 674, 675, 676, 677, 678, 679, 680, 681, 682, 683, 684, 685, 686, 687, 688, 689, 690, 691, 692, 693, 694, 695, 696, 697, 698, 699, 700, 701, 702, 703, 704, 705, 706, 707, 708, 709, 710, 711, 712, 713, 714, 715, 716, 717, 718, 719, 720, 721, 722, 723, 724, 725, 726, 727, 728, 729, 730, 731, 732, 733, 734, 735, 736, 737, 738, 739, 740, 741, 742, 743, 744, 745, 746, 747, 748, 749, 750, 751, 752, 753, 754, 755, 756, 757, 758, 759, 760, 761, 762, 763, 764, 765, 766, 767, 768, 769, 770, 771, 772, 773, 774, 775, 776, 777, 778, 779, 780, 781, 782, 783, 784, 785, 786, 787, 788, 789, 790, 791, 792, 793, 794, 795, 796, 797, 798, 799, 800, 801, 802, 803, 804, 805, 806, 807, 808, 809, 810, 811, 812, 813, 814, 815, 816, 817, 818, 819, 820, 821, 822, 823, 824, 825, 826, 827, 828, 829, 830, 831, 832, 833, 834, 835, 836, 837, 838, 839, 840, 841, 842, 843, 844, 845, 846, 847, 848, 849, 850, 851, 852, 853, 854, 855, 856, 857, 858, 859, 860, 861, 862, 863, 864, 865, 866, 867, 868, 869, 870, 871, 872],
      "AcquisitionTime": ["093236.165000", "093236.625000", "093237.085000", "093237.545000", "093238.005000", "093238.465000", "093238.925000", "093239.385000", "093239.845000", "093240.305000", "093240.765000", "093241.225000", "093241.685000", "093242.145000", "093242.605000", "093243.065000", "093243.525000", "093243.985000", "093244.445000", "093244.905000", "093245.365000", "093245.825000", "093246.285000", "093246.745000", "093247.205000", "093247.665000", "093248.125000", "093248.585000", "093249.045000", "093249.505000", "093249.965000", "093250.425000", "093250.885000", "093251.345000", "093251.805000", "093252.265000", "093252.725000", "093253.185000", "093253.645000", "093254.105000", "093254.565000", "093255.025000", "093255.485000", "093255.945000", "093256.405000", "093256.865000", "093257.325000", "093257.785000", "093258.245000", "093258.705000", "093259.165000", "093259.625000", "093300.085000", "093300.545000", "093301.005000", "093301.465000", "093301.925000", "093302.385000", "093302.845000", "093303.305000", "093303.765000", "093304.225000", "093304.685000", "093305.145000", "093305.605000", "093306.065000", "093306.525000", "093306.985000", "093307.445000", "093307.905000", "093308.365000", "093308.825000", "093309.285000", "093309.745000", "093310.205000", "093310.665000", "093311.125000", "093311.585000", "093312.045000", "093312.505000", "093312.965000", "093313.425000", "093313.885000", "093314.345000", "093314.805000", "093315.265000", "093315.725000", "093316.185000", "093316.645000", "093317.105000", "093317.565000", "093318.025000", "093318.485000", "093318.945000", "093319.405000", "093319.865000", "093320.325000", "093320.785000", "093321.245000", "093321.705000", "093322.165000", "093322.625000", "093323.085000", "093323.545000", "093324.005000", "093324.465000", "093324.925000", "093325.385000", "093325.845000", "093326.305000", "093326.765000", "093327.225000", "093327.685000", "093328.145000", "093328.605000", "093329.065000", "093329.525000", "093329.985000", "093330.445000", "093330.905000", "093331.365000", "093331.825000", "093332.285000", "093332.745000", "093333.205000", "093333.665000", "093334.125000", "093334.585000", "093335.045000", "093335.505000", "093335.965000", "093336.425000", "093336.885000", "093337.345000", "093337.805000", "093338.265000", "093338.725000", "093339.185000", "093339.645000", "093340.105000", "093340.565000", "093341.025000", "093341.485000", "093341.945000", "093342.405000", "093342.865000", "093343.325000", "093343.785000", "093344.245000", "093344.705000", "093345.165000", "093345.625000", "093346.085000", "093346.545000", "093347.005000", "093347.465000", "093347.925000", "093348.385000", "093348.845000", "093349.305000", "093349.765000", "093350.225000", "093350.685000", "093351.145000", "093351.605000", "093352.065000", "093352.525000", "093352.985000", "093353.445000", "093353.905000", "093354.365000", "093354.825000", "093355.285000", "093355.745000", "093356.205000", "093356.665000", "093357.125000", "093357.585000", "093358.045000", "093358.505000", "093358.965000", "093359.425000", "093359.885000", "093400.345000", "093400.805000", "093401.265000", "093401.725000", "093402.185000", "093402.645000", "093403.105000", "093403.565000", "093404.025000", "093404.485000", "093404.945000", "093405.405000", "093405.865000", "093406.325000", "093406.785000", "093407.245000", "093407.705000", "093408.165000", "093408.625000", "093409.085000", "093409.545000", "093410.005000", "093410.465000", "093410.925000", "093411.385000", "093411.845000", "093412.305000", "093412.765000", "093413.225000", "093413.685000", "093414.145000", "093414.605000", "093415.065000", "093415.525000", "093415.985000", "093416.445000", "093416.905000", "093417.365000", "093417.825000", "093418.285000", "093418.745000", "093419.205000", "093419.665000", "093420.125000", "093420.585000", "093421.045000", "093421.505000", "093421.965000", "093422.425000", "093422.885000", "093423.345000", "093423.805000", "093424.265000", "093424.725000", "093425.185000", "093425.645000", "093426.105000", "093426.565000", "093427.025000", "093427.485000", "093427.945000", "093428.405000", "093428.865000", "093429.325000", "093429.785000", "093430.245000", "093430.705000", "093431.165000", "093431.625000", "093432.085000", "093432.545000", "093433.005000", "093433.465000", "093433.925000", "093434.385000", "093434.845000", "093435.305000", "093435.765000", "093436.225000", "093436.685000", "093437.145000", "093437.605000", "093438.065000", "093438.525000", "093438.985000", "093439.445000", "093439.905000", "093440.365000", "093440.825000", "093441.285000", "093441.745000", "093442.205000", "093442.665000", "093443.125000", "093443.585000", "093444.045000", "093444.505000", "093444.965000", "093445.425000", "093445.885000", "093446.345000", "093446.805000", "093447.265000", "093447.725000", "093448.185000", "093448.645000", "093449.105000", "093449.565000", "093450.025000", "093450.485000", "093450.945000", "093451.405000", "093451.865000", "093452.325000", "093452.785000", "093453.245000", "093453.705000", "093454.165000", "093454.625000", "093455.085000", "093455.545000", "093456.005000", "093456.465000", "093456.925000", "093457.385000", "093457.845000", "093458.305000", "093458.765000", "093459.225000", "093459.685000", "093500.145000", "093500.605000", "093501.065000", "093501.525000", "093501.985000", "093502.445000", "093502.905000", "093503.365000", "093503.825000", "093504.285000", "093504.745000", "093505.205000", "093505.665000", "093506.125000", "093506.585000", "093507.045000", "093507.505000", "093507.965000", "093508.425000", "093508.885000", "093509.345000", "093509.805000", "093510.265000", "093510.725000", "093511.185000", "093511.645000", "093512.105000", "093512.565000", "093513.025000", "093513.485000", "093513.945000", "093514.405000", "093514.865000", "093515.325000", "093515.785000", "093516.245000", "093516.705000", "093517.165000", "093517.625000", "093518.085000", "093518.545000", "093519.005000", "093519.465000", "093519.925000", "093520.385000", "093520.845000", "093521.305000", "093521.765000", "093522.225000", "093522.685000", "093523.145000", "093523.605000", "093524.065000", "093524.525000", "093524.985000", "093525.445000", "093525.905000", "093526.365000", "093526.825000", "093527.285000", "093527.745000", "093528.205000", "093528.665000", "093529.125000", "093529.585000", "093530.045000", "093530.505000", "093530.965000", "093531.425000", "093531.885000", "093532.345000", "093532.805000", "093533.265000", "093533.725000", "093534.185000", "093534.645000", "093535.105000", "093535.565000", "093536.025000", "093536.485000", "093536.945000", "093537.405000", "093537.865000", "093538.325000", "093538.785000", "093539.245000", "093539.705000", "093540.165000", "093540.625000", "093541.085000", "093541.545000", "093542.005000", "093542.465000", "093542.925000", "093543.385000", "093543.845000", "093544.305000", "093544.765000", "093545.225000", "093545.685000", "093546.145000", "093546.605000", "093547.065000", "093547.525000", "093547.985000", "093548.445000", "093548.905000", "093549.365000", "093549.825000", "093550.285000", "093550.745000", "093551.205000", "093551.665000", "093552.125000", "093552.585000", "093553.045000", "093553.505000", "093553.965000", "093554.425000", "093554.885000", "093555.345000", "093555.805000", "093556.265000", "093556.725000", "093557.185000", "093557.645000", "093558.105000", "093558.565000", "093559.025000", "093559.485000", "093559.945000", "093600.405000", "093600.865000", "093601.325000", "093601.785000", "093602.245000", "093602.705000", "093603.165000", "093603.625000", "093604.085000", "093604.545000", "093605.005000", "093605.465000", "093605.925000", "093606.385000", "093606.845000", "093607.305000", "093607.765000", "093608.225000", "093608.685000", "093609.145000", "093609.605000", "093610.065000", "093610.525000", "093610.985000", "093611.445000", "093611.905000", "093612.365000", "093612.825000", "093613.285000", "093613.745000", "093614.205000", "093614.665000", "093615.125000", "093615.585000", "093616.045000", "093616.505000", "093616.965000", "093617.425000", "093617.885000", "093618.345000", "093618.805000", "093619.265000", "093619.725000", "093620.185000", "093620.645000", "093621.105000", "093621.565000", "093622.025000", "093622.485000", "093622.945000", "093623.405000", "093623.865000", "093624.325000", "093624.785000", "093625.245000", "093625.705000", "093626.165000", "093626.625000", "093627.085000", "093627.545000", "093628.005000", "093628.465000", "093628.925000", "093629.385000", "093629.845000", "093630.305000", "093630.765000", "093631.225000", "093631.685000", "093632.145000", "093632.605000", "093633.065000", "093633.525000", "093633.985000", "093634.445000", "093634.905000", "093635.365000", "093635.825000", "093636.285000", "093636.745000", "093637.205000", "093637.665000", "093638.125000", "093638.585000", "093639.045000", "093639.505000", "093639.965000", "093640.425000", "093640.885000", "093641.345000", "093641.805000", "093642.265000", "093642.725000", "093643.185000", "093643.645000", "093644.105000", "093644.565000", "093645.025000", "093645.485000", "093645.945000", "093646.405000", "093646.865000", "093647.325000", "093647.785000", "093648.245000", "093648.705000", "093649.165000", "093649.625000", "093650.085000", "093650.545000", "093651.005000", "093651.465000", "093651.925000", "093652.385000", "093652.845000", "093653.305000", "093653.765000", "093654.225000", "093654.685000", "093655.145000", "093655.605000", "093656.065000", "093656.525000", "093656.985000", "093657.445000", "093657.905000", "093658.365000", "093658.825000", "093659.285000", "093659.745000", "093700.205000", "093700.665000", "093701.125000", "093701.585000", "093702.045000", "093702.505000", "093702.965000", "093703.425000", "093703.885000", "093704.345000", "093704.805000", "093705.265000", "093705.725000", "093706.185000", "093706.645000", "093707.105000", "093707.565000", "093708.025000", "093708.485000", "093708.945000", "093709.405000", "093709.865000", "093710.325000", "093710.785000", "093711.245000", "093711.705000", "093712.165000", "093712.625000", "093713.085000", "093713.545000", "093714.005000", "093714.465000", "093714.925000", "093715.385000", "093715.845000", "093716.305000", "093716.765000", "093717.225000", "093717.685000", "093718.145000", "093718.605000", "093719.065000", "093719.525000", "093719.985000", "093720.445000", "093720.905000", "093721.365000", "093721.825000", "093722.285000", "093722.745000", "093723.205000", "093723.665000", "093724.125000", "093724.585000", "093725.045000", "093725.505000", "093725.965000", "093726.425000", "093726.885000", "093727.345000", "093727.805000", "093728.265000", "093728.725000", "093729.185000", "093729.645000", "093730.105000", "093730.565000", "093731.025000", "093731.485000", "093731.945000", "093732.405000", "093732.865000", "093733.325000", "093733.785000", "093734.245000", "093734.705000", "093735.165000", "093735.625000", "093736.085000", "093736.545000", "093737.005000", "093737.465000", "093737.925000", "093738.385000", "093738.845000", "093739.305000", "093739.765000", "093740.225000", "093740.685000", "093741.145000", "093741.605000", "093742.065000", "093742.525000", "093742.985000", "093743.445000", "093743.905000", "093744.365000", "093744.825000", "093745.285000", "093745.745000", "093746.205000", "093746.665000", "093747.125000", "093747.585000", "093748.045000", "093748.505000", "093748.965000", "093749.425000", "093749.885000", "093750.345000", "093750.805000", "093751.265000", "093751.725000", "093752.185000", "093752.645000", "093753.105000", "093753.565000", "093754.025000", "093754.485000", "093754.945000", "093755.405000", "093755.865000", "093756.325000", "093756.785000", "093757.245000", "093757.705000", "093758.165000", "093758.625000", "093759.085000", "093759.545000", "093800.005000", "093800.465000", "093800.925000", "093801.385000", "093801.845000", "093802.305000", "093802.765000", "093803.225000", "093803.685000", "093804.145000", "093804.605000", "093805.065000", "093805.525000", "093805.985000", "093806.445000", "093806.905000", "093807.365000", "093807.825000", "093808.285000", "093808.745000", "093809.205000", "093809.665000", "093810.125000", "093810.585000", "093811.045000", "093811.505000", "093811.965000", "093812.425000", "093812.885000", "093813.345000", "093813.805000", "093814.265000", "093814.725000", "093815.185000", "093815.645000", "093816.105000", "093816.565000", "093817.025000", "093817.485000", "093817.945000", "093818.405000", "093818.865000", "093819.325000", "093819.785000", "093820.245000", "093820.705000", "093821.165000", "093821.625000", "093822.085000", "093822.545000", "093823.005000", "093823.465000", "093823.925000", "093824.385000", "093824.845000", "093825.305000", "093825.765000", "093826.225000", "093826.685000", "093827.145000", "093827.605000", "093828.065000", "093828.525000", "093828.985000", "093829.445000", "093829.905000", "093830.365000", "093830.825000", "093831.285000", "093831.745000", "093832.205000", "093832.665000", "093833.125000", "093833.585000", "093834.045000", "093834.505000", "093834.965000", "093835.425000", "093835.885000", "093836.345000", "093836.805000", "093837.265000", "093837.725000", "093838.185000", "093838.645000", "093839.105000", "093839.565000", "093840.025000", "093840.485000", "093840.945000", "093841.405000", "093841.865000", "093842.325000", "093842.785000", "093843.245000", "093843.705000", "093844.165000", "093844.625000", "093845.085000", "093845.545000", "093846.005000", "093846.465000", "093846.925000", "093847.385000", "093847.845000", "093848.305000", "093848.765000", "093849.225000", "093849.685000", "093850.145000", "093850.605000", "093851.065000", "093851.525000", "093851.985000", "093852.445000", "093852.905000", "093853.365000", "093853.825000", "093854.285000", "093854.745000", "093855.205000", "093855.665000", "093856.125000", "093856.585000", "093857.045000", "093857.505000", "093857.965000", "093858.425000", "093858.885000", "093859.345000", "093859.805000", "093900.265000", "093900.725000", "093901.185000", "093901.645000", "093902.105000", "093902.565000", "093903.025000", "093903.485000", "093903.945000", "093904.405000", "093904.865000", "093905.325000", "093905.785000", "093906.245000", "093906.705000", "093907.165000", "093907.625000", "093908.085000", "093908.545000", "093909.005000", "093909.465000", "093909.925000", "093910.385000", "093910.845000", "093911.305000", "093911.765000", "093912.225000", "093912.685000", "093913.145000", "093913.605000", "093914.065000", "093914.525000", "093914.985000", "093915.445000", "093915.905000", "093916.365000", "093916.825000"],
