{
  "AcquisitionMatrixPE": 82,
  "AcquisitionNumber": 1,
  "AcquisitionTime": "08:46:49.217500",
  "BandwidthPerPixelPhaseEncode": 24.888,
  "BaseResolution": 82,
  "BodyPartExamined": "BRAIN",
  "ConsistencyInfo": "N4_VE11E_LATEST_20181129",
  "ConversionSoftware": "dcm2niix",
  "ConversionSoftwareVersion": "v1.0.20201102",
  "DerivedVendorReportedEchoSpacing": 0.00049,
  "DeviceSerialNumber": "66112",
  "DwellTime": 2e-06,
  "EchoTime": 0.0272,
  "EchoTrainLength": 82,
  "EffectiveEchoSpacing": 0.00049,
  "FlipAngle": 44,
  "ImageComments": "Unaliased MB8/PE3",
  "ImageOrientationPatientDICOM": [0.998693, -0.046373, -0.0214683, 0.0497179, 0.978843, 0.198481],
  "ImageType": [
    "ORIGINAL",
    "PRIMARY",
    "M",
    "MB",
    "ND",
    "NORM",
    "MOSAIC"
],
  "ImagingFrequency": 123.252,
  "InPlanePhaseEncodingDirectionDICOM": "COL",
  "InstitutionAddress": "Maynard 3,Hanover,NH,US,03755",
  "InstitutionName": "Dartmouth College - PBS",
  "InstitutionalDepartmentName": "Department",
  "MRAcquisitionType": "2D",
  "MagneticFieldStrength": 3,
  "Manufacturer": "Siemens",
  "ManufacturersModelName": "Prisma",
  "Modality": "MR",
  "MultibandAccelerationFactor": 8,
  "PartialFourier": 1,
  "PatientPosition": "HFS",
  "PercentPhaseFOV": 100,
  "PercentSampling": 100,
  "PhaseEncodingDirection": "j-",
  "PhaseEncodingSteps": 82,
  "PhaseResolution": 1,
  "PixelBandwidth": 3050,
  "ProcedureStepDescription": "Wager_Wager^1076_spacetop",
  "ProtocolName": "func_run-01_task-social_acq-ap-mb8",
  "PulseSequenceDetails": "%CustomerSeq%\\cmrr_mbep2d_bold",
  "ReceiveCoilActiveElements": "HEA;HEP",
  "ReceiveCoilName": "Head_32",
  "ReconMatrixPE": 82,
  "RepetitionTime": 0.46,
  "SAR": 0.0774463,
  "ScanOptions": "FS",
  "ScanningSequence": "EP",
  "SequenceName": "epfid2d1_82",
  "SequenceVariant": "SK\\SS",
  "SeriesDescription": "func_run-01_task-social_acq-ap-mb8",
  "SeriesNumber": 12,
  "ShimSetting": [4129, -7740, -7155, 778, -67, -71, 179, 67],
  "SliceThickness": 2.7,
  "SliceTiming": [0, 0.2525, 0.0625, 0.315, 0.1275, 0.3775, 0.19, 0, 0.2525, 0.0625, 0.315, 0.1275, 0.3775, 0.19, 0, 0.2525, 0.0625, 0.315, 0.1275, 0.3775, 0.19, 0, 0.2525, 0.0625, 0.315, 0.1275, 0.3775, 0.19, 0, 0.2525, 0.0625, 0.315, 0.1275, 0.3775, 0.19, 0, 0.2525, 0.0625, 0.315, 0.1275, 0.3775, 0.19, 0, 0.2525, 0.0625, 0.315, 0.1275, 0.3775, 0.19, 0, 0.2525, 0.0625, 0.315, 0.1275, 0.3775, 0.19],
  "SoftwareVersions": "syngo MR E11",
  "SpacingBetweenSlices": 2.7,
  "StationName": "AWP66112",
  "TaskName": "social",
  "TotalReadoutTime": 0.03969,
  "TxRefAmp": 222.531,
  "WipMemBlock": "1384a8e7-a12a-412c-b6f0-ade7c5f8f860||Sequence: R016 ve11e/master r/434b28f1; Aug  7 2019 18:53:46 by eja",
  "dcmmeta_affine": [
    [-2.6794216632843018, 0.13338950276374817, -0.03188687935471535, 105.01686096191406],
    [0.12441539764404297, 2.626163959503174, 0.5380802154541016, -112.60397338867188],
    [-0.05759793147444725, -0.5325098037719727, 2.6456480026245117, -6.346395492553711],
    [0.0, 0.0, 0.0, 1.0]
],
  "dcmmeta_reorient_transform": [
    [0.0, -1.0, 0.0, 81.0],
    [1.0, 0.0, 0.0, 0.0],
    [0.0, 0.0, 1.0, 0.0],
    [0.0, 0.0, 0.0, 1.0]
],
  "dcmmeta_shape": [82, 82, 56, 872],
  "dcmmeta_slice_dim": 2,
  "dcmmeta_version": 0.6,
  "global": {
    "const": {
      "AccessionNumber": "A004183",
      "AcquisitionMatrix": [82, 0, 0, 82],
      "AngioFlag": "N",
      "BitsAllocated": 16,
      "BitsStored": 16,
      "BodyPartExamined": "BRAIN",
      "Columns": 656,
      "EchoNumbers": 1,
      "EchoTime": 27.2,
      "EchoTrainLength": 82,
      "FlipAngle": 44.0,
      "HighBit": 15,
      "ImageOrientationPatient": [0.99869347408974, -0.0463730098885, -0.0214683200193, 0.0497179018515, 0.9788429165023, 0.19848091860117],
      "ImagePositionPatient": [-923.09818984517, -818.11715415581, -185.77939315453],
      "ImageType": [
        "ORIGINAL",
        "PRIMARY",
        "M",
        "MB",
        "ND",
        "NORM",
        "MOSAIC"
],
      "ImagedNucleus": "1H",
      "ImagingFrequency": 123.252127,
      "InPlanePhaseEncodingDirection": "COL",
      "MRAcquisitionType": "2D",
      "MagneticFieldStrength": 3.0,
      "Manufacturer": "SIEMENS",
      "ManufacturerModelName": "Prisma",
      "Modality": "MR",
      "NumberOfAverages": 1.0,
      "NumberOfPhaseEncodingSteps": 82,
      "PercentPhaseFieldOfView": 100.0,
      "PercentSampling": 100.0,
      "PerformedProcedureStepStartTime": "081026.590000",
      "PhotometricInterpretation": "MONOCHROME2",
      "PixelBandwidth": 3050.0,
      "PixelRepresentation": 0,
      "PixelSpacing": [2.6829268932343, 2.6829268932343],
      "ProtocolName": "func_run-01_task-social_acq-ap-mb8",
      "RepetitionTime": 460.0,
      "Rows": 656,
      "SAR": 0.07744625949685,
      "SamplesPerPixel": 1,
      "ScanOptions": "FS",
      "ScanningSequence": "EP",
      "SequenceName": "epfid2d1_82",
      "SequenceVariant": [
        "SK",
        "SS"
],
      "SeriesDescription": "func_run-01_task-social_acq-ap-mb8",
      "SeriesNumber": 12,
      "SeriesTime": "084707.665000",
      "SliceLocation": -29.899613247094,
      "SliceThickness": 2.7000000476837,
      "SmallestImagePixelValue": 0,
      "SoftwareVersions": "syngo MR E11",
      "SpacingBetweenSlices": 2.7000000264181,
      "SpecificCharacterSet": "ISO_IR 100",
      "StudyID": "2",
      "StudyTime": "081026.478000",
      "TransmitCoilName": "Body",
      "VariableFlipAngleFlag": "N",
      "WindowCenterWidthExplanation": "Algo1"
    },
    "slices": {}
  },
  "time": {
    "samples": {
      "AcquisitionNumber": [1, 2, 3, 4, 5, 6, 7, 8, 9, 10, 11, 12, 13, 14, 15, 16, 17, 18, 19, 20, 21, 22, 23, 24, 25, 26, 27, 28, 29, 30, 31, 32, 33, 34, 35, 36, 37, 38, 39, 40, 41, 42, 43, 44, 45, 46, 47, 48, 49, 50, 51, 52, 53, 54, 55, 56, 57, 58, 59, 60, 61, 62, 63, 64, 65, 66, 67, 68, 69, 70, 71, 72, 73, 74, 75, 76, 77, 78, 79, 80, 81, 82, 83, 84, 85, 86, 87, 88, 89, 90, 91, 92, 93, 94, 95, 96, 97, 98, 99, 100, 101, 102, 103, 104, 105, 106, 107, 108, 109, 110, 111, 112, 113, 114, 115, 116, 117, 118, 119, 120, 121, 122, 123, 124, 125, 126, 127, 128, 129, 130, 131, 132, 133, 134, 135, 136, 137, 138, 139, 140, 141, 142, 143, 144, 145, 146, 147, 148, 149, 150, 151, 152, 153, 154, 155, 156, 157, 158, 159, 160, 161, 162, 163, 164, 165, 166, 167, 168, 169, 170, 171, 172, 173, 174, 175, 176, 177, 178, 179, 180, 181, 182, 183, 184, 185, 186, 187, 188, 189, 190, 191, 192, 193, 194, 195, 196, 197, 198, 199, 200, 201, 202, 203, 204, 205, 206, 207, 208, 209, 210, 211, 212, 213, 214, 215, 216, 217, 218, 219, 220, 221, 222, 223, 224, 225, 226, 227, 228, 229, 230, 231, 232, 233, 234, 235, 236, 237, 238, 239, 240, 241, 242, 243, 244, 245, 246, 247, 248, 249, 250, 251, 252, 253, 254, 255, 256, 257, 258, 259, 260, 261, 262, 263, 264, 265, 266, 267, 268, 269, 270, 271, 272, 273, 274, 275, 276, 277, 278, 279, 280, 281, 282, 283, 284, 285, 286, 287, 288, 289, 290, 291, 292, 293, 294, 295, 296, 297, 298, 299, 300, 301, 302, 303, 304, 305, 306, 307, 308, 309, 310, 311, 312, 313, 314, 315, 316, 317, 318, 319, 320, 321, 322, 323, 324, 325, 326, 327, 328, 329, 330, 331, 332, 333, 334, 335, 336, 337, 338, 339, 340, 341, 342, 343, 344, 345, 346, 347, 348, 349, 350, 351, 352, 353, 354, 355, 356, 357, 358, 359, 360, 361, 362, 363, 364, 365, 366, 367, 368, 369, 370, 371, 372, 373, 374, 375, 376, 377, 378, 379, 380, 381, 382, 383, 384, 385, 386, 387, 388, 389, 390, 391, 392, 393, 394, 395, 396, 397, 398, 399, 400, 401, 402, 403, 404, 405, 406, 407, 408, 409, 410, 411, 412, 413, 414, 415, 416, 417, 418, 419, 420, 421, 422, 423, 424, 425, 426, 427, 428, 429, 430, 431, 432, 433, 434, 435, 436, 437, 438, 439, 440, 441, 442, 443, 444, 445, 446, 447, 448, 449, 450, 451, 452, 453, 454, 455, 456, 457, 458, 459, 460, 461, 462, 463, 464, 465, 466, 467, 468, 469, 470, 471, 472, 473, 474, 475, 476, 477, 478, 479, 480, 481, 482, 483, 484, 485, 486, 487, 488, 489, 490, 491, 492, 493, 494, 495, 496, 497, 498, 499, 500, 501, 502, 503, 504, 505, 506, 507, 508, 509, 510, 511, 512, 513, 514, 515, 516, 517, 518, 519, 520, 521, 522, 523, 524, 525, 526, 527, 528, 529, 530, 531, 532, 533, 534, 535, 536, 537, 538, 539, 540, 541, 542, 543, 544, 545, 546, 547, 548, 549, 550, 551, 552, 553, 554, 555, 556, 557, 558, 559, 560, 561, 562, 563, 564, 565, 566, 567, 568, 569, 570, 571, 572, 573, 574, 575, 576, 577, 578, 579, 580, 581, 582, 583, 584, 585, 586, 587, 588, 589, 590, 591, 592, 593, 594, 595, 596, 597, 598, 599, 600, 601, 602, 603, 604, 605, 606, 607, 608, 609, 610, 611, 612, 613, 614, 615, 616, 617, 618, 619, 620, 621, 622, 623, 624, 625, 626, 627, 628, 629, 630, 631, 632, 633, 634, 635, 636, 637, 638, 639, 640, 641, 642, 643, 644, 645, 646, 647, 648, 649, 650, 651, 652, 653, 654, 655, 656, 657, 658, 659, 660, 661, 662, 663, 664, 665, 666, 667, 668, 669, 670, 671, 672, 673, 674, 675, 676, 677, 678, 679, 680, 681, 682, 683, 684, 685, 686, 687, 688, 689, 690, 691, 692, 693, 694, 695, 696, 697, 698, 699, 700, 701, 702, 703, 704, 705, 706, 707, 708, 709, 710, 711, 712, 713, 714, 715, 716, 717, 718, 719, 720, 721, 722, 723, 724, 725, 726, 727, 728, 729, 730, 731, 732, 733, 734, 735, 736, 737, 738, 739, 740, 741, 742, 743, 744, 745, 746, 747, 748, 749, 750, 751, 752, 753, 754, 755, 756, 757, 758, 759, 760, 761, 762, 763, 764, 765, 766, 767, 768, 769, 770, 771, 772, 773, 774, 775, 776, 777, 778, 779, 780, 781, 782, 783, 784, 785, 786, 787, 788, 789, 790, 791, 792, 793, 794, 795, 796, 797, 798, 799, 800, 801, 802, 803, 804, 805, 806, 807, 808, 809, 810, 811, 812, 813, 814, 815, 816, 817, 818, 819, 820, 821, 822, 823, 824, 825, 826, 827, 828, 829, 830, 831, 832, 833, 834, 835, 836, 837, 838, 839, 840, 841, 842, 843, 844, 845, 846, 847, 848, 849, 850, 851, 852, 853, 854, 855, 856, 857, 858, 859, 860, 861, 862, 863, 864, 865, 866, 867, 868, 869, 870, 871, 872],
      "AcquisitionTime": ["084649.217500", "084649.677500", "084650.137500", "084650.597500", "084651.057500", "084651.517500", "084651.977500", "084652.437500", "084652.897500", "084653.357500", "084653.817500", "084654.277500", "084654.737500", "084655.197500", "084655.657500", "084656.117500", "084656.577500", "084657.037500", "084657.497500", "084657.957500", "084658.417500", "084658.877500", "084659.337500", "084659.797500", "084700.257500", "084700.717500", "084701.177500", "084701.637500", "084702.097500", "084702.557500", "084703.017500", "084703.477500", "084703.937500", "084704.397500", "084704.857500", "084705.317500", "084705.777500", "084706.237500", "084706.697500", "084707.157500", "084707.617500", "084708.077500", "084708.537500", "084708.997500", "084709.457500", "084709.917500", "084710.377500", "084710.837500", "084711.297500", "084711.757500", "084712.217500", "084712.677500", "084713.137500", "084713.597500", "084714.057500", "084714.517500", "084714.977500", "084715.437500", "084715.897500", "084716.357500", "084716.817500", "084717.277500", "084717.737500", "084718.197500", "084718.657500", "084719.117500", "084719.577500", "084720.037500", "084720.497500", "084720.957500", "084721.417500", "084721.877500", "084722.337500", "084722.797500", "084723.257500", "084723.717500", "084724.177500", "084724.637500", "084725.097500", "084725.557500", "084726.017500", "084726.477500", "084726.937500", "084727.397500", "084727.857500", "084728.317500", "084728.777500", "084729.237500", "084729.697500", "084730.157500", "084730.617500", "084731.077500", "084731.537500", "084731.997500", "084732.457500", "084732.917500", "084733.377500", "084733.837500", "084734.297500", "084734.757500", "084735.217500", "084735.677500", "084736.137500", "084736.597500", "084737.057500", "084737.517500", "084737.977500", "084738.437500", "084738.897500", "084739.357500", "084739.817500", "084740.277500", "084740.737500", "084741.197500", "084741.657500", "084742.117500", "084742.577500", "084743.037500", "084743.497500", "084743.957500", "084744.417500", "084744.877500", "084745.337500", "084745.797500", "084746.257500", "084746.717500", "084747.177500", "084747.637500", "084748.097500", "084748.557500", "084749.017500", "084749.477500", "084749.937500", "084750.397500", "084750.857500", "084751.317500", "084751.777500", "084752.237500", "084752.697500", "084753.157500", "084753.617500", "084754.077500", "084754.537500", "084754.997500", "084755.457500", "084755.917500", "084756.377500", "084756.837500", "084757.297500", "084757.757500", "084758.217500", "084758.677500", "084759.137500", "084759.597500", "084800.057500", "084800.517500", "084800.977500", "084801.437500", "084801.897500", "084802.357500", "084802.817500", "084803.277500", "084803.737500", "084804.197500", "084804.657500", "084805.117500", "084805.577500", "084806.037500", "084806.497500", "084806.957500", "084807.417500", "084807.877500", "084808.337500", "084808.797500", "084809.257500", "084809.717500", "084810.177500", "084810.637500", "084811.097500", "084811.557500", "084812.017500", "084812.477500", "084812.937500", "084813.397500", "084813.857500", "084814.317500", "084814.777500", "084815.237500", "084815.697500", "084816.157500", "084816.617500", "084817.077500", "084817.537500", "084817.997500", "084818.457500", "084818.917500", "084819.377500", "084819.837500", "084820.297500", "084820.757500", "084821.217500", "084821.677500", "084822.137500", "084822.597500", "084823.057500", "084823.517500", "084823.977500", "084824.437500", "084824.897500", "084825.357500", "084825.817500", "084826.277500", "084826.737500", "084827.197500", "084827.657500", "084828.117500", "084828.577500", "084829.037500", "084829.497500", "084829.957500", "084830.417500", "084830.877500", "084831.337500", "084831.797500", "084832.257500", "084832.717500", "084833.177500", "084833.637500", "084834.097500", "084834.557500", "084835.017500", "084835.477500", "084835.937500", "084836.397500", "084836.857500", "084837.317500", "084837.777500", "084838.237500", "084838.697500", "084839.157500", "084839.617500", "084840.077500", "084840.537500", "084840.997500", "084841.457500", "084841.917500", "084842.377500", "084842.837500", "084843.297500", "084843.757500", "084844.217500", "084844.677500", "084845.137500", "084845.597500", "084846.057500", "084846.517500", "084846.977500", "084847.437500", "084847.897500", "084848.357500", "084848.817500", "084849.277500", "084849.737500", "084850.197500", "084850.657500", "084851.117500", "084851.577500", "084852.037500", "084852.497500", "084852.957500", "084853.417500", "084853.877500", "084854.337500", "084854.797500", "084855.257500", "084855.717500", "084856.177500", "084856.637500", "084857.097500", "084857.557500", "084858.017500", "084858.477500", "084858.937500", "084859.397500", "084859.857500", "084900.317500", "084900.777500", "084901.237500", "084901.697500", "084902.157500", "084902.617500", "084903.077500", "084903.537500", "084903.997500", "084904.457500", "084904.917500", "084905.377500", "084905.837500", "084906.297500", "084906.757500", "084907.217500", "084907.677500", "084908.137500", "084908.597500", "084909.057500", "084909.517500", "084909.977500", "084910.437500", "084910.897500", "084911.357500", "084911.817500", "084912.277500", "084912.737500", "084913.197500", "084913.657500", "084914.117500", "084914.577500", "084915.037500", "084915.497500", "084915.957500", "084916.417500", "084916.877500", "084917.337500", "084917.797500", "084918.257500", "084918.717500", "084919.177500", "084919.637500", "084920.097500", "084920.557500", "084921.017500", "084921.477500", "084921.937500", "084922.397500", "084922.857500", "084923.317500", "084923.777500", "084924.237500", "084924.697500", "084925.157500", "084925.617500", "084926.077500", "084926.537500", "084926.997500", "084927.457500", "084927.917500", "084928.377500", "084928.837500", "084929.297500", "084929.757500", "084930.217500", "084930.677500", "084931.137500", "084931.597500", "084932.057500", "084932.517500", "084932.977500", "084933.437500", "084933.897500", "084934.357500", "084934.817500", "084935.277500", "084935.737500", "084936.197500", "084936.657500", "084937.117500", "084937.577500", "084938.037500", "084938.497500", "084938.957500", "084939.417500", "084939.877500", "084940.337500", "084940.797500", "084941.257500", "084941.717500", "084942.177500", "084942.637500", "084943.097500", "084943.557500", "084944.017500", "084944.477500", "084944.937500", "084945.397500", "084945.857500", "084946.317500", "084946.777500", "084947.237500", "084947.697500", "084948.157500", "084948.617500", "084949.077500", "084949.537500", "084949.997500", "084950.457500", "084950.917500", "084951.377500", "084951.837500", "084952.297500", "084952.757500", "084953.217500", "084953.677500", "084954.137500", "084954.597500", "084955.057500", "084955.517500", "084955.977500", "084956.437500", "084956.897500", "084957.357500", "084957.817500", "084958.277500", "084958.737500", "084959.197500", "084959.657500", "085000.117500", "085000.577500", "085001.037500", "085001.497500", "085001.957500", "085002.417500", "085002.877500", "085003.337500", "085003.797500", "085004.257500", "085004.717500", "085005.177500", "085005.637500", "085006.097500", "085006.557500", "085007.017500", "085007.477500", "085007.937500", "085008.397500", "085008.857500", "085009.317500", "085009.777500", "085010.237500", "085010.697500", "085011.157500", "085011.617500", "085012.077500", "085012.537500", "085012.997500", "085013.457500", "085013.917500", "085014.377500", "085014.837500", "085015.297500", "085015.757500", "085016.217500", "085016.677500", "085017.137500", "085017.597500", "085018.057500", "085018.517500", "085018.977500", "085019.437500", "085019.897500", "085020.357500", "085020.817500", "085021.277500", "085021.737500", "085022.197500", "085022.657500", "085023.117500", "085023.577500", "085024.037500", "085024.497500", "085024.957500", "085025.417500", "085025.877500", "085026.337500", "085026.797500", "085027.257500", "085027.717500", "085028.177500", "085028.637500", "085029.097500", "085029.557500", "085030.017500", "085030.477500", "085030.937500", "085031.397500", "085031.857500", "085032.317500", "085032.777500", "085033.237500", "085033.697500", "085034.157500", "085034.617500", "085035.077500", "085035.537500", "085035.997500", "085036.457500", "085036.917500", "085037.377500", "085037.837500", "085038.297500", "085038.757500", "085039.217500", "085039.677500", "085040.137500", "085040.597500", "085041.057500", "085041.517500", "085041.977500", "085042.437500", "085042.897500", "085043.357500", "085043.817500", "085044.277500", "085044.737500", "085045.197500", "085045.657500", "085046.117500", "085046.577500", "085047.037500", "085047.497500", "085047.957500", "085048.417500", "085048.877500", "085049.337500", "085049.797500", "085050.257500", "085050.717500", "085051.177500", "085051.637500", "085052.097500", "085052.557500", "085053.017500", "085053.477500", "085053.937500", "085054.397500", "085054.857500", "085055.317500", "085055.777500", "085056.237500", "085056.697500", "085057.157500", "085057.617500", "085058.077500", "085058.537500", "085058.997500", "085059.457500", "085059.917500", "085100.377500", "085100.837500", "085101.297500", "085101.757500", "085102.217500", "085102.677500", "085103.137500", "085103.597500", "085104.057500", "085104.517500", "085104.977500", "085105.437500", "085105.897500", "085106.357500", "085106.817500", "085107.277500", "085107.737500", "085108.197500", "085108.657500", "085109.117500", "085109.577500", "085110.037500", "085110.497500", "085110.957500", "085111.417500", "085111.877500", "085112.337500", "085112.797500", "085113.257500", "085113.717500", "085114.177500", "085114.637500", "085115.097500", "085115.557500", "085116.017500", "085116.477500", "085116.937500", "085117.397500", "085117.857500", "085118.317500", "085118.777500", "085119.237500", "085119.697500", "085120.157500", "085120.617500", "085121.077500", "085121.537500", "085121.997500", "085122.457500", "085122.917500", "085123.377500", "085123.837500", "085124.297500", "085124.757500", "085125.217500", "085125.677500", "085126.137500", "085126.597500", "085127.057500", "085127.517500", "085127.977500", "085128.437500", "085128.897500", "085129.357500", "085129.817500", "085130.277500", "085130.737500", "085131.197500", "085131.657500", "085132.117500", "085132.577500", "085133.037500", "085133.497500", "085133.957500", "085134.417500", "085134.877500", "085135.337500", "085135.797500", "085136.257500", "085136.717500", "085137.177500", "085137.637500", "085138.097500", "085138.557500", "085139.017500", "085139.477500", "085139.937500", "085140.397500", "085140.857500", "085141.317500", "085141.777500", "085142.237500", "085142.697500", "085143.157500", "085143.617500", "085144.077500", "085144.537500", "085144.997500", "085145.457500", "085145.917500", "085146.377500", "085146.837500", "085147.297500", "085147.757500", "085148.217500", "085148.677500", "085149.137500", "085149.597500", "085150.057500", "085150.517500", "085150.977500", "085151.437500", "085151.897500", "085152.357500", "085152.817500", "085153.277500", "085153.737500", "085154.197500", "085154.657500", "085155.117500", "085155.577500", "085156.037500", "085156.497500", "085156.957500", "085157.417500", "085157.877500", "085158.337500", "085158.797500", "085159.257500", "085159.717500", "085200.177500", "085200.637500", "085201.097500", "085201.557500", "085202.017500", "085202.477500", "085202.937500", "085203.397500", "085203.857500", "085204.317500", "085204.777500", "085205.237500", "085205.697500", "085206.157500", "085206.617500", "085207.077500", "085207.537500", "085207.997500", "085208.457500", "085208.917500", "085209.377500", "085209.837500", "085210.297500", "085210.757500", "085211.217500", "085211.677500", "085212.137500", "085212.597500", "085213.057500", "085213.517500", "085213.977500", "085214.437500", "085214.897500", "085215.357500", "085215.817500", "085216.277500", "085216.737500", "085217.197500", "085217.657500", "085218.117500", "085218.577500", "085219.037500", "085219.497500", "085219.957500", "085220.417500", "085220.877500", "085221.337500", "085221.797500", "085222.257500", "085222.717500", "085223.177500", "085223.637500", "085224.097500", "085224.557500", "085225.017500", "085225.477500", "085225.937500", "085226.397500", "085226.857500", "085227.317500", "085227.777500", "085228.237500", "085228.697500", "085229.157500", "085229.617500", "085230.077500", "085230.537500", "085230.997500", "085231.457500", "085231.917500", "085232.377500", "085232.837500", "085233.297500", "085233.757500", "085234.217500", "085234.677500", "085235.137500", "085235.597500", "085236.057500", "085236.517500", "085236.977500", "085237.437500", "085237.897500", "085238.357500", "085238.817500", "085239.277500", "085239.737500", "085240.197500", "085240.657500", "085241.117500", "085241.577500", "085242.037500", "085242.497500", "085242.957500", "085243.417500", "085243.877500", "085244.337500", "085244.797500", "085245.257500", "085245.717500", "085246.177500", "085246.637500", "085247.097500", "085247.557500", "085248.017500", "085248.477500", "085248.937500", "085249.397500", "085249.857500", "085250.317500", "085250.777500", "085251.237500", "085251.697500", "085252.157500", "085252.617500", "085253.077500", "085253.537500", "085253.997500", "085254.457500", "085254.917500", "085255.377500", "085255.837500", "085256.297500", "085256.757500", "085257.217500", "085257.677500", "085258.137500", "085258.597500", "085259.057500", "085259.517500", "085259.977500", "085300.437500", "085300.897500", "085301.357500", "085301.817500", "085302.277500", "085302.737500", "085303.197500", "085303.657500", "085304.117500", "085304.577500", "085305.037500", "085305.497500", "085305.957500", "085306.417500", "085306.877500", "085307.337500", "085307.797500", "085308.257500", "085308.717500", "085309.177500", "085309.637500", "085310.097500", "085310.557500", "085311.017500", "085311.477500", "085311.937500", "085312.397500", "085312.857500", "085313.317500", "085313.777500", "085314.237500", "085314.697500", "085315.157500", "085315.617500", "085316.077500", "085316.537500", "085316.997500", "085317.457500", "085317.917500", "085318.377500", "085318.837500", "085319.297500", "085319.757500", "085320.217500", "085320.677500", "085321.137500", "085321.597500", "085322.057500", "085322.517500", "085322.977500", "085323.437500", "085323.897500", "085324.357500", "085324.817500", "085325.277500", "085325.737500", "085326.197500", "085326.657500", "085327.117500", "085327.577500", "085328.037500", "085328.497500", "085328.957500", "085329.417500", "085329.877500"],
