{
  "AcquisitionMatrixPE": 82,
  "AcquisitionNumber": 1,
  "AcquisitionTime": "09:23:55.417500",
  "BandwidthPerPixelPhaseEncode": 24.888,
  "BaseResolution": 82,
  "BodyPartExamined": "BRAIN",
  "ConsistencyInfo": "N4_VE11E_LATEST_20181129",
  "ConversionSoftware": "dcm2niix",
  "ConversionSoftwareVersion": "v1.0.20201102",
  "DerivedVendorReportedEchoSpacing": 0.00049,
  "DeviceSerialNumber": "66112",
  "DwellTime": 2e-06,
  "EchoTime": 0.0272,
  "EchoTrainLength": 82,
  "EffectiveEchoSpacing": 0.00049,
  "FlipAngle": 44,
  "ImageComments": "Unaliased MB8/PE3",
  "ImageOrientationPatientDICOM": [0.999048, -0.0276418, -0.0337569, 0.0336655, 0.980536, 0.193433],
  "ImageType": [
    "ORIGINAL",
    "PRIMARY",
    "M",
    "MB",
    "ND",
    "NORM",
    "MOSAIC"
],
  "ImagingFrequency": 123.252,
  "InPlanePhaseEncodingDirectionDICOM": "COL",
  "InstitutionAddress": "Maynard 3,Hanover,NH,US,03755",
  "InstitutionName": "Dartmouth College - PBS",
  "InstitutionalDepartmentName": "Department",
  "MRAcquisitionType": "2D",
  "MagneticFieldStrength": 3,
  "Manufacturer": "Siemens",
  "ManufacturersModelName": "Prisma",
  "Modality": "MR",
  "MultibandAccelerationFactor": 8,
  "PartialFourier": 1,
  "PatientPosition": "HFS",
  "PercentPhaseFOV": 100,
  "PercentSampling": 100,
  "PhaseEncodingDirection": "j-",
  "PhaseEncodingSteps": 82,
  "PhaseResolution": 1,
  "PixelBandwidth": 3050,
  "ProcedureStepDescription": "Wager_Wager^1076_spacetop",
  "ProtocolName": "func_run-05_task-social_acq-ap-mb8",
  "PulseSequenceDetails": "%CustomerSeq%\\cmrr_mbep2d_bold",
  "ReceiveCoilActiveElements": "HEA;HEP",
  "ReceiveCoilName": "Head_32",
  "ReconMatrixPE": 82,
  "RepetitionTime": 0.46,
  "SAR": 0.085781,
  "ScanOptions": "FS",
  "ScanningSequence": "EP",
  "SequenceName": "epfid2d1_82",
  "SequenceVariant": "SK\\SS",
  "SeriesDescription": "func_run-05_task-social_acq-ap-mb8",
  "SeriesNumber": 10,
  "ShimSetting": [4133, -7755, -7164, 743, -34, -91, 155, 55],
  "SliceThickness": 2.7,
  "SliceTiming": [0, 0.2525, 0.0625, 0.315, 0.1275, 0.3775, 0.19, 0, 0.2525, 0.0625, 0.315, 0.1275, 0.3775, 0.19, 0, 0.2525, 0.0625, 0.315, 0.1275, 0.3775, 0.19, 0, 0.2525, 0.0625, 0.315, 0.1275, 0.3775, 0.19, 0, 0.2525, 0.0625, 0.315, 0.1275, 0.3775, 0.19, 0, 0.2525, 0.0625, 0.315, 0.1275, 0.3775, 0.19, 0, 0.2525, 0.0625, 0.315, 0.1275, 0.3775, 0.19, 0, 0.2525, 0.0625, 0.315, 0.1275, 0.3775, 0.19],
  "SoftwareVersions": "syngo MR E11",
  "SpacingBetweenSlices": 2.7,
  "StationName": "AWP66112",
  "TaskName": "social",
  "TotalReadoutTime": 0.03969,
  "TxRefAmp": 232.909,
  "WipMemBlock": "d6a0f4c2-3945-4d1f-a329-b5c686f484ce||Sequence: R016 ve11e/master r/434b28f1; Aug  7 2019 18:53:46 by eja",
  "dcmmeta_affine": [
    [-2.6803719997406006, 0.09032218903303146, -0.07493318617343903, 109.16268920898438],
    [0.07416100054979324, 2.6307058334350586, 0.524838924407959, -107.7889633178711],
    [-0.09056732058525085, -0.5189653635025024, 2.6474382877349854, -16.535572052001953],
    [0.0, 0.0, 0.0, 1.0]
],
  "dcmmeta_reorient_transform": [
    [0.0, -1.0, 0.0, 81.0],
    [1.0, 0.0, 0.0, 0.0],
    [0.0, 0.0, 1.0, 0.0],
    [0.0, 0.0, 0.0, 1.0]
],
  "dcmmeta_shape": [82, 82, 56, 872],
  "dcmmeta_slice_dim": 2,
  "dcmmeta_version": 0.6,
  "global": {
    "const": {
      "AccessionNumber": "A004183",
      "AcquisitionMatrix": [82, 0, 0, 82],
      "AngioFlag": "N",
      "BitsAllocated": 16,
      "BitsStored": 16,
      "BodyPartExamined": "BRAIN",
      "Columns": 656,
      "EchoNumbers": 1,
      "EchoTime": 27.2,
      "EchoTrainLength": 82,
      "FlipAngle": 44.0,
      "HighBit": 15,
      "ImageOrientationPatient": [0.99904774681152, -0.0276418261895, -0.033756910933, 0.03366554358356, 0.9805358154063, 0.19343253573461],
      "ImagePositionPatient": [-911.6680368102, -839.02660186577, -181.52199946465],
      "ImageType": [
        "ORIGINAL",
        "PRIMARY",
        "M",
        "MB",
        "ND",
        "NORM",
        "MOSAIC"
],
      "ImagedNucleus": "1H",
      "ImagingFrequency": 123.252138,
      "InPlanePhaseEncodingDirection": "COL",
      "MRAcquisitionType": "2D",
      "MagneticFieldStrength": 3.0,
      "Manufacturer": "SIEMENS",
      "ManufacturerModelName": "Prisma",
      "Modality": "MR",
      "NumberOfAverages": 1.0,
      "NumberOfPhaseEncodingSteps": 82,
      "PercentPhaseFieldOfView": 100.0,
      "PercentSampling": 100.0,
      "PerformedProcedureStepStartTime": "091302.941000",
      "PhotometricInterpretation": "MONOCHROME2",
      "PixelBandwidth": 3050.0,
      "PixelRepresentation": 0,
      "PixelSpacing": [2.6829268932343, 2.6829268932343],
      "ProtocolName": "func_run-05_task-social_acq-ap-mb8",
      "RepetitionTime": 460.0,
      "Rows": 656,
      "SAR": 0.08578098483501,
      "SamplesPerPixel": 1,
      "ScanOptions": "FS",
      "ScanningSequence": "EP",
      "SequenceName": "epfid2d1_82",
      "SequenceVariant": [
        "SK",
        "SS"
],
      "SeriesDescription": "func_run-05_task-social_acq-ap-mb8",
      "SeriesNumber": 10,
      "SeriesTime": "092407.577000",
      "SliceLocation": -40.195798879933,
      "SliceThickness": 2.7000000476837,
      "SmallestImagePixelValue": 0,
      "SoftwareVersions": "syngo MR E11",
      "SpacingBetweenSlices": 2.6999999629676,
      "SpecificCharacterSet": "ISO_IR 100",
      "StudyID": "3",
      "StudyTime": "091302.890000",
      "TransmitCoilName": "Body",
      "VariableFlipAngleFlag": "N",
      "WindowCenterWidthExplanation": "Algo1"
    },
    "slices": {}
  },
  "time": {
    "samples": {
      "AcquisitionNumber": [1, 2, 3, 4, 5, 6, 7, 8, 9, 10, 11, 12, 13, 14, 15, 16, 17, 18, 19, 20, 21, 22, 23, 24, 25, 26, 27, 28, 29, 30, 31, 32, 33, 34, 35, 36, 37, 38, 39, 40, 41, 42, 43, 44, 45, 46, 47, 48, 49, 50, 51, 52, 53, 54, 55, 56, 57, 58, 59, 60, 61, 62, 63, 64, 65, 66, 67, 68, 69, 70, 71, 72, 73, 74, 75, 76, 77, 78, 79, 80, 81, 82, 83, 84, 85, 86, 87, 88, 89, 90, 91, 92, 93, 94, 95, 96, 97, 98, 99, 100, 101, 102, 103, 104, 105, 106, 107, 108, 109, 110, 111, 112, 113, 114, 115, 116, 117, 118, 119, 120, 121, 122, 123, 124, 125, 126, 127, 128, 129, 130, 131, 132, 133, 134, 135, 136, 137, 138, 139, 140, 141, 142, 143, 144, 145, 146, 147, 148, 149, 150, 151, 152, 153, 154, 155, 156, 157, 158, 159, 160, 161, 162, 163, 164, 165, 166, 167, 168, 169, 170, 171, 172, 173, 174, 175, 176, 177, 178, 179, 180, 181, 182, 183, 184, 185, 186, 187, 188, 189, 190, 191, 192, 193, 194, 195, 196, 197, 198, 199, 200, 201, 202, 203, 204, 205, 206, 207, 208, 209, 210, 211, 212, 213, 214, 215, 216, 217, 218, 219, 220, 221, 222, 223, 224, 225, 226, 227, 228, 229, 230, 231, 232, 233, 234, 235, 236, 237, 238, 239, 240, 241, 242, 243, 244, 245, 246, 247, 248, 249, 250, 251, 252, 253, 254, 255, 256, 257, 258, 259, 260, 261, 262, 263, 264, 265, 266, 267, 268, 269, 270, 271, 272, 273, 274, 275, 276, 277, 278, 279, 280, 281, 282, 283, 284, 285, 286, 287, 288, 289, 290, 291, 292, 293, 294, 295, 296, 297, 298, 299, 300, 301, 302, 303, 304, 305, 306, 307, 308, 309, 310, 311, 312, 313, 314, 315, 316, 317, 318, 319, 320, 321, 322, 323, 324, 325, 326, 327, 328, 329, 330, 331, 332, 333, 334, 335, 336, 337, 338, 339, 340, 341, 342, 343, 344, 345, 346, 347, 348, 349, 350, 351, 352, 353, 354, 355, 356, 357, 358, 359, 360, 361, 362, 363, 364, 365, 366, 367, 368, 369, 370, 371, 372, 373, 374, 375, 376, 377, 378, 379, 380, 381, 382, 383, 384, 385, 386, 387, 388, 389, 390, 391, 392, 393, 394, 395, 396, 397, 398, 399, 400, 401, 402, 403, 404, 405, 406, 407, 408, 409, 410, 411, 412, 413, 414, 415, 416, 417, 418, 419, 420, 421, 422, 423, 424, 425, 426, 427, 428, 429, 430, 431, 432, 433, 434, 435, 436, 437, 438, 439, 440, 441, 442, 443, 444, 445, 446, 447, 448, 449, 450, 451, 452, 453, 454, 455, 456, 457, 458, 459, 460, 461, 462, 463, 464, 465, 466, 467, 468, 469, 470, 471, 472, 473, 474, 475, 476, 477, 478, 479, 480, 481, 482, 483, 484, 485, 486, 487, 488, 489, 490, 491, 492, 493, 494, 495, 496, 497, 498, 499, 500, 501, 502, 503, 504, 505, 506, 507, 508, 509, 510, 511, 512, 513, 514, 515, 516, 517, 518, 519, 520, 521, 522, 523, 524, 525, 526, 527, 528, 529, 530, 531, 532, 533, 534, 535, 536, 537, 538, 539, 540, 541, 542, 543, 544, 545, 546, 547, 548, 549, 550, 551, 552, 553, 554, 555, 556, 557, 558, 559, 560, 561, 562, 563, 564, 565, 566, 567, 568, 569, 570, 571, 572, 573, 574, 575, 576, 577, 578, 579, 580, 581, 582, 583, 584, 585, 586, 587, 588, 589, 590, 591, 592, 593, 594, 595, 596, 597, 598, 599, 600, 601, 602, 603, 604, 605, 606, 607, 608, 609, 610, 611, 612, 613, 614, 615, 616, 617, 618, 619, 620, 621, 622, 623, 624, 625, 626, 627, 628, 629, 630, 631, 632, 633, 634, 635, 636, 637, 638, 639, 640, 641, 642, 643, 644, 645, 646, 647, 648, 649, 650, 651, 652, 653, 654, 655, 656, 657, 658, 659, 660, 661, 662, 663, 664, 665, 666, 667, 668, 669, 670, 671, 672, 673, 674, 675, 676, 677, 678, 679, 680, 681, 682, 683, 684, 685, 686, 687, 688, 689, 690, 691, 692, 693, 694, 695, 696, 697, 698, 699, 700, 701, 702, 703, 704, 705, 706, 707, 708, 709, 710, 711, 712, 713, 714, 715, 716, 717, 718, 719, 720, 721, 722, 723, 724, 725, 726, 727, 728, 729, 730, 731, 732, 733, 734, 735, 736, 737, 738, 739, 740, 741, 742, 743, 744, 745, 746, 747, 748, 749, 750, 751, 752, 753, 754, 755, 756, 757, 758, 759, 760, 761, 762, 763, 764, 765, 766, 767, 768, 769, 770, 771, 772, 773, 774, 775, 776, 777, 778, 779, 780, 781, 782, 783, 784, 785, 786, 787, 788, 789, 790, 791, 792, 793, 794, 795, 796, 797, 798, 799, 800, 801, 802, 803, 804, 805, 806, 807, 808, 809, 810, 811, 812, 813, 814, 815, 816, 817, 818, 819, 820, 821, 822, 823, 824, 825, 826, 827, 828, 829, 830, 831, 832, 833, 834, 835, 836, 837, 838, 839, 840, 841, 842, 843, 844, 845, 846, 847, 848, 849, 850, 851, 852, 853, 854, 855, 856, 857, 858, 859, 860, 861, 862, 863, 864, 865, 866, 867, 868, 869, 870, 871, 872],
      "AcquisitionTime": ["092355.417500", "092355.877500", "092356.337500", "092356.797500", "092357.257500", "092357.717500", "092358.177500", "092358.637500", "092359.097500", "092359.557500", "092400.017500", "092400.477500", "092400.937500", "092401.397500", "092401.857500", "092402.317500", "092402.777500", "092403.237500", "092403.697500", "092404.157500", "092404.617500", "092405.077500", "092405.537500", "092405.997500", "092406.457500", "092406.917500", "092407.377500", "092407.837500", "092408.297500", "092408.757500", "092409.217500", "092409.677500", "092410.137500", "092410.597500", "092411.057500", "092411.517500", "092411.977500", "092412.437500", "092412.897500", "092413.357500", "092413.817500", "092414.277500", "092414.737500", "092415.197500", "092415.657500", "092416.117500", "092416.577500", "092417.037500", "092417.497500", "092417.957500", "092418.417500", "092418.877500", "092419.337500", "092419.797500", "092420.257500", "092420.717500", "092421.177500", "092421.637500", "092422.097500", "092422.557500", "092423.017500", "092423.477500", "092423.937500", "092424.397500", "092424.857500", "092425.317500", "092425.777500", "092426.237500", "092426.697500", "092427.157500", "092427.617500", "092428.077500", "092428.537500", "092428.997500", "092429.457500", "092429.917500", "092430.377500", "092430.837500", "092431.297500", "092431.757500", "092432.217500", "092432.677500", "092433.137500", "092433.597500", "092434.057500", "092434.517500", "092434.977500", "092435.437500", "092435.897500", "092436.357500", "092436.817500", "092437.277500", "092437.737500", "092438.197500", "092438.657500", "092439.117500", "092439.577500", "092440.037500", "092440.497500", "092440.957500", "092441.417500", "092441.877500", "092442.337500", "092442.797500", "092443.257500", "092443.717500", "092444.177500", "092444.637500", "092445.097500", "092445.557500", "092446.017500", "092446.477500", "092446.937500", "092447.397500", "092447.857500", "092448.317500", "092448.777500", "092449.237500", "092449.697500", "092450.157500", "092450.617500", "092451.077500", "092451.537500", "092451.997500", "092452.457500", "092452.917500", "092453.377500", "092453.837500", "092454.297500", "092454.757500", "092455.217500", "092455.677500", "092456.137500", "092456.597500", "092457.057500", "092457.517500", "092457.977500", "092458.437500", "092458.897500", "092459.357500", "092459.817500", "092500.277500", "092500.737500", "092501.197500", "092501.657500", "092502.117500", "092502.577500", "092503.037500", "092503.497500", "092503.957500", "092504.417500", "092504.877500", "092505.337500", "092505.797500", "092506.257500", "092506.717500", "092507.177500", "092507.637500", "092508.097500", "092508.557500", "092509.017500", "092509.477500", "092509.937500", "092510.397500", "092510.857500", "092511.317500", "092511.777500", "092512.237500", "092512.697500", "092513.157500", "092513.617500", "092514.077500", "092514.537500", "092514.997500", "092515.457500", "092515.917500", "092516.377500", "092516.837500", "092517.297500", "092517.757500", "092518.217500", "092518.677500", "092519.137500", "092519.597500", "092520.057500", "092520.517500", "092520.977500", "092521.437500", "092521.897500", "092522.357500", "092522.817500", "092523.277500", "092523.737500", "092524.197500", "092524.657500", "092525.117500", "092525.577500", "092526.037500", "092526.497500", "092526.957500", "092527.417500", "092527.877500", "092528.337500", "092528.797500", "092529.257500", "092529.717500", "092530.177500", "092530.637500", "092531.097500", "092531.557500", "092532.017500", "092532.477500", "092532.937500", "092533.397500", "092533.857500", "092534.317500", "092534.777500", "092535.237500", "092535.697500", "092536.157500", "092536.617500", "092537.077500", "092537.537500", "092537.997500", "092538.457500", "092538.917500", "092539.377500", "092539.837500", "092540.297500", "092540.757500", "092541.217500", "092541.677500", "092542.137500", "092542.597500", "092543.057500", "092543.517500", "092543.977500", "092544.437500", "092544.897500", "092545.357500", "092545.817500", "092546.277500", "092546.737500", "092547.197500", "092547.657500", "092548.117500", "092548.577500", "092549.037500", "092549.497500", "092549.957500", "092550.417500", "092550.877500", "092551.337500", "092551.797500", "092552.257500", "092552.717500", "092553.177500", "092553.637500", "092554.097500", "092554.557500", "092555.017500", "092555.477500", "092555.937500", "092556.397500", "092556.857500", "092557.317500", "092557.777500", "092558.237500", "092558.697500", "092559.157500", "092559.617500", "092600.077500", "092600.537500", "092600.997500", "092601.457500", "092601.917500", "092602.377500", "092602.837500", "092603.297500", "092603.757500", "092604.217500", "092604.677500", "092605.137500", "092605.597500", "092606.057500", "092606.517500", "092606.977500", "092607.437500", "092607.897500", "092608.357500", "092608.817500", "092609.277500", "092609.737500", "092610.197500", "092610.657500", "092611.117500", "092611.577500", "092612.037500", "092612.497500", "092612.957500", "092613.417500", "092613.877500", "092614.337500", "092614.797500", "092615.257500", "092615.717500", "092616.177500", "092616.637500", "092617.097500", "092617.557500", "092618.017500", "092618.477500", "092618.937500", "092619.397500", "092619.857500", "092620.317500", "092620.777500", "092621.237500", "092621.697500", "092622.157500", "092622.617500", "092623.077500", "092623.537500", "092623.997500", "092624.457500", "092624.917500", "092625.377500", "092625.837500", "092626.297500", "092626.757500", "092627.217500", "092627.677500", "092628.137500", "092628.597500", "092629.057500", "092629.517500", "092629.977500", "092630.437500", "092630.897500", "092631.357500", "092631.817500", "092632.277500", "092632.737500", "092633.197500", "092633.657500", "092634.117500", "092634.577500", "092635.037500", "092635.497500", "092635.957500", "092636.417500", "092636.877500", "092637.337500", "092637.797500", "092638.257500", "092638.717500", "092639.177500", "092639.637500", "092640.097500", "092640.557500", "092641.017500", "092641.477500", "092641.937500", "092642.397500", "092642.857500", "092643.317500", "092643.777500", "092644.237500", "092644.697500", "092645.157500", "092645.617500", "092646.077500", "092646.537500", "092646.997500", "092647.457500", "092647.917500", "092648.377500", "092648.837500", "092649.297500", "092649.757500", "092650.217500", "092650.677500", "092651.137500", "092651.597500", "092652.057500", "092652.517500", "092652.977500", "092653.437500", "092653.897500", "092654.357500", "092654.817500", "092655.277500", "092655.737500", "092656.197500", "092656.657500", "092657.117500", "092657.577500", "092658.037500", "092658.497500", "092658.957500", "092659.417500", "092659.877500", "092700.337500", "092700.797500", "092701.257500", "092701.717500", "092702.177500", "092702.637500", "092703.097500", "092703.557500", "092704.017500", "092704.477500", "092704.937500", "092705.397500", "092705.857500", "092706.317500", "092706.777500", "092707.237500", "092707.697500", "092708.157500", "092708.617500", "092709.077500", "092709.537500", "092709.997500", "092710.457500", "092710.917500", "092711.377500", "092711.837500", "092712.297500", "092712.757500", "092713.217500", "092713.677500", "092714.137500", "092714.597500", "092715.057500", "092715.517500", "092715.977500", "092716.437500", "092716.897500", "092717.357500", "092717.817500", "092718.277500", "092718.737500", "092719.197500", "092719.657500", "092720.117500", "092720.577500", "092721.037500", "092721.497500", "092721.957500", "092722.417500", "092722.877500", "092723.337500", "092723.797500", "092724.257500", "092724.717500", "092725.177500", "092725.637500", "092726.097500", "092726.557500", "092727.017500", "092727.477500", "092727.937500", "092728.397500", "092728.857500", "092729.317500", "092729.777500", "092730.237500", "092730.697500", "092731.157500", "092731.617500", "092732.077500", "092732.537500", "092732.997500", "092733.457500", "092733.917500", "092734.377500", "092734.837500", "092735.297500", "092735.757500", "092736.217500", "092736.677500", "092737.137500", "092737.597500", "092738.057500", "092738.517500", "092738.977500", "092739.437500", "092739.897500", "092740.357500", "092740.817500", "092741.277500", "092741.737500", "092742.197500", "092742.657500", "092743.117500", "092743.577500", "092744.037500", "092744.497500", "092744.957500", "092745.417500", "092745.877500", "092746.337500", "092746.797500", "092747.257500", "092747.717500", "092748.177500", "092748.637500", "092749.097500", "092749.557500", "092750.017500", "092750.477500", "092750.937500", "092751.397500", "092751.857500", "092752.317500", "092752.777500", "092753.237500", "092753.697500", "092754.157500", "092754.617500", "092755.077500", "092755.537500", "092755.997500", "092756.457500", "092756.917500", "092757.377500", "092757.837500", "092758.297500", "092758.757500", "092759.217500", "092759.677500", "092800.137500", "092800.597500", "092801.057500", "092801.517500", "092801.977500", "092802.437500", "092802.897500", "092803.357500", "092803.817500", "092804.277500", "092804.737500", "092805.197500", "092805.657500", "092806.117500", "092806.577500", "092807.037500", "092807.497500", "092807.957500", "092808.417500", "092808.877500", "092809.337500", "092809.797500", "092810.257500", "092810.717500", "092811.177500", "092811.637500", "092812.097500", "092812.557500", "092813.017500", "092813.477500", "092813.937500", "092814.397500", "092814.857500", "092815.317500", "092815.777500", "092816.237500", "092816.697500", "092817.157500", "092817.617500", "092818.077500", "092818.537500", "092818.997500", "092819.457500", "092819.917500", "092820.377500", "092820.837500", "092821.297500", "092821.757500", "092822.217500", "092822.677500", "092823.137500", "092823.597500", "092824.057500", "092824.517500", "092824.977500", "092825.437500", "092825.897500", "092826.357500", "092826.817500", "092827.277500", "092827.737500", "092828.197500", "092828.657500", "092829.117500", "092829.577500", "092830.037500", "092830.497500", "092830.957500", "092831.417500", "092831.877500", "092832.337500", "092832.797500", "092833.257500", "092833.717500", "092834.177500", "092834.637500", "092835.097500", "092835.557500", "092836.017500", "092836.477500", "092836.937500", "092837.397500", "092837.857500", "092838.317500", "092838.777500", "092839.237500", "092839.697500", "092840.157500", "092840.617500", "092841.077500", "092841.537500", "092841.997500", "092842.457500", "092842.917500", "092843.377500", "092843.837500", "092844.297500", "092844.757500", "092845.217500", "092845.677500", "092846.137500", "092846.597500", "092847.057500", "092847.517500", "092847.977500", "092848.437500", "092848.897500", "092849.357500", "092849.817500", "092850.277500", "092850.737500", "092851.197500", "092851.657500", "092852.117500", "092852.577500", "092853.037500", "092853.497500", "092853.957500", "092854.417500", "092854.877500", "092855.337500", "092855.797500", "092856.257500", "092856.717500", "092857.177500", "092857.637500", "092858.097500", "092858.557500", "092859.017500", "092859.477500", "092859.937500", "092900.397500", "092900.857500", "092901.317500", "092901.777500", "092902.237500", "092902.697500", "092903.157500", "092903.617500", "092904.077500", "092904.537500", "092904.997500", "092905.457500", "092905.917500", "092906.377500", "092906.837500", "092907.297500", "092907.757500", "092908.217500", "092908.677500", "092909.137500", "092909.597500", "092910.057500", "092910.517500", "092910.977500", "092911.437500", "092911.897500", "092912.357500", "092912.817500", "092913.277500", "092913.737500", "092914.197500", "092914.657500", "092915.117500", "092915.577500", "092916.037500", "092916.497500", "092916.957500", "092917.417500", "092917.877500", "092918.337500", "092918.797500", "092919.257500", "092919.717500", "092920.177500", "092920.637500", "092921.097500", "092921.557500", "092922.017500", "092922.477500", "092922.937500", "092923.397500", "092923.857500", "092924.317500", "092924.777500", "092925.237500", "092925.697500", "092926.157500", "092926.617500", "092927.077500", "092927.537500", "092927.997500", "092928.457500", "092928.917500", "092929.377500", "092929.837500", "092930.297500", "092930.757500", "092931.217500", "092931.677500", "092932.137500", "092932.597500", "092933.057500", "092933.517500", "092933.977500", "092934.437500", "092934.897500", "092935.357500", "092935.817500", "092936.277500", "092936.737500", "092937.197500", "092937.657500", "092938.117500", "092938.577500", "092939.037500", "092939.497500", "092939.957500", "092940.417500", "092940.877500", "092941.337500", "092941.797500", "092942.257500", "092942.717500", "092943.177500", "092943.637500", "092944.097500", "092944.557500", "092945.017500", "092945.477500", "092945.937500", "092946.397500", "092946.857500", "092947.317500", "092947.777500", "092948.237500", "092948.697500", "092949.157500", "092949.617500", "092950.077500", "092950.537500", "092950.997500", "092951.457500", "092951.917500", "092952.377500", "092952.837500", "092953.297500", "092953.757500", "092954.217500", "092954.677500", "092955.137500", "092955.597500", "092956.057500", "092956.517500", "092956.977500", "092957.437500", "092957.897500", "092958.357500", "092958.817500", "092959.277500", "092959.737500", "093000.197500", "093000.657500", "093001.117500", "093001.577500", "093002.037500", "093002.497500", "093002.957500", "093003.417500", "093003.877500", "093004.337500", "093004.797500", "093005.257500", "093005.717500", "093006.177500", "093006.637500", "093007.097500", "093007.557500", "093008.017500", "093008.477500", "093008.937500", "093009.397500", "093009.857500", "093010.317500", "093010.777500", "093011.237500", "093011.697500", "093012.157500", "093012.617500", "093013.077500", "093013.537500", "093013.997500", "093014.457500", "093014.917500", "093015.377500", "093015.837500", "093016.297500", "093016.757500", "093017.217500", "093017.677500", "093018.137500", "093018.597500", "093019.057500", "093019.517500", "093019.977500", "093020.437500", "093020.897500", "093021.357500", "093021.817500", "093022.277500", "093022.737500", "093023.197500", "093023.657500", "093024.117500", "093024.577500", "093025.037500", "093025.497500", "093025.957500", "093026.417500", "093026.877500", "093027.337500", "093027.797500", "093028.257500", "093028.717500", "093029.177500", "093029.637500", "093030.097500", "093030.557500", "093031.017500", "093031.477500", "093031.937500", "093032.397500", "093032.857500", "093033.317500", "093033.777500", "093034.237500", "093034.697500", "093035.157500", "093035.617500", "093036.077500"],
