{
  "AcquisitionMatrixPE": 82,
  "AcquisitionNumber": 1,
  "AcquisitionTime": "09:16:53.522500",
  "BandwidthPerPixelPhaseEncode": 24.888,
  "BaseResolution": 82,
  "BodyPartExamined": "BRAIN",
  "ConsistencyInfo": "N4_VE11E_LATEST_20181129",
  "ConversionSoftware": "dcm2niix",
  "ConversionSoftwareVersion": "v1.0.20201102",
  "DerivedVendorReportedEchoSpacing": 0.00049,
  "DeviceSerialNumber": "66112",
  "DwellTime": 2e-06,
  "EchoTime": 0.0272,
  "EchoTrainLength": 82,
  "EffectiveEchoSpacing": 0.00049,
  "FlipAngle": 44,
  "ImageComments": "Unaliased MB8/PE3",
  "ImageOrientationPatientDICOM": [0.999048, -0.0276418, -0.0337569, 0.0336655, 0.980536, 0.193433],
  "ImageType": [
    "ORIGINAL",
    "PRIMARY",
    "M",
    "MB",
    "ND",
    "NORM",
    "MOSAIC"
],
  "ImagingFrequency": 123.252,
  "InPlanePhaseEncodingDirectionDICOM": "COL",
  "InstitutionAddress": "Maynard 3,Hanover,NH,US,03755",
  "InstitutionName": "Dartmouth College - PBS",
  "InstitutionalDepartmentName": "Department",
  "MRAcquisitionType": "2D",
  "MagneticFieldStrength": 3,
  "Manufacturer": "Siemens",
  "ManufacturersModelName": "Prisma",
  "Modality": "MR",
  "MultibandAccelerationFactor": 8,
  "PartialFourier": 1,
  "PatientPosition": "HFS",
  "PercentPhaseFOV": 100,
  "PercentSampling": 100,
  "PhaseEncodingDirection": "j-",
  "PhaseEncodingSteps": 82,
  "PhaseResolution": 1,
  "PixelBandwidth": 3050,
  "ProcedureStepDescription": "Wager_Wager^1076_spacetop",
  "ProtocolName": "func_run-04_task-social_acq-ap-mb8",
  "PulseSequenceDetails": "%CustomerSeq%\\cmrr_mbep2d_bold",
  "ReceiveCoilActiveElements": "HEA;HEP",
  "ReceiveCoilName": "Head_32",
  "ReconMatrixPE": 82,
  "RepetitionTime": 0.46,
  "SAR": 0.085781,
  "ScanOptions": "FS",
  "ScanningSequence": "EP",
  "SequenceName": "epfid2d1_82",
  "SequenceVariant": "SK\\SS",
  "SeriesDescription": "func_run-04_task-social_acq-ap-mb8",
  "SeriesNumber": 8,
  "ShimSetting": [4133, -7755, -7164, 743, -34, -91, 155, 55],
  "SliceThickness": 2.7,
  "SliceTiming": [0, 0.2525, 0.065, 0.315, 0.1275, 0.3775, 0.19, 0, 0.2525, 0.065, 0.315, 0.1275, 0.3775, 0.19, 0, 0.2525, 0.065, 0.315, 0.1275, 0.3775, 0.19, 0, 0.2525, 0.065, 0.315, 0.1275, 0.3775, 0.19, 0, 0.2525, 0.065, 0.315, 0.1275, 0.3775, 0.19, 0, 0.2525, 0.065, 0.315, 0.1275, 0.3775, 0.19, 0, 0.2525, 0.065, 0.315, 0.1275, 0.3775, 0.19, 0, 0.2525, 0.065, 0.315, 0.1275, 0.3775, 0.19],
  "SoftwareVersions": "syngo MR E11",
  "SpacingBetweenSlices": 2.7,
  "StationName": "AWP66112",
  "TaskName": "social",
  "TotalReadoutTime": 0.03969,
  "TxRefAmp": 232.909,
  "WipMemBlock": "62a0275c-d97d-47b6-8c97-b77172aec679||Sequence: R016 ve11e/master r/434b28f1; Aug  7 2019 18:53:46 by eja",
  "dcmmeta_affine": [
    [-2.6803719997406006, 0.09032218903303146, -0.07493318617343903, 109.16268920898438],
    [0.07416100054979324, 2.6307058334350586, 0.524838924407959, -107.7889633178711],
    [-0.09056732058525085, -0.5189653635025024, 2.6474382877349854, -16.535572052001953],
    [0.0, 0.0, 0.0, 1.0]
],
  "dcmmeta_reorient_transform": [
    [0.0, -1.0, 0.0, 81.0],
    [1.0, 0.0, 0.0, 0.0],
    [0.0, 0.0, 1.0, 0.0],
    [0.0, 0.0, 0.0, 1.0]
],
  "dcmmeta_shape": [82, 82, 56, 872],
  "dcmmeta_slice_dim": 2,
  "dcmmeta_version": 0.6,
  "global": {
    "const": {
      "AccessionNumber": "A004183",
      "AcquisitionMatrix": [82, 0, 0, 82],
      "AngioFlag": "N",
      "BitsAllocated": 16,
      "BitsStored": 16,
      "BodyPartExamined": "BRAIN",
      "Columns": 656,
      "EchoNumbers": 1,
      "EchoTime": 27.2,
      "EchoTrainLength": 82,
      "FlipAngle": 44.0,
      "HighBit": 15,
      "ImageOrientationPatient": [0.99904774681152, -0.0276418261895, -0.033756910933, 0.03366554358356, 0.9805358154063, 0.19343253573461],
      "ImagePositionPatient": [-911.6680368102, -839.02660186577, -181.52199946465],
      "ImageType": [
        "ORIGINAL",
        "PRIMARY",
        "M",
        "MB",
        "ND",
        "NORM",
        "MOSAIC"
],
      "ImagedNucleus": "1H",
      "ImagingFrequency": 123.252135,
      "InPlanePhaseEncodingDirection": "COL",
      "MRAcquisitionType": "2D",
      "MagneticFieldStrength": 3.0,
      "Manufacturer": "SIEMENS",
      "ManufacturerModelName": "Prisma",
      "Modality": "MR",
      "NumberOfAverages": 1.0,
      "NumberOfPhaseEncodingSteps": 82,
      "PercentPhaseFieldOfView": 100.0,
      "PercentSampling": 100.0,
      "PerformedProcedureStepStartTime": "091302.941000",
      "PhotometricInterpretation": "MONOCHROME2",
      "PixelBandwidth": 3050.0,
      "PixelRepresentation": 0,
      "PixelSpacing": [2.6829268932343, 2.6829268932343],
      "ProtocolName": "func_run-04_task-social_acq-ap-mb8",
      "RepetitionTime": 460.0,
      "Rows": 656,
      "SAR": 0.08578098483501,
      "SamplesPerPixel": 1,
      "ScanOptions": "FS",
      "ScanningSequence": "EP",
      "SequenceName": "epfid2d1_82",
      "SequenceVariant": [
        "SK",
        "SS"
],
      "SeriesDescription": "func_run-04_task-social_acq-ap-mb8",
      "SeriesNumber": 8,
      "SeriesTime": "091707.496000",
      "SliceLocation": -40.195798879933,
      "SliceThickness": 2.7000000476837,
      "SmallestImagePixelValue": 0,
      "SoftwareVersions": "syngo MR E11",
      "SpacingBetweenSlices": 2.6999999629676,
      "SpecificCharacterSet": "ISO_IR 100",
      "StudyID": "3",
      "StudyTime": "091302.890000",
      "TransmitCoilName": "Body",
      "VariableFlipAngleFlag": "N",
      "WindowCenterWidthExplanation": "Algo1"
    },
    "slices": {}
  },
  "time": {
    "samples": {
      "AcquisitionNumber": [1, 2, 3, 4, 5, 6, 7, 8, 9, 10, 11, 12, 13, 14, 15, 16, 17, 18, 19, 20, 21, 22, 23, 24, 25, 26, 27, 28, 29, 30, 31, 32, 33, 34, 35, 36, 37, 38, 39, 40, 41, 42, 43, 44, 45, 46, 47, 48, 49, 50, 51, 52, 53, 54, 55, 56, 57, 58, 59, 60, 61, 62, 63, 64, 65, 66, 67, 68, 69, 70, 71, 72, 73, 74, 75, 76, 77, 78, 79, 80, 81, 82, 83, 84, 85, 86, 87, 88, 89, 90, 91, 92, 93, 94, 95, 96, 97, 98, 99, 100, 101, 102, 103, 104, 105, 106, 107, 108, 109, 110, 111, 112, 113, 114, 115, 116, 117, 118, 119, 120, 121, 122, 123, 124, 125, 126, 127, 128, 129, 130, 131, 132, 133, 134, 135, 136, 137, 138, 139, 140, 141, 142, 143, 144, 145, 146, 147, 148, 149, 150, 151, 152, 153, 154, 155, 156, 157, 158, 159, 160, 161, 162, 163, 164, 165, 166, 167, 168, 169, 170, 171, 172, 173, 174, 175, 176, 177, 178, 179, 180, 181, 182, 183, 184, 185, 186, 187, 188, 189, 190, 191, 192, 193, 194, 195, 196, 197, 198, 199, 200, 201, 202, 203, 204, 205, 206, 207, 208, 209, 210, 211, 212, 213, 214, 215, 216, 217, 218, 219, 220, 221, 222, 223, 224, 225, 226, 227, 228, 229, 230, 231, 232, 233, 234, 235, 236, 237, 238, 239, 240, 241, 242, 243, 244, 245, 246, 247, 248, 249, 250, 251, 252, 253, 254, 255, 256, 257, 258, 259, 260, 261, 262, 263, 264, 265, 266, 267, 268, 269, 270, 271, 272, 273, 274, 275, 276, 277, 278, 279, 280, 281, 282, 283, 284, 285, 286, 287, 288, 289, 290, 291, 292, 293, 294, 295, 296, 297, 298, 299, 300, 301, 302, 303, 304, 305, 306, 307, 308, 309, 310, 311, 312, 313, 314, 315, 316, 317, 318, 319, 320, 321, 322, 323, 324, 325, 326, 327, 328, 329, 330, 331, 332, 333, 334, 335, 336, 337, 338, 339, 340, 341, 342, 343, 344, 345, 346, 347, 348, 349, 350, 351, 352, 353, 354, 355, 356, 357, 358, 359, 360, 361, 362, 363, 364, 365, 366, 367, 368, 369, 370, 371, 372, 373, 374, 375, 376, 377, 378, 379, 380, 381, 382, 383, 384, 385, 386, 387, 388, 389, 390, 391, 392, 393, 394, 395, 396, 397, 398, 399, 400, 401, 402, 403, 404, 405, 406, 407, 408, 409, 410, 411, 412, 413, 414, 415, 416, 417, 418, 419, 420, 421, 422, 423, 424, 425, 426, 427, 428, 429, 430, 431, 432, 433, 434, 435, 436, 437, 438, 439, 440, 441, 442, 443, 444, 445, 446, 447, 448, 449, 450, 451, 452, 453, 454, 455, 456, 457, 458, 459, 460, 461, 462, 463, 464, 465, 466, 467, 468, 469, 470, 471, 472, 473, 474, 475, 476, 477, 478, 479, 480, 481, 482, 483, 484, 485, 486, 487, 488, 489, 490, 491, 492, 493, 494, 495, 496, 497, 498, 499, 500, 501, 502, 503, 504, 505, 506, 507, 508, 509, 510, 511, 512, 513, 514, 515, 516, 517, 518, 519, 520, 521, 522, 523, 524, 525, 526, 527, 528, 529, 530, 531, 532, 533, 534, 535, 536, 537, 538, 539, 540, 541, 542, 543, 544, 545, 546, 547, 548, 549, 550, 551, 552, 553, 554, 555, 556, 557, 558, 559, 560, 561, 562, 563, 564, 565, 566, 567, 568, 569, 570, 571, 572, 573, 574, 575, 576, 577, 578, 579, 580, 581, 582, 583, 584, 585, 586, 587, 588, 589, 590, 591, 592, 593, 594, 595, 596, 597, 598, 599, 600, 601, 602, 603, 604, 605, 606, 607, 608, 609, 610, 611, 612, 613, 614, 615, 616, 617, 618, 619, 620, 621, 622, 623, 624, 625, 626, 627, 628, 629, 630, 631, 632, 633, 634, 635, 636, 637, 638, 639, 640, 641, 642, 643, 644, 645, 646, 647, 648, 649, 650, 651, 652, 653, 654, 655, 656, 657, 658, 659, 660, 661, 662, 663, 664, 665, 666, 667, 668, 669, 670, 671, 672, 673, 674, 675, 676, 677, 678, 679, 680, 681, 682, 683, 684, 685, 686, 687, 688, 689, 690, 691, 692, 693, 694, 695, 696, 697, 698, 699, 700, 701, 702, 703, 704, 705, 706, 707, 708, 709, 710, 711, 712, 713, 714, 715, 716, 717, 718, 719, 720, 721, 722, 723, 724, 725, 726, 727, 728, 729, 730, 731, 732, 733, 734, 735, 736, 737, 738, 739, 740, 741, 742, 743, 744, 745, 746, 747, 748, 749, 750, 751, 752, 753, 754, 755, 756, 757, 758, 759, 760, 761, 762, 763, 764, 765, 766, 767, 768, 769, 770, 771, 772, 773, 774, 775, 776, 777, 778, 779, 780, 781, 782, 783, 784, 785, 786, 787, 788, 789, 790, 791, 792, 793, 794, 795, 796, 797, 798, 799, 800, 801, 802, 803, 804, 805, 806, 807, 808, 809, 810, 811, 812, 813, 814, 815, 816, 817, 818, 819, 820, 821, 822, 823, 824, 825, 826, 827, 828, 829, 830, 831, 832, 833, 834, 835, 836, 837, 838, 839, 840, 841, 842, 843, 844, 845, 846, 847, 848, 849, 850, 851, 852, 853, 854, 855, 856, 857, 858, 859, 860, 861, 862, 863, 864, 865, 866, 867, 868, 869, 870, 871, 872],
      "AcquisitionTime": ["091653.522500", "091653.982500", "091654.442500", "091654.902500", "091655.362500", "091655.822500", "091656.282500", "091656.742500", "091657.202500", "091657.662500", "091658.122500", "091658.582500", "091659.042500", "091659.502500", "091659.962500", "091700.422500", "091700.882500", "091701.342500", "091701.802500", "091702.262500", "091702.722500", "091703.182500", "091703.642500", "091704.102500", "091704.562500", "091705.022500", "091705.482500", "091705.942500", "091706.402500", "091706.862500", "091707.322500", "091707.782500", "091708.242500", "091708.702500", "091709.162500", "091709.622500", "091710.082500", "091710.542500", "091711.002500", "091711.462500", "091711.922500", "091712.382500", "091712.842500", "091713.302500", "091713.762500", "091714.222500", "091714.682500", "091715.142500", "091715.602500", "091716.062500", "091716.522500", "091716.982500", "091717.442500", "091717.902500", "091718.362500", "091718.822500", "091719.282500", "091719.742500", "091720.202500", "091720.662500", "091721.122500", "091721.582500", "091722.042500", "091722.502500", "091722.962500", "091723.422500", "091723.882500", "091724.342500", "091724.802500", "091725.262500", "091725.722500", "091726.182500", "091726.642500", "091727.102500", "091727.562500", "091728.022500", "091728.482500", "091728.942500", "091729.402500", "091729.862500", "091730.322500", "091730.782500", "091731.242500", "091731.702500", "091732.162500", "091732.622500", "091733.082500", "091733.542500", "091734.002500", "091734.462500", "091734.922500", "091735.382500", "091735.842500", "091736.302500", "091736.762500", "091737.222500", "091737.682500", "091738.142500", "091738.602500", "091739.062500", "091739.522500", "091739.982500", "091740.442500", "091740.902500", "091741.362500", "091741.822500", "091742.282500", "091742.742500", "091743.202500", "091743.662500", "091744.122500", "091744.582500", "091745.042500", "091745.502500", "091745.962500", "091746.422500", "091746.882500", "091747.342500", "091747.802500", "091748.262500", "091748.722500", "091749.182500", "091749.642500", "091750.102500", "091750.562500", "091751.022500", "091751.482500", "091751.942500", "091752.402500", "091752.862500", "091753.322500", "091753.782500", "091754.242500", "091754.702500", "091755.162500", "091755.622500", "091756.082500", "091756.542500", "091757.002500", "091757.462500", "091757.922500", "091758.382500", "091758.842500", "091759.302500", "091759.762500", "091800.222500", "091800.682500", "091801.142500", "091801.602500", "091802.062500", "091802.522500", "091802.982500", "091803.442500", "091803.902500", "091804.362500", "091804.822500", "091805.282500", "091805.742500", "091806.202500", "091806.662500", "091807.122500", "091807.582500", "091808.042500", "091808.502500", "091808.962500", "091809.422500", "091809.882500", "091810.342500", "091810.802500", "091811.262500", "091811.722500", "091812.182500", "091812.642500", "091813.102500", "091813.562500", "091814.022500", "091814.482500", "091814.942500", "091815.402500", "091815.862500", "091816.322500", "091816.782500", "091817.242500", "091817.702500", "091818.162500", "091818.622500", "091819.082500", "091819.542500", "091820.002500", "091820.462500", "091820.922500", "091821.382500", "091821.842500", "091822.302500", "091822.762500", "091823.222500", "091823.682500", "091824.142500", "091824.602500", "091825.062500", "091825.522500", "091825.982500", "091826.442500", "091826.902500", "091827.362500", "091827.822500", "091828.282500", "091828.742500", "091829.202500", "091829.662500", "091830.122500", "091830.582500", "091831.042500", "091831.502500", "091831.962500", "091832.422500", "091832.882500", "091833.342500", "091833.802500", "091834.262500", "091834.722500", "091835.182500", "091835.642500", "091836.102500", "091836.562500", "091837.022500", "091837.482500", "091837.942500", "091838.402500", "091838.862500", "091839.322500", "091839.782500", "091840.242500", "091840.702500", "091841.162500", "091841.622500", "091842.082500", "091842.542500", "091843.002500", "091843.462500", "091843.922500", "091844.382500", "091844.842500", "091845.302500", "091845.762500", "091846.222500", "091846.682500", "091847.142500", "091847.602500", "091848.062500", "091848.522500", "091848.982500", "091849.442500", "091849.902500", "091850.362500", "091850.822500", "091851.282500", "091851.742500", "091852.202500", "091852.662500", "091853.122500", "091853.582500", "091854.042500", "091854.502500", "091854.962500", "091855.422500", "091855.882500", "091856.342500", "091856.802500", "091857.262500", "091857.722500", "091858.182500", "091858.642500", "091859.102500", "091859.562500", "091900.022500", "091900.482500", "091900.942500", "091901.402500", "091901.862500", "091902.322500", "091902.782500", "091903.242500", "091903.702500", "091904.162500", "091904.622500", "091905.082500", "091905.542500", "091906.002500", "091906.462500", "091906.922500", "091907.382500", "091907.842500", "091908.302500", "091908.762500", "091909.222500", "091909.682500", "091910.142500", "091910.602500", "091911.062500", "091911.522500", "091911.982500", "091912.442500", "091912.902500", "091913.362500", "091913.822500", "091914.282500", "091914.742500", "091915.202500", "091915.662500", "091916.122500", "091916.582500", "091917.042500", "091917.502500", "091917.962500", "091918.422500", "091918.882500", "091919.342500", "091919.802500", "091920.262500", "091920.722500", "091921.182500", "091921.642500", "091922.102500", "091922.562500", "091923.022500", "091923.482500", "091923.942500", "091924.402500", "091924.862500", "091925.322500", "091925.782500", "091926.242500", "091926.702500", "091927.162500", "091927.622500", "091928.082500", "091928.542500", "091929.002500", "091929.462500", "091929.922500", "091930.382500", "091930.842500", "091931.302500", "091931.762500", "091932.222500", "091932.682500", "091933.142500", "091933.602500", "091934.062500", "091934.522500", "091934.982500", "091935.442500", "091935.902500", "091936.362500", "091936.822500", "091937.282500", "091937.742500", "091938.202500", "091938.662500", "091939.122500", "091939.582500", "091940.042500", "091940.502500", "091940.962500", "091941.422500", "091941.882500", "091942.342500", "091942.802500", "091943.262500", "091943.722500", "091944.182500", "091944.642500", "091945.102500", "091945.562500", "091946.022500", "091946.482500", "091946.942500", "091947.402500", "091947.862500", "091948.322500", "091948.782500", "091949.242500", "091949.702500", "091950.162500", "091950.622500", "091951.082500", "091951.542500", "091952.002500", "091952.462500", "091952.922500", "091953.382500", "091953.842500", "091954.302500", "091954.762500", "091955.222500", "091955.682500", "091956.142500", "091956.602500", "091957.062500", "091957.522500", "091957.982500", "091958.442500", "091958.902500", "091959.362500", "091959.822500", "092000.282500", "092000.742500", "092001.202500", "092001.662500", "092002.122500", "092002.582500", "092003.042500", "092003.502500", "092003.962500", "092004.422500", "092004.882500", "092005.342500", "092005.802500", "092006.262500", "092006.722500", "092007.182500", "092007.642500", "092008.102500", "092008.562500", "092009.022500", "092009.482500", "092009.942500", "092010.402500", "092010.862500", "092011.322500", "092011.782500", "092012.242500", "092012.702500", "092013.162500", "092013.622500", "092014.082500", "092014.542500", "092015.002500", "092015.462500", "092015.922500", "092016.382500", "092016.842500", "092017.302500", "092017.762500", "092018.222500", "092018.682500", "092019.142500", "092019.602500", "092020.062500", "092020.522500", "092020.982500", "092021.442500", "092021.902500", "092022.362500", "092022.822500", "092023.282500", "092023.742500", "092024.202500", "092024.662500", "092025.122500", "092025.582500", "092026.042500", "092026.502500", "092026.962500", "092027.422500", "092027.882500", "092028.342500", "092028.802500", "092029.262500", "092029.722500", "092030.182500", "092030.642500", "092031.102500", "092031.562500", "092032.022500", "092032.482500", "092032.942500", "092033.402500", "092033.862500", "092034.322500", "092034.782500", "092035.242500", "092035.702500", "092036.162500", "092036.622500", "092037.082500", "092037.542500", "092038.002500", "092038.462500", "092038.922500", "092039.382500", "092039.842500", "092040.302500", "092040.762500", "092041.222500", "092041.682500", "092042.142500", "092042.602500", "092043.062500", "092043.522500", "092043.982500", "092044.442500", "092044.902500", "092045.362500", "092045.822500", "092046.282500", "092046.742500", "092047.202500", "092047.662500", "092048.122500", "092048.582500", "092049.042500", "092049.502500", "092049.962500", "092050.422500", "092050.882500", "092051.342500", "092051.802500", "092052.262500", "092052.722500", "092053.182500", "092053.642500", "092054.102500", "092054.562500", "092055.022500", "092055.482500", "092055.942500", "092056.402500", "092056.862500", "092057.322500", "092057.782500", "092058.242500", "092058.702500", "092059.162500", "092059.622500", "092100.082500", "092100.542500", "092101.002500", "092101.462500", "092101.922500", "092102.382500", "092102.842500", "092103.302500", "092103.762500", "092104.222500", "092104.682500", "092105.142500", "092105.602500", "092106.062500", "092106.522500", "092106.982500", "092107.442500", "092107.902500", "092108.362500", "092108.822500", "092109.282500", "092109.742500", "092110.202500", "092110.662500", "092111.122500", "092111.582500", "092112.042500", "092112.502500", "092112.962500", "092113.422500", "092113.882500", "092114.342500", "092114.802500", "092115.262500", "092115.722500", "092116.182500", "092116.642500", "092117.102500", "092117.562500", "092118.022500", "092118.482500", "092118.942500", "092119.402500", "092119.862500", "092120.322500", "092120.782500", "092121.242500", "092121.702500", "092122.162500", "092122.622500", "092123.082500", "092123.542500", "092124.002500", "092124.462500", "092124.922500", "092125.382500", "092125.842500", "092126.302500", "092126.762500", "092127.222500", "092127.682500", "092128.142500", "092128.602500", "092129.062500", "092129.522500", "092129.982500", "092130.442500", "092130.902500", "092131.362500", "092131.822500", "092132.282500", "092132.742500", "092133.202500", "092133.662500", "092134.122500", "092134.582500", "092135.042500", "092135.502500", "092135.962500", "092136.422500", "092136.882500", "092137.342500", "092137.802500", "092138.262500", "092138.722500", "092139.182500", "092139.642500", "092140.102500", "092140.562500", "092141.022500", "092141.482500", "092141.942500", "092142.402500", "092142.862500", "092143.322500", "092143.782500", "092144.242500", "092144.702500", "092145.162500", "092145.622500", "092146.082500", "092146.542500", "092147.002500", "092147.462500", "092147.922500", "092148.382500", "092148.842500", "092149.302500", "092149.762500", "092150.222500", "092150.682500", "092151.142500", "092151.602500", "092152.062500", "092152.522500", "092152.982500", "092153.442500", "092153.902500", "092154.362500", "092154.822500", "092155.282500", "092155.742500", "092156.202500", "092156.662500", "092157.122500", "092157.582500", "092158.042500", "092158.502500", "092158.962500", "092159.422500", "092159.882500", "092200.342500", "092200.802500", "092201.262500", "092201.722500", "092202.182500", "092202.642500", "092203.102500", "092203.562500", "092204.022500", "092204.482500", "092204.942500", "092205.402500", "092205.862500", "092206.322500", "092206.782500", "092207.242500", "092207.702500", "092208.162500", "092208.622500", "092209.082500", "092209.542500", "092210.002500", "092210.462500", "092210.922500", "092211.382500", "092211.842500", "092212.302500", "092212.762500", "092213.222500", "092213.682500", "092214.142500", "092214.602500", "092215.062500", "092215.522500", "092215.982500", "092216.442500", "092216.902500", "092217.362500", "092217.822500", "092218.282500", "092218.742500", "092219.202500", "092219.662500", "092220.122500", "092220.582500", "092221.042500", "092221.502500", "092221.962500", "092222.422500", "092222.882500", "092223.342500", "092223.802500", "092224.262500", "092224.722500", "092225.182500", "092225.642500", "092226.102500", "092226.562500", "092227.022500", "092227.482500", "092227.942500", "092228.402500", "092228.862500", "092229.322500", "092229.782500", "092230.242500", "092230.702500", "092231.162500", "092231.622500", "092232.082500", "092232.542500", "092233.002500", "092233.462500", "092233.922500", "092234.382500", "092234.842500", "092235.302500", "092235.762500", "092236.222500", "092236.682500", "092237.142500", "092237.602500", "092238.062500", "092238.522500", "092238.982500", "092239.442500", "092239.902500", "092240.362500", "092240.822500", "092241.282500", "092241.742500", "092242.202500", "092242.662500", "092243.122500", "092243.582500", "092244.042500", "092244.502500", "092244.962500", "092245.422500", "092245.882500", "092246.342500", "092246.802500", "092247.262500", "092247.722500", "092248.182500", "092248.642500", "092249.102500", "092249.562500", "092250.022500", "092250.482500", "092250.942500", "092251.402500", "092251.862500", "092252.322500", "092252.782500", "092253.242500", "092253.702500", "092254.162500", "092254.622500", "092255.082500", "092255.542500", "092256.002500", "092256.462500", "092256.922500", "092257.382500", "092257.842500", "092258.302500", "092258.762500", "092259.222500", "092259.682500", "092300.142500", "092300.602500", "092301.062500", "092301.522500", "092301.982500", "092302.442500", "092302.902500", "092303.362500", "092303.822500", "092304.282500", "092304.742500", "092305.202500", "092305.662500", "092306.122500", "092306.582500", "092307.042500", "092307.502500", "092307.962500", "092308.422500", "092308.882500", "092309.342500", "092309.802500", "092310.262500", "092310.722500", "092311.182500", "092311.642500", "092312.102500", "092312.562500", "092313.022500", "092313.482500", "092313.942500", "092314.402500", "092314.862500", "092315.322500", "092315.782500", "092316.242500", "092316.702500", "092317.162500", "092317.622500", "092318.082500", "092318.542500", "092319.002500", "092319.462500", "092319.922500", "092320.382500", "092320.842500", "092321.302500", "092321.762500", "092322.222500", "092322.682500", "092323.142500", "092323.602500", "092324.062500", "092324.522500", "092324.982500", "092325.442500", "092325.902500", "092326.362500", "092326.822500", "092327.282500", "092327.742500", "092328.202500", "092328.662500", "092329.122500", "092329.582500", "092330.042500", "092330.502500", "092330.962500", "092331.422500", "092331.882500", "092332.342500", "092332.802500", "092333.262500", "092333.722500", "092334.182500"],
