{
  "AcquisitionMatrixPE": 82,
  "AcquisitionNumber": 1,
  "AcquisitionTime": "10:24:41.772500",
  "BandwidthPerPixelPhaseEncode": 24.888,
  "BaseResolution": 82,
  "BodyPartExamined": "BRAIN",
  "ConsistencyInfo": "N4_VE11C_LATEST_20160120",
  "ConversionSoftware": "dcm2niix",
  "ConversionSoftwareVersion": "v1.0.20201102",
  "DerivedVendorReportedEchoSpacing": 0.00049,
  "DeviceSerialNumber": "66112",
  "DwellTime": 2e-06,
  "EchoTime": 0.0272,
  "EchoTrainLength": 82,
  "EffectiveEchoSpacing": 0.00049,
  "FlipAngle": 44,
  "ImageComments": "Unaliased MB8/PE3",
  "ImageOrientationPatientDICOM": [0.999342, -0.0303217, 0.0198919, 0.0310564, 0.998805, -0.0377283],
  "ImageType": [
    "ORIGINAL",
    "PRIMARY",
    "M",
    "MB",
    "ND",
    "NORM",
    "MOSAIC"
],
  "ImagingFrequency": 123.252,
  "InPlanePhaseEncodingDirectionDICOM": "COL",
  "InstitutionAddress": "Maynard 3,Hanover,NH,US,03755",
  "InstitutionName": "dartmouth_brain_imaging_center",
  "InstitutionalDepartmentName": "Department",
  "MRAcquisitionType": "2D",
  "MagneticFieldStrength": 3,
  "Manufacturer": "Siemens",
  "ManufacturersModelName": "Prisma",
  "Modality": "MR",
  "MultibandAccelerationFactor": 8,
  "PartialFourier": 1,
  "PatientPosition": "HFS",
  "PercentPhaseFOV": 100,
  "PercentSampling": 100,
  "PhaseEncodingDirection": "j-",
  "PhaseEncodingSteps": 82,
  "PhaseResolution": 1,
  "PixelBandwidth": 3050,
  "ProcedureStepDescription": "Wager_Wager^1076_spacetop",
  "ProtocolName": "func_run-04_task-social_acq-ap-mb8",
  "PulseSequenceDetails": "%CustomerSeq%\\cmrr_mbep2d_bold",
  "ReceiveCoilActiveElements": "HEA;HEP",
  "ReceiveCoilName": "Head_32",
  "ReconMatrixPE": 82,
  "RepetitionTime": 0.46,
  "SAR": 0.0953377,
  "ScanOptions": "FS",
  "ScanningSequence": "EP",
  "SequenceName": "epfid2d1_82",
  "SequenceVariant": "SK\\SS",
  "SeriesDescription": "func_run-04_task-social_acq-ap-mb8",
  "SeriesNumber": 18,
  "ShimSetting": [4136, -7743, -7206, 596, -167, -73, 61, 47],
  "SliceThickness": 2.7,
  "SliceTiming": [0, 0.2525, 0.065, 0.315, 0.1275, 0.3775, 0.19, 0, 0.2525, 0.065, 0.315, 0.1275, 0.3775, 0.19, 0, 0.2525, 0.065, 0.315, 0.1275, 0.3775, 0.19, 0, 0.2525, 0.065, 0.315, 0.1275, 0.3775, 0.19, 0, 0.2525, 0.065, 0.315, 0.1275, 0.3775, 0.19, 0, 0.2525, 0.065, 0.315, 0.1275, 0.3775, 0.19, 0, 0.2525, 0.065, 0.315, 0.1275, 0.3775, 0.19, 0, 0.2525, 0.065, 0.315, 0.1275, 0.3775, 0.19],
  "SoftwareVersions": "syngo MR E11",
  "SpacingBetweenSlices": 2.7,
  "StationName": "AWP66112",
  "TaskName": "social",
  "TotalReadoutTime": 0.03969,
  "TxRefAmp": 248.235,
  "WipMemBlock": "0c3aa94e-cb47-4e39-910f-5ad0e302705f||Sequence: R016 ve11c/master r/e634e98; Dec 19 2017 11:00:25 by eja",
  "dcmmeta_affine": [
    [-2.681162118911743, 0.08332211524248123, 0.05055532231926918, 111.98036193847656],
    [0.08135098218917847, 2.6797215938568115, -0.10346739739179611, -85.8604965209961],
    [0.05336863920092583, 0.10122228413820267, 2.697542905807495, -50.54878616333008],
    [0.0, 0.0, 0.0, 1.0]
],
  "dcmmeta_reorient_transform": [
    [0.0, -1.0, 0.0, 81.0],
    [1.0, 0.0, 0.0, 0.0],
    [0.0, 0.0, 1.0, 0.0],
    [0.0, 0.0, 0.0, 1.0]
],
  "dcmmeta_shape": [82, 82, 56, 872],
  "dcmmeta_slice_dim": 2,
  "dcmmeta_version": 0.6,
  "global": {
    "const": {
      "AccessionNumber": "A003495",
      "AcquisitionMatrix": [82, 0, 0, 82],
      "AngioFlag": "N",
      "BitsAllocated": 16,
      "BitsStored": 16,
      "BodyPartExamined": "BRAIN",
      "Columns": 656,
      "EchoNumbers": 1,
      "EchoTime": 27.2,
      "EchoTrainLength": 82,
      "FlipAngle": 44.0,
      "HighBit": 15,
      "ImageOrientationPatient": [0.99934223524284, -0.0303217303287, 0.01989194635311, 0.0310564228867, 0.99880532319935, -0.0377283043103],
      "ImagePositionPatient": [-912.13643752478, -876.92934509205, -28.615783645649],
      "ImageType": [
        "ORIGINAL",
        "PRIMARY",
        "M",
        "MB",
        "ND",
        "NORM",
        "MOSAIC"
],
      "ImagedNucleus": "1H",
      "ImagingFrequency": 123.252108,
      "InPlanePhaseEncodingDirection": "COL",
      "MRAcquisitionType": "2D",
      "MagneticFieldStrength": 3.0,
      "Manufacturer": "SIEMENS",
      "ManufacturerModelName": "Prisma",
      "Modality": "MR",
      "NumberOfAverages": 1.0,
      "NumberOfPhaseEncodingSteps": 82,
      "PercentPhaseFieldOfView": 100.0,
      "PercentSampling": 100.0,
      "PerformedProcedureStepStartTime": "091145.502000",
      "PhotometricInterpretation": "MONOCHROME2",
      "PixelBandwidth": 3050.0,
      "PixelRepresentation": 0,
      "PixelSpacing": [2.6829268932343, 2.6829268932343],
      "ProtocolName": "func_run-04_task-social_acq-ap-mb8",
      "RepetitionTime": 460.0,
      "Rows": 656,
      "SAR": 0.09533772596424,
      "SamplesPerPixel": 1,
      "ScanOptions": "FS",
      "ScanningSequence": "EP",
      "SequenceName": "epfid2d1_82",
      "SequenceVariant": [
        "SK",
        "SS"
],
      "SeriesDescription": "func_run-04_task-social_acq-ap-mb8",
      "SeriesNumber": 18,
      "SeriesTime": "102453.876000",
      "SliceLocation": -45.115762108538,
      "SliceThickness": 2.7000000476837,
      "SmallestImagePixelValue": 0,
      "SoftwareVersions": "syngo MR E11",
      "SpacingBetweenSlices": 2.6999999113141,
      "SpecificCharacterSet": "ISO_IR 100",
      "StudyID": "1",
      "StudyTime": "091145.366000",
      "TransmitCoilName": "Body",
      "VariableFlipAngleFlag": "N",
      "WindowCenterWidthExplanation": "Algo1",
      "dBdt": 0.0},
    "slices": {}
  },
  "time": {
    "samples": {
      "AcquisitionNumber": [1, 2, 3, 4, 5, 6, 7, 8, 9, 10, 11, 12, 13, 14, 15, 16, 17, 18, 19, 20, 21, 22, 23, 24, 25, 26, 27, 28, 29, 30, 31, 32, 33, 34, 35, 36, 37, 38, 39, 40, 41, 42, 43, 44, 45, 46, 47, 48, 49, 50, 51, 52, 53, 54, 55, 56, 57, 58, 59, 60, 61, 62, 63, 64, 65, 66, 67, 68, 69, 70, 71, 72, 73, 74, 75, 76, 77, 78, 79, 80, 81, 82, 83, 84, 85, 86, 87, 88, 89, 90, 91, 92, 93, 94, 95, 96, 97, 98, 99, 100, 101, 102, 103, 104, 105, 106, 107, 108, 109, 110, 111, 112, 113, 114, 115, 116, 117, 118, 119, 120, 121, 122, 123, 124, 125, 126, 127, 128, 129, 130, 131, 132, 133, 134, 135, 136, 137, 138, 139, 140, 141, 142, 143, 144, 145, 146, 147, 148, 149, 150, 151, 152, 153, 154, 155, 156, 157, 158, 159, 160, 161, 162, 163, 164, 165, 166, 167, 168, 169, 170, 171, 172, 173, 174, 175, 176, 177, 178, 179, 180, 181, 182, 183, 184, 185, 186, 187, 188, 189, 190, 191, 192, 193, 194, 195, 196, 197, 198, 199, 200, 201, 202, 203, 204, 205, 206, 207, 208, 209, 210, 211, 212, 213, 214, 215, 216, 217, 218, 219, 220, 221, 222, 223, 224, 225, 226, 227, 228, 229, 230, 231, 232, 233, 234, 235, 236, 237, 238, 239, 240, 241, 242, 243, 244, 245, 246, 247, 248, 249, 250, 251, 252, 253, 254, 255, 256, 257, 258, 259, 260, 261, 262, 263, 264, 265, 266, 267, 268, 269, 270, 271, 272, 273, 274, 275, 276, 277, 278, 279, 280, 281, 282, 283, 284, 285, 286, 287, 288, 289, 290, 291, 292, 293, 294, 295, 296, 297, 298, 299, 300, 301, 302, 303, 304, 305, 306, 307, 308, 309, 310, 311, 312, 313, 314, 315, 316, 317, 318, 319, 320, 321, 322, 323, 324, 325, 326, 327, 328, 329, 330, 331, 332, 333, 334, 335, 336, 337, 338, 339, 340, 341, 342, 343, 344, 345, 346, 347, 348, 349, 350, 351, 352, 353, 354, 355, 356, 357, 358, 359, 360, 361, 362, 363, 364, 365, 366, 367, 368, 369, 370, 371, 372, 373, 374, 375, 376, 377, 378, 379, 380, 381, 382, 383, 384, 385, 386, 387, 388, 389, 390, 391, 392, 393, 394, 395, 396, 397, 398, 399, 400, 401, 402, 403, 404, 405, 406, 407, 408, 409, 410, 411, 412, 413, 414, 415, 416, 417, 418, 419, 420, 421, 422, 423, 424, 425, 426, 427, 428, 429, 430, 431, 432, 433, 434, 435, 436, 437, 438, 439, 440, 441, 442, 443, 444, 445, 446, 447, 448, 449, 450, 451, 452, 453, 454, 455, 456, 457, 458, 459, 460, 461, 462, 463, 464, 465, 466, 467, 468, 469, 470, 471, 472, 473, 474, 475, 476, 477, 478, 479, 480, 481, 482, 483, 484, 485, 486, 487, 488, 489, 490, 491, 492, 493, 494, 495, 496, 497, 498, 499, 500, 501, 502, 503, 504, 505, 506, 507, 508, 509, 510, 511, 512, 513, 514, 515, 516, 517, 518, 519, 520, 521, 522, 523, 524, 525, 526, 527, 528, 529, 530, 531, 532, 533, 534, 535, 536, 537, 538, 539, 540, 541, 542, 543, 544, 545, 546, 547, 548, 549, 550, 551, 552, 553, 554, 555, 556, 557, 558, 559, 560, 561, 562, 563, 564, 565, 566, 567, 568, 569, 570, 571, 572, 573, 574, 575, 576, 577, 578, 579, 580, 581, 582, 583, 584, 585, 586, 587, 588, 589, 590, 591, 592, 593, 594, 595, 596, 597, 598, 599, 600, 601, 602, 603, 604, 605, 606, 607, 608, 609, 610, 611, 612, 613, 614, 615, 616, 617, 618, 619, 620, 621, 622, 623, 624, 625, 626, 627, 628, 629, 630, 631, 632, 633, 634, 635, 636, 637, 638, 639, 640, 641, 642, 643, 644, 645, 646, 647, 648, 649, 650, 651, 652, 653, 654, 655, 656, 657, 658, 659, 660, 661, 662, 663, 664, 665, 666, 667, 668, 669, 670, 671, 672, 673, 674, 675, 676, 677, 678, 679, 680, 681, 682, 683, 684, 685, 686, 687, 688, 689, 690, 691, 692, 693, 694, 695, 696, 697, 698, 699, 700, 701, 702, 703, 704, 705, 706, 707, 708, 709, 710, 711, 712, 713, 714, 715, 716, 717, 718, 719, 720, 721, 722, 723, 724, 725, 726, 727, 728, 729, 730, 731, 732, 733, 734, 735, 736, 737, 738, 739, 740, 741, 742, 743, 744, 745, 746, 747, 748, 749, 750, 751, 752, 753, 754, 755, 756, 757, 758, 759, 760, 761, 762, 763, 764, 765, 766, 767, 768, 769, 770, 771, 772, 773, 774, 775, 776, 777, 778, 779, 780, 781, 782, 783, 784, 785, 786, 787, 788, 789, 790, 791, 792, 793, 794, 795, 796, 797, 798, 799, 800, 801, 802, 803, 804, 805, 806, 807, 808, 809, 810, 811, 812, 813, 814, 815, 816, 817, 818, 819, 820, 821, 822, 823, 824, 825, 826, 827, 828, 829, 830, 831, 832, 833, 834, 835, 836, 837, 838, 839, 840, 841, 842, 843, 844, 845, 846, 847, 848, 849, 850, 851, 852, 853, 854, 855, 856, 857, 858, 859, 860, 861, 862, 863, 864, 865, 866, 867, 868, 869, 870, 871, 872],
      "AcquisitionTime": ["102441.772500", "102442.232500", "102442.692500", "102443.152500", "102443.612500", "102444.072500", "102444.532500", "102444.992500", "102445.452500", "102445.912500", "102446.372500", "102446.832500", "102447.292500", "102447.752500", "102448.212500", "102448.672500", "102449.132500", "102449.592500", "102450.052500", "102450.512500", "102450.972500", "102451.432500", "102451.892500", "102452.352500", "102452.812500", "102453.272500", "102453.732500", "102454.192500", "102454.652500", "102455.112500", "102455.572500", "102456.032500", "102456.492500", "102456.952500", "102457.412500", "102457.872500", "102458.332500", "102458.792500", "102459.252500", "102459.712500", "102500.172500", "102500.632500", "102501.092500", "102501.552500", "102502.012500", "102502.472500", "102502.932500", "102503.392500", "102503.852500", "102504.312500", "102504.772500", "102505.232500", "102505.692500", "102506.152500", "102506.612500", "102507.072500", "102507.532500", "102507.992500", "102508.452500", "102508.912500", "102509.372500", "102509.832500", "102510.292500", "102510.752500", "102511.212500", "102511.672500", "102512.132500", "102512.592500", "102513.052500", "102513.512500", "102513.972500", "102514.432500", "102514.892500", "102515.352500", "102515.812500", "102516.272500", "102516.732500", "102517.192500", "102517.652500", "102518.112500", "102518.572500", "102519.032500", "102519.492500", "102519.952500", "102520.412500", "102520.872500", "102521.332500", "102521.792500", "102522.252500", "102522.712500", "102523.172500", "102523.632500", "102524.092500", "102524.552500", "102525.012500", "102525.472500", "102525.932500", "102526.392500", "102526.852500", "102527.312500", "102527.772500", "102528.232500", "102528.692500", "102529.152500", "102529.612500", "102530.072500", "102530.532500", "102530.992500", "102531.452500", "102531.912500", "102532.372500", "102532.832500", "102533.292500", "102533.752500", "102534.212500", "102534.672500", "102535.132500", "102535.592500", "102536.052500", "102536.512500", "102536.972500", "102537.432500", "102537.892500", "102538.352500", "102538.812500", "102539.272500", "102539.732500", "102540.192500", "102540.652500", "102541.112500", "102541.572500", "102542.032500", "102542.492500", "102542.952500", "102543.412500", "102543.872500", "102544.332500", "102544.792500", "102545.252500", "102545.712500", "102546.172500", "102546.632500", "102547.092500", "102547.552500", "102548.012500", "102548.472500", "102548.932500", "102549.392500", "102549.852500", "102550.312500", "102550.772500", "102551.232500", "102551.692500", "102552.152500", "102552.612500", "102553.072500", "102553.532500", "102553.992500", "102554.452500", "102554.912500", "102555.372500", "102555.832500", "102556.292500", "102556.752500", "102557.212500", "102557.672500", "102558.132500", "102558.592500", "102559.052500", "102559.512500", "102559.972500", "102600.432500", "102600.892500", "102601.352500", "102601.812500", "102602.272500", "102602.732500", "102603.192500", "102603.652500", "102604.112500", "102604.572500", "102605.032500", "102605.492500", "102605.952500", "102606.412500", "102606.872500", "102607.332500", "102607.792500", "102608.252500", "102608.712500", "102609.172500", "102609.632500", "102610.092500", "102610.552500", "102611.012500", "102611.472500", "102611.932500", "102612.392500", "102612.852500", "102613.312500", "102613.772500", "102614.232500", "102614.692500", "102615.152500", "102615.612500", "102616.072500", "102616.532500", "102616.992500", "102617.452500", "102617.912500", "102618.372500", "102618.832500", "102619.292500", "102619.752500", "102620.212500", "102620.672500", "102621.132500", "102621.592500", "102622.052500", "102622.512500", "102622.972500", "102623.432500", "102623.892500", "102624.352500", "102624.812500", "102625.272500", "102625.732500", "102626.192500", "102626.652500", "102627.112500", "102627.572500", "102628.032500", "102628.492500", "102628.952500", "102629.412500", "102629.872500", "102630.332500", "102630.792500", "102631.252500", "102631.712500", "102632.172500", "102632.632500", "102633.092500", "102633.552500", "102634.012500", "102634.472500", "102634.932500", "102635.392500", "102635.852500", "102636.312500", "102636.772500", "102637.232500", "102637.692500", "102638.152500", "102638.612500", "102639.072500", "102639.532500", "102639.992500", "102640.452500", "102640.912500", "102641.372500", "102641.832500", "102642.292500", "102642.752500", "102643.212500", "102643.672500", "102644.132500", "102644.592500", "102645.052500", "102645.512500", "102645.972500", "102646.432500", "102646.892500", "102647.352500", "102647.812500", "102648.272500", "102648.732500", "102649.192500", "102649.652500", "102650.112500", "102650.572500", "102651.032500", "102651.492500", "102651.952500", "102652.412500", "102652.872500", "102653.332500", "102653.792500", "102654.252500", "102654.712500", "102655.172500", "102655.632500", "102656.092500", "102656.552500", "102657.012500", "102657.472500", "102657.932500", "102658.392500", "102658.852500", "102659.312500", "102659.772500", "102700.232500", "102700.692500", "102701.152500", "102701.612500", "102702.072500", "102702.532500", "102702.992500", "102703.452500", "102703.912500", "102704.372500", "102704.832500", "102705.292500", "102705.752500", "102706.212500", "102706.672500", "102707.132500", "102707.592500", "102708.052500", "102708.512500", "102708.972500", "102709.432500", "102709.892500", "102710.352500", "102710.812500", "102711.272500", "102711.732500", "102712.192500", "102712.652500", "102713.112500", "102713.572500", "102714.032500", "102714.492500", "102714.952500", "102715.412500", "102715.872500", "102716.332500", "102716.792500", "102717.252500", "102717.712500", "102718.172500", "102718.632500", "102719.092500", "102719.552500", "102720.012500", "102720.472500", "102720.932500", "102721.392500", "102721.852500", "102722.312500", "102722.772500", "102723.232500", "102723.692500", "102724.152500", "102724.612500", "102725.072500", "102725.532500", "102725.992500", "102726.452500", "102726.912500", "102727.372500", "102727.832500", "102728.292500", "102728.752500", "102729.212500", "102729.672500", "102730.132500", "102730.592500", "102731.052500", "102731.512500", "102731.972500", "102732.432500", "102732.892500", "102733.352500", "102733.812500", "102734.272500", "102734.732500", "102735.192500", "102735.652500", "102736.112500", "102736.572500", "102737.032500", "102737.492500", "102737.952500", "102738.412500", "102738.872500", "102739.332500", "102739.792500", "102740.252500", "102740.712500", "102741.172500", "102741.632500", "102742.092500", "102742.552500", "102743.012500", "102743.472500", "102743.932500", "102744.392500", "102744.852500", "102745.312500", "102745.772500", "102746.232500", "102746.692500", "102747.152500", "102747.612500", "102748.072500", "102748.532500", "102748.992500", "102749.452500", "102749.912500", "102750.372500", "102750.832500", "102751.292500", "102751.752500", "102752.212500", "102752.672500", "102753.132500", "102753.592500", "102754.052500", "102754.512500", "102754.972500", "102755.432500", "102755.892500", "102756.352500", "102756.812500", "102757.272500", "102757.732500", "102758.192500", "102758.652500", "102759.112500", "102759.572500", "102800.032500", "102800.492500", "102800.952500", "102801.412500", "102801.872500", "102802.332500", "102802.792500", "102803.252500", "102803.712500", "102804.172500", "102804.632500", "102805.092500", "102805.552500", "102806.012500", "102806.472500", "102806.932500", "102807.392500", "102807.852500", "102808.312500", "102808.772500", "102809.232500", "102809.692500", "102810.152500", "102810.612500", "102811.072500", "102811.532500", "102811.992500", "102812.452500", "102812.912500", "102813.372500", "102813.832500", "102814.292500", "102814.752500", "102815.212500", "102815.672500", "102816.132500", "102816.592500", "102817.052500", "102817.512500", "102817.972500", "102818.432500", "102818.892500", "102819.352500", "102819.812500", "102820.272500", "102820.732500", "102821.192500", "102821.652500", "102822.112500", "102822.572500", "102823.032500", "102823.492500", "102823.952500", "102824.412500", "102824.872500", "102825.332500", "102825.792500", "102826.252500", "102826.712500", "102827.172500", "102827.632500", "102828.092500", "102828.552500", "102829.012500", "102829.472500", "102829.932500", "102830.392500", "102830.852500", "102831.312500", "102831.772500", "102832.232500", "102832.692500", "102833.152500", "102833.612500", "102834.072500", "102834.532500", "102834.992500", "102835.452500", "102835.912500", "102836.372500", "102836.832500", "102837.292500", "102837.752500", "102838.212500", "102838.672500", "102839.132500", "102839.592500", "102840.052500", "102840.512500", "102840.972500", "102841.432500", "102841.892500", "102842.352500", "102842.812500", "102843.272500", "102843.732500", "102844.192500", "102844.652500", "102845.112500", "102845.572500", "102846.032500", "102846.492500", "102846.952500", "102847.412500", "102847.872500", "102848.332500", "102848.792500", "102849.252500", "102849.712500", "102850.172500", "102850.632500", "102851.092500", "102851.552500", "102852.012500", "102852.472500", "102852.932500", "102853.392500", "102853.852500", "102854.312500", "102854.772500", "102855.232500", "102855.692500", "102856.152500", "102856.612500", "102857.072500", "102857.532500", "102857.992500", "102858.452500", "102858.912500", "102859.372500", "102859.832500", "102900.292500", "102900.752500", "102901.212500", "102901.672500", "102902.132500", "102902.592500", "102903.052500", "102903.512500", "102903.972500", "102904.432500", "102904.892500", "102905.352500", "102905.812500", "102906.272500", "102906.732500", "102907.192500", "102907.652500", "102908.112500", "102908.572500", "102909.032500", "102909.492500", "102909.952500", "102910.412500", "102910.872500", "102911.332500", "102911.792500", "102912.252500", "102912.712500", "102913.172500", "102913.632500", "102914.092500", "102914.552500", "102915.012500", "102915.472500", "102915.932500", "102916.392500", "102916.852500", "102917.312500", "102917.772500", "102918.232500", "102918.692500", "102919.152500", "102919.612500", "102920.072500", "102920.532500", "102920.992500", "102921.452500", "102921.912500", "102922.372500", "102922.832500", "102923.292500", "102923.752500", "102924.212500", "102924.672500", "102925.132500", "102925.592500", "102926.052500", "102926.512500", "102926.972500", "102927.432500", "102927.892500", "102928.352500", "102928.812500", "102929.272500", "102929.732500", "102930.192500", "102930.652500", "102931.112500", "102931.572500", "102932.032500", "102932.492500", "102932.952500", "102933.412500", "102933.872500", "102934.332500", "102934.792500", "102935.252500", "102935.712500", "102936.172500", "102936.632500", "102937.092500", "102937.552500", "102938.012500", "102938.472500", "102938.932500", "102939.392500", "102939.852500", "102940.312500", "102940.772500", "102941.232500", "102941.692500", "102942.152500", "102942.612500", "102943.072500", "102943.532500", "102943.992500", "102944.452500", "102944.912500", "102945.372500", "102945.832500", "102946.292500", "102946.752500", "102947.212500", "102947.672500", "102948.132500", "102948.592500", "102949.052500", "102949.512500", "102949.972500", "102950.432500", "102950.892500", "102951.352500", "102951.812500", "102952.272500", "102952.732500", "102953.192500", "102953.652500", "102954.112500", "102954.572500", "102955.032500", "102955.492500", "102955.952500", "102956.412500", "102956.872500", "102957.332500", "102957.792500", "102958.252500", "102958.712500", "102959.172500", "102959.632500", "103000.092500", "103000.552500", "103001.012500", "103001.472500", "103001.932500", "103002.392500", "103002.852500", "103003.312500", "103003.772500", "103004.232500", "103004.692500", "103005.152500", "103005.612500", "103006.072500", "103006.532500", "103006.992500", "103007.452500", "103007.912500", "103008.372500", "103008.832500", "103009.292500", "103009.752500", "103010.212500", "103010.672500", "103011.132500", "103011.592500", "103012.052500", "103012.512500", "103012.972500", "103013.432500", "103013.892500", "103014.352500", "103014.812500", "103015.272500", "103015.732500", "103016.192500", "103016.652500", "103017.112500", "103017.572500", "103018.032500", "103018.492500", "103018.952500", "103019.412500", "103019.872500", "103020.332500", "103020.792500", "103021.252500", "103021.712500", "103022.172500", "103022.632500", "103023.092500", "103023.552500", "103024.012500", "103024.472500", "103024.932500", "103025.392500", "103025.852500", "103026.312500", "103026.772500", "103027.232500", "103027.692500", "103028.152500", "103028.612500", "103029.072500", "103029.532500", "103029.992500", "103030.452500", "103030.912500", "103031.372500", "103031.832500", "103032.292500", "103032.752500", "103033.212500", "103033.672500", "103034.132500", "103034.592500", "103035.052500", "103035.512500", "103035.972500", "103036.432500", "103036.892500", "103037.352500", "103037.812500", "103038.272500", "103038.732500", "103039.192500", "103039.652500", "103040.112500", "103040.572500", "103041.032500", "103041.492500", "103041.952500", "103042.412500", "103042.872500", "103043.332500", "103043.792500", "103044.252500", "103044.712500", "103045.172500", "103045.632500", "103046.092500", "103046.552500", "103047.012500", "103047.472500", "103047.932500", "103048.392500", "103048.852500", "103049.312500", "103049.772500", "103050.232500", "103050.692500", "103051.152500", "103051.612500", "103052.072500", "103052.532500", "103052.992500", "103053.452500", "103053.912500", "103054.372500", "103054.832500", "103055.292500", "103055.752500", "103056.212500", "103056.672500", "103057.132500", "103057.592500", "103058.052500", "103058.512500", "103058.972500", "103059.432500", "103059.892500", "103100.352500", "103100.812500", "103101.272500", "103101.732500", "103102.192500", "103102.652500", "103103.112500", "103103.572500", "103104.032500", "103104.492500", "103104.952500", "103105.412500", "103105.872500", "103106.332500", "103106.792500", "103107.252500", "103107.712500", "103108.172500", "103108.632500", "103109.092500", "103109.552500", "103110.012500", "103110.472500", "103110.932500", "103111.392500", "103111.852500", "103112.312500", "103112.772500", "103113.232500", "103113.692500", "103114.152500", "103114.612500", "103115.072500", "103115.532500", "103115.992500", "103116.452500", "103116.912500", "103117.372500", "103117.832500", "103118.292500", "103118.752500", "103119.212500", "103119.672500", "103120.132500", "103120.592500", "103121.052500", "103121.512500", "103121.972500", "103122.432500"],
