{
  "AcquisitionMatrixPE": 82,
  "AcquisitionNumber": 1,
  "AcquisitionTime": "10:57:24.242500",
  "BandwidthPerPixelPhaseEncode": 24.888,
  "BaseResolution": 82,
  "BodyPartExamined": "BRAIN",
  "ConsistencyInfo": "N4_VE11C_LATEST_20160120",
  "ConversionSoftware": "dcm2niix",
  "ConversionSoftwareVersion": "v1.0.20201102",
  "DerivedVendorReportedEchoSpacing": 0.00049,
  "DeviceSerialNumber": "66112",
  "DwellTime": 2e-06,
  "EchoTime": 0.0272,
  "EchoTrainLength": 82,
  "EffectiveEchoSpacing": 0.00049,
  "FlipAngle": 44,
  "ImageComments": "Unaliased MB8/PE3",
  "ImageOrientationPatientDICOM": [0.997451, -0.0298213, 0.0648269, 0.0322176, 0.998824, -0.036238],
  "ImageType": [
    "ORIGINAL",
    "PRIMARY",
    "M",
    "MB",
    "ND",
    "NORM",
    "MOSAIC"
],
  "ImagingFrequency": 123.252,
  "InPlanePhaseEncodingDirectionDICOM": "COL",
  "InstitutionAddress": "Maynard 3,Hanover,NH,US,03755",
  "InstitutionName": "dartmouth_brain_imaging_center",
  "InstitutionalDepartmentName": "Department",
  "MRAcquisitionType": "2D",
  "MagneticFieldStrength": 3,
  "Manufacturer": "Siemens",
  "ManufacturersModelName": "Prisma",
  "Modality": "MR",
  "MultibandAccelerationFactor": 8,
  "PartialFourier": 1,
  "PatientPosition": "HFS",
  "PercentPhaseFOV": 100,
  "PercentSampling": 100,
  "PhaseEncodingDirection": "j-",
  "PhaseEncodingSteps": 82,
  "PhaseResolution": 1,
  "PixelBandwidth": 3050,
  "ProcedureStepDescription": "Wager_Wager^1076_spacetop",
  "ProtocolName": "func_run-01_task-alignvideo_acq-ap-mb8",
  "PulseSequenceDetails": "%CustomerSeq%\\cmrr_mbep2d_bold",
  "ReceiveCoilActiveElements": "HEA;HEP",
  "ReceiveCoilName": "Head_32",
  "ReconMatrixPE": 82,
  "RepetitionTime": 0.46,
  "SAR": 0.0954489,
  "ScanOptions": "FS",
  "ScanningSequence": "EP",
  "SequenceName": "epfid2d1_82",
  "SequenceVariant": "SK\\SS",
  "SeriesDescription": "func_run-01_task-alignvideo_acq-ap-mb8",
  "SeriesNumber": 32,
  "ShimSetting": [4136, -7745, -7209, 586, -167, -80, 60, 48],
  "SliceThickness": 2.7,
  "SliceTiming": [0, 0.2525, 0.0625, 0.315, 0.1275, 0.3775, 0.19, 0, 0.2525, 0.0625, 0.315, 0.1275, 0.3775, 0.19, 0, 0.2525, 0.0625, 0.315, 0.1275, 0.3775, 0.19, 0, 0.2525, 0.0625, 0.315, 0.1275, 0.3775, 0.19, 0, 0.2525, 0.0625, 0.315, 0.1275, 0.3775, 0.19, 0, 0.2525, 0.0625, 0.315, 0.1275, 0.3775, 0.19, 0, 0.2525, 0.0625, 0.315, 0.1275, 0.3775, 0.19, 0, 0.2525, 0.0625, 0.315, 0.1275, 0.3775, 0.19],
  "SoftwareVersions": "syngo MR E11",
  "SpacingBetweenSlices": 2.7,
  "StationName": "AWP66112",
  "TaskName": "alignvideo",
  "TotalReadoutTime": 0.03969,
  "TxRefAmp": 248.235,
  "WipMemBlock": "b50be062-28bd-451c-8db1-ee7a6fd6f2b9||Sequence: R016 ve11c/master r/e634e98; Dec 19 2017 11:00:25 by eja",
  "dcmmeta_affine": [
    [-2.6760876178741455, 0.08643732964992523, 0.17190901935100555, 109.11621856689453],
    [0.0800083726644516, 2.6797709465026855, -0.10323226451873779, -85.15970611572266],
    [0.17392590641975403, 0.09722386300563812, 2.6925432682037354, -56.290870666503906],
    [0.0, 0.0, 0.0, 1.0]
],
  "dcmmeta_reorient_transform": [
    [0.0, -1.0, 0.0, 81.0],
    [1.0, 0.0, 0.0, 0.0],
    [0.0, 0.0, 1.0, 0.0],
    [0.0, 0.0, 0.0, 1.0]
],
  "dcmmeta_shape": [82, 82, 56, 1073],
  "dcmmeta_slice_dim": 2,
  "dcmmeta_version": 0.6,
  "global": {
    "const": {
      "AccessionNumber": "A003495",
      "AcquisitionMatrix": [82, 0, 0, 82],
      "AngioFlag": "N",
      "BitsAllocated": 16,
      "BitsStored": 16,
      "BodyPartExamined": "BRAIN",
      "Columns": 656,
      "EchoNumbers": 1,
      "EchoTime": 27.2,
      "EchoTrainLength": 82,
      "FlipAngle": 44.0,
      "HighBit": 15,
      "ImageOrientationPatient": [0.99745083053863, -0.0298213023731, 0.0648269279125, 0.03221754956514, 0.99882372719384, -0.0362379841413],
      "ImagePositionPatient": [-908.96231324969, -878.03363374124, -70.429225250538],
      "ImageType": [
        "ORIGINAL",
        "PRIMARY",
        "M",
        "MB",
        "ND",
        "NORM",
        "MOSAIC"
],
      "ImagedNucleus": "1H",
      "ImagingFrequency": 123.252106,
      "InPlanePhaseEncodingDirection": "COL",
      "MRAcquisitionType": "2D",
      "MagneticFieldStrength": 3.0,
      "Manufacturer": "SIEMENS",
      "ManufacturerModelName": "Prisma",
      "Modality": "MR",
      "NumberOfAverages": 1.0,
      "NumberOfPhaseEncodingSteps": 82,
      "PercentPhaseFieldOfView": 100.0,
      "PercentSampling": 100.0,
      "PerformedProcedureStepStartTime": "091145.502000",
      "PhotometricInterpretation": "MONOCHROME2",
      "PixelBandwidth": 3050.0,
      "PixelRepresentation": 0,
      "PixelSpacing": [2.6829268932343, 2.6829268932343],
      "ProtocolName": "func_run-01_task-alignvideo_acq-ap-mb8",
      "RepetitionTime": 460.0,
      "Rows": 656,
      "SAR": 0.09544890772856,
      "SamplesPerPixel": 1,
      "ScanOptions": "FS",
      "ScanningSequence": "EP",
      "SequenceName": "epfid2d1_82",
      "SequenceVariant": [
        "SK",
        "SS"
],
      "SeriesDescription": "func_run-01_task-alignvideo_acq-ap-mb8",
      "SeriesNumber": 32,
      "SeriesTime": "105753.746000",
      "SliceLocation": -45.931972293739,
      "SliceThickness": 2.7000000476837,
      "SmallestImagePixelValue": 0,
      "SoftwareVersions": "syngo MR E11",
      "SpacingBetweenSlices": 2.6999998976734,
      "SpecificCharacterSet": "ISO_IR 100",
      "StudyID": "1",
      "StudyTime": "091145.366000",
      "TransmitCoilName": "Body",
      "VariableFlipAngleFlag": "N",
      "WindowCenterWidthExplanation": "Algo1",
      "dBdt": 0.0},
    "slices": {}
  },
  "time": {
    "samples": {
      "AcquisitionNumber": [1, 2, 3, 4, 5, 6, 7, 8, 9, 10, 11, 12, 13, 14, 15, 16, 17, 18, 19, 20, 21, 22, 23, 24, 25, 26, 27, 28, 29, 30, 31, 32, 33, 34, 35, 36, 37, 38, 39, 40, 41, 42, 43, 44, 45, 46, 47, 48, 49, 50, 51, 52, 53, 54, 55, 56, 57, 58, 59, 60, 61, 62, 63, 64, 65, 66, 67, 68, 69, 70, 71, 72, 73, 74, 75, 76, 77, 78, 79, 80, 81, 82, 83, 84, 85, 86, 87, 88, 89, 90, 91, 92, 93, 94, 95, 96, 97, 98, 99, 100, 101, 102, 103, 104, 105, 106, 107, 108, 109, 110, 111, 112, 113, 114, 115, 116, 117, 118, 119, 120, 121, 122, 123, 124, 125, 126, 127, 128, 129, 130, 131, 132, 133, 134, 135, 136, 137, 138, 139, 140, 141, 142, 143, 144, 145, 146, 147, 148, 149, 150, 151, 152, 153, 154, 155, 156, 157, 158, 159, 160, 161, 162, 163, 164, 165, 166, 167, 168, 169, 170, 171, 172, 173, 174, 175, 176, 177, 178, 179, 180, 181, 182, 183, 184, 185, 186, 187, 188, 189, 190, 191, 192, 193, 194, 195, 196, 197, 198, 199, 200, 201, 202, 203, 204, 205, 206, 207, 208, 209, 210, 211, 212, 213, 214, 215, 216, 217, 218, 219, 220, 221, 222, 223, 224, 225, 226, 227, 228, 229, 230, 231, 232, 233, 234, 235, 236, 237, 238, 239, 240, 241, 242, 243, 244, 245, 246, 247, 248, 249, 250, 251, 252, 253, 254, 255, 256, 257, 258, 259, 260, 261, 262, 263, 264, 265, 266, 267, 268, 269, 270, 271, 272, 273, 274, 275, 276, 277, 278, 279, 280, 281, 282, 283, 284, 285, 286, 287, 288, 289, 290, 291, 292, 293, 294, 295, 296, 297, 298, 299, 300, 301, 302, 303, 304, 305, 306, 307, 308, 309, 310, 311, 312, 313, 314, 315, 316, 317, 318, 319, 320, 321, 322, 323, 324, 325, 326, 327, 328, 329, 330, 331, 332, 333, 334, 335, 336, 337, 338, 339, 340, 341, 342, 343, 344, 345, 346, 347, 348, 349, 350, 351, 352, 353, 354, 355, 356, 357, 358, 359, 360, 361, 362, 363, 364, 365, 366, 367, 368, 369, 370, 371, 372, 373, 374, 375, 376, 377, 378, 379, 380, 381, 382, 383, 384, 385, 386, 387, 388, 389, 390, 391, 392, 393, 394, 395, 396, 397, 398, 399, 400, 401, 402, 403, 404, 405, 406, 407, 408, 409, 410, 411, 412, 413, 414, 415, 416, 417, 418, 419, 420, 421, 422, 423, 424, 425, 426, 427, 428, 429, 430, 431, 432, 433, 434, 435, 436, 437, 438, 439, 440, 441, 442, 443, 444, 445, 446, 447, 448, 449, 450, 451, 452, 453, 454, 455, 456, 457, 458, 459, 460, 461, 462, 463, 464, 465, 466, 467, 468, 469, 470, 471, 472, 473, 474, 475, 476, 477, 478, 479, 480, 481, 482, 483, 484, 485, 486, 487, 488, 489, 490, 491, 492, 493, 494, 495, 496, 497, 498, 499, 500, 501, 502, 503, 504, 505, 506, 507, 508, 509, 510, 511, 512, 513, 514, 515, 516, 517, 518, 519, 520, 521, 522, 523, 524, 525, 526, 527, 528, 529, 530, 531, 532, 533, 534, 535, 536, 537, 538, 539, 540, 541, 542, 543, 544, 545, 546, 547, 548, 549, 550, 551, 552, 553, 554, 555, 556, 557, 558, 559, 560, 561, 562, 563, 564, 565, 566, 567, 568, 569, 570, 571, 572, 573, 574, 575, 576, 577, 578, 579, 580, 581, 582, 583, 584, 585, 586, 587, 588, 589, 590, 591, 592, 593, 594, 595, 596, 597, 598, 599, 600, 601, 602, 603, 604, 605, 606, 607, 608, 609, 610, 611, 612, 613, 614, 615, 616, 617, 618, 619, 620, 621, 622, 623, 624, 625, 626, 627, 628, 629, 630, 631, 632, 633, 634, 635, 636, 637, 638, 639, 640, 641, 642, 643, 644, 645, 646, 647, 648, 649, 650, 651, 652, 653, 654, 655, 656, 657, 658, 659, 660, 661, 662, 663, 664, 665, 666, 667, 668, 669, 670, 671, 672, 673, 674, 675, 676, 677, 678, 679, 680, 681, 682, 683, 684, 685, 686, 687, 688, 689, 690, 691, 692, 693, 694, 695, 696, 697, 698, 699, 700, 701, 702, 703, 704, 705, 706, 707, 708, 709, 710, 711, 712, 713, 714, 715, 716, 717, 718, 719, 720, 721, 722, 723, 724, 725, 726, 727, 728, 729, 730, 731, 732, 733, 734, 735, 736, 737, 738, 739, 740, 741, 742, 743, 744, 745, 746, 747, 748, 749, 750, 751, 752, 753, 754, 755, 756, 757, 758, 759, 760, 761, 762, 763, 764, 765, 766, 767, 768, 769, 770, 771, 772, 773, 774, 775, 776, 777, 778, 779, 780, 781, 782, 783, 784, 785, 786, 787, 788, 789, 790, 791, 792, 793, 794, 795, 796, 797, 798, 799, 800, 801, 802, 803, 804, 805, 806, 807, 808, 809, 810, 811, 812, 813, 814, 815, 816, 817, 818, 819, 820, 821, 822, 823, 824, 825, 826, 827, 828, 829, 830, 831, 832, 833, 834, 835, 836, 837, 838, 839, 840, 841, 842, 843, 844, 845, 846, 847, 848, 849, 850, 851, 852, 853, 854, 855, 856, 857, 858, 859, 860, 861, 862, 863, 864, 865, 866, 867, 868, 869, 870, 871, 872, 873, 874, 875, 876, 877, 878, 879, 880, 881, 882, 883, 884, 885, 886, 887, 888, 889, 890, 891, 892, 893, 894, 895, 896, 897, 898, 899, 900, 901, 902, 903, 904, 905, 906, 907, 908, 909, 910, 911, 912, 913, 914, 915, 916, 917, 918, 919, 920, 921, 922, 923, 924, 925, 926, 927, 928, 929, 930, 931, 932, 933, 934, 935, 936, 937, 938, 939, 940, 941, 942, 943, 944, 945, 946, 947, 948, 949, 950, 951, 952, 953, 954, 955, 956, 957, 958, 959, 960, 961, 962, 963, 964, 965, 966, 967, 968, 969, 970, 971, 972, 973, 974, 975, 976, 977, 978, 979, 980, 981, 982, 983, 984, 985, 986, 987, 988, 989, 990, 991, 992, 993, 994, 995, 996, 997, 998, 999, 1000, 1001, 1002, 1003, 1004, 1005, 1006, 1007, 1008, 1009, 1010, 1011, 1012, 1013, 1014, 1015, 1016, 1017, 1018, 1019, 1020, 1021, 1022, 1023, 1024, 1025, 1026, 1027, 1028, 1029, 1030, 1031, 1032, 1033, 1034, 1035, 1036, 1037, 1038, 1039, 1040, 1041, 1042, 1043, 1044, 1045, 1046, 1047, 1048, 1049, 1050, 1051, 1052, 1053, 1054, 1055, 1056, 1057, 1058, 1059, 1060, 1061, 1062, 1063, 1064, 1065, 1066, 1067, 1068, 1069, 1070, 1071, 1072, 1073],
      "AcquisitionTime": ["105724.242500", "105724.702500", "105725.162500", "105725.622500", "105726.082500", "105726.542500", "105727.002500", "105727.462500", "105727.922500", "105728.382500", "105728.842500", "105729.302500", "105729.762500", "105730.222500", "105730.682500", "105731.142500", "105731.602500", "105732.062500", "105732.522500", "105732.982500", "105733.442500", "105733.902500", "105734.362500", "105734.822500", "105735.282500", "105735.742500", "105736.202500", "105736.662500", "105737.122500", "105737.582500", "105738.042500", "105738.502500", "105738.962500", "105739.422500", "105739.882500", "105740.342500", "105740.802500", "105741.262500", "105741.722500", "105742.182500", "105742.642500", "105743.102500", "105743.562500", "105744.022500", "105744.482500", "105744.942500", "105745.402500", "105745.862500", "105746.322500", "105746.782500", "105747.242500", "105747.702500", "105748.162500", "105748.622500", "105749.082500", "105749.542500", "105750.002500", "105750.462500", "105750.922500", "105751.382500", "105751.842500", "105752.302500", "105752.762500", "105753.222500", "105753.682500", "105754.142500", "105754.602500", "105755.062500", "105755.522500", "105755.982500", "105756.442500", "105756.902500", "105757.362500", "105757.822500", "105758.282500", "105758.742500", "105759.202500", "105759.662500", "105800.122500", "105800.582500", "105801.042500", "105801.502500", "105801.962500", "105802.422500", "105802.882500", "105803.342500", "105803.802500", "105804.262500", "105804.722500", "105805.182500", "105805.642500", "105806.102500", "105806.562500", "105807.022500", "105807.482500", "105807.942500", "105808.402500", "105808.862500", "105809.322500", "105809.782500", "105810.242500", "105810.702500", "105811.162500", "105811.622500", "105812.082500", "105812.542500", "105813.002500", "105813.462500", "105813.922500", "105814.382500", "105814.842500", "105815.302500", "105815.762500", "105816.222500", "105816.682500", "105817.142500", "105817.602500", "105818.062500", "105818.522500", "105818.982500", "105819.442500", "105819.902500", "105820.362500", "105820.822500", "105821.282500", "105821.742500", "105822.202500", "105822.662500", "105823.122500", "105823.582500", "105824.042500", "105824.502500", "105824.962500", "105825.422500", "105825.882500", "105826.342500", "105826.802500", "105827.262500", "105827.722500", "105828.182500", "105828.642500", "105829.102500", "105829.562500", "105830.022500", "105830.482500", "105830.942500", "105831.402500", "105831.862500", "105832.322500", "105832.782500", "105833.242500", "105833.702500", "105834.162500", "105834.622500", "105835.082500", "105835.542500", "105836.002500", "105836.462500", "105836.922500", "105837.382500", "105837.842500", "105838.302500", "105838.762500", "105839.222500", "105839.682500", "105840.142500", "105840.602500", "105841.062500", "105841.522500", "105841.982500", "105842.442500", "105842.902500", "105843.362500", "105843.822500", "105844.282500", "105844.742500", "105845.202500", "105845.662500", "105846.122500", "105846.582500", "105847.042500", "105847.502500", "105847.962500", "105848.422500", "105848.882500", "105849.342500", "105849.802500", "105850.262500", "105850.722500", "105851.182500", "105851.642500", "105852.102500", "105852.562500", "105853.022500", "105853.482500", "105853.942500", "105854.402500", "105854.862500", "105855.322500", "105855.782500", "105856.242500", "105856.702500", "105857.162500", "105857.622500", "105858.082500", "105858.542500", "105859.002500", "105859.462500", "105859.922500", "105900.382500", "105900.842500", "105901.302500", "105901.762500", "105902.222500", "105902.682500", "105903.142500", "105903.602500", "105904.062500", "105904.522500", "105904.982500", "105905.442500", "105905.902500", "105906.362500", "105906.822500", "105907.282500", "105907.742500", "105908.202500", "105908.662500", "105909.122500", "105909.582500", "105910.042500", "105910.502500", "105910.962500", "105911.422500", "105911.882500", "105912.342500", "105912.802500", "105913.262500", "105913.722500", "105914.182500", "105914.642500", "105915.102500", "105915.562500", "105916.022500", "105916.482500", "105916.942500", "105917.402500", "105917.862500", "105918.322500", "105918.782500", "105919.242500", "105919.702500", "105920.162500", "105920.622500", "105921.082500", "105921.542500", "105922.002500", "105922.462500", "105922.922500", "105923.382500", "105923.842500", "105924.302500", "105924.762500", "105925.222500", "105925.682500", "105926.142500", "105926.602500", "105927.062500", "105927.522500", "105927.982500", "105928.442500", "105928.902500", "105929.362500", "105929.822500", "105930.282500", "105930.742500", "105931.202500", "105931.662500", "105932.122500", "105932.582500", "105933.042500", "105933.502500", "105933.962500", "105934.422500", "105934.882500", "105935.342500", "105935.802500", "105936.262500", "105936.722500", "105937.182500", "105937.642500", "105938.102500", "105938.562500", "105939.022500", "105939.482500", "105939.942500", "105940.402500", "105940.862500", "105941.322500", "105941.782500", "105942.242500", "105942.702500", "105943.162500", "105943.622500", "105944.082500", "105944.542500", "105945.002500", "105945.462500", "105945.922500", "105946.382500", "105946.842500", "105947.302500", "105947.762500", "105948.222500", "105948.682500", "105949.142500", "105949.602500", "105950.062500", "105950.522500", "105950.982500", "105951.442500", "105951.902500", "105952.362500", "105952.822500", "105953.282500", "105953.742500", "105954.202500", "105954.662500", "105955.122500", "105955.582500", "105956.042500", "105956.502500", "105956.962500", "105957.422500", "105957.882500", "105958.342500", "105958.802500", "105959.262500", "105959.722500", "110000.182500", "110000.642500", "110001.102500", "110001.562500", "110002.022500", "110002.482500", "110002.942500", "110003.402500", "110003.862500", "110004.322500", "110004.782500", "110005.242500", "110005.702500", "110006.162500", "110006.622500", "110007.082500", "110007.542500", "110008.002500", "110008.462500", "110008.922500", "110009.382500", "110009.842500", "110010.302500", "110010.762500", "110011.222500", "110011.682500", "110012.142500", "110012.602500", "110013.062500", "110013.522500", "110013.982500", "110014.442500", "110014.902500", "110015.362500", "110015.822500", "110016.282500", "110016.742500", "110017.202500", "110017.662500", "110018.122500", "110018.582500", "110019.042500", "110019.502500", "110019.962500", "110020.422500", "110020.882500", "110021.342500", "110021.802500", "110022.262500", "110022.722500", "110023.182500", "110023.642500", "110024.102500", "110024.562500", "110025.022500", "110025.482500", "110025.942500", "110026.402500", "110026.862500", "110027.322500", "110027.782500", "110028.242500", "110028.702500", "110029.162500", "110029.622500", "110030.082500", "110030.542500", "110031.002500", "110031.462500", "110031.922500", "110032.382500", "110032.842500", "110033.302500", "110033.762500", "110034.222500", "110034.682500", "110035.142500", "110035.602500", "110036.062500", "110036.522500", "110036.982500", "110037.442500", "110037.902500", "110038.362500", "110038.822500", "110039.282500", "110039.742500", "110040.202500", "110040.662500", "110041.122500", "110041.582500", "110042.042500", "110042.502500", "110042.962500", "110043.422500", "110043.882500", "110044.342500", "110044.802500", "110045.262500", "110045.722500", "110046.182500", "110046.642500", "110047.102500", "110047.562500", "110048.022500", "110048.482500", "110048.942500", "110049.402500", "110049.862500", "110050.322500", "110050.782500", "110051.242500", "110051.702500", "110052.162500", "110052.622500", "110053.082500", "110053.542500", "110054.002500", "110054.462500", "110054.922500", "110055.382500", "110055.842500", "110056.302500", "110056.762500", "110057.222500", "110057.682500", "110058.142500", "110058.602500", "110059.062500", "110059.522500", "110059.982500", "110100.442500", "110100.902500", "110101.362500", "110101.822500", "110102.282500", "110102.742500", "110103.202500", "110103.662500", "110104.122500", "110104.582500", "110105.042500", "110105.502500", "110105.962500", "110106.422500", "110106.882500", "110107.342500", "110107.802500", "110108.262500", "110108.722500", "110109.182500", "110109.642500", "110110.102500", "110110.562500", "110111.022500", "110111.482500", "110111.942500", "110112.402500", "110112.862500", "110113.322500", "110113.782500", "110114.242500", "110114.702500", "110115.162500", "110115.622500", "110116.082500", "110116.542500", "110117.002500", "110117.462500", "110117.922500", "110118.382500", "110118.842500", "110119.302500", "110119.762500", "110120.222500", "110120.682500", "110121.142500", "110121.602500", "110122.062500", "110122.522500", "110122.982500", "110123.442500", "110123.902500", "110124.362500", "110124.822500", "110125.282500", "110125.742500", "110126.202500", "110126.662500", "110127.122500", "110127.582500", "110128.042500", "110128.502500", "110128.962500", "110129.422500", "110129.882500", "110130.342500", "110130.802500", "110131.262500", "110131.722500", "110132.182500", "110132.642500", "110133.102500", "110133.562500", "110134.022500", "110134.482500", "110134.942500", "110135.402500", "110135.862500", "110136.322500", "110136.782500", "110137.242500", "110137.702500", "110138.162500", "110138.622500", "110139.082500", "110139.542500", "110140.002500", "110140.462500", "110140.922500", "110141.382500", "110141.842500", "110142.302500", "110142.762500", "110143.222500", "110143.682500", "110144.142500", "110144.602500", "110145.062500", "110145.522500", "110145.982500", "110146.442500", "110146.902500", "110147.362500", "110147.822500", "110148.282500", "110148.742500", "110149.202500", "110149.662500", "110150.122500", "110150.582500", "110151.042500", "110151.502500", "110151.962500", "110152.422500", "110152.882500", "110153.342500", "110153.802500", "110154.262500", "110154.722500", "110155.182500", "110155.642500", "110156.102500", "110156.562500", "110157.022500", "110157.482500", "110157.942500", "110158.402500", "110158.862500", "110159.322500", "110159.782500", "110200.242500", "110200.702500", "110201.162500", "110201.622500", "110202.082500", "110202.542500", "110203.002500", "110203.462500", "110203.922500", "110204.382500", "110204.842500", "110205.302500", "110205.762500", "110206.222500", "110206.682500", "110207.142500", "110207.602500", "110208.062500", "110208.522500", "110208.982500", "110209.442500", "110209.902500", "110210.362500", "110210.822500", "110211.282500", "110211.742500", "110212.202500", "110212.662500", "110213.122500", "110213.582500", "110214.042500", "110214.502500", "110214.962500", "110215.422500", "110215.882500", "110216.342500", "110216.802500", "110217.262500", "110217.722500", "110218.182500", "110218.642500", "110219.102500", "110219.562500", "110220.022500", "110220.482500", "110220.942500", "110221.402500", "110221.862500", "110222.322500", "110222.782500", "110223.242500", "110223.702500", "110224.162500", "110224.622500", "110225.082500", "110225.542500", "110226.002500", "110226.462500", "110226.922500", "110227.382500", "110227.842500", "110228.302500", "110228.762500", "110229.222500", "110229.682500", "110230.142500", "110230.602500", "110231.062500", "110231.522500", "110231.982500", "110232.442500", "110232.902500", "110233.362500", "110233.822500", "110234.282500", "110234.742500", "110235.202500", "110235.662500", "110236.122500", "110236.582500", "110237.042500", "110237.502500", "110237.962500", "110238.422500", "110238.882500", "110239.342500", "110239.802500", "110240.262500", "110240.722500", "110241.182500", "110241.642500", "110242.102500", "110242.562500", "110243.022500", "110243.482500", "110243.942500", "110244.402500", "110244.862500", "110245.322500", "110245.782500", "110246.242500", "110246.702500", "110247.162500", "110247.622500", "110248.082500", "110248.542500", "110249.002500", "110249.462500", "110249.922500", "110250.382500", "110250.842500", "110251.302500", "110251.762500", "110252.222500", "110252.682500", "110253.142500", "110253.602500", "110254.062500", "110254.522500", "110254.982500", "110255.442500", "110255.902500", "110256.362500", "110256.822500", "110257.282500", "110257.742500", "110258.202500", "110258.662500", "110259.122500", "110259.582500", "110300.042500", "110300.502500", "110300.962500", "110301.422500", "110301.882500", "110302.342500", "110302.802500", "110303.262500", "110303.722500", "110304.182500", "110304.642500", "110305.102500", "110305.562500", "110306.022500", "110306.482500", "110306.942500", "110307.402500", "110307.862500", "110308.322500", "110308.782500", "110309.242500", "110309.702500", "110310.162500", "110310.622500", "110311.082500", "110311.542500", "110312.002500", "110312.462500", "110312.922500", "110313.382500", "110313.842500", "110314.302500", "110314.762500", "110315.222500", "110315.682500", "110316.142500", "110316.602500", "110317.062500", "110317.522500", "110317.982500", "110318.442500", "110318.902500", "110319.362500", "110319.822500", "110320.282500", "110320.742500", "110321.202500", "110321.662500", "110322.122500", "110322.582500", "110323.042500", "110323.502500", "110323.962500", "110324.422500", "110324.882500", "110325.342500", "110325.802500", "110326.262500", "110326.722500", "110327.182500", "110327.642500", "110328.102500", "110328.562500", "110329.022500", "110329.482500", "110329.942500", "110330.402500", "110330.862500", "110331.322500", "110331.782500", "110332.242500", "110332.702500", "110333.162500", "110333.622500", "110334.082500", "110334.542500", "110335.002500", "110335.462500", "110335.922500", "110336.382500", "110336.842500", "110337.302500", "110337.762500", "110338.222500", "110338.682500", "110339.142500", "110339.602500", "110340.062500", "110340.522500", "110340.982500", "110341.442500", "110341.902500", "110342.362500", "110342.822500", "110343.282500", "110343.742500", "110344.202500", "110344.662500", "110345.122500", "110345.582500", "110346.042500", "110346.502500", "110346.962500", "110347.422500", "110347.882500", "110348.342500", "110348.802500", "110349.262500", "110349.722500", "110350.182500", "110350.642500", "110351.102500", "110351.562500", "110352.022500", "110352.482500", "110352.942500", "110353.402500", "110353.862500", "110354.322500", "110354.782500", "110355.242500", "110355.702500", "110356.162500", "110356.622500", "110357.082500", "110357.542500", "110358.002500", "110358.462500", "110358.922500", "110359.382500", "110359.842500", "110400.302500", "110400.762500", "110401.222500", "110401.682500", "110402.142500", "110402.602500", "110403.062500", "110403.522500", "110403.982500", "110404.442500", "110404.902500", "110405.362500", "110405.822500", "110406.282500", "110406.742500", "110407.202500", "110407.662500", "110408.122500", "110408.582500", "110409.042500", "110409.502500", "110409.962500", "110410.422500", "110410.882500", "110411.342500", "110411.802500", "110412.262500", "110412.722500", "110413.182500", "110413.642500", "110414.102500", "110414.562500", "110415.022500", "110415.482500", "110415.942500", "110416.402500", "110416.862500", "110417.322500", "110417.782500", "110418.242500", "110418.702500", "110419.162500", "110419.622500", "110420.082500", "110420.542500", "110421.002500", "110421.462500", "110421.922500", "110422.382500", "110422.842500", "110423.302500", "110423.762500", "110424.222500", "110424.682500", "110425.142500", "110425.602500", "110426.062500", "110426.522500", "110426.982500", "110427.442500", "110427.902500", "110428.362500", "110428.822500", "110429.282500", "110429.742500", "110430.202500", "110430.662500", "110431.122500", "110431.582500", "110432.042500", "110432.502500", "110432.962500", "110433.422500", "110433.882500", "110434.342500", "110434.802500", "110435.262500", "110435.722500", "110436.182500", "110436.642500", "110437.102500", "110437.562500", "110438.022500", "110438.482500", "110438.942500", "110439.402500", "110439.862500", "110440.322500", "110440.782500", "110441.242500", "110441.702500", "110442.162500", "110442.622500", "110443.082500", "110443.542500", "110444.002500", "110444.462500", "110444.922500", "110445.382500", "110445.842500", "110446.302500", "110446.762500", "110447.222500", "110447.682500", "110448.142500", "110448.602500", "110449.062500", "110449.522500", "110449.982500", "110450.442500", "110450.902500", "110451.362500", "110451.822500", "110452.282500", "110452.742500", "110453.202500", "110453.662500", "110454.122500", "110454.582500", "110455.042500", "110455.502500", "110455.962500", "110456.422500", "110456.882500", "110457.342500", "110457.802500", "110458.262500", "110458.722500", "110459.182500", "110459.642500", "110500.102500", "110500.562500", "110501.022500", "110501.482500", "110501.942500", "110502.402500", "110502.862500", "110503.322500", "110503.782500", "110504.242500", "110504.702500", "110505.162500", "110505.622500", "110506.082500", "110506.542500", "110507.002500", "110507.462500", "110507.922500", "110508.382500", "110508.842500", "110509.302500", "110509.762500", "110510.222500", "110510.682500", "110511.142500", "110511.602500", "110512.062500", "110512.522500", "110512.982500", "110513.442500", "110513.902500", "110514.362500", "110514.822500", "110515.282500", "110515.742500", "110516.202500", "110516.662500", "110517.122500", "110517.582500", "110518.042500", "110518.502500", "110518.962500", "110519.422500", "110519.882500", "110520.342500", "110520.802500", "110521.262500", "110521.722500", "110522.182500", "110522.642500", "110523.102500", "110523.562500", "110524.022500", "110524.482500", "110524.942500", "110525.402500", "110525.862500", "110526.322500", "110526.782500", "110527.242500", "110527.702500", "110528.162500", "110528.622500", "110529.082500", "110529.542500", "110530.002500", "110530.462500", "110530.922500", "110531.382500", "110531.842500", "110532.302500", "110532.762500", "110533.222500", "110533.682500", "110534.142500", "110534.602500", "110535.062500", "110535.522500", "110535.982500", "110536.442500", "110536.902500", "110537.362500"],
