{
  "AcquisitionMatrixPE": 82,
  "AcquisitionNumber": 1,
  "AcquisitionTime": "10:31:50.522500",
  "BandwidthPerPixelPhaseEncode": 24.888,
  "BaseResolution": 82,
  "BodyPartExamined": "BRAIN",
  "ConsistencyInfo": "N4_VE11C_LATEST_20160120",
  "ConversionSoftware": "dcm2niix",
  "ConversionSoftwareVersion": "v1.0.20201102",
  "DerivedVendorReportedEchoSpacing": 0.00049,
  "DeviceSerialNumber": "66112",
  "DwellTime": 2e-06,
  "EchoTime": 0.0272,
  "EchoTrainLength": 82,
  "EffectiveEchoSpacing": 0.00049,
  "FlipAngle": 44,
  "ImageComments": "Unaliased MB8/PE3",
  "ImageOrientationPatientDICOM": [0.999342, -0.0303217, 0.0198919, 0.0310564, 0.998805, -0.0377283],
  "ImageType": [
    "ORIGINAL",
    "PRIMARY",
    "M",
    "MB",
    "ND",
    "NORM",
    "MOSAIC"
],
  "ImagingFrequency": 123.252,
  "InPlanePhaseEncodingDirectionDICOM": "COL",
  "InstitutionAddress": "Maynard 3,Hanover,NH,US,03755",
  "InstitutionName": "dartmouth_brain_imaging_center",
  "InstitutionalDepartmentName": "Department",
  "MRAcquisitionType": "2D",
  "MagneticFieldStrength": 3,
  "Manufacturer": "Siemens",
  "ManufacturersModelName": "Prisma",
  "Modality": "MR",
  "MultibandAccelerationFactor": 8,
  "PartialFourier": 1,
  "PatientPosition": "HFS",
  "PercentPhaseFOV": 100,
  "PercentSampling": 100,
  "PhaseEncodingDirection": "j-",
  "PhaseEncodingSteps": 82,
  "PhaseResolution": 1,
  "PixelBandwidth": 3050,
  "ProcedureStepDescription": "Wager_Wager^1076_spacetop",
  "ProtocolName": "func_run-05_task-social_acq-ap-mb8",
  "PulseSequenceDetails": "%CustomerSeq%\\cmrr_mbep2d_bold",
  "ReceiveCoilActiveElements": "HEA;HEP",
  "ReceiveCoilName": "Head_32",
  "ReconMatrixPE": 82,
  "RepetitionTime": 0.46,
  "SAR": 0.0953377,
  "ScanOptions": "FS",
  "ScanningSequence": "EP",
  "SequenceName": "epfid2d1_82",
  "SequenceVariant": "SK\\SS",
  "SeriesDescription": "func_run-05_task-social_acq-ap-mb8",
  "SeriesNumber": 20,
  "ShimSetting": [4136, -7743, -7206, 596, -167, -73, 61, 47],
  "SliceThickness": 2.7,
  "SliceTiming": [0, 0.2525, 0.0625, 0.315, 0.125, 0.3775, 0.1875, 0, 0.2525, 0.0625, 0.315, 0.125, 0.3775, 0.1875, 0, 0.2525, 0.0625, 0.315, 0.125, 0.3775, 0.1875, 0, 0.2525, 0.0625, 0.315, 0.125, 0.3775, 0.1875, 0, 0.2525, 0.0625, 0.315, 0.125, 0.3775, 0.1875, 0, 0.2525, 0.0625, 0.315, 0.125, 0.3775, 0.1875, 0, 0.2525, 0.0625, 0.315, 0.125, 0.3775, 0.1875, 0, 0.2525, 0.0625, 0.315, 0.125, 0.3775, 0.1875],
  "SoftwareVersions": "syngo MR E11",
  "SpacingBetweenSlices": 2.7,
  "StationName": "AWP66112",
  "TaskName": "social",
  "TotalReadoutTime": 0.03969,
  "TxRefAmp": 248.235,
  "WipMemBlock": "7e189bbf-d1d1-4a77-8dd5-1920bbc6abcf||Sequence: R016 ve11c/master r/e634e98; Dec 19 2017 11:00:25 by eja",
  "dcmmeta_affine": [
    [-2.681162118911743, 0.08332211524248123, 0.05055532231926918, 111.98036193847656],
    [0.08135098218917847, 2.6797215938568115, -0.10346739739179611, -85.8604965209961],
    [0.05336863920092583, 0.10122228413820267, 2.697542905807495, -50.54878616333008],
    [0.0, 0.0, 0.0, 1.0]
],
  "dcmmeta_reorient_transform": [
    [0.0, -1.0, 0.0, 81.0],
    [1.0, 0.0, 0.0, 0.0],
    [0.0, 0.0, 1.0, 0.0],
    [0.0, 0.0, 0.0, 1.0]
],
  "dcmmeta_shape": [82, 82, 56, 872],
  "dcmmeta_slice_dim": 2,
  "dcmmeta_version": 0.6,
  "global": {
    "const": {
      "AccessionNumber": "A003495",
      "AcquisitionMatrix": [82, 0, 0, 82],
      "AngioFlag": "N",
      "BitsAllocated": 16,
      "BitsStored": 16,
      "BodyPartExamined": "BRAIN",
      "Columns": 656,
      "EchoNumbers": 1,
      "EchoTime": 27.2,
      "EchoTrainLength": 82,
      "FlipAngle": 44.0,
      "HighBit": 15,
      "ImageOrientationPatient": [0.99934223524284, -0.0303217303287, 0.01989194635311, 0.0310564228867, 0.99880532319935, -0.0377283043103],
      "ImagePositionPatient": [-912.13643752478, -876.92934509205, -28.615783645649],
      "ImageType": [
        "ORIGINAL",
        "PRIMARY",
        "M",
        "MB",
        "ND",
        "NORM",
        "MOSAIC"
],
      "ImagedNucleus": "1H",
      "ImagingFrequency": 123.252109,
      "InPlanePhaseEncodingDirection": "COL",
      "MRAcquisitionType": "2D",
      "MagneticFieldStrength": 3.0,
      "Manufacturer": "SIEMENS",
      "ManufacturerModelName": "Prisma",
      "Modality": "MR",
      "NumberOfAverages": 1.0,
      "NumberOfPhaseEncodingSteps": 82,
      "PercentPhaseFieldOfView": 100.0,
      "PercentSampling": 100.0,
      "PerformedProcedureStepStartTime": "091145.502000",
      "PhotometricInterpretation": "MONOCHROME2",
      "PixelBandwidth": 3050.0,
      "PixelRepresentation": 0,
      "PixelSpacing": [2.6829268932343, 2.6829268932343],
      "ProtocolName": "func_run-05_task-social_acq-ap-mb8",
      "RepetitionTime": 460.0,
      "Rows": 656,
      "SAR": 0.09533772596424,
      "SamplesPerPixel": 1,
      "ScanOptions": "FS",
      "ScanningSequence": "EP",
      "SequenceName": "epfid2d1_82",
      "SequenceVariant": [
        "SK",
        "SS"
],
      "SeriesDescription": "func_run-05_task-social_acq-ap-mb8",
      "SeriesNumber": 20,
      "SeriesTime": "103213.751000",
      "SliceLocation": -45.115762108538,
      "SliceThickness": 2.7000000476837,
      "SmallestImagePixelValue": 0,
      "SoftwareVersions": "syngo MR E11",
      "SpacingBetweenSlices": 2.6999999113141,
      "SpecificCharacterSet": "ISO_IR 100",
      "StudyID": "1",
      "StudyTime": "091145.366000",
      "TransmitCoilName": "Body",
      "VariableFlipAngleFlag": "N",
      "WindowCenterWidthExplanation": "Algo1",
      "dBdt": 0.0},
    "slices": {}
  },
  "time": {
    "samples": {
      "AcquisitionNumber": [1, 2, 3, 4, 5, 6, 7, 8, 9, 10, 11, 12, 13, 14, 15, 16, 17, 18, 19, 20, 21, 22, 23, 24, 25, 26, 27, 28, 29, 30, 31, 32, 33, 34, 35, 36, 37, 38, 39, 40, 41, 42, 43, 44, 45, 46, 47, 48, 49, 50, 51, 52, 53, 54, 55, 56, 57, 58, 59, 60, 61, 62, 63, 64, 65, 66, 67, 68, 69, 70, 71, 72, 73, 74, 75, 76, 77, 78, 79, 80, 81, 82, 83, 84, 85, 86, 87, 88, 89, 90, 91, 92, 93, 94, 95, 96, 97, 98, 99, 100, 101, 102, 103, 104, 105, 106, 107, 108, 109, 110, 111, 112, 113, 114, 115, 116, 117, 118, 119, 120, 121, 122, 123, 124, 125, 126, 127, 128, 129, 130, 131, 132, 133, 134, 135, 136, 137, 138, 139, 140, 141, 142, 143, 144, 145, 146, 147, 148, 149, 150, 151, 152, 153, 154, 155, 156, 157, 158, 159, 160, 161, 162, 163, 164, 165, 166, 167, 168, 169, 170, 171, 172, 173, 174, 175, 176, 177, 178, 179, 180, 181, 182, 183, 184, 185, 186, 187, 188, 189, 190, 191, 192, 193, 194, 195, 196, 197, 198, 199, 200, 201, 202, 203, 204, 205, 206, 207, 208, 209, 210, 211, 212, 213, 214, 215, 216, 217, 218, 219, 220, 221, 222, 223, 224, 225, 226, 227, 228, 229, 230, 231, 232, 233, 234, 235, 236, 237, 238, 239, 240, 241, 242, 243, 244, 245, 246, 247, 248, 249, 250, 251, 252, 253, 254, 255, 256, 257, 258, 259, 260, 261, 262, 263, 264, 265, 266, 267, 268, 269, 270, 271, 272, 273, 274, 275, 276, 277, 278, 279, 280, 281, 282, 283, 284, 285, 286, 287, 288, 289, 290, 291, 292, 293, 294, 295, 296, 297, 298, 299, 300, 301, 302, 303, 304, 305, 306, 307, 308, 309, 310, 311, 312, 313, 314, 315, 316, 317, 318, 319, 320, 321, 322, 323, 324, 325, 326, 327, 328, 329, 330, 331, 332, 333, 334, 335, 336, 337, 338, 339, 340, 341, 342, 343, 344, 345, 346, 347, 348, 349, 350, 351, 352, 353, 354, 355, 356, 357, 358, 359, 360, 361, 362, 363, 364, 365, 366, 367, 368, 369, 370, 371, 372, 373, 374, 375, 376, 377, 378, 379, 380, 381, 382, 383, 384, 385, 386, 387, 388, 389, 390, 391, 392, 393, 394, 395, 396, 397, 398, 399, 400, 401, 402, 403, 404, 405, 406, 407, 408, 409, 410, 411, 412, 413, 414, 415, 416, 417, 418, 419, 420, 421, 422, 423, 424, 425, 426, 427, 428, 429, 430, 431, 432, 433, 434, 435, 436, 437, 438, 439, 440, 441, 442, 443, 444, 445, 446, 447, 448, 449, 450, 451, 452, 453, 454, 455, 456, 457, 458, 459, 460, 461, 462, 463, 464, 465, 466, 467, 468, 469, 470, 471, 472, 473, 474, 475, 476, 477, 478, 479, 480, 481, 482, 483, 484, 485, 486, 487, 488, 489, 490, 491, 492, 493, 494, 495, 496, 497, 498, 499, 500, 501, 502, 503, 504, 505, 506, 507, 508, 509, 510, 511, 512, 513, 514, 515, 516, 517, 518, 519, 520, 521, 522, 523, 524, 525, 526, 527, 528, 529, 530, 531, 532, 533, 534, 535, 536, 537, 538, 539, 540, 541, 542, 543, 544, 545, 546, 547, 548, 549, 550, 551, 552, 553, 554, 555, 556, 557, 558, 559, 560, 561, 562, 563, 564, 565, 566, 567, 568, 569, 570, 571, 572, 573, 574, 575, 576, 577, 578, 579, 580, 581, 582, 583, 584, 585, 586, 587, 588, 589, 590, 591, 592, 593, 594, 595, 596, 597, 598, 599, 600, 601, 602, 603, 604, 605, 606, 607, 608, 609, 610, 611, 612, 613, 614, 615, 616, 617, 618, 619, 620, 621, 622, 623, 624, 625, 626, 627, 628, 629, 630, 631, 632, 633, 634, 635, 636, 637, 638, 639, 640, 641, 642, 643, 644, 645, 646, 647, 648, 649, 650, 651, 652, 653, 654, 655, 656, 657, 658, 659, 660, 661, 662, 663, 664, 665, 666, 667, 668, 669, 670, 671, 672, 673, 674, 675, 676, 677, 678, 679, 680, 681, 682, 683, 684, 685, 686, 687, 688, 689, 690, 691, 692, 693, 694, 695, 696, 697, 698, 699, 700, 701, 702, 703, 704, 705, 706, 707, 708, 709, 710, 711, 712, 713, 714, 715, 716, 717, 718, 719, 720, 721, 722, 723, 724, 725, 726, 727, 728, 729, 730, 731, 732, 733, 734, 735, 736, 737, 738, 739, 740, 741, 742, 743, 744, 745, 746, 747, 748, 749, 750, 751, 752, 753, 754, 755, 756, 757, 758, 759, 760, 761, 762, 763, 764, 765, 766, 767, 768, 769, 770, 771, 772, 773, 774, 775, 776, 777, 778, 779, 780, 781, 782, 783, 784, 785, 786, 787, 788, 789, 790, 791, 792, 793, 794, 795, 796, 797, 798, 799, 800, 801, 802, 803, 804, 805, 806, 807, 808, 809, 810, 811, 812, 813, 814, 815, 816, 817, 818, 819, 820, 821, 822, 823, 824, 825, 826, 827, 828, 829, 830, 831, 832, 833, 834, 835, 836, 837, 838, 839, 840, 841, 842, 843, 844, 845, 846, 847, 848, 849, 850, 851, 852, 853, 854, 855, 856, 857, 858, 859, 860, 861, 862, 863, 864, 865, 866, 867, 868, 869, 870, 871, 872],
      "AcquisitionTime": ["103150.522500", "103150.982500", "103151.442500", "103151.902500", "103152.362500", "103152.822500", "103153.282500", "103153.742500", "103154.202500", "103154.662500", "103155.122500", "103155.582500", "103156.042500", "103156.502500", "103156.962500", "103157.422500", "103157.882500", "103158.342500", "103158.802500", "103159.262500", "103159.722500", "103200.182500", "103200.642500", "103201.102500", "103201.562500", "103202.022500", "103202.482500", "103202.942500", "103203.402500", "103203.862500", "103204.322500", "103204.782500", "103205.242500", "103205.702500", "103206.162500", "103206.622500", "103207.082500", "103207.542500", "103208.002500", "103208.462500", "103208.922500", "103209.382500", "103209.842500", "103210.302500", "103210.762500", "103211.222500", "103211.682500", "103212.142500", "103212.602500", "103213.062500", "103213.522500", "103213.982500", "103214.442500", "103214.902500", "103215.362500", "103215.822500", "103216.282500", "103216.742500", "103217.202500", "103217.662500", "103218.122500", "103218.582500", "103219.042500", "103219.502500", "103219.962500", "103220.422500", "103220.882500", "103221.342500", "103221.802500", "103222.262500", "103222.722500", "103223.182500", "103223.642500", "103224.102500", "103224.562500", "103225.022500", "103225.482500", "103225.942500", "103226.402500", "103226.862500", "103227.322500", "103227.782500", "103228.242500", "103228.702500", "103229.162500", "103229.622500", "103230.082500", "103230.542500", "103231.002500", "103231.462500", "103231.922500", "103232.382500", "103232.842500", "103233.302500", "103233.762500", "103234.222500", "103234.682500", "103235.142500", "103235.602500", "103236.062500", "103236.522500", "103236.982500", "103237.442500", "103237.902500", "103238.362500", "103238.822500", "103239.282500", "103239.742500", "103240.202500", "103240.662500", "103241.122500", "103241.582500", "103242.042500", "103242.502500", "103242.962500", "103243.422500", "103243.882500", "103244.342500", "103244.802500", "103245.262500", "103245.722500", "103246.182500", "103246.642500", "103247.102500", "103247.562500", "103248.022500", "103248.482500", "103248.942500", "103249.402500", "103249.862500", "103250.322500", "103250.782500", "103251.242500", "103251.702500", "103252.162500", "103252.622500", "103253.082500", "103253.542500", "103254.002500", "103254.462500", "103254.922500", "103255.382500", "103255.842500", "103256.302500", "103256.762500", "103257.222500", "103257.682500", "103258.142500", "103258.602500", "103259.062500", "103259.522500", "103259.982500", "103300.442500", "103300.902500", "103301.362500", "103301.822500", "103302.282500", "103302.742500", "103303.202500", "103303.662500", "103304.122500", "103304.582500", "103305.042500", "103305.502500", "103305.962500", "103306.422500", "103306.882500", "103307.342500", "103307.802500", "103308.262500", "103308.722500", "103309.182500", "103309.642500", "103310.102500", "103310.562500", "103311.022500", "103311.482500", "103311.942500", "103312.402500", "103312.862500", "103313.322500", "103313.782500", "103314.242500", "103314.702500", "103315.162500", "103315.622500", "103316.082500", "103316.542500", "103317.002500", "103317.462500", "103317.922500", "103318.382500", "103318.842500", "103319.302500", "103319.762500", "103320.222500", "103320.682500", "103321.142500", "103321.602500", "103322.062500", "103322.522500", "103322.982500", "103323.442500", "103323.902500", "103324.362500", "103324.822500", "103325.282500", "103325.742500", "103326.202500", "103326.662500", "103327.122500", "103327.582500", "103328.042500", "103328.502500", "103328.962500", "103329.422500", "103329.882500", "103330.342500", "103330.802500", "103331.262500", "103331.722500", "103332.182500", "103332.642500", "103333.102500", "103333.562500", "103334.022500", "103334.482500", "103334.942500", "103335.402500", "103335.862500", "103336.322500", "103336.782500", "103337.242500", "103337.702500", "103338.162500", "103338.622500", "103339.082500", "103339.542500", "103340.002500", "103340.462500", "103340.922500", "103341.382500", "103341.842500", "103342.302500", "103342.762500", "103343.222500", "103343.682500", "103344.142500", "103344.602500", "103345.062500", "103345.522500", "103345.982500", "103346.442500", "103346.902500", "103347.362500", "103347.822500", "103348.282500", "103348.742500", "103349.202500", "103349.662500", "103350.122500", "103350.582500", "103351.042500", "103351.502500", "103351.962500", "103352.422500", "103352.882500", "103353.342500", "103353.802500", "103354.262500", "103354.722500", "103355.182500", "103355.642500", "103356.102500", "103356.562500", "103357.022500", "103357.482500", "103357.942500", "103358.402500", "103358.862500", "103359.322500", "103359.782500", "103400.242500", "103400.702500", "103401.162500", "103401.622500", "103402.082500", "103402.542500", "103403.002500", "103403.462500", "103403.922500", "103404.382500", "103404.842500", "103405.302500", "103405.762500", "103406.222500", "103406.682500", "103407.142500", "103407.602500", "103408.062500", "103408.522500", "103408.982500", "103409.442500", "103409.902500", "103410.362500", "103410.822500", "103411.282500", "103411.742500", "103412.202500", "103412.662500", "103413.122500", "103413.582500", "103414.042500", "103414.502500", "103414.962500", "103415.422500", "103415.882500", "103416.342500", "103416.802500", "103417.262500", "103417.722500", "103418.182500", "103418.642500", "103419.102500", "103419.562500", "103420.022500", "103420.482500", "103420.942500", "103421.402500", "103421.862500", "103422.322500", "103422.782500", "103423.242500", "103423.702500", "103424.162500", "103424.622500", "103425.082500", "103425.542500", "103426.002500", "103426.462500", "103426.922500", "103427.382500", "103427.842500", "103428.302500", "103428.762500", "103429.222500", "103429.682500", "103430.142500", "103430.602500", "103431.062500", "103431.522500", "103431.982500", "103432.442500", "103432.902500", "103433.362500", "103433.822500", "103434.282500", "103434.742500", "103435.202500", "103435.662500", "103436.122500", "103436.582500", "103437.042500", "103437.502500", "103437.962500", "103438.422500", "103438.882500", "103439.342500", "103439.802500", "103440.262500", "103440.722500", "103441.182500", "103441.642500", "103442.102500", "103442.562500", "103443.022500", "103443.482500", "103443.942500", "103444.402500", "103444.862500", "103445.322500", "103445.782500", "103446.242500", "103446.702500", "103447.162500", "103447.622500", "103448.082500", "103448.542500", "103449.002500", "103449.462500", "103449.922500", "103450.382500", "103450.842500", "103451.302500", "103451.762500", "103452.222500", "103452.682500", "103453.142500", "103453.602500", "103454.062500", "103454.522500", "103454.982500", "103455.442500", "103455.902500", "103456.362500", "103456.822500", "103457.282500", "103457.742500", "103458.202500", "103458.662500", "103459.122500", "103459.582500", "103500.042500", "103500.502500", "103500.962500", "103501.422500", "103501.882500", "103502.342500", "103502.802500", "103503.262500", "103503.722500", "103504.182500", "103504.642500", "103505.102500", "103505.562500", "103506.022500", "103506.482500", "103506.942500", "103507.402500", "103507.862500", "103508.322500", "103508.782500", "103509.242500", "103509.702500", "103510.162500", "103510.622500", "103511.082500", "103511.542500", "103512.002500", "103512.462500", "103512.922500", "103513.382500", "103513.842500", "103514.302500", "103514.762500", "103515.222500", "103515.682500", "103516.142500", "103516.602500", "103517.062500", "103517.522500", "103517.982500", "103518.442500", "103518.902500", "103519.362500", "103519.822500", "103520.282500", "103520.742500", "103521.202500", "103521.662500", "103522.122500", "103522.582500", "103523.042500", "103523.502500", "103523.962500", "103524.422500", "103524.882500", "103525.342500", "103525.802500", "103526.262500", "103526.722500", "103527.182500", "103527.642500", "103528.102500", "103528.562500", "103529.022500", "103529.482500", "103529.942500", "103530.402500", "103530.862500", "103531.322500", "103531.782500", "103532.242500", "103532.702500", "103533.162500", "103533.622500", "103534.082500", "103534.542500", "103535.002500", "103535.462500", "103535.922500", "103536.382500", "103536.842500", "103537.302500", "103537.762500", "103538.222500", "103538.682500", "103539.142500", "103539.602500", "103540.062500", "103540.522500", "103540.982500", "103541.442500", "103541.902500", "103542.362500", "103542.822500", "103543.282500", "103543.742500", "103544.202500", "103544.662500", "103545.122500", "103545.582500", "103546.042500", "103546.502500", "103546.962500", "103547.422500", "103547.882500", "103548.342500", "103548.802500", "103549.262500", "103549.722500", "103550.182500", "103550.642500", "103551.102500", "103551.562500", "103552.022500", "103552.482500", "103552.942500", "103553.402500", "103553.862500", "103554.322500", "103554.782500", "103555.242500", "103555.702500", "103556.162500", "103556.622500", "103557.082500", "103557.542500", "103558.002500", "103558.462500", "103558.922500", "103559.382500", "103559.842500", "103600.302500", "103600.762500", "103601.222500", "103601.682500", "103602.142500", "103602.602500", "103603.062500", "103603.522500", "103603.982500", "103604.442500", "103604.902500", "103605.362500", "103605.822500", "103606.282500", "103606.742500", "103607.202500", "103607.662500", "103608.122500", "103608.582500", "103609.042500", "103609.502500", "103609.962500", "103610.422500", "103610.882500", "103611.342500", "103611.802500", "103612.262500", "103612.722500", "103613.182500", "103613.642500", "103614.102500", "103614.562500", "103615.022500", "103615.482500", "103615.942500", "103616.402500", "103616.862500", "103617.322500", "103617.782500", "103618.242500", "103618.702500", "103619.162500", "103619.622500", "103620.082500", "103620.542500", "103621.002500", "103621.462500", "103621.922500", "103622.382500", "103622.842500", "103623.302500", "103623.762500", "103624.222500", "103624.682500", "103625.142500", "103625.602500", "103626.062500", "103626.522500", "103626.982500", "103627.442500", "103627.902500", "103628.362500", "103628.822500", "103629.282500", "103629.742500", "103630.202500", "103630.662500", "103631.122500", "103631.582500", "103632.042500", "103632.502500", "103632.962500", "103633.422500", "103633.882500", "103634.342500", "103634.802500", "103635.262500", "103635.722500", "103636.182500", "103636.642500", "103637.102500", "103637.562500", "103638.022500", "103638.482500", "103638.942500", "103639.402500", "103639.862500", "103640.322500", "103640.782500", "103641.242500", "103641.702500", "103642.162500", "103642.622500", "103643.082500", "103643.542500", "103644.002500", "103644.462500", "103644.922500", "103645.382500", "103645.842500", "103646.302500", "103646.762500", "103647.222500", "103647.682500", "103648.142500", "103648.602500", "103649.062500", "103649.522500", "103649.982500", "103650.442500", "103650.902500", "103651.362500", "103651.822500", "103652.282500", "103652.742500", "103653.202500", "103653.662500", "103654.122500", "103654.582500", "103655.042500", "103655.502500", "103655.962500", "103656.422500", "103656.882500", "103657.342500", "103657.802500", "103658.262500", "103658.722500", "103659.182500", "103659.642500", "103700.102500", "103700.562500", "103701.022500", "103701.482500", "103701.942500", "103702.402500", "103702.862500", "103703.322500", "103703.782500", "103704.242500", "103704.702500", "103705.162500", "103705.622500", "103706.082500", "103706.542500", "103707.002500", "103707.462500", "103707.922500", "103708.382500", "103708.842500", "103709.302500", "103709.762500", "103710.222500", "103710.682500", "103711.142500", "103711.602500", "103712.062500", "103712.522500", "103712.982500", "103713.442500", "103713.902500", "103714.362500", "103714.822500", "103715.282500", "103715.742500", "103716.202500", "103716.662500", "103717.122500", "103717.582500", "103718.042500", "103718.502500", "103718.962500", "103719.422500", "103719.882500", "103720.342500", "103720.802500", "103721.262500", "103721.722500", "103722.182500", "103722.642500", "103723.102500", "103723.562500", "103724.022500", "103724.482500", "103724.942500", "103725.402500", "103725.862500", "103726.322500", "103726.782500", "103727.242500", "103727.702500", "103728.162500", "103728.622500", "103729.082500", "103729.542500", "103730.002500", "103730.462500", "103730.922500", "103731.382500", "103731.842500", "103732.302500", "103732.762500", "103733.222500", "103733.682500", "103734.142500", "103734.602500", "103735.062500", "103735.522500", "103735.982500", "103736.442500", "103736.902500", "103737.362500", "103737.822500", "103738.282500", "103738.742500", "103739.202500", "103739.662500", "103740.122500", "103740.582500", "103741.042500", "103741.502500", "103741.962500", "103742.422500", "103742.882500", "103743.342500", "103743.802500", "103744.262500", "103744.722500", "103745.182500", "103745.642500", "103746.102500", "103746.562500", "103747.022500", "103747.482500", "103747.942500", "103748.402500", "103748.862500", "103749.322500", "103749.782500", "103750.242500", "103750.702500", "103751.162500", "103751.622500", "103752.082500", "103752.542500", "103753.002500", "103753.462500", "103753.922500", "103754.382500", "103754.842500", "103755.302500", "103755.762500", "103756.222500", "103756.682500", "103757.142500", "103757.602500", "103758.062500", "103758.522500", "103758.982500", "103759.442500", "103759.902500", "103800.362500", "103800.822500", "103801.282500", "103801.742500", "103802.202500", "103802.662500", "103803.122500", "103803.582500", "103804.042500", "103804.502500", "103804.962500", "103805.422500", "103805.882500", "103806.342500", "103806.802500", "103807.262500", "103807.722500", "103808.182500", "103808.642500", "103809.102500", "103809.562500", "103810.022500", "103810.482500", "103810.942500", "103811.402500", "103811.862500", "103812.322500", "103812.782500", "103813.242500", "103813.702500", "103814.162500", "103814.622500", "103815.082500", "103815.542500", "103816.002500", "103816.462500", "103816.922500", "103817.382500", "103817.842500", "103818.302500", "103818.762500", "103819.222500", "103819.682500", "103820.142500", "103820.602500", "103821.062500", "103821.522500", "103821.982500", "103822.442500", "103822.902500", "103823.362500", "103823.822500", "103824.282500", "103824.742500", "103825.202500", "103825.662500", "103826.122500", "103826.582500", "103827.042500", "103827.502500", "103827.962500", "103828.422500", "103828.882500", "103829.342500", "103829.802500", "103830.262500", "103830.722500", "103831.182500"],
