{
  "AcquisitionMatrixPE": 82,
  "AcquisitionNumber": 1,
  "AcquisitionTime": "10:08:36.430000",
  "BandwidthPerPixelPhaseEncode": 24.888,
  "BaseResolution": 82,
  "BodyPartExamined": "BRAIN",
  "ConsistencyInfo": "N4_VE11C_LATEST_20160120",
  "ConversionSoftware": "dcm2niix",
  "ConversionSoftwareVersion": "v1.0.20201102",
  "DerivedVendorReportedEchoSpacing": 0.00049,
  "DeviceSerialNumber": "66112",
  "DwellTime": 2e-06,
  "EchoTime": 0.0272,
  "EchoTrainLength": 82,
  "EffectiveEchoSpacing": 0.00049,
  "FlipAngle": 44,
  "ImageComments": "Unaliased MB8/PE3",
  "ImageOrientationPatientDICOM": [0.999342, -0.0303217, 0.0198919, 0.0310564, 0.998805, -0.0377283],
  "ImageType": [
    "ORIGINAL",
    "PRIMARY",
    "M",
    "MB",
    "ND",
    "NORM",
    "MOSAIC"
],
  "ImagingFrequency": 123.252,
  "InPlanePhaseEncodingDirectionDICOM": "COL",
  "InstitutionAddress": "Maynard 3,Hanover,NH,US,03755",
  "InstitutionName": "dartmouth_brain_imaging_center",
  "InstitutionalDepartmentName": "Department",
  "MRAcquisitionType": "2D",
  "MagneticFieldStrength": 3,
  "Manufacturer": "Siemens",
  "ManufacturersModelName": "Prisma",
  "Modality": "MR",
  "MultibandAccelerationFactor": 8,
  "PartialFourier": 1,
  "PatientPosition": "HFS",
  "PercentPhaseFOV": 100,
  "PercentSampling": 100,
  "PhaseEncodingDirection": "j-",
  "PhaseEncodingSteps": 82,
  "PhaseResolution": 1,
  "PixelBandwidth": 3050,
  "ProcedureStepDescription": "Wager_Wager^1076_spacetop",
  "ProtocolName": "func_run-02_task-social_acq-ap-mb8",
  "PulseSequenceDetails": "%CustomerSeq%\\cmrr_mbep2d_bold",
  "ReceiveCoilActiveElements": "HEA;HEP",
  "ReceiveCoilName": "Head_32",
  "ReconMatrixPE": 82,
  "RepetitionTime": 0.46,
  "SAR": 0.0953377,
  "ScanOptions": "FS",
  "ScanningSequence": "EP",
  "SequenceName": "epfid2d1_82",
  "SequenceVariant": "SK\\SS",
  "SeriesDescription": "func_run-02_task-social_acq-ap-mb8",
  "SeriesNumber": 14,
  "ShimSetting": [4136, -7743, -7206, 596, -167, -73, 61, 47],
  "SliceThickness": 2.7,
  "SliceTiming": [0, 0.2525, 0.0625, 0.315, 0.1275, 0.3775, 0.19, 0, 0.2525, 0.0625, 0.315, 0.1275, 0.3775, 0.19, 0, 0.2525, 0.0625, 0.315, 0.1275, 0.3775, 0.19, 0, 0.2525, 0.0625, 0.315, 0.1275, 0.3775, 0.19, 0, 0.2525, 0.0625, 0.315, 0.1275, 0.3775, 0.19, 0, 0.2525, 0.0625, 0.315, 0.1275, 0.3775, 0.19, 0, 0.2525, 0.0625, 0.315, 0.1275, 0.3775, 0.19, 0, 0.2525, 0.0625, 0.315, 0.1275, 0.3775, 0.19],
  "SoftwareVersions": "syngo MR E11",
  "SpacingBetweenSlices": 2.7,
  "StationName": "AWP66112",
  "TaskName": "social",
  "TotalReadoutTime": 0.03969,
  "TxRefAmp": 248.235,
  "WipMemBlock": "40ea923c-e17a-4ed1-a43f-a03130a1898e||Sequence: R016 ve11c/master r/e634e98; Dec 19 2017 11:00:25 by eja",
  "dcmmeta_affine": [
    [-2.681162118911743, 0.08332211524248123, 0.05055532231926918, 111.98036193847656],
    [0.08135098218917847, 2.6797215938568115, -0.10346739739179611, -85.8604965209961],
    [0.05336863920092583, 0.10122228413820267, 2.697542905807495, -50.54878616333008],
    [0.0, 0.0, 0.0, 1.0]
],
  "dcmmeta_reorient_transform": [
    [0.0, -1.0, 0.0, 81.0],
    [1.0, 0.0, 0.0, 0.0],
    [0.0, 0.0, 1.0, 0.0],
    [0.0, 0.0, 0.0, 1.0]
],
  "dcmmeta_shape": [82, 82, 56, 872],
  "dcmmeta_slice_dim": 2,
  "dcmmeta_version": 0.6,
  "global": {
    "const": {
      "AccessionNumber": "A003495",
      "AcquisitionMatrix": [82, 0, 0, 82],
      "AngioFlag": "N",
      "BitsAllocated": 16,
      "BitsStored": 16,
      "BodyPartExamined": "BRAIN",
      "Columns": 656,
      "EchoNumbers": 1,
      "EchoTime": 27.2,
      "EchoTrainLength": 82,
      "FlipAngle": 44.0,
      "HighBit": 15,
      "ImageOrientationPatient": [0.99934223524284, -0.0303217303287, 0.01989194635311, 0.0310564228867, 0.99880532319935, -0.0377283043103],
      "ImagePositionPatient": [-912.13643752478, -876.92934509205, -28.615783645649],
      "ImageType": [
        "ORIGINAL",
        "PRIMARY",
        "M",
        "MB",
        "ND",
        "NORM",
        "MOSAIC"
],
      "ImagedNucleus": "1H",
      "ImagingFrequency": 123.252101,
      "InPlanePhaseEncodingDirection": "COL",
      "MRAcquisitionType": "2D",
      "MagneticFieldStrength": 3.0,
      "Manufacturer": "SIEMENS",
      "ManufacturerModelName": "Prisma",
      "Modality": "MR",
      "NumberOfAverages": 1.0,
      "NumberOfPhaseEncodingSteps": 82,
      "PercentPhaseFieldOfView": 100.0,
      "PercentSampling": 100.0,
      "PerformedProcedureStepStartTime": "091145.502000",
      "PhotometricInterpretation": "MONOCHROME2",
      "PixelBandwidth": 3050.0,
      "PixelRepresentation": 0,
      "PixelSpacing": [2.6829268932343, 2.6829268932343],
      "ProtocolName": "func_run-02_task-social_acq-ap-mb8",
      "RepetitionTime": 460.0,
      "Rows": 656,
      "SAR": 0.09533772596424,
      "SamplesPerPixel": 1,
      "ScanOptions": "FS",
      "ScanningSequence": "EP",
      "SequenceName": "epfid2d1_82",
      "SequenceVariant": [
        "SK",
        "SS"
],
      "SeriesDescription": "func_run-02_task-social_acq-ap-mb8",
      "SeriesNumber": 14,
      "SeriesTime": "100853.744000",
      "SliceLocation": -45.115762108538,
      "SliceThickness": 2.7000000476837,
      "SmallestImagePixelValue": 0,
      "SoftwareVersions": "syngo MR E11",
      "SpacingBetweenSlices": 2.6999999113141,
      "SpecificCharacterSet": "ISO_IR 100",
      "StudyID": "1",
      "StudyTime": "091145.366000",
      "TransmitCoilName": "Body",
      "VariableFlipAngleFlag": "N",
      "WindowCenterWidthExplanation": "Algo1",
      "dBdt": 0.0},
    "slices": {}
  },
  "time": {
    "samples": {
      "AcquisitionNumber": [1, 2, 3, 4, 5, 6, 7, 8, 9, 10, 11, 12, 13, 14, 15, 16, 17, 18, 19, 20, 21, 22, 23, 24, 25, 26, 27, 28, 29, 30, 31, 32, 33, 34, 35, 36, 37, 38, 39, 40, 41, 42, 43, 44, 45, 46, 47, 48, 49, 50, 51, 52, 53, 54, 55, 56, 57, 58, 59, 60, 61, 62, 63, 64, 65, 66, 67, 68, 69, 70, 71, 72, 73, 74, 75, 76, 77, 78, 79, 80, 81, 82, 83, 84, 85, 86, 87, 88, 89, 90, 91, 92, 93, 94, 95, 96, 97, 98, 99, 100, 101, 102, 103, 104, 105, 106, 107, 108, 109, 110, 111, 112, 113, 114, 115, 116, 117, 118, 119, 120, 121, 122, 123, 124, 125, 126, 127, 128, 129, 130, 131, 132, 133, 134, 135, 136, 137, 138, 139, 140, 141, 142, 143, 144, 145, 146, 147, 148, 149, 150, 151, 152, 153, 154, 155, 156, 157, 158, 159, 160, 161, 162, 163, 164, 165, 166, 167, 168, 169, 170, 171, 172, 173, 174, 175, 176, 177, 178, 179, 180, 181, 182, 183, 184, 185, 186, 187, 188, 189, 190, 191, 192, 193, 194, 195, 196, 197, 198, 199, 200, 201, 202, 203, 204, 205, 206, 207, 208, 209, 210, 211, 212, 213, 214, 215, 216, 217, 218, 219, 220, 221, 222, 223, 224, 225, 226, 227, 228, 229, 230, 231, 232, 233, 234, 235, 236, 237, 238, 239, 240, 241, 242, 243, 244, 245, 246, 247, 248, 249, 250, 251, 252, 253, 254, 255, 256, 257, 258, 259, 260, 261, 262, 263, 264, 265, 266, 267, 268, 269, 270, 271, 272, 273, 274, 275, 276, 277, 278, 279, 280, 281, 282, 283, 284, 285, 286, 287, 288, 289, 290, 291, 292, 293, 294, 295, 296, 297, 298, 299, 300, 301, 302, 303, 304, 305, 306, 307, 308, 309, 310, 311, 312, 313, 314, 315, 316, 317, 318, 319, 320, 321, 322, 323, 324, 325, 326, 327, 328, 329, 330, 331, 332, 333, 334, 335, 336, 337, 338, 339, 340, 341, 342, 343, 344, 345, 346, 347, 348, 349, 350, 351, 352, 353, 354, 355, 356, 357, 358, 359, 360, 361, 362, 363, 364, 365, 366, 367, 368, 369, 370, 371, 372, 373, 374, 375, 376, 377, 378, 379, 380, 381, 382, 383, 384, 385, 386, 387, 388, 389, 390, 391, 392, 393, 394, 395, 396, 397, 398, 399, 400, 401, 402, 403, 404, 405, 406, 407, 408, 409, 410, 411, 412, 413, 414, 415, 416, 417, 418, 419, 420, 421, 422, 423, 424, 425, 426, 427, 428, 429, 430, 431, 432, 433, 434, 435, 436, 437, 438, 439, 440, 441, 442, 443, 444, 445, 446, 447, 448, 449, 450, 451, 452, 453, 454, 455, 456, 457, 458, 459, 460, 461, 462, 463, 464, 465, 466, 467, 468, 469, 470, 471, 472, 473, 474, 475, 476, 477, 478, 479, 480, 481, 482, 483, 484, 485, 486, 487, 488, 489, 490, 491, 492, 493, 494, 495, 496, 497, 498, 499, 500, 501, 502, 503, 504, 505, 506, 507, 508, 509, 510, 511, 512, 513, 514, 515, 516, 517, 518, 519, 520, 521, 522, 523, 524, 525, 526, 527, 528, 529, 530, 531, 532, 533, 534, 535, 536, 537, 538, 539, 540, 541, 542, 543, 544, 545, 546, 547, 548, 549, 550, 551, 552, 553, 554, 555, 556, 557, 558, 559, 560, 561, 562, 563, 564, 565, 566, 567, 568, 569, 570, 571, 572, 573, 574, 575, 576, 577, 578, 579, 580, 581, 582, 583, 584, 585, 586, 587, 588, 589, 590, 591, 592, 593, 594, 595, 596, 597, 598, 599, 600, 601, 602, 603, 604, 605, 606, 607, 608, 609, 610, 611, 612, 613, 614, 615, 616, 617, 618, 619, 620, 621, 622, 623, 624, 625, 626, 627, 628, 629, 630, 631, 632, 633, 634, 635, 636, 637, 638, 639, 640, 641, 642, 643, 644, 645, 646, 647, 648, 649, 650, 651, 652, 653, 654, 655, 656, 657, 658, 659, 660, 661, 662, 663, 664, 665, 666, 667, 668, 669, 670, 671, 672, 673, 674, 675, 676, 677, 678, 679, 680, 681, 682, 683, 684, 685, 686, 687, 688, 689, 690, 691, 692, 693, 694, 695, 696, 697, 698, 699, 700, 701, 702, 703, 704, 705, 706, 707, 708, 709, 710, 711, 712, 713, 714, 715, 716, 717, 718, 719, 720, 721, 722, 723, 724, 725, 726, 727, 728, 729, 730, 731, 732, 733, 734, 735, 736, 737, 738, 739, 740, 741, 742, 743, 744, 745, 746, 747, 748, 749, 750, 751, 752, 753, 754, 755, 756, 757, 758, 759, 760, 761, 762, 763, 764, 765, 766, 767, 768, 769, 770, 771, 772, 773, 774, 775, 776, 777, 778, 779, 780, 781, 782, 783, 784, 785, 786, 787, 788, 789, 790, 791, 792, 793, 794, 795, 796, 797, 798, 799, 800, 801, 802, 803, 804, 805, 806, 807, 808, 809, 810, 811, 812, 813, 814, 815, 816, 817, 818, 819, 820, 821, 822, 823, 824, 825, 826, 827, 828, 829, 830, 831, 832, 833, 834, 835, 836, 837, 838, 839, 840, 841, 842, 843, 844, 845, 846, 847, 848, 849, 850, 851, 852, 853, 854, 855, 856, 857, 858, 859, 860, 861, 862, 863, 864, 865, 866, 867, 868, 869, 870, 871, 872],
      "AcquisitionTime": ["100836.430000", "100836.890000", "100837.350000", "100837.810000", "100838.270000", "100838.730000", "100839.190000", "100839.650000", "100840.110000", "100840.570000", "100841.030000", "100841.490000", "100841.950000", "100842.410000", "100842.870000", "100843.330000", "100843.790000", "100844.250000", "100844.710000", "100845.170000", "100845.630000", "100846.090000", "100846.550000", "100847.010000", "100847.470000", "100847.930000", "100848.390000", "100848.850000", "100849.310000", "100849.770000", "100850.230000", "100850.690000", "100851.150000", "100851.610000", "100852.070000", "100852.530000", "100852.990000", "100853.450000", "100853.910000", "100854.370000", "100854.830000", "100855.290000", "100855.750000", "100856.210000", "100856.670000", "100857.130000", "100857.590000", "100858.050000", "100858.510000", "100858.970000", "100859.430000", "100859.890000", "100900.350000", "100900.810000", "100901.270000", "100901.730000", "100902.190000", "100902.650000", "100903.110000", "100903.570000", "100904.030000", "100904.490000", "100904.950000", "100905.410000", "100905.870000", "100906.330000", "100906.790000", "100907.250000", "100907.710000", "100908.170000", "100908.630000", "100909.090000", "100909.550000", "100910.010000", "100910.470000", "100910.930000", "100911.390000", "100911.850000", "100912.310000", "100912.770000", "100913.230000", "100913.690000", "100914.150000", "100914.610000", "100915.070000", "100915.530000", "100915.990000", "100916.450000", "100916.910000", "100917.370000", "100917.830000", "100918.290000", "100918.750000", "100919.210000", "100919.670000", "100920.130000", "100920.590000", "100921.050000", "100921.510000", "100921.970000", "100922.430000", "100922.890000", "100923.350000", "100923.810000", "100924.270000", "100924.730000", "100925.190000", "100925.650000", "100926.110000", "100926.570000", "100927.030000", "100927.490000", "100927.950000", "100928.410000", "100928.870000", "100929.330000", "100929.790000", "100930.250000", "100930.710000", "100931.170000", "100931.630000", "100932.090000", "100932.550000", "100933.010000", "100933.470000", "100933.930000", "100934.390000", "100934.850000", "100935.310000", "100935.770000", "100936.230000", "100936.690000", "100937.150000", "100937.610000", "100938.070000", "100938.530000", "100938.990000", "100939.450000", "100939.910000", "100940.370000", "100940.830000", "100941.290000", "100941.750000", "100942.210000", "100942.670000", "100943.130000", "100943.590000", "100944.050000", "100944.510000", "100944.970000", "100945.430000", "100945.890000", "100946.350000", "100946.810000", "100947.270000", "100947.730000", "100948.190000", "100948.650000", "100949.110000", "100949.570000", "100950.030000", "100950.490000", "100950.950000", "100951.410000", "100951.870000", "100952.330000", "100952.790000", "100953.250000", "100953.710000", "100954.170000", "100954.630000", "100955.090000", "100955.550000", "100956.010000", "100956.470000", "100956.930000", "100957.390000", "100957.850000", "100958.310000", "100958.770000", "100959.230000", "100959.690000", "101000.150000", "101000.610000", "101001.070000", "101001.530000", "101001.990000", "101002.450000", "101002.910000", "101003.370000", "101003.830000", "101004.290000", "101004.750000", "101005.210000", "101005.670000", "101006.130000", "101006.590000", "101007.050000", "101007.510000", "101007.970000", "101008.430000", "101008.890000", "101009.350000", "101009.810000", "101010.270000", "101010.730000", "101011.190000", "101011.650000", "101012.110000", "101012.570000", "101013.030000", "101013.490000", "101013.950000", "101014.410000", "101014.870000", "101015.330000", "101015.790000", "101016.250000", "101016.710000", "101017.170000", "101017.630000", "101018.090000", "101018.550000", "101019.010000", "101019.470000", "101019.930000", "101020.390000", "101020.850000", "101021.310000", "101021.770000", "101022.230000", "101022.690000", "101023.150000", "101023.610000", "101024.070000", "101024.530000", "101024.990000", "101025.450000", "101025.910000", "101026.370000", "101026.830000", "101027.290000", "101027.750000", "101028.210000", "101028.670000", "101029.130000", "101029.590000", "101030.050000", "101030.510000", "101030.970000", "101031.430000", "101031.890000", "101032.350000", "101032.810000", "101033.270000", "101033.730000", "101034.190000", "101034.650000", "101035.110000", "101035.570000", "101036.030000", "101036.490000", "101036.950000", "101037.410000", "101037.870000", "101038.330000", "101038.790000", "101039.250000", "101039.710000", "101040.170000", "101040.630000", "101041.090000", "101041.550000", "101042.010000", "101042.470000", "101042.930000", "101043.390000", "101043.850000", "101044.310000", "101044.770000", "101045.230000", "101045.690000", "101046.150000", "101046.610000", "101047.070000", "101047.530000", "101047.990000", "101048.450000", "101048.910000", "101049.370000", "101049.830000", "101050.290000", "101050.750000", "101051.210000", "101051.670000", "101052.130000", "101052.590000", "101053.050000", "101053.510000", "101053.970000", "101054.430000", "101054.890000", "101055.350000", "101055.810000", "101056.270000", "101056.730000", "101057.190000", "101057.650000", "101058.110000", "101058.570000", "101059.030000", "101059.490000", "101059.950000", "101100.410000", "101100.870000", "101101.330000", "101101.790000", "101102.250000", "101102.710000", "101103.170000", "101103.630000", "101104.090000", "101104.550000", "101105.010000", "101105.470000", "101105.930000", "101106.390000", "101106.850000", "101107.310000", "101107.770000", "101108.230000", "101108.690000", "101109.150000", "101109.610000", "101110.070000", "101110.530000", "101110.990000", "101111.450000", "101111.910000", "101112.370000", "101112.830000", "101113.290000", "101113.750000", "101114.210000", "101114.670000", "101115.130000", "101115.590000", "101116.050000", "101116.510000", "101116.970000", "101117.430000", "101117.890000", "101118.350000", "101118.810000", "101119.270000", "101119.730000", "101120.190000", "101120.650000", "101121.110000", "101121.570000", "101122.030000", "101122.490000", "101122.950000", "101123.410000", "101123.870000", "101124.330000", "101124.790000", "101125.250000", "101125.710000", "101126.170000", "101126.630000", "101127.090000", "101127.550000", "101128.010000", "101128.470000", "101128.930000", "101129.390000", "101129.850000", "101130.310000", "101130.770000", "101131.230000", "101131.690000", "101132.150000", "101132.610000", "101133.070000", "101133.530000", "101133.990000", "101134.450000", "101134.910000", "101135.370000", "101135.830000", "101136.290000", "101136.750000", "101137.210000", "101137.670000", "101138.130000", "101138.590000", "101139.050000", "101139.510000", "101139.970000", "101140.430000", "101140.890000", "101141.350000", "101141.810000", "101142.270000", "101142.730000", "101143.190000", "101143.650000", "101144.110000", "101144.570000", "101145.030000", "101145.490000", "101145.950000", "101146.410000", "101146.870000", "101147.330000", "101147.790000", "101148.250000", "101148.710000", "101149.170000", "101149.630000", "101150.090000", "101150.550000", "101151.010000", "101151.470000", "101151.930000", "101152.390000", "101152.850000", "101153.310000", "101153.770000", "101154.230000", "101154.690000", "101155.150000", "101155.610000", "101156.070000", "101156.530000", "101156.990000", "101157.450000", "101157.910000", "101158.370000", "101158.830000", "101159.290000", "101159.750000", "101200.210000", "101200.670000", "101201.130000", "101201.590000", "101202.050000", "101202.510000", "101202.970000", "101203.430000", "101203.890000", "101204.350000", "101204.810000", "101205.270000", "101205.730000", "101206.190000", "101206.650000", "101207.110000", "101207.570000", "101208.030000", "101208.490000", "101208.950000", "101209.410000", "101209.870000", "101210.330000", "101210.790000", "101211.250000", "101211.710000", "101212.170000", "101212.630000", "101213.090000", "101213.550000", "101214.010000", "101214.470000", "101214.930000", "101215.390000", "101215.850000", "101216.310000", "101216.770000", "101217.230000", "101217.690000", "101218.150000", "101218.610000", "101219.070000", "101219.530000", "101219.990000", "101220.450000", "101220.910000", "101221.370000", "101221.830000", "101222.290000", "101222.750000", "101223.210000", "101223.670000", "101224.130000", "101224.590000", "101225.050000", "101225.510000", "101225.970000", "101226.430000", "101226.890000", "101227.350000", "101227.810000", "101228.270000", "101228.730000", "101229.190000", "101229.650000", "101230.110000", "101230.570000", "101231.030000", "101231.490000", "101231.950000", "101232.410000", "101232.870000", "101233.330000", "101233.790000", "101234.250000", "101234.710000", "101235.170000", "101235.630000", "101236.090000", "101236.550000", "101237.010000", "101237.470000", "101237.930000", "101238.390000", "101238.850000", "101239.310000", "101239.770000", "101240.230000", "101240.690000", "101241.150000", "101241.610000", "101242.070000", "101242.530000", "101242.990000", "101243.450000", "101243.910000", "101244.370000", "101244.830000", "101245.290000", "101245.750000", "101246.210000", "101246.670000", "101247.130000", "101247.590000", "101248.050000", "101248.510000", "101248.970000", "101249.430000", "101249.890000", "101250.350000", "101250.810000", "101251.270000", "101251.730000", "101252.190000", "101252.650000", "101253.110000", "101253.570000", "101254.030000", "101254.490000", "101254.950000", "101255.410000", "101255.870000", "101256.330000", "101256.790000", "101257.250000", "101257.710000", "101258.170000", "101258.630000", "101259.090000", "101259.550000", "101300.010000", "101300.470000", "101300.930000", "101301.390000", "101301.850000", "101302.310000", "101302.770000", "101303.230000", "101303.690000", "101304.150000", "101304.610000", "101305.070000", "101305.530000", "101305.990000", "101306.450000", "101306.910000", "101307.370000", "101307.830000", "101308.290000", "101308.750000", "101309.210000", "101309.670000", "101310.130000", "101310.590000", "101311.050000", "101311.510000", "101311.970000", "101312.430000", "101312.890000", "101313.350000", "101313.810000", "101314.270000", "101314.730000", "101315.190000", "101315.650000", "101316.110000", "101316.570000", "101317.030000", "101317.490000", "101317.950000", "101318.410000", "101318.870000", "101319.330000", "101319.790000", "101320.250000", "101320.710000", "101321.170000", "101321.630000", "101322.090000", "101322.550000", "101323.010000", "101323.470000", "101323.930000", "101324.390000", "101324.850000", "101325.310000", "101325.770000", "101326.230000", "101326.690000", "101327.150000", "101327.610000", "101328.070000", "101328.530000", "101328.990000", "101329.450000", "101329.910000", "101330.370000", "101330.830000", "101331.290000", "101331.750000", "101332.210000", "101332.670000", "101333.130000", "101333.590000", "101334.050000", "101334.510000", "101334.970000", "101335.430000", "101335.890000", "101336.350000", "101336.810000", "101337.270000", "101337.730000", "101338.190000", "101338.650000", "101339.110000", "101339.570000", "101340.030000", "101340.490000", "101340.950000", "101341.410000", "101341.870000", "101342.330000", "101342.790000", "101343.250000", "101343.710000", "101344.170000", "101344.630000", "101345.090000", "101345.550000", "101346.010000", "101346.470000", "101346.930000", "101347.390000", "101347.850000", "101348.310000", "101348.770000", "101349.230000", "101349.690000", "101350.150000", "101350.610000", "101351.070000", "101351.530000", "101351.990000", "101352.450000", "101352.910000", "101353.370000", "101353.830000", "101354.290000", "101354.750000", "101355.210000", "101355.670000", "101356.130000", "101356.590000", "101357.050000", "101357.510000", "101357.970000", "101358.430000", "101358.890000", "101359.350000", "101359.810000", "101400.270000", "101400.730000", "101401.190000", "101401.650000", "101402.110000", "101402.570000", "101403.030000", "101403.490000", "101403.950000", "101404.410000", "101404.870000", "101405.330000", "101405.790000", "101406.250000", "101406.710000", "101407.170000", "101407.630000", "101408.090000", "101408.550000", "101409.010000", "101409.470000", "101409.930000", "101410.390000", "101410.850000", "101411.310000", "101411.770000", "101412.230000", "101412.690000", "101413.150000", "101413.610000", "101414.070000", "101414.530000", "101414.990000", "101415.450000", "101415.910000", "101416.370000", "101416.830000", "101417.290000", "101417.750000", "101418.210000", "101418.670000", "101419.130000", "101419.590000", "101420.050000", "101420.510000", "101420.970000", "101421.430000", "101421.890000", "101422.350000", "101422.810000", "101423.270000", "101423.730000", "101424.190000", "101424.650000", "101425.110000", "101425.570000", "101426.030000", "101426.490000", "101426.950000", "101427.410000", "101427.870000", "101428.330000", "101428.790000", "101429.250000", "101429.710000", "101430.170000", "101430.630000", "101431.090000", "101431.550000", "101432.010000", "101432.470000", "101432.930000", "101433.390000", "101433.850000", "101434.310000", "101434.770000", "101435.230000", "101435.690000", "101436.150000", "101436.610000", "101437.070000", "101437.530000", "101437.990000", "101438.450000", "101438.910000", "101439.370000", "101439.830000", "101440.290000", "101440.750000", "101441.210000", "101441.670000", "101442.130000", "101442.590000", "101443.050000", "101443.510000", "101443.970000", "101444.430000", "101444.890000", "101445.350000", "101445.810000", "101446.270000", "101446.730000", "101447.190000", "101447.650000", "101448.110000", "101448.570000", "101449.030000", "101449.490000", "101449.950000", "101450.410000", "101450.870000", "101451.330000", "101451.790000", "101452.250000", "101452.710000", "101453.170000", "101453.630000", "101454.090000", "101454.550000", "101455.010000", "101455.470000", "101455.930000", "101456.390000", "101456.850000", "101457.310000", "101457.770000", "101458.230000", "101458.690000", "101459.150000", "101459.610000", "101500.070000", "101500.530000", "101500.990000", "101501.450000", "101501.910000", "101502.370000", "101502.830000", "101503.290000", "101503.750000", "101504.210000", "101504.670000", "101505.130000", "101505.590000", "101506.050000", "101506.510000", "101506.970000", "101507.430000", "101507.890000", "101508.350000", "101508.810000", "101509.270000", "101509.730000", "101510.190000", "101510.650000", "101511.110000", "101511.570000", "101512.030000", "101512.490000", "101512.950000", "101513.410000", "101513.870000", "101514.330000", "101514.790000", "101515.250000", "101515.710000", "101516.170000", "101516.630000", "101517.090000"],
