{
  "AcquisitionMatrixPE": 82,
  "AcquisitionNumber": 1,
  "AcquisitionTime": "19:39:32.522500",
  "BandwidthPerPixelPhaseEncode": 24.888,
  "BaseResolution": 82,
  "BodyPartExamined": "BRAIN",
  "ConsistencyInfo": "N4_VE11E_LATEST_20181129",
  "ConversionSoftware": "dcm2niix",
  "ConversionSoftwareVersion": "v1.0.20201102",
  "DerivedVendorReportedEchoSpacing": 0.00049,
  "DeviceSerialNumber": "66112",
  "DwellTime": 2e-06,
  "EchoTime": 0.0272,
  "EchoTrainLength": 82,
  "EffectiveEchoSpacing": 0.00049,
  "FlipAngle": 44,
  "ImageComments": "Unaliased MB8/PE3",
  "ImageOrientationPatientDICOM": [0.998207, 0.00850271, -0.0592568, 0.00296173, 0.981635, 0.190746],
  "ImageType": [
    "ORIGINAL",
    "PRIMARY",
    "M",
    "MB",
    "ND",
    "NORM",
    "MOSAIC"
],
  "ImagingFrequency": 123.252,
  "InPlanePhaseEncodingDirectionDICOM": "COL",
  "InstitutionAddress": "Maynard 3,Hanover,NH,US,03755",
  "InstitutionName": "Dartmouth College - PBS",
  "InstitutionalDepartmentName": "Department",
  "MRAcquisitionType": "2D",
  "MagneticFieldStrength": 3,
  "Manufacturer": "Siemens",
  "ManufacturersModelName": "Prisma",
  "Modality": "MR",
  "MultibandAccelerationFactor": 8,
  "PartialFourier": 1,
  "PatientPosition": "HFS",
  "PercentPhaseFOV": 100,
  "PercentSampling": 100,
  "PhaseEncodingDirection": "j-",
  "PhaseEncodingSteps": 82,
  "PhaseResolution": 1,
  "PixelBandwidth": 3050,
  "ProcedureStepDescription": "Wager_Wager^1076_spacetop",
  "ProtocolName": "func_run-05_task-social_acq-ap-mb8",
  "PulseSequenceDetails": "%CustomerSeq%\\cmrr_mbep2d_bold",
  "ReceiveCoilActiveElements": "HEA;HEP",
  "ReceiveCoilName": "Head_32",
  "ReconMatrixPE": 82,
  "RepetitionTime": 0.46,
  "SAR": 0.0955314,
  "ScanOptions": "FS",
  "ScanningSequence": "EP",
  "SequenceName": "epfid2d1_82",
  "SequenceVariant": "SK\\SS",
  "SeriesDescription": "func_run-05_task-social_acq-ap-mb8",
  "SeriesNumber": 20,
  "ShimSetting": [4137, -7780, -7279, 622, -95, -313, 77, 102],
  "SliceThickness": 2.7,
  "SliceTiming": [0, 0.2525, 0.0625, 0.315, 0.125, 0.3775, 0.1875, 0, 0.2525, 0.0625, 0.315, 0.125, 0.3775, 0.1875, 0, 0.2525, 0.0625, 0.315, 0.125, 0.3775, 0.1875, 0, 0.2525, 0.0625, 0.315, 0.125, 0.3775, 0.1875, 0, 0.2525, 0.0625, 0.315, 0.125, 0.3775, 0.1875, 0, 0.2525, 0.0625, 0.315, 0.125, 0.3775, 0.1875, 0, 0.2525, 0.0625, 0.315, 0.125, 0.3775, 0.1875, 0, 0.2525, 0.0625, 0.315, 0.125, 0.3775, 0.1875],
  "SoftwareVersions": "syngo MR E11",
  "SpacingBetweenSlices": 2.7,
  "StationName": "AWP66112",
  "TaskName": "social",
  "TotalReadoutTime": 0.03969,
  "TxRefAmp": 236.026,
  "WipMemBlock": "fdfff323-bb90-4715-862f-a1ba93a1d154||Sequence: R016 ve11e/master r/434b28f1; Aug  7 2019 18:53:46 by eja",
  "dcmmeta_affine": [
    [-2.678115129470825, 0.007946106605231762, -0.16143402457237244, 113.49669647216797],
    [-0.022812161594629288, 2.633654832839966, 0.5145638585090637, -95.60697937011719],
    [-0.158981591463089, -0.5117570757865906, 2.6455931663513184, -36.00532531738281],
    [0.0, 0.0, 0.0, 1.0]
],
  "dcmmeta_reorient_transform": [
    [0.0, -1.0, 0.0, 81.0],
    [1.0, 0.0, 0.0, 0.0],
    [0.0, 0.0, 1.0, 0.0],
    [0.0, 0.0, 0.0, 1.0]
],
  "dcmmeta_shape": [82, 82, 56, 872],
  "dcmmeta_slice_dim": 2,
  "dcmmeta_version": 0.6,
  "global": {
    "const": {
      "AccessionNumber": "A004034",
      "AcquisitionMatrix": [82, 0, 0, 82],
      "AngioFlag": "N",
      "BitsAllocated": 16,
      "BitsStored": 16,
      "BodyPartExamined": "BRAIN",
      "Columns": 656,
      "EchoNumbers": 1,
      "EchoTime": 27.2,
      "EchoTrainLength": 82,
      "FlipAngle": 44.0,
      "HighBit": 15,
      "ImageOrientationPatient": [0.99820656105384, 0.00850271472226, -0.0592567743926, 0.00296173057122, 0.98163499604571, 0.19074580648175],
      "ImagePositionPatient": [-885.03993604436, -880.12512794926, -178.70420551989],
      "ImageType": [
        "ORIGINAL",
        "PRIMARY",
        "M",
        "MB",
        "ND",
        "NORM",
        "MOSAIC"
],
      "ImagedNucleus": "1H",
      "ImagingFrequency": 123.252346,
      "InPlanePhaseEncodingDirection": "COL",
      "MRAcquisitionType": "2D",
      "MagneticFieldStrength": 3.0,
      "Manufacturer": "SIEMENS",
      "ManufacturerModelName": "Prisma",
      "Modality": "MR",
      "NumberOfAverages": 1.0,
      "NumberOfPhaseEncodingSteps": 82,
      "PercentPhaseFieldOfView": 100.0,
      "PercentSampling": 100.0,
      "PerformedProcedureStepStartTime": "182438.845000",
      "PhotometricInterpretation": "MONOCHROME2",
      "PixelBandwidth": 3050.0,
      "PixelRepresentation": 0,
      "PixelSpacing": [2.6829268932343, 2.6829268932343],
      "ProtocolName": "func_run-05_task-social_acq-ap-mb8",
      "RepetitionTime": 460.0,
      "Rows": 656,
      "SAR": 0.09553138270523,
      "SamplesPerPixel": 1,
      "ScanOptions": "FS",
      "ScanningSequence": "EP",
      "SequenceName": "epfid2d1_82",
      "SequenceVariant": [
        "SK",
        "SS"
],
      "SeriesDescription": "func_run-05_task-social_acq-ap-mb8",
      "SeriesNumber": 20,
      "SeriesTime": "193951.655000",
      "SliceLocation": -60.286508578607,
      "SliceThickness": 2.7000000476837,
      "SmallestImagePixelValue": 0,
      "SoftwareVersions": "syngo MR E11",
      "SpacingBetweenSlices": 2.6999999123128,
      "SpecificCharacterSet": "ISO_IR 100",
      "StudyID": "1",
      "StudyTime": "182438.701000",
      "TransmitCoilName": "Body",
      "VariableFlipAngleFlag": "N",
      "WindowCenterWidthExplanation": "Algo1"
    },
    "slices": {}
  },
  "time": {
    "samples": {
      "AcquisitionNumber": [1, 2, 3, 4, 5, 6, 7, 8, 9, 10, 11, 12, 13, 14, 15, 16, 17, 18, 19, 20, 21, 22, 23, 24, 25, 26, 27, 28, 29, 30, 31, 32, 33, 34, 35, 36, 37, 38, 39, 40, 41, 42, 43, 44, 45, 46, 47, 48, 49, 50, 51, 52, 53, 54, 55, 56, 57, 58, 59, 60, 61, 62, 63, 64, 65, 66, 67, 68, 69, 70, 71, 72, 73, 74, 75, 76, 77, 78, 79, 80, 81, 82, 83, 84, 85, 86, 87, 88, 89, 90, 91, 92, 93, 94, 95, 96, 97, 98, 99, 100, 101, 102, 103, 104, 105, 106, 107, 108, 109, 110, 111, 112, 113, 114, 115, 116, 117, 118, 119, 120, 121, 122, 123, 124, 125, 126, 127, 128, 129, 130, 131, 132, 133, 134, 135, 136, 137, 138, 139, 140, 141, 142, 143, 144, 145, 146, 147, 148, 149, 150, 151, 152, 153, 154, 155, 156, 157, 158, 159, 160, 161, 162, 163, 164, 165, 166, 167, 168, 169, 170, 171, 172, 173, 174, 175, 176, 177, 178, 179, 180, 181, 182, 183, 184, 185, 186, 187, 188, 189, 190, 191, 192, 193, 194, 195, 196, 197, 198, 199, 200, 201, 202, 203, 204, 205, 206, 207, 208, 209, 210, 211, 212, 213, 214, 215, 216, 217, 218, 219, 220, 221, 222, 223, 224, 225, 226, 227, 228, 229, 230, 231, 232, 233, 234, 235, 236, 237, 238, 239, 240, 241, 242, 243, 244, 245, 246, 247, 248, 249, 250, 251, 252, 253, 254, 255, 256, 257, 258, 259, 260, 261, 262, 263, 264, 265, 266, 267, 268, 269, 270, 271, 272, 273, 274, 275, 276, 277, 278, 279, 280, 281, 282, 283, 284, 285, 286, 287, 288, 289, 290, 291, 292, 293, 294, 295, 296, 297, 298, 299, 300, 301, 302, 303, 304, 305, 306, 307, 308, 309, 310, 311, 312, 313, 314, 315, 316, 317, 318, 319, 320, 321, 322, 323, 324, 325, 326, 327, 328, 329, 330, 331, 332, 333, 334, 335, 336, 337, 338, 339, 340, 341, 342, 343, 344, 345, 346, 347, 348, 349, 350, 351, 352, 353, 354, 355, 356, 357, 358, 359, 360, 361, 362, 363, 364, 365, 366, 367, 368, 369, 370, 371, 372, 373, 374, 375, 376, 377, 378, 379, 380, 381, 382, 383, 384, 385, 386, 387, 388, 389, 390, 391, 392, 393, 394, 395, 396, 397, 398, 399, 400, 401, 402, 403, 404, 405, 406, 407, 408, 409, 410, 411, 412, 413, 414, 415, 416, 417, 418, 419, 420, 421, 422, 423, 424, 425, 426, 427, 428, 429, 430, 431, 432, 433, 434, 435, 436, 437, 438, 439, 440, 441, 442, 443, 444, 445, 446, 447, 448, 449, 450, 451, 452, 453, 454, 455, 456, 457, 458, 459, 460, 461, 462, 463, 464, 465, 466, 467, 468, 469, 470, 471, 472, 473, 474, 475, 476, 477, 478, 479, 480, 481, 482, 483, 484, 485, 486, 487, 488, 489, 490, 491, 492, 493, 494, 495, 496, 497, 498, 499, 500, 501, 502, 503, 504, 505, 506, 507, 508, 509, 510, 511, 512, 513, 514, 515, 516, 517, 518, 519, 520, 521, 522, 523, 524, 525, 526, 527, 528, 529, 530, 531, 532, 533, 534, 535, 536, 537, 538, 539, 540, 541, 542, 543, 544, 545, 546, 547, 548, 549, 550, 551, 552, 553, 554, 555, 556, 557, 558, 559, 560, 561, 562, 563, 564, 565, 566, 567, 568, 569, 570, 571, 572, 573, 574, 575, 576, 577, 578, 579, 580, 581, 582, 583, 584, 585, 586, 587, 588, 589, 590, 591, 592, 593, 594, 595, 596, 597, 598, 599, 600, 601, 602, 603, 604, 605, 606, 607, 608, 609, 610, 611, 612, 613, 614, 615, 616, 617, 618, 619, 620, 621, 622, 623, 624, 625, 626, 627, 628, 629, 630, 631, 632, 633, 634, 635, 636, 637, 638, 639, 640, 641, 642, 643, 644, 645, 646, 647, 648, 649, 650, 651, 652, 653, 654, 655, 656, 657, 658, 659, 660, 661, 662, 663, 664, 665, 666, 667, 668, 669, 670, 671, 672, 673, 674, 675, 676, 677, 678, 679, 680, 681, 682, 683, 684, 685, 686, 687, 688, 689, 690, 691, 692, 693, 694, 695, 696, 697, 698, 699, 700, 701, 702, 703, 704, 705, 706, 707, 708, 709, 710, 711, 712, 713, 714, 715, 716, 717, 718, 719, 720, 721, 722, 723, 724, 725, 726, 727, 728, 729, 730, 731, 732, 733, 734, 735, 736, 737, 738, 739, 740, 741, 742, 743, 744, 745, 746, 747, 748, 749, 750, 751, 752, 753, 754, 755, 756, 757, 758, 759, 760, 761, 762, 763, 764, 765, 766, 767, 768, 769, 770, 771, 772, 773, 774, 775, 776, 777, 778, 779, 780, 781, 782, 783, 784, 785, 786, 787, 788, 789, 790, 791, 792, 793, 794, 795, 796, 797, 798, 799, 800, 801, 802, 803, 804, 805, 806, 807, 808, 809, 810, 811, 812, 813, 814, 815, 816, 817, 818, 819, 820, 821, 822, 823, 824, 825, 826, 827, 828, 829, 830, 831, 832, 833, 834, 835, 836, 837, 838, 839, 840, 841, 842, 843, 844, 845, 846, 847, 848, 849, 850, 851, 852, 853, 854, 855, 856, 857, 858, 859, 860, 861, 862, 863, 864, 865, 866, 867, 868, 869, 870, 871, 872],
      "AcquisitionTime": ["193932.522500", "193932.982500", "193933.442500", "193933.902500", "193934.362500", "193934.822500", "193935.282500", "193935.742500", "193936.202500", "193936.662500", "193937.122500", "193937.582500", "193938.042500", "193938.502500", "193938.962500", "193939.422500", "193939.882500", "193940.342500", "193940.802500", "193941.262500", "193941.722500", "193942.182500", "193942.642500", "193943.102500", "193943.562500", "193944.022500", "193944.482500", "193944.942500", "193945.402500", "193945.862500", "193946.322500", "193946.782500", "193947.242500", "193947.702500", "193948.162500", "193948.622500", "193949.082500", "193949.542500", "193950.002500", "193950.462500", "193950.922500", "193951.382500", "193951.842500", "193952.302500", "193952.762500", "193953.222500", "193953.682500", "193954.142500", "193954.602500", "193955.062500", "193955.522500", "193955.982500", "193956.442500", "193956.902500", "193957.362500", "193957.822500", "193958.282500", "193958.742500", "193959.202500", "193959.662500", "194000.122500", "194000.582500", "194001.042500", "194001.502500", "194001.962500", "194002.422500", "194002.882500", "194003.342500", "194003.802500", "194004.262500", "194004.722500", "194005.182500", "194005.642500", "194006.102500", "194006.562500", "194007.022500", "194007.482500", "194007.942500", "194008.402500", "194008.862500", "194009.322500", "194009.782500", "194010.242500", "194010.702500", "194011.162500", "194011.622500", "194012.082500", "194012.542500", "194013.002500", "194013.462500", "194013.922500", "194014.382500", "194014.842500", "194015.302500", "194015.762500", "194016.222500", "194016.682500", "194017.142500", "194017.602500", "194018.062500", "194018.522500", "194018.982500", "194019.442500", "194019.902500", "194020.362500", "194020.822500", "194021.282500", "194021.742500", "194022.202500", "194022.662500", "194023.122500", "194023.582500", "194024.042500", "194024.502500", "194024.962500", "194025.422500", "194025.882500", "194026.342500", "194026.802500", "194027.262500", "194027.722500", "194028.182500", "194028.642500", "194029.102500", "194029.562500", "194030.022500", "194030.482500", "194030.942500", "194031.402500", "194031.862500", "194032.322500", "194032.782500", "194033.242500", "194033.702500", "194034.162500", "194034.622500", "194035.082500", "194035.542500", "194036.002500", "194036.462500", "194036.922500", "194037.382500", "194037.842500", "194038.302500", "194038.762500", "194039.222500", "194039.682500", "194040.142500", "194040.602500", "194041.062500", "194041.522500", "194041.982500", "194042.442500", "194042.902500", "194043.362500", "194043.822500", "194044.282500", "194044.742500", "194045.202500", "194045.662500", "194046.122500", "194046.582500", "194047.042500", "194047.502500", "194047.962500", "194048.422500", "194048.882500", "194049.342500", "194049.802500", "194050.262500", "194050.722500", "194051.182500", "194051.642500", "194052.102500", "194052.562500", "194053.022500", "194053.482500", "194053.942500", "194054.402500", "194054.862500", "194055.322500", "194055.782500", "194056.242500", "194056.702500", "194057.162500", "194057.622500", "194058.082500", "194058.542500", "194059.002500", "194059.462500", "194059.922500", "194100.382500", "194100.842500", "194101.302500", "194101.762500", "194102.222500", "194102.682500", "194103.142500", "194103.602500", "194104.062500", "194104.522500", "194104.982500", "194105.442500", "194105.902500", "194106.362500", "194106.822500", "194107.282500", "194107.742500", "194108.202500", "194108.662500", "194109.122500", "194109.582500", "194110.042500", "194110.502500", "194110.962500", "194111.422500", "194111.882500", "194112.342500", "194112.802500", "194113.262500", "194113.722500", "194114.182500", "194114.642500", "194115.102500", "194115.562500", "194116.022500", "194116.482500", "194116.942500", "194117.402500", "194117.862500", "194118.322500", "194118.782500", "194119.242500", "194119.702500", "194120.162500", "194120.622500", "194121.082500", "194121.542500", "194122.002500", "194122.462500", "194122.922500", "194123.382500", "194123.842500", "194124.302500", "194124.762500", "194125.222500", "194125.682500", "194126.142500", "194126.602500", "194127.062500", "194127.522500", "194127.982500", "194128.442500", "194128.902500", "194129.362500", "194129.822500", "194130.282500", "194130.742500", "194131.202500", "194131.662500", "194132.122500", "194132.582500", "194133.042500", "194133.502500", "194133.962500", "194134.422500", "194134.882500", "194135.342500", "194135.802500", "194136.262500", "194136.722500", "194137.182500", "194137.642500", "194138.102500", "194138.562500", "194139.022500", "194139.482500", "194139.942500", "194140.402500", "194140.862500", "194141.322500", "194141.782500", "194142.242500", "194142.702500", "194143.162500", "194143.622500", "194144.082500", "194144.542500", "194145.002500", "194145.462500", "194145.922500", "194146.382500", "194146.842500", "194147.302500", "194147.762500", "194148.222500", "194148.682500", "194149.142500", "194149.602500", "194150.062500", "194150.522500", "194150.982500", "194151.442500", "194151.902500", "194152.362500", "194152.822500", "194153.282500", "194153.742500", "194154.202500", "194154.662500", "194155.122500", "194155.582500", "194156.042500", "194156.502500", "194156.962500", "194157.422500", "194157.882500", "194158.342500", "194158.802500", "194159.262500", "194159.722500", "194200.182500", "194200.642500", "194201.102500", "194201.562500", "194202.022500", "194202.482500", "194202.942500", "194203.402500", "194203.862500", "194204.322500", "194204.782500", "194205.242500", "194205.702500", "194206.162500", "194206.622500", "194207.082500", "194207.542500", "194208.002500", "194208.462500", "194208.922500", "194209.382500", "194209.842500", "194210.302500", "194210.762500", "194211.222500", "194211.682500", "194212.142500", "194212.602500", "194213.062500", "194213.522500", "194213.982500", "194214.442500", "194214.902500", "194215.362500", "194215.822500", "194216.282500", "194216.742500", "194217.202500", "194217.662500", "194218.122500", "194218.582500", "194219.042500", "194219.502500", "194219.962500", "194220.422500", "194220.882500", "194221.342500", "194221.802500", "194222.262500", "194222.722500", "194223.182500", "194223.642500", "194224.102500", "194224.562500", "194225.022500", "194225.482500", "194225.942500", "194226.402500", "194226.862500", "194227.322500", "194227.782500", "194228.242500", "194228.702500", "194229.162500", "194229.622500", "194230.082500", "194230.542500", "194231.002500", "194231.462500", "194231.922500", "194232.382500", "194232.842500", "194233.302500", "194233.762500", "194234.222500", "194234.682500", "194235.142500", "194235.602500", "194236.062500", "194236.522500", "194236.982500", "194237.442500", "194237.902500", "194238.362500", "194238.822500", "194239.282500", "194239.742500", "194240.202500", "194240.662500", "194241.122500", "194241.582500", "194242.042500", "194242.502500", "194242.962500", "194243.422500", "194243.882500", "194244.342500", "194244.802500", "194245.262500", "194245.722500", "194246.182500", "194246.642500", "194247.102500", "194247.562500", "194248.022500", "194248.482500", "194248.942500", "194249.402500", "194249.862500", "194250.322500", "194250.782500", "194251.242500", "194251.702500", "194252.162500", "194252.622500", "194253.082500", "194253.542500", "194254.002500", "194254.462500", "194254.922500", "194255.382500", "194255.842500", "194256.302500", "194256.762500", "194257.222500", "194257.682500", "194258.142500", "194258.602500", "194259.062500", "194259.522500", "194259.982500", "194300.442500", "194300.902500", "194301.362500", "194301.822500", "194302.282500", "194302.742500", "194303.202500", "194303.662500", "194304.122500", "194304.582500", "194305.042500", "194305.502500", "194305.962500", "194306.422500", "194306.882500", "194307.342500", "194307.802500", "194308.262500", "194308.722500", "194309.182500", "194309.642500", "194310.102500", "194310.562500", "194311.022500", "194311.482500", "194311.942500", "194312.402500", "194312.862500", "194313.322500", "194313.782500", "194314.242500", "194314.702500", "194315.162500", "194315.622500", "194316.082500", "194316.542500", "194317.002500", "194317.462500", "194317.922500", "194318.382500", "194318.842500", "194319.302500", "194319.762500", "194320.222500", "194320.682500", "194321.142500", "194321.602500", "194322.062500", "194322.522500", "194322.982500", "194323.442500", "194323.902500", "194324.362500", "194324.822500", "194325.282500", "194325.742500", "194326.202500", "194326.662500", "194327.122500", "194327.582500", "194328.042500", "194328.502500", "194328.962500", "194329.422500", "194329.882500", "194330.342500", "194330.802500", "194331.262500", "194331.722500", "194332.182500", "194332.642500", "194333.102500", "194333.562500", "194334.022500", "194334.482500", "194334.942500", "194335.402500", "194335.862500", "194336.322500", "194336.782500", "194337.242500", "194337.702500", "194338.162500", "194338.622500", "194339.082500", "194339.542500", "194340.002500", "194340.462500", "194340.922500", "194341.382500", "194341.842500", "194342.302500", "194342.762500", "194343.222500", "194343.682500", "194344.142500", "194344.602500", "194345.062500", "194345.522500", "194345.982500", "194346.442500", "194346.902500", "194347.362500", "194347.822500", "194348.282500", "194348.742500", "194349.202500", "194349.662500", "194350.122500", "194350.582500", "194351.042500", "194351.502500", "194351.962500", "194352.422500", "194352.882500", "194353.342500", "194353.802500", "194354.262500", "194354.722500", "194355.182500", "194355.642500", "194356.102500", "194356.562500", "194357.022500", "194357.482500", "194357.942500", "194358.402500", "194358.862500", "194359.322500", "194359.782500", "194400.242500", "194400.702500", "194401.162500", "194401.622500", "194402.082500", "194402.542500", "194403.002500", "194403.462500", "194403.922500", "194404.382500", "194404.842500", "194405.302500", "194405.762500", "194406.222500", "194406.682500", "194407.142500", "194407.602500", "194408.062500", "194408.522500", "194408.982500", "194409.442500", "194409.902500", "194410.362500", "194410.822500", "194411.282500", "194411.742500", "194412.202500", "194412.662500", "194413.122500", "194413.582500", "194414.042500", "194414.502500", "194414.962500", "194415.422500", "194415.882500", "194416.342500", "194416.802500", "194417.262500", "194417.722500", "194418.182500", "194418.642500", "194419.102500", "194419.562500", "194420.022500", "194420.482500", "194420.942500", "194421.402500", "194421.862500", "194422.322500", "194422.782500", "194423.242500", "194423.702500", "194424.162500", "194424.622500", "194425.082500", "194425.542500", "194426.002500", "194426.462500", "194426.922500", "194427.382500", "194427.842500", "194428.302500", "194428.762500", "194429.222500", "194429.682500", "194430.142500", "194430.602500", "194431.062500", "194431.522500", "194431.982500", "194432.442500", "194432.902500", "194433.362500", "194433.822500", "194434.282500", "194434.742500", "194435.202500", "194435.662500", "194436.122500", "194436.582500", "194437.042500", "194437.502500", "194437.962500", "194438.422500", "194438.882500", "194439.342500", "194439.802500", "194440.262500", "194440.722500", "194441.182500", "194441.642500", "194442.102500", "194442.562500", "194443.022500", "194443.482500", "194443.942500", "194444.402500", "194444.862500", "194445.322500", "194445.782500", "194446.242500", "194446.702500", "194447.162500", "194447.622500", "194448.082500", "194448.542500", "194449.002500", "194449.462500", "194449.922500", "194450.382500", "194450.842500", "194451.302500", "194451.762500", "194452.222500", "194452.682500", "194453.142500", "194453.602500", "194454.062500", "194454.522500", "194454.982500", "194455.442500", "194455.902500", "194456.362500", "194456.822500", "194457.282500", "194457.742500", "194458.202500", "194458.662500", "194459.122500", "194459.582500", "194500.042500", "194500.502500", "194500.962500", "194501.422500", "194501.882500", "194502.342500", "194502.802500", "194503.262500", "194503.722500", "194504.182500", "194504.642500", "194505.102500", "194505.562500", "194506.022500", "194506.482500", "194506.942500", "194507.402500", "194507.862500", "194508.322500", "194508.782500", "194509.242500", "194509.702500", "194510.162500", "194510.622500", "194511.082500", "194511.542500", "194512.002500", "194512.462500", "194512.922500", "194513.382500", "194513.842500", "194514.302500", "194514.762500", "194515.222500", "194515.682500", "194516.142500", "194516.602500", "194517.062500", "194517.522500", "194517.982500", "194518.442500", "194518.902500", "194519.362500", "194519.822500", "194520.282500", "194520.742500", "194521.202500", "194521.662500", "194522.122500", "194522.582500", "194523.042500", "194523.502500", "194523.962500", "194524.422500", "194524.882500", "194525.342500", "194525.802500", "194526.262500", "194526.722500", "194527.182500", "194527.642500", "194528.102500", "194528.562500", "194529.022500", "194529.482500", "194529.942500", "194530.402500", "194530.862500", "194531.322500", "194531.782500", "194532.242500", "194532.702500", "194533.162500", "194533.622500", "194534.082500", "194534.542500", "194535.002500", "194535.462500", "194535.922500", "194536.382500", "194536.842500", "194537.302500", "194537.762500", "194538.222500", "194538.682500", "194539.142500", "194539.602500", "194540.062500", "194540.522500", "194540.982500", "194541.442500", "194541.902500", "194542.362500", "194542.822500", "194543.282500", "194543.742500", "194544.202500", "194544.662500", "194545.122500", "194545.582500", "194546.042500", "194546.502500", "194546.962500", "194547.422500", "194547.882500", "194548.342500", "194548.802500", "194549.262500", "194549.722500", "194550.182500", "194550.642500", "194551.102500", "194551.562500", "194552.022500", "194552.482500", "194552.942500", "194553.402500", "194553.862500", "194554.322500", "194554.782500", "194555.242500", "194555.702500", "194556.162500", "194556.622500", "194557.082500", "194557.542500", "194558.002500", "194558.462500", "194558.922500", "194559.382500", "194559.842500", "194600.302500", "194600.762500", "194601.222500", "194601.682500", "194602.142500", "194602.602500", "194603.062500", "194603.522500", "194603.982500", "194604.442500", "194604.902500", "194605.362500", "194605.822500", "194606.282500", "194606.742500", "194607.202500", "194607.662500", "194608.122500", "194608.582500", "194609.042500", "194609.502500", "194609.962500", "194610.422500", "194610.882500", "194611.342500", "194611.802500", "194612.262500", "194612.722500", "194613.182500"],
