{
  "AcquisitionMatrixPE": 82,
  "AcquisitionNumber": 1,
  "AcquisitionTime": "19:48:14.230000",
  "BandwidthPerPixelPhaseEncode": 24.888,
  "BaseResolution": 82,
  "BodyPartExamined": "BRAIN",
  "ConsistencyInfo": "N4_VE11E_LATEST_20181129",
  "ConversionSoftware": "dcm2niix",
  "ConversionSoftwareVersion": "v1.0.20201102",
  "DerivedVendorReportedEchoSpacing": 0.00049,
  "DeviceSerialNumber": "66112",
  "DwellTime": 2e-06,
  "EchoTime": 0.0272,
  "EchoTrainLength": 82,
  "EffectiveEchoSpacing": 0.00049,
  "FlipAngle": 44,
  "ImageComments": "Unaliased MB8/PE3",
  "ImageOrientationPatientDICOM": [0.998207, 0.00850271, -0.0592568, 0.00296173, 0.981635, 0.190746],
  "ImageType": [
    "ORIGINAL",
    "PRIMARY",
    "M",
    "MB",
    "ND",
    "NORM",
    "MOSAIC"
],
  "ImagingFrequency": 123.252,
  "InPlanePhaseEncodingDirectionDICOM": "COL",
  "InstitutionAddress": "Maynard 3,Hanover,NH,US,03755",
  "InstitutionName": "Dartmouth College - PBS",
  "InstitutionalDepartmentName": "Department",
  "MRAcquisitionType": "2D",
  "MagneticFieldStrength": 3,
  "Manufacturer": "Siemens",
  "ManufacturersModelName": "Prisma",
  "Modality": "MR",
  "MultibandAccelerationFactor": 8,
  "PartialFourier": 1,
  "PatientPosition": "HFS",
  "PercentPhaseFOV": 100,
  "PercentSampling": 100,
  "PhaseEncodingDirection": "j-",
  "PhaseEncodingSteps": 82,
  "PhaseResolution": 1,
  "PixelBandwidth": 3050,
  "ProcedureStepDescription": "Wager_Wager^1076_spacetop",
  "ProtocolName": "func_run-06_task-social_acq-ap-mb8",
  "PulseSequenceDetails": "%CustomerSeq%\\cmrr_mbep2d_bold",
  "ReceiveCoilActiveElements": "HEA;HEP",
  "ReceiveCoilName": "Head_32",
  "ReconMatrixPE": 82,
  "RepetitionTime": 0.46,
  "SAR": 0.0955314,
  "ScanOptions": "FS",
  "ScanningSequence": "EP",
  "SequenceName": "epfid2d1_82",
  "SequenceVariant": "SK\\SS",
  "SeriesDescription": "func_run-06_task-social_acq-ap-mb8",
  "SeriesNumber": 22,
  "ShimSetting": [4137, -7780, -7279, 622, -95, -313, 77, 102],
  "SliceThickness": 2.7,
  "SliceTiming": [0, 0.2525, 0.065, 0.315, 0.1275, 0.3775, 0.19, 0, 0.2525, 0.065, 0.315, 0.1275, 0.3775, 0.19, 0, 0.2525, 0.065, 0.315, 0.1275, 0.3775, 0.19, 0, 0.2525, 0.065, 0.315, 0.1275, 0.3775, 0.19, 0, 0.2525, 0.065, 0.315, 0.1275, 0.3775, 0.19, 0, 0.2525, 0.065, 0.315, 0.1275, 0.3775, 0.19, 0, 0.2525, 0.065, 0.315, 0.1275, 0.3775, 0.19, 0, 0.2525, 0.065, 0.315, 0.1275, 0.3775, 0.19],
  "SoftwareVersions": "syngo MR E11",
  "SpacingBetweenSlices": 2.7,
  "StationName": "AWP66112",
  "TaskName": "social",
  "TotalReadoutTime": 0.03969,
  "TxRefAmp": 236.026,
  "WipMemBlock": "59438781-d7af-490a-bede-f0d06556da34||Sequence: R016 ve11e/master r/434b28f1; Aug  7 2019 18:53:46 by eja",
  "dcmmeta_affine": [
    [-2.678115129470825, 0.007946106605231762, -0.16143402457237244, 113.49669647216797],
    [-0.022812161594629288, 2.633654832839966, 0.5145638585090637, -95.60697937011719],
    [-0.158981591463089, -0.5117570757865906, 2.6455931663513184, -36.00532531738281],
    [0.0, 0.0, 0.0, 1.0]
],
  "dcmmeta_reorient_transform": [
    [0.0, -1.0, 0.0, 81.0],
    [1.0, 0.0, 0.0, 0.0],
    [0.0, 0.0, 1.0, 0.0],
    [0.0, 0.0, 0.0, 1.0]
],
  "dcmmeta_shape": [82, 82, 56, 872],
  "dcmmeta_slice_dim": 2,
  "dcmmeta_version": 0.6,
  "global": {
    "const": {
      "AccessionNumber": "A004034",
      "AcquisitionMatrix": [82, 0, 0, 82],
      "AngioFlag": "N",
      "BitsAllocated": 16,
      "BitsStored": 16,
      "BodyPartExamined": "BRAIN",
      "Columns": 656,
      "EchoNumbers": 1,
      "EchoTime": 27.2,
      "EchoTrainLength": 82,
      "FlipAngle": 44.0,
      "HighBit": 15,
      "ImageOrientationPatient": [0.99820656105384, 0.00850271472226, -0.0592567743926, 0.00296173057122, 0.98163499604571, 0.19074580648175],
      "ImagePositionPatient": [-885.03993604436, -880.12512794926, -178.70420551989],
      "ImageType": [
        "ORIGINAL",
        "PRIMARY",
        "M",
        "MB",
        "ND",
        "NORM",
        "MOSAIC"
],
      "ImagedNucleus": "1H",
      "ImagingFrequency": 123.252348,
      "InPlanePhaseEncodingDirection": "COL",
      "MRAcquisitionType": "2D",
      "MagneticFieldStrength": 3.0,
      "Manufacturer": "SIEMENS",
      "ManufacturerModelName": "Prisma",
      "Modality": "MR",
      "NumberOfAverages": 1.0,
      "NumberOfPhaseEncodingSteps": 82,
      "PercentPhaseFieldOfView": 100.0,
      "PercentSampling": 100.0,
      "PerformedProcedureStepStartTime": "182438.845000",
      "PhotometricInterpretation": "MONOCHROME2",
      "PixelBandwidth": 3050.0,
      "PixelRepresentation": 0,
      "PixelSpacing": [2.6829268932343, 2.6829268932343],
      "ProtocolName": "func_run-06_task-social_acq-ap-mb8",
      "RepetitionTime": 460.0,
      "Rows": 656,
      "SAR": 0.09553138270523,
      "SamplesPerPixel": 1,
      "ScanOptions": "FS",
      "ScanningSequence": "EP",
      "SequenceName": "epfid2d1_82",
      "SequenceVariant": [
        "SK",
        "SS"
],
      "SeriesDescription": "func_run-06_task-social_acq-ap-mb8",
      "SeriesNumber": 22,
      "SeriesTime": "194831.753000",
      "SliceLocation": -60.286508578607,
      "SliceThickness": 2.7000000476837,
      "SmallestImagePixelValue": 0,
      "SoftwareVersions": "syngo MR E11",
      "SpacingBetweenSlices": 2.6999999123128,
      "SpecificCharacterSet": "ISO_IR 100",
      "StudyID": "1",
      "StudyTime": "182438.701000",
      "TransmitCoilName": "Body",
      "VariableFlipAngleFlag": "N",
      "WindowCenterWidthExplanation": "Algo1"
    },
    "slices": {}
  },
  "time": {
    "samples": {
      "AcquisitionNumber": [1, 2, 3, 4, 5, 6, 7, 8, 9, 10, 11, 12, 13, 14, 15, 16, 17, 18, 19, 20, 21, 22, 23, 24, 25, 26, 27, 28, 29, 30, 31, 32, 33, 34, 35, 36, 37, 38, 39, 40, 41, 42, 43, 44, 45, 46, 47, 48, 49, 50, 51, 52, 53, 54, 55, 56, 57, 58, 59, 60, 61, 62, 63, 64, 65, 66, 67, 68, 69, 70, 71, 72, 73, 74, 75, 76, 77, 78, 79, 80, 81, 82, 83, 84, 85, 86, 87, 88, 89, 90, 91, 92, 93, 94, 95, 96, 97, 98, 99, 100, 101, 102, 103, 104, 105, 106, 107, 108, 109, 110, 111, 112, 113, 114, 115, 116, 117, 118, 119, 120, 121, 122, 123, 124, 125, 126, 127, 128, 129, 130, 131, 132, 133, 134, 135, 136, 137, 138, 139, 140, 141, 142, 143, 144, 145, 146, 147, 148, 149, 150, 151, 152, 153, 154, 155, 156, 157, 158, 159, 160, 161, 162, 163, 164, 165, 166, 167, 168, 169, 170, 171, 172, 173, 174, 175, 176, 177, 178, 179, 180, 181, 182, 183, 184, 185, 186, 187, 188, 189, 190, 191, 192, 193, 194, 195, 196, 197, 198, 199, 200, 201, 202, 203, 204, 205, 206, 207, 208, 209, 210, 211, 212, 213, 214, 215, 216, 217, 218, 219, 220, 221, 222, 223, 224, 225, 226, 227, 228, 229, 230, 231, 232, 233, 234, 235, 236, 237, 238, 239, 240, 241, 242, 243, 244, 245, 246, 247, 248, 249, 250, 251, 252, 253, 254, 255, 256, 257, 258, 259, 260, 261, 262, 263, 264, 265, 266, 267, 268, 269, 270, 271, 272, 273, 274, 275, 276, 277, 278, 279, 280, 281, 282, 283, 284, 285, 286, 287, 288, 289, 290, 291, 292, 293, 294, 295, 296, 297, 298, 299, 300, 301, 302, 303, 304, 305, 306, 307, 308, 309, 310, 311, 312, 313, 314, 315, 316, 317, 318, 319, 320, 321, 322, 323, 324, 325, 326, 327, 328, 329, 330, 331, 332, 333, 334, 335, 336, 337, 338, 339, 340, 341, 342, 343, 344, 345, 346, 347, 348, 349, 350, 351, 352, 353, 354, 355, 356, 357, 358, 359, 360, 361, 362, 363, 364, 365, 366, 367, 368, 369, 370, 371, 372, 373, 374, 375, 376, 377, 378, 379, 380, 381, 382, 383, 384, 385, 386, 387, 388, 389, 390, 391, 392, 393, 394, 395, 396, 397, 398, 399, 400, 401, 402, 403, 404, 405, 406, 407, 408, 409, 410, 411, 412, 413, 414, 415, 416, 417, 418, 419, 420, 421, 422, 423, 424, 425, 426, 427, 428, 429, 430, 431, 432, 433, 434, 435, 436, 437, 438, 439, 440, 441, 442, 443, 444, 445, 446, 447, 448, 449, 450, 451, 452, 453, 454, 455, 456, 457, 458, 459, 460, 461, 462, 463, 464, 465, 466, 467, 468, 469, 470, 471, 472, 473, 474, 475, 476, 477, 478, 479, 480, 481, 482, 483, 484, 485, 486, 487, 488, 489, 490, 491, 492, 493, 494, 495, 496, 497, 498, 499, 500, 501, 502, 503, 504, 505, 506, 507, 508, 509, 510, 511, 512, 513, 514, 515, 516, 517, 518, 519, 520, 521, 522, 523, 524, 525, 526, 527, 528, 529, 530, 531, 532, 533, 534, 535, 536, 537, 538, 539, 540, 541, 542, 543, 544, 545, 546, 547, 548, 549, 550, 551, 552, 553, 554, 555, 556, 557, 558, 559, 560, 561, 562, 563, 564, 565, 566, 567, 568, 569, 570, 571, 572, 573, 574, 575, 576, 577, 578, 579, 580, 581, 582, 583, 584, 585, 586, 587, 588, 589, 590, 591, 592, 593, 594, 595, 596, 597, 598, 599, 600, 601, 602, 603, 604, 605, 606, 607, 608, 609, 610, 611, 612, 613, 614, 615, 616, 617, 618, 619, 620, 621, 622, 623, 624, 625, 626, 627, 628, 629, 630, 631, 632, 633, 634, 635, 636, 637, 638, 639, 640, 641, 642, 643, 644, 645, 646, 647, 648, 649, 650, 651, 652, 653, 654, 655, 656, 657, 658, 659, 660, 661, 662, 663, 664, 665, 666, 667, 668, 669, 670, 671, 672, 673, 674, 675, 676, 677, 678, 679, 680, 681, 682, 683, 684, 685, 686, 687, 688, 689, 690, 691, 692, 693, 694, 695, 696, 697, 698, 699, 700, 701, 702, 703, 704, 705, 706, 707, 708, 709, 710, 711, 712, 713, 714, 715, 716, 717, 718, 719, 720, 721, 722, 723, 724, 725, 726, 727, 728, 729, 730, 731, 732, 733, 734, 735, 736, 737, 738, 739, 740, 741, 742, 743, 744, 745, 746, 747, 748, 749, 750, 751, 752, 753, 754, 755, 756, 757, 758, 759, 760, 761, 762, 763, 764, 765, 766, 767, 768, 769, 770, 771, 772, 773, 774, 775, 776, 777, 778, 779, 780, 781, 782, 783, 784, 785, 786, 787, 788, 789, 790, 791, 792, 793, 794, 795, 796, 797, 798, 799, 800, 801, 802, 803, 804, 805, 806, 807, 808, 809, 810, 811, 812, 813, 814, 815, 816, 817, 818, 819, 820, 821, 822, 823, 824, 825, 826, 827, 828, 829, 830, 831, 832, 833, 834, 835, 836, 837, 838, 839, 840, 841, 842, 843, 844, 845, 846, 847, 848, 849, 850, 851, 852, 853, 854, 855, 856, 857, 858, 859, 860, 861, 862, 863, 864, 865, 866, 867, 868, 869, 870, 871, 872],
      "AcquisitionTime": ["194814.230000", "194814.690000", "194815.150000", "194815.610000", "194816.070000", "194816.530000", "194816.990000", "194817.450000", "194817.910000", "194818.370000", "194818.830000", "194819.290000", "194819.750000", "194820.210000", "194820.670000", "194821.130000", "194821.590000", "194822.050000", "194822.510000", "194822.970000", "194823.430000", "194823.890000", "194824.350000", "194824.810000", "194825.270000", "194825.730000", "194826.190000", "194826.650000", "194827.110000", "194827.570000", "194828.030000", "194828.490000", "194828.950000", "194829.410000", "194829.870000", "194830.330000", "194830.790000", "194831.250000", "194831.710000", "194832.170000", "194832.630000", "194833.090000", "194833.550000", "194834.010000", "194834.470000", "194834.930000", "194835.390000", "194835.850000", "194836.310000", "194836.770000", "194837.230000", "194837.690000", "194838.150000", "194838.610000", "194839.070000", "194839.530000", "194839.990000", "194840.450000", "194840.910000", "194841.370000", "194841.830000", "194842.290000", "194842.750000", "194843.210000", "194843.670000", "194844.130000", "194844.590000", "194845.050000", "194845.510000", "194845.970000", "194846.430000", "194846.890000", "194847.350000", "194847.810000", "194848.270000", "194848.730000", "194849.190000", "194849.650000", "194850.110000", "194850.570000", "194851.030000", "194851.490000", "194851.950000", "194852.410000", "194852.870000", "194853.330000", "194853.790000", "194854.250000", "194854.710000", "194855.170000", "194855.630000", "194856.090000", "194856.550000", "194857.010000", "194857.470000", "194857.930000", "194858.390000", "194858.850000", "194859.310000", "194859.770000", "194900.230000", "194900.690000", "194901.150000", "194901.610000", "194902.070000", "194902.530000", "194902.990000", "194903.450000", "194903.910000", "194904.370000", "194904.830000", "194905.290000", "194905.750000", "194906.210000", "194906.670000", "194907.130000", "194907.590000", "194908.050000", "194908.510000", "194908.970000", "194909.430000", "194909.890000", "194910.350000", "194910.810000", "194911.270000", "194911.730000", "194912.190000", "194912.650000", "194913.110000", "194913.570000", "194914.030000", "194914.490000", "194914.950000", "194915.410000", "194915.870000", "194916.330000", "194916.790000", "194917.250000", "194917.710000", "194918.170000", "194918.630000", "194919.090000", "194919.550000", "194920.010000", "194920.470000", "194920.930000", "194921.390000", "194921.850000", "194922.310000", "194922.770000", "194923.230000", "194923.690000", "194924.150000", "194924.610000", "194925.070000", "194925.530000", "194925.990000", "194926.450000", "194926.910000", "194927.370000", "194927.830000", "194928.290000", "194928.750000", "194929.210000", "194929.670000", "194930.130000", "194930.590000", "194931.050000", "194931.510000", "194931.970000", "194932.430000", "194932.890000", "194933.350000", "194933.810000", "194934.270000", "194934.730000", "194935.190000", "194935.650000", "194936.110000", "194936.570000", "194937.030000", "194937.490000", "194937.950000", "194938.410000", "194938.870000", "194939.330000", "194939.790000", "194940.250000", "194940.710000", "194941.170000", "194941.630000", "194942.090000", "194942.550000", "194943.010000", "194943.470000", "194943.930000", "194944.390000", "194944.850000", "194945.310000", "194945.770000", "194946.230000", "194946.690000", "194947.150000", "194947.610000", "194948.070000", "194948.530000", "194948.990000", "194949.450000", "194949.910000", "194950.370000", "194950.830000", "194951.290000", "194951.750000", "194952.210000", "194952.670000", "194953.130000", "194953.590000", "194954.050000", "194954.510000", "194954.970000", "194955.430000", "194955.890000", "194956.350000", "194956.810000", "194957.270000", "194957.730000", "194958.190000", "194958.650000", "194959.110000", "194959.570000", "195000.030000", "195000.490000", "195000.950000", "195001.410000", "195001.870000", "195002.330000", "195002.790000", "195003.250000", "195003.710000", "195004.170000", "195004.630000", "195005.090000", "195005.550000", "195006.010000", "195006.470000", "195006.930000", "195007.390000", "195007.850000", "195008.310000", "195008.770000", "195009.230000", "195009.690000", "195010.150000", "195010.610000", "195011.070000", "195011.530000", "195011.990000", "195012.450000", "195012.910000", "195013.370000", "195013.830000", "195014.290000", "195014.750000", "195015.210000", "195015.670000", "195016.130000", "195016.590000", "195017.050000", "195017.510000", "195017.970000", "195018.430000", "195018.890000", "195019.350000", "195019.810000", "195020.270000", "195020.730000", "195021.190000", "195021.650000", "195022.110000", "195022.570000", "195023.030000", "195023.490000", "195023.950000", "195024.410000", "195024.870000", "195025.330000", "195025.790000", "195026.250000", "195026.710000", "195027.170000", "195027.630000", "195028.090000", "195028.550000", "195029.010000", "195029.470000", "195029.930000", "195030.390000", "195030.850000", "195031.310000", "195031.770000", "195032.230000", "195032.690000", "195033.150000", "195033.610000", "195034.070000", "195034.530000", "195034.990000", "195035.450000", "195035.910000", "195036.370000", "195036.830000", "195037.290000", "195037.750000", "195038.210000", "195038.670000", "195039.130000", "195039.590000", "195040.050000", "195040.510000", "195040.970000", "195041.430000", "195041.890000", "195042.350000", "195042.810000", "195043.270000", "195043.730000", "195044.190000", "195044.650000", "195045.110000", "195045.570000", "195046.030000", "195046.490000", "195046.950000", "195047.410000", "195047.870000", "195048.330000", "195048.790000", "195049.250000", "195049.710000", "195050.170000", "195050.630000", "195051.090000", "195051.550000", "195052.010000", "195052.470000", "195052.930000", "195053.390000", "195053.850000", "195054.310000", "195054.770000", "195055.230000", "195055.690000", "195056.150000", "195056.610000", "195057.070000", "195057.530000", "195057.990000", "195058.450000", "195058.910000", "195059.370000", "195059.830000", "195100.290000", "195100.750000", "195101.210000", "195101.670000", "195102.130000", "195102.590000", "195103.050000", "195103.510000", "195103.970000", "195104.430000", "195104.890000", "195105.350000", "195105.810000", "195106.270000", "195106.730000", "195107.190000", "195107.650000", "195108.110000", "195108.570000", "195109.030000", "195109.490000", "195109.950000", "195110.410000", "195110.870000", "195111.330000", "195111.790000", "195112.250000", "195112.710000", "195113.170000", "195113.630000", "195114.090000", "195114.550000", "195115.010000", "195115.470000", "195115.930000", "195116.390000", "195116.850000", "195117.310000", "195117.770000", "195118.230000", "195118.690000", "195119.150000", "195119.610000", "195120.070000", "195120.530000", "195120.990000", "195121.450000", "195121.910000", "195122.370000", "195122.830000", "195123.290000", "195123.750000", "195124.210000", "195124.670000", "195125.130000", "195125.590000", "195126.050000", "195126.510000", "195126.970000", "195127.430000", "195127.890000", "195128.350000", "195128.810000", "195129.270000", "195129.730000", "195130.190000", "195130.650000", "195131.110000", "195131.570000", "195132.030000", "195132.490000", "195132.950000", "195133.410000", "195133.870000", "195134.330000", "195134.790000", "195135.250000", "195135.710000", "195136.170000", "195136.630000", "195137.090000", "195137.550000", "195138.010000", "195138.470000", "195138.930000", "195139.390000", "195139.850000", "195140.310000", "195140.770000", "195141.230000", "195141.690000", "195142.150000", "195142.610000", "195143.070000", "195143.530000", "195143.990000", "195144.450000", "195144.910000", "195145.370000", "195145.830000", "195146.290000", "195146.750000", "195147.210000", "195147.670000", "195148.130000", "195148.590000", "195149.050000", "195149.510000", "195149.970000", "195150.430000", "195150.890000", "195151.350000", "195151.810000", "195152.270000", "195152.730000", "195153.190000", "195153.650000", "195154.110000", "195154.570000", "195155.030000", "195155.490000", "195155.950000", "195156.410000", "195156.870000", "195157.330000", "195157.790000", "195158.250000", "195158.710000", "195159.170000", "195159.630000", "195200.090000", "195200.550000", "195201.010000", "195201.470000", "195201.930000", "195202.390000", "195202.850000", "195203.310000", "195203.770000", "195204.230000", "195204.690000", "195205.150000", "195205.610000", "195206.070000", "195206.530000", "195206.990000", "195207.450000", "195207.910000", "195208.370000", "195208.830000", "195209.290000", "195209.750000", "195210.210000", "195210.670000", "195211.130000", "195211.590000", "195212.050000", "195212.510000", "195212.970000", "195213.430000", "195213.890000", "195214.350000", "195214.810000", "195215.270000", "195215.730000", "195216.190000", "195216.650000", "195217.110000", "195217.570000", "195218.030000", "195218.490000", "195218.950000", "195219.410000", "195219.870000", "195220.330000", "195220.790000", "195221.250000", "195221.710000", "195222.170000", "195222.630000", "195223.090000", "195223.550000", "195224.010000", "195224.470000", "195224.930000", "195225.390000", "195225.850000", "195226.310000", "195226.770000", "195227.230000", "195227.690000", "195228.150000", "195228.610000", "195229.070000", "195229.530000", "195229.990000", "195230.450000", "195230.910000", "195231.370000", "195231.830000", "195232.290000", "195232.750000", "195233.210000", "195233.670000", "195234.130000", "195234.590000", "195235.050000", "195235.510000", "195235.970000", "195236.430000", "195236.890000", "195237.350000", "195237.810000", "195238.270000", "195238.730000", "195239.190000", "195239.650000", "195240.110000", "195240.570000", "195241.030000", "195241.490000", "195241.950000", "195242.410000", "195242.870000", "195243.330000", "195243.790000", "195244.250000", "195244.710000", "195245.170000", "195245.630000", "195246.090000", "195246.550000", "195247.010000", "195247.470000", "195247.930000", "195248.390000", "195248.850000", "195249.310000", "195249.770000", "195250.230000", "195250.690000", "195251.150000", "195251.610000", "195252.070000", "195252.530000", "195252.990000", "195253.450000", "195253.910000", "195254.370000", "195254.830000", "195255.290000", "195255.750000", "195256.210000", "195256.670000", "195257.130000", "195257.590000", "195258.050000", "195258.510000", "195258.970000", "195259.430000", "195259.890000", "195300.350000", "195300.810000", "195301.270000", "195301.730000", "195302.190000", "195302.650000", "195303.110000", "195303.570000", "195304.030000", "195304.490000", "195304.950000", "195305.410000", "195305.870000", "195306.330000", "195306.790000", "195307.250000", "195307.710000", "195308.170000", "195308.630000", "195309.090000", "195309.550000", "195310.010000", "195310.470000", "195310.930000", "195311.390000", "195311.850000", "195312.310000", "195312.770000", "195313.230000", "195313.690000", "195314.150000", "195314.610000", "195315.070000", "195315.530000", "195315.990000", "195316.450000", "195316.910000", "195317.370000", "195317.830000", "195318.290000", "195318.750000", "195319.210000", "195319.670000", "195320.130000", "195320.590000", "195321.050000", "195321.510000", "195321.970000", "195322.430000", "195322.890000", "195323.350000", "195323.810000", "195324.270000", "195324.730000", "195325.190000", "195325.650000", "195326.110000", "195326.570000", "195327.030000", "195327.490000", "195327.950000", "195328.410000", "195328.870000", "195329.330000", "195329.790000", "195330.250000", "195330.710000", "195331.170000", "195331.630000", "195332.090000", "195332.550000", "195333.010000", "195333.470000", "195333.930000", "195334.390000", "195334.850000", "195335.310000", "195335.770000", "195336.230000", "195336.690000", "195337.150000", "195337.610000", "195338.070000", "195338.530000", "195338.990000", "195339.450000", "195339.910000", "195340.370000", "195340.830000", "195341.290000", "195341.750000", "195342.210000", "195342.670000", "195343.130000", "195343.590000", "195344.050000", "195344.510000", "195344.970000", "195345.430000", "195345.890000", "195346.350000", "195346.810000", "195347.270000", "195347.730000", "195348.190000", "195348.650000", "195349.110000", "195349.570000", "195350.030000", "195350.490000", "195350.950000", "195351.410000", "195351.870000", "195352.330000", "195352.790000", "195353.250000", "195353.710000", "195354.170000", "195354.630000", "195355.090000", "195355.550000", "195356.010000", "195356.470000", "195356.930000", "195357.390000", "195357.850000", "195358.310000", "195358.770000", "195359.230000", "195359.690000", "195400.150000", "195400.610000", "195401.070000", "195401.530000", "195401.990000", "195402.450000", "195402.910000", "195403.370000", "195403.830000", "195404.290000", "195404.750000", "195405.210000", "195405.670000", "195406.130000", "195406.590000", "195407.050000", "195407.510000", "195407.970000", "195408.430000", "195408.890000", "195409.350000", "195409.810000", "195410.270000", "195410.730000", "195411.190000", "195411.650000", "195412.110000", "195412.570000", "195413.030000", "195413.490000", "195413.950000", "195414.410000", "195414.870000", "195415.330000", "195415.790000", "195416.250000", "195416.710000", "195417.170000", "195417.630000", "195418.090000", "195418.550000", "195419.010000", "195419.470000", "195419.930000", "195420.390000", "195420.850000", "195421.310000", "195421.770000", "195422.230000", "195422.690000", "195423.150000", "195423.610000", "195424.070000", "195424.530000", "195424.990000", "195425.450000", "195425.910000", "195426.370000", "195426.830000", "195427.290000", "195427.750000", "195428.210000", "195428.670000", "195429.130000", "195429.590000", "195430.050000", "195430.510000", "195430.970000", "195431.430000", "195431.890000", "195432.350000", "195432.810000", "195433.270000", "195433.730000", "195434.190000", "195434.650000", "195435.110000", "195435.570000", "195436.030000", "195436.490000", "195436.950000", "195437.410000", "195437.870000", "195438.330000", "195438.790000", "195439.250000", "195439.710000", "195440.170000", "195440.630000", "195441.090000", "195441.550000", "195442.010000", "195442.470000", "195442.930000", "195443.390000", "195443.850000", "195444.310000", "195444.770000", "195445.230000", "195445.690000", "195446.150000", "195446.610000", "195447.070000", "195447.530000", "195447.990000", "195448.450000", "195448.910000", "195449.370000", "195449.830000", "195450.290000", "195450.750000", "195451.210000", "195451.670000", "195452.130000", "195452.590000", "195453.050000", "195453.510000", "195453.970000", "195454.430000", "195454.890000"],
