{
  "AcquisitionMatrixPE": 82,
  "AcquisitionNumber": 1,
  "AcquisitionTime": "20:18:43.710000",
  "BandwidthPerPixelPhaseEncode": 24.888,
  "BaseResolution": 82,
  "BodyPartExamined": "BRAIN",
  "ConsistencyInfo": "N4_VE11E_LATEST_20181129",
  "ConversionSoftware": "dcm2niix",
  "ConversionSoftwareVersion": "v1.0.20201102",
  "DerivedVendorReportedEchoSpacing": 0.00049,
  "DeviceSerialNumber": "66112",
  "DwellTime": 2e-06,
  "EchoTime": 0.0272,
  "EchoTrainLength": 82,
  "EffectiveEchoSpacing": 0.00049,
  "FlipAngle": 44,
  "ImageComments": "Unaliased MB8/PE3",
  "ImageOrientationPatientDICOM": [0.999731, 0.00742467, -0.0219846, -0.0033152, 0.983411, 0.181362],
  "ImageType": [
    "ORIGINAL",
    "PRIMARY",
    "M",
    "MB",
    "ND",
    "NORM",
    "MOSAIC"
],
  "ImagingFrequency": 123.252,
  "InPlanePhaseEncodingDirectionDICOM": "COL",
  "InstitutionAddress": "Maynard 3,Hanover,NH,US,03755",
  "InstitutionName": "Dartmouth College - PBS",
  "InstitutionalDepartmentName": "Department",
  "MRAcquisitionType": "2D",
  "MagneticFieldStrength": 3,
  "Manufacturer": "Siemens",
  "ManufacturersModelName": "Prisma",
  "Modality": "MR",
  "MultibandAccelerationFactor": 8,
  "PartialFourier": 1,
  "PatientPosition": "HFS",
  "PercentPhaseFOV": 100,
  "PercentSampling": 100,
  "PhaseEncodingDirection": "j-",
  "PhaseEncodingSteps": 82,
  "PhaseResolution": 1,
  "PixelBandwidth": 3050,
  "ProcedureStepDescription": "Wager_Wager^1076_spacetop",
  "ProtocolName": "func_run-03_task-alignvideo_acq-ap-mb8",
  "PulseSequenceDetails": "%CustomerSeq%\\cmrr_mbep2d_bold",
  "ReceiveCoilActiveElements": "HEA;HEP",
  "ReceiveCoilName": "Head_32",
  "ReconMatrixPE": 82,
  "RepetitionTime": 0.46,
  "SAR": 0.0956156,
  "ScanOptions": "FS",
  "ScanningSequence": "EP",
  "SequenceName": "epfid2d1_82",
  "SequenceVariant": "SK\\SS",
  "SeriesDescription": "func_run-03_task-alignvideo_acq-ap-mb8",
  "SeriesNumber": 34,
  "ShimSetting": [4137, -7782, -7280, 616, -93, -326, 75, 104],
  "SliceThickness": 2.7,
  "SliceTiming": [0, 0.25, 0.0625, 0.3125, 0.125, 0.3775, 0.1875, 0, 0.25, 0.0625, 0.3125, 0.125, 0.3775, 0.1875, 0, 0.25, 0.0625, 0.3125, 0.125, 0.3775, 0.1875, 0, 0.25, 0.0625, 0.3125, 0.125, 0.3775, 0.1875, 0, 0.25, 0.0625, 0.3125, 0.125, 0.3775, 0.1875, 0, 0.25, 0.0625, 0.3125, 0.125, 0.3775, 0.1875, 0, 0.25, 0.0625, 0.3125, 0.125, 0.3775, 0.1875, 0, 0.25, 0.0625, 0.3125, 0.125, 0.3775, 0.1875],
  "SoftwareVersions": "syngo MR E11",
  "SpacingBetweenSlices": 2.7,
  "StationName": "AWP66112",
  "TaskName": "alignvideo",
  "TotalReadoutTime": 0.03969,
  "TxRefAmp": 236.026,
  "WipMemBlock": "5332712b-6cd4-4d9e-9773-8b651df961c0||Sequence: R016 ve11e/master r/434b28f1; Aug  7 2019 18:53:46 by eja",
  "dcmmeta_affine": [
    [-2.682204484939575, -0.008894439786672592, -0.06200951710343361, 111.8988265991211],
    [-0.019919833168387413, 2.6384191513061523, 0.4893498718738556, -98.01946258544922],
    [-0.05898318812251091, -0.4865821301937103, 2.6545603275299072, -44.15192794799805],
    [0.0, 0.0, 0.0, 1.0]
],
  "dcmmeta_reorient_transform": [
    [0.0, -1.0, 0.0, 81.0],
    [1.0, 0.0, 0.0, 0.0],
    [0.0, 0.0, 1.0, 0.0],
    [0.0, 0.0, 0.0, 1.0]
],
  "dcmmeta_shape": [82, 82, 56, 1016],
  "dcmmeta_slice_dim": 2,
  "dcmmeta_version": 0.6,
  "global": {
    "const": {
      "AccessionNumber": "A004034",
      "AcquisitionMatrix": [82, 0, 0, 82],
      "AngioFlag": "N",
      "BitsAllocated": 16,
      "BitsStored": 16,
      "BodyPartExamined": "BRAIN",
      "Columns": 656,
      "EchoNumbers": 1,
      "EchoTime": 27.2,
      "EchoTrainLength": 82,
      "FlipAngle": 44.0,
      "HighBit": 15,
      "ImageOrientationPatient": [0.9997307386762, 0.00742466508545, -0.0219846422375, -0.0033152000962, 0.98341073908404, 0.18136242086638],
      "ImagePositionPatient": [-878.41835875924, -878.63576229984, -206.2859720969],
      "ImageType": [
        "ORIGINAL",
        "PRIMARY",
        "M",
        "MB",
        "ND",
        "NORM",
        "MOSAIC"
],
      "ImagedNucleus": "1H",
      "ImagingFrequency": 123.252352,
      "InPlanePhaseEncodingDirection": "COL",
      "MRAcquisitionType": "2D",
      "MagneticFieldStrength": 3.0,
      "Manufacturer": "SIEMENS",
      "ManufacturerModelName": "Prisma",
      "Modality": "MR",
      "NumberOfAverages": 1.0,
      "NumberOfPhaseEncodingSteps": 82,
      "PercentPhaseFieldOfView": 100.0,
      "PercentSampling": 100.0,
      "PerformedProcedureStepStartTime": "182438.845000",
      "PhotometricInterpretation": "MONOCHROME2",
      "PixelBandwidth": 3050.0,
      "PixelRepresentation": 0,
      "PixelSpacing": [2.6829268932343, 2.6829268932343],
      "ProtocolName": "func_run-03_task-alignvideo_acq-ap-mb8",
      "RepetitionTime": 460.0,
      "Rows": 656,
      "SAR": 0.09561561244465,
      "SamplesPerPixel": 1,
      "ScanOptions": "FS",
      "ScanningSequence": "EP",
      "SequenceName": "epfid2d1_82",
      "SequenceVariant": [
        "SK",
        "SS"
],
      "SeriesDescription": "func_run-03_task-alignvideo_acq-ap-mb8",
      "SeriesNumber": 34,
      "SeriesTime": "201911.734000",
      "SliceLocation": -63.743915936974,
      "SliceThickness": 2.7000000476837,
      "SmallestImagePixelValue": 0,
      "SoftwareVersions": "syngo MR E11",
      "SpacingBetweenSlices": 2.6999999272949,
      "SpecificCharacterSet": "ISO_IR 100",
      "StudyID": "1",
      "StudyTime": "182438.701000",
      "TransmitCoilName": "Body",
      "VariableFlipAngleFlag": "N",
      "WindowCenterWidthExplanation": "Algo1"
    },
    "slices": {}
  },
  "time": {
    "samples": {
      "AcquisitionNumber": [1, 2, 3, 4, 5, 6, 7, 8, 9, 10, 11, 12, 13, 14, 15, 16, 17, 18, 19, 20, 21, 22, 23, 24, 25, 26, 27, 28, 29, 30, 31, 32, 33, 34, 35, 36, 37, 38, 39, 40, 41, 42, 43, 44, 45, 46, 47, 48, 49, 50, 51, 52, 53, 54, 55, 56, 57, 58, 59, 60, 61, 62, 63, 64, 65, 66, 67, 68, 69, 70, 71, 72, 73, 74, 75, 76, 77, 78, 79, 80, 81, 82, 83, 84, 85, 86, 87, 88, 89, 90, 91, 92, 93, 94, 95, 96, 97, 98, 99, 100, 101, 102, 103, 104, 105, 106, 107, 108, 109, 110, 111, 112, 113, 114, 115, 116, 117, 118, 119, 120, 121, 122, 123, 124, 125, 126, 127, 128, 129, 130, 131, 132, 133, 134, 135, 136, 137, 138, 139, 140, 141, 142, 143, 144, 145, 146, 147, 148, 149, 150, 151, 152, 153, 154, 155, 156, 157, 158, 159, 160, 161, 162, 163, 164, 165, 166, 167, 168, 169, 170, 171, 172, 173, 174, 175, 176, 177, 178, 179, 180, 181, 182, 183, 184, 185, 186, 187, 188, 189, 190, 191, 192, 193, 194, 195, 196, 197, 198, 199, 200, 201, 202, 203, 204, 205, 206, 207, 208, 209, 210, 211, 212, 213, 214, 215, 216, 217, 218, 219, 220, 221, 222, 223, 224, 225, 226, 227, 228, 229, 230, 231, 232, 233, 234, 235, 236, 237, 238, 239, 240, 241, 242, 243, 244, 245, 246, 247, 248, 249, 250, 251, 252, 253, 254, 255, 256, 257, 258, 259, 260, 261, 262, 263, 264, 265, 266, 267, 268, 269, 270, 271, 272, 273, 274, 275, 276, 277, 278, 279, 280, 281, 282, 283, 284, 285, 286, 287, 288, 289, 290, 291, 292, 293, 294, 295, 296, 297, 298, 299, 300, 301, 302, 303, 304, 305, 306, 307, 308, 309, 310, 311, 312, 313, 314, 315, 316, 317, 318, 319, 320, 321, 322, 323, 324, 325, 326, 327, 328, 329, 330, 331, 332, 333, 334, 335, 336, 337, 338, 339, 340, 341, 342, 343, 344, 345, 346, 347, 348, 349, 350, 351, 352, 353, 354, 355, 356, 357, 358, 359, 360, 361, 362, 363, 364, 365, 366, 367, 368, 369, 370, 371, 372, 373, 374, 375, 376, 377, 378, 379, 380, 381, 382, 383, 384, 385, 386, 387, 388, 389, 390, 391, 392, 393, 394, 395, 396, 397, 398, 399, 400, 401, 402, 403, 404, 405, 406, 407, 408, 409, 410, 411, 412, 413, 414, 415, 416, 417, 418, 419, 420, 421, 422, 423, 424, 425, 426, 427, 428, 429, 430, 431, 432, 433, 434, 435, 436, 437, 438, 439, 440, 441, 442, 443, 444, 445, 446, 447, 448, 449, 450, 451, 452, 453, 454, 455, 456, 457, 458, 459, 460, 461, 462, 463, 464, 465, 466, 467, 468, 469, 470, 471, 472, 473, 474, 475, 476, 477, 478, 479, 480, 481, 482, 483, 484, 485, 486, 487, 488, 489, 490, 491, 492, 493, 494, 495, 496, 497, 498, 499, 500, 501, 502, 503, 504, 505, 506, 507, 508, 509, 510, 511, 512, 513, 514, 515, 516, 517, 518, 519, 520, 521, 522, 523, 524, 525, 526, 527, 528, 529, 530, 531, 532, 533, 534, 535, 536, 537, 538, 539, 540, 541, 542, 543, 544, 545, 546, 547, 548, 549, 550, 551, 552, 553, 554, 555, 556, 557, 558, 559, 560, 561, 562, 563, 564, 565, 566, 567, 568, 569, 570, 571, 572, 573, 574, 575, 576, 577, 578, 579, 580, 581, 582, 583, 584, 585, 586, 587, 588, 589, 590, 591, 592, 593, 594, 595, 596, 597, 598, 599, 600, 601, 602, 603, 604, 605, 606, 607, 608, 609, 610, 611, 612, 613, 614, 615, 616, 617, 618, 619, 620, 621, 622, 623, 624, 625, 626, 627, 628, 629, 630, 631, 632, 633, 634, 635, 636, 637, 638, 639, 640, 641, 642, 643, 644, 645, 646, 647, 648, 649, 650, 651, 652, 653, 654, 655, 656, 657, 658, 659, 660, 661, 662, 663, 664, 665, 666, 667, 668, 669, 670, 671, 672, 673, 674, 675, 676, 677, 678, 679, 680, 681, 682, 683, 684, 685, 686, 687, 688, 689, 690, 691, 692, 693, 694, 695, 696, 697, 698, 699, 700, 701, 702, 703, 704, 705, 706, 707, 708, 709, 710, 711, 712, 713, 714, 715, 716, 717, 718, 719, 720, 721, 722, 723, 724, 725, 726, 727, 728, 729, 730, 731, 732, 733, 734, 735, 736, 737, 738, 739, 740, 741, 742, 743, 744, 745, 746, 747, 748, 749, 750, 751, 752, 753, 754, 755, 756, 757, 758, 759, 760, 761, 762, 763, 764, 765, 766, 767, 768, 769, 770, 771, 772, 773, 774, 775, 776, 777, 778, 779, 780, 781, 782, 783, 784, 785, 786, 787, 788, 789, 790, 791, 792, 793, 794, 795, 796, 797, 798, 799, 800, 801, 802, 803, 804, 805, 806, 807, 808, 809, 810, 811, 812, 813, 814, 815, 816, 817, 818, 819, 820, 821, 822, 823, 824, 825, 826, 827, 828, 829, 830, 831, 832, 833, 834, 835, 836, 837, 838, 839, 840, 841, 842, 843, 844, 845, 846, 847, 848, 849, 850, 851, 852, 853, 854, 855, 856, 857, 858, 859, 860, 861, 862, 863, 864, 865, 866, 867, 868, 869, 870, 871, 872, 873, 874, 875, 876, 877, 878, 879, 880, 881, 882, 883, 884, 885, 886, 887, 888, 889, 890, 891, 892, 893, 894, 895, 896, 897, 898, 899, 900, 901, 902, 903, 904, 905, 906, 907, 908, 909, 910, 911, 912, 913, 914, 915, 916, 917, 918, 919, 920, 921, 922, 923, 924, 925, 926, 927, 928, 929, 930, 931, 932, 933, 934, 935, 936, 937, 938, 939, 940, 941, 942, 943, 944, 945, 946, 947, 948, 949, 950, 951, 952, 953, 954, 955, 956, 957, 958, 959, 960, 961, 962, 963, 964, 965, 966, 967, 968, 969, 970, 971, 972, 973, 974, 975, 976, 977, 978, 979, 980, 981, 982, 983, 984, 985, 986, 987, 988, 989, 990, 991, 992, 993, 994, 995, 996, 997, 998, 999, 1000, 1001, 1002, 1003, 1004, 1005, 1006, 1007, 1008, 1009, 1010, 1011, 1012, 1013, 1014, 1015, 1016],
      "AcquisitionTime": ["201843.710000", "201844.170000", "201844.630000", "201845.090000", "201845.550000", "201846.010000", "201846.470000", "201846.930000", "201847.390000", "201847.850000", "201848.310000", "201848.770000", "201849.230000", "201849.690000", "201850.150000", "201850.610000", "201851.070000", "201851.530000", "201851.990000", "201852.450000", "201852.910000", "201853.370000", "201853.830000", "201854.290000", "201854.750000", "201855.210000", "201855.670000", "201856.130000", "201856.590000", "201857.050000", "201857.510000", "201857.970000", "201858.430000", "201858.890000", "201859.350000", "201859.810000", "201900.270000", "201900.730000", "201901.190000", "201901.650000", "201902.110000", "201902.570000", "201903.030000", "201903.490000", "201903.950000", "201904.410000", "201904.870000", "201905.330000", "201905.790000", "201906.250000", "201906.710000", "201907.170000", "201907.630000", "201908.090000", "201908.550000", "201909.010000", "201909.470000", "201909.930000", "201910.390000", "201910.850000", "201911.310000", "201911.770000", "201912.230000", "201912.690000", "201913.150000", "201913.610000", "201914.070000", "201914.530000", "201914.990000", "201915.450000", "201915.910000", "201916.370000", "201916.830000", "201917.290000", "201917.750000", "201918.210000", "201918.670000", "201919.130000", "201919.590000", "201920.050000", "201920.510000", "201920.970000", "201921.430000", "201921.890000", "201922.350000", "201922.810000", "201923.270000", "201923.730000", "201924.190000", "201924.650000", "201925.110000", "201925.570000", "201926.030000", "201926.490000", "201926.950000", "201927.410000", "201927.870000", "201928.330000", "201928.790000", "201929.250000", "201929.710000", "201930.170000", "201930.630000", "201931.090000", "201931.550000", "201932.010000", "201932.470000", "201932.930000", "201933.390000", "201933.850000", "201934.310000", "201934.770000", "201935.230000", "201935.690000", "201936.150000", "201936.610000", "201937.070000", "201937.530000", "201937.990000", "201938.450000", "201938.910000", "201939.370000", "201939.830000", "201940.290000", "201940.750000", "201941.210000", "201941.670000", "201942.130000", "201942.590000", "201943.050000", "201943.510000", "201943.970000", "201944.430000", "201944.890000", "201945.350000", "201945.810000", "201946.270000", "201946.730000", "201947.190000", "201947.650000", "201948.110000", "201948.570000", "201949.030000", "201949.490000", "201949.950000", "201950.410000", "201950.870000", "201951.330000", "201951.790000", "201952.250000", "201952.710000", "201953.170000", "201953.630000", "201954.090000", "201954.550000", "201955.010000", "201955.470000", "201955.930000", "201956.390000", "201956.850000", "201957.310000", "201957.770000", "201958.230000", "201958.690000", "201959.150000", "201959.610000", "202000.070000", "202000.530000", "202000.990000", "202001.450000", "202001.910000", "202002.370000", "202002.830000", "202003.290000", "202003.750000", "202004.210000", "202004.670000", "202005.130000", "202005.590000", "202006.050000", "202006.510000", "202006.970000", "202007.430000", "202007.890000", "202008.350000", "202008.810000", "202009.270000", "202009.730000", "202010.190000", "202010.650000", "202011.110000", "202011.570000", "202012.030000", "202012.490000", "202012.950000", "202013.410000", "202013.870000", "202014.330000", "202014.790000", "202015.250000", "202015.710000", "202016.170000", "202016.630000", "202017.090000", "202017.550000", "202018.010000", "202018.470000", "202018.930000", "202019.390000", "202019.850000", "202020.310000", "202020.770000", "202021.230000", "202021.690000", "202022.150000", "202022.610000", "202023.070000", "202023.530000", "202023.990000", "202024.450000", "202024.910000", "202025.370000", "202025.830000", "202026.290000", "202026.750000", "202027.210000", "202027.670000", "202028.130000", "202028.590000", "202029.050000", "202029.510000", "202029.970000", "202030.430000", "202030.890000", "202031.350000", "202031.810000", "202032.270000", "202032.730000", "202033.190000", "202033.650000", "202034.110000", "202034.570000", "202035.030000", "202035.490000", "202035.950000", "202036.410000", "202036.870000", "202037.330000", "202037.790000", "202038.250000", "202038.710000", "202039.170000", "202039.630000", "202040.090000", "202040.550000", "202041.010000", "202041.470000", "202041.930000", "202042.390000", "202042.850000", "202043.310000", "202043.770000", "202044.230000", "202044.690000", "202045.150000", "202045.610000", "202046.070000", "202046.530000", "202046.990000", "202047.450000", "202047.910000", "202048.370000", "202048.830000", "202049.290000", "202049.750000", "202050.210000", "202050.670000", "202051.130000", "202051.590000", "202052.050000", "202052.510000", "202052.970000", "202053.430000", "202053.890000", "202054.350000", "202054.810000", "202055.270000", "202055.730000", "202056.190000", "202056.650000", "202057.110000", "202057.570000", "202058.030000", "202058.490000", "202058.950000", "202059.410000", "202059.870000", "202100.330000", "202100.790000", "202101.250000", "202101.710000", "202102.170000", "202102.630000", "202103.090000", "202103.550000", "202104.010000", "202104.470000", "202104.930000", "202105.390000", "202105.850000", "202106.310000", "202106.770000", "202107.230000", "202107.690000", "202108.150000", "202108.610000", "202109.070000", "202109.530000", "202109.990000", "202110.450000", "202110.910000", "202111.370000", "202111.830000", "202112.290000", "202112.750000", "202113.210000", "202113.670000", "202114.130000", "202114.590000", "202115.050000", "202115.510000", "202115.970000", "202116.430000", "202116.890000", "202117.350000", "202117.810000", "202118.270000", "202118.730000", "202119.190000", "202119.650000", "202120.110000", "202120.570000", "202121.030000", "202121.490000", "202121.950000", "202122.410000", "202122.870000", "202123.330000", "202123.790000", "202124.250000", "202124.710000", "202125.170000", "202125.630000", "202126.090000", "202126.550000", "202127.010000", "202127.470000", "202127.930000", "202128.390000", "202128.850000", "202129.310000", "202129.770000", "202130.230000", "202130.690000", "202131.150000", "202131.610000", "202132.070000", "202132.530000", "202132.990000", "202133.450000", "202133.910000", "202134.370000", "202134.830000", "202135.290000", "202135.750000", "202136.210000", "202136.670000", "202137.130000", "202137.590000", "202138.050000", "202138.510000", "202138.970000", "202139.430000", "202139.890000", "202140.350000", "202140.810000", "202141.270000", "202141.730000", "202142.190000", "202142.650000", "202143.110000", "202143.570000", "202144.030000", "202144.490000", "202144.950000", "202145.410000", "202145.870000", "202146.330000", "202146.790000", "202147.250000", "202147.710000", "202148.170000", "202148.630000", "202149.090000", "202149.550000", "202150.010000", "202150.470000", "202150.930000", "202151.390000", "202151.850000", "202152.310000", "202152.770000", "202153.230000", "202153.690000", "202154.150000", "202154.610000", "202155.070000", "202155.530000", "202155.990000", "202156.450000", "202156.910000", "202157.370000", "202157.830000", "202158.290000", "202158.750000", "202159.210000", "202159.670000", "202200.130000", "202200.590000", "202201.050000", "202201.510000", "202201.970000", "202202.430000", "202202.890000", "202203.350000", "202203.810000", "202204.270000", "202204.730000", "202205.190000", "202205.650000", "202206.110000", "202206.570000", "202207.030000", "202207.490000", "202207.950000", "202208.410000", "202208.870000", "202209.330000", "202209.790000", "202210.250000", "202210.710000", "202211.170000", "202211.630000", "202212.090000", "202212.550000", "202213.010000", "202213.470000", "202213.930000", "202214.390000", "202214.850000", "202215.310000", "202215.770000", "202216.230000", "202216.690000", "202217.150000", "202217.610000", "202218.070000", "202218.530000", "202218.990000", "202219.450000", "202219.910000", "202220.370000", "202220.830000", "202221.290000", "202221.750000", "202222.210000", "202222.670000", "202223.130000", "202223.590000", "202224.050000", "202224.510000", "202224.970000", "202225.430000", "202225.890000", "202226.350000", "202226.810000", "202227.270000", "202227.730000", "202228.190000", "202228.650000", "202229.110000", "202229.570000", "202230.030000", "202230.490000", "202230.950000", "202231.410000", "202231.870000", "202232.330000", "202232.790000", "202233.250000", "202233.710000", "202234.170000", "202234.630000", "202235.090000", "202235.550000", "202236.010000", "202236.470000", "202236.930000", "202237.390000", "202237.850000", "202238.310000", "202238.770000", "202239.230000", "202239.690000", "202240.150000", "202240.610000", "202241.070000", "202241.530000", "202241.990000", "202242.450000", "202242.910000", "202243.370000", "202243.830000", "202244.290000", "202244.750000", "202245.210000", "202245.670000", "202246.130000", "202246.590000", "202247.050000", "202247.510000", "202247.970000", "202248.430000", "202248.890000", "202249.350000", "202249.810000", "202250.270000", "202250.730000", "202251.190000", "202251.650000", "202252.110000", "202252.570000", "202253.030000", "202253.490000", "202253.950000", "202254.410000", "202254.870000", "202255.330000", "202255.790000", "202256.250000", "202256.710000", "202257.170000", "202257.630000", "202258.090000", "202258.550000", "202259.010000", "202259.470000", "202259.930000", "202300.390000", "202300.850000", "202301.310000", "202301.770000", "202302.230000", "202302.690000", "202303.150000", "202303.610000", "202304.070000", "202304.530000", "202304.990000", "202305.450000", "202305.910000", "202306.370000", "202306.830000", "202307.290000", "202307.750000", "202308.210000", "202308.670000", "202309.130000", "202309.590000", "202310.050000", "202310.510000", "202310.970000", "202311.430000", "202311.890000", "202312.350000", "202312.810000", "202313.270000", "202313.730000", "202314.190000", "202314.650000", "202315.110000", "202315.570000", "202316.030000", "202316.490000", "202316.950000", "202317.410000", "202317.870000", "202318.330000", "202318.790000", "202319.250000", "202319.710000", "202320.170000", "202320.630000", "202321.090000", "202321.550000", "202322.010000", "202322.470000", "202322.930000", "202323.390000", "202323.850000", "202324.310000", "202324.770000", "202325.230000", "202325.690000", "202326.150000", "202326.610000", "202327.070000", "202327.530000", "202327.990000", "202328.450000", "202328.910000", "202329.370000", "202329.830000", "202330.290000", "202330.750000", "202331.210000", "202331.670000", "202332.130000", "202332.590000", "202333.050000", "202333.510000", "202333.970000", "202334.430000", "202334.890000", "202335.350000", "202335.810000", "202336.270000", "202336.730000", "202337.190000", "202337.650000", "202338.110000", "202338.570000", "202339.030000", "202339.490000", "202339.950000", "202340.410000", "202340.870000", "202341.330000", "202341.790000", "202342.250000", "202342.710000", "202343.170000", "202343.630000", "202344.090000", "202344.550000", "202345.010000", "202345.470000", "202345.930000", "202346.390000", "202346.850000", "202347.310000", "202347.770000", "202348.230000", "202348.690000", "202349.150000", "202349.610000", "202350.070000", "202350.530000", "202350.990000", "202351.450000", "202351.910000", "202352.370000", "202352.830000", "202353.290000", "202353.750000", "202354.210000", "202354.670000", "202355.130000", "202355.590000", "202356.050000", "202356.510000", "202356.970000", "202357.430000", "202357.890000", "202358.350000", "202358.810000", "202359.270000", "202359.730000", "202400.190000", "202400.650000", "202401.110000", "202401.570000", "202402.030000", "202402.490000", "202402.950000", "202403.410000", "202403.870000", "202404.330000", "202404.790000", "202405.250000", "202405.710000", "202406.170000", "202406.630000", "202407.090000", "202407.550000", "202408.010000", "202408.470000", "202408.930000", "202409.390000", "202409.850000", "202410.310000", "202410.770000", "202411.230000", "202411.690000", "202412.150000", "202412.610000", "202413.070000", "202413.530000", "202413.990000", "202414.450000", "202414.910000", "202415.370000", "202415.830000", "202416.290000", "202416.750000", "202417.210000", "202417.670000", "202418.130000", "202418.590000", "202419.050000", "202419.510000", "202419.970000", "202420.430000", "202420.890000", "202421.350000", "202421.810000", "202422.270000", "202422.730000", "202423.190000", "202423.650000", "202424.110000", "202424.570000", "202425.030000", "202425.490000", "202425.950000", "202426.410000", "202426.870000", "202427.330000", "202427.790000", "202428.250000", "202428.710000", "202429.170000", "202429.630000", "202430.090000", "202430.550000", "202431.010000", "202431.470000", "202431.930000", "202432.390000", "202432.850000", "202433.310000", "202433.770000", "202434.230000", "202434.690000", "202435.150000", "202435.610000", "202436.070000", "202436.530000", "202436.990000", "202437.450000", "202437.910000", "202438.370000", "202438.830000", "202439.290000", "202439.750000", "202440.210000", "202440.670000", "202441.130000", "202441.590000", "202442.050000", "202442.510000", "202442.970000", "202443.430000", "202443.890000", "202444.350000", "202444.810000", "202445.270000", "202445.730000", "202446.190000", "202446.650000", "202447.110000", "202447.570000", "202448.030000", "202448.490000", "202448.950000", "202449.410000", "202449.870000", "202450.330000", "202450.790000", "202451.250000", "202451.710000", "202452.170000", "202452.630000", "202453.090000", "202453.550000", "202454.010000", "202454.470000", "202454.930000", "202455.390000", "202455.850000", "202456.310000", "202456.770000", "202457.230000", "202457.690000", "202458.150000", "202458.610000", "202459.070000", "202459.530000", "202459.990000", "202500.450000", "202500.910000", "202501.370000", "202501.830000", "202502.290000", "202502.750000", "202503.210000", "202503.670000", "202504.130000", "202504.590000", "202505.050000", "202505.510000", "202505.970000", "202506.430000", "202506.890000", "202507.350000", "202507.810000", "202508.270000", "202508.730000", "202509.190000", "202509.650000", "202510.110000", "202510.570000", "202511.030000", "202511.490000", "202511.950000", "202512.410000", "202512.870000", "202513.330000", "202513.790000", "202514.250000", "202514.710000", "202515.170000", "202515.630000", "202516.090000", "202516.550000", "202517.010000", "202517.470000", "202517.930000", "202518.390000", "202518.850000", "202519.310000", "202519.770000", "202520.230000", "202520.690000", "202521.150000", "202521.610000", "202522.070000", "202522.530000", "202522.990000", "202523.450000", "202523.910000", "202524.370000", "202524.830000", "202525.290000", "202525.750000", "202526.210000", "202526.670000", "202527.130000", "202527.590000", "202528.050000", "202528.510000", "202528.970000", "202529.430000", "202529.890000", "202530.350000", "202530.810000", "202531.270000", "202531.730000", "202532.190000", "202532.650000", "202533.110000", "202533.570000", "202534.030000", "202534.490000", "202534.950000", "202535.410000", "202535.870000", "202536.330000", "202536.790000", "202537.250000", "202537.710000", "202538.170000", "202538.630000", "202539.090000", "202539.550000", "202540.010000", "202540.470000", "202540.930000", "202541.390000", "202541.850000", "202542.310000", "202542.770000", "202543.230000", "202543.690000", "202544.150000", "202544.610000", "202545.070000", "202545.530000", "202545.990000", "202546.450000", "202546.910000", "202547.370000", "202547.830000", "202548.290000", "202548.750000", "202549.210000", "202549.670000", "202550.130000", "202550.590000", "202551.050000", "202551.510000", "202551.970000", "202552.430000", "202552.890000", "202553.350000", "202553.810000", "202554.270000", "202554.730000", "202555.190000", "202555.650000", "202556.110000", "202556.570000", "202557.030000", "202557.490000", "202557.950000", "202558.410000", "202558.870000", "202559.330000", "202559.790000", "202600.250000", "202600.710000", "202601.170000", "202601.630000", "202602.090000", "202602.550000", "202603.010000", "202603.470000", "202603.930000", "202604.390000", "202604.850000", "202605.310000", "202605.770000", "202606.230000", "202606.690000", "202607.150000", "202607.610000", "202608.070000", "202608.530000", "202608.990000", "202609.450000", "202609.910000", "202610.370000", "202610.830000", "202611.290000", "202611.750000", "202612.210000", "202612.670000", "202613.130000", "202613.590000", "202614.050000", "202614.510000", "202614.970000", "202615.430000", "202615.890000", "202616.350000", "202616.810000", "202617.270000", "202617.730000", "202618.190000", "202618.650000", "202619.110000", "202619.570000", "202620.030000", "202620.490000", "202620.950000", "202621.410000", "202621.870000", "202622.330000", "202622.790000", "202623.250000", "202623.710000", "202624.170000", "202624.630000", "202625.090000", "202625.550000", "202626.010000", "202626.470000", "202626.930000", "202627.390000", "202627.850000", "202628.310000", "202628.770000", "202629.230000", "202629.690000", "202630.150000", "202630.610000"],
