{
  "AcquisitionMatrixPE": 82,
  "AcquisitionNumber": 1,
  "AcquisitionTime": "19:07:38.797500",
  "BandwidthPerPixelPhaseEncode": 24.888,
  "BaseResolution": 82,
  "BodyPartExamined": "BRAIN",
  "ConsistencyInfo": "N4_VE11E_LATEST_20181129",
  "ConversionSoftware": "dcm2niix",
  "ConversionSoftwareVersion": "v1.0.20201102",
  "DerivedVendorReportedEchoSpacing": 0.00049,
  "DeviceSerialNumber": "66112",
  "DwellTime": 2e-06,
  "EchoTime": 0.0272,
  "EchoTrainLength": 82,
  "EffectiveEchoSpacing": 0.00049,
  "FlipAngle": 44,
  "ImageComments": "Unaliased MB8/PE3",
  "ImageOrientationPatientDICOM": [0.998207, 0.00850271, -0.0592568, 0.00296173, 0.981635, 0.190746],
  "ImageType": [
    "ORIGINAL",
    "PRIMARY",
    "M",
    "MB",
    "ND",
    "NORM",
    "MOSAIC"
],
  "ImagingFrequency": 123.252,
  "InPlanePhaseEncodingDirectionDICOM": "COL",
  "InstitutionAddress": "Maynard 3,Hanover,NH,US,03755",
  "InstitutionName": "Dartmouth College - PBS",
  "InstitutionalDepartmentName": "Department",
  "MRAcquisitionType": "2D",
  "MagneticFieldStrength": 3,
  "Manufacturer": "Siemens",
  "ManufacturersModelName": "Prisma",
  "Modality": "MR",
  "MultibandAccelerationFactor": 8,
  "PartialFourier": 1,
  "PatientPosition": "HFS",
  "PercentPhaseFOV": 100,
  "PercentSampling": 100,
  "PhaseEncodingDirection": "j-",
  "PhaseEncodingSteps": 82,
  "PhaseResolution": 1,
  "PixelBandwidth": 3050,
  "ProcedureStepDescription": "Wager_Wager^1076_spacetop",
  "ProtocolName": "func_run-01_task-social_acq-ap-mb8",
  "PulseSequenceDetails": "%CustomerSeq%\\cmrr_mbep2d_bold",
  "ReceiveCoilActiveElements": "HEA;HEP",
  "ReceiveCoilName": "Head_32",
  "ReconMatrixPE": 82,
  "RepetitionTime": 0.46,
  "SAR": 0.0955314,
  "ScanOptions": "FS",
  "ScanningSequence": "EP",
  "SequenceName": "epfid2d1_82",
  "SequenceVariant": "SK\\SS",
  "SeriesDescription": "func_run-01_task-social_acq-ap-mb8",
  "SeriesNumber": 12,
  "ShimSetting": [4137, -7780, -7279, 622, -95, -313, 77, 102],
  "SliceThickness": 2.7,
  "SliceTiming": [0, 0.25, 0.0625, 0.3125, 0.125, 0.375, 0.1875, 0, 0.25, 0.0625, 0.3125, 0.125, 0.375, 0.1875, 0, 0.25, 0.0625, 0.3125, 0.125, 0.375, 0.1875, 0, 0.25, 0.0625, 0.3125, 0.125, 0.375, 0.1875, 0, 0.25, 0.0625, 0.3125, 0.125, 0.375, 0.1875, 0, 0.25, 0.0625, 0.3125, 0.125, 0.375, 0.1875, 0, 0.25, 0.0625, 0.3125, 0.125, 0.375, 0.1875, 0, 0.25, 0.0625, 0.3125, 0.125, 0.375, 0.1875],
  "SoftwareVersions": "syngo MR E11",
  "SpacingBetweenSlices": 2.7,
  "StationName": "AWP66112",
  "TaskName": "social",
  "TotalReadoutTime": 0.03969,
  "TxRefAmp": 236.026,
  "WipMemBlock": "63999220-a8e6-401c-9e62-81d9ea24fa9b||Sequence: R016 ve11e/master r/434b28f1; Aug  7 2019 18:53:46 by eja",
  "dcmmeta_affine": [
    [-2.678115129470825, 0.007946106605231762, -0.16143402457237244, 113.49669647216797],
    [-0.022812161594629288, 2.633654832839966, 0.5145638585090637, -95.60697937011719],
    [-0.158981591463089, -0.5117570757865906, 2.6455931663513184, -36.00532531738281],
    [0.0, 0.0, 0.0, 1.0]
],
  "dcmmeta_reorient_transform": [
    [0.0, -1.0, 0.0, 81.0],
    [1.0, 0.0, 0.0, 0.0],
    [0.0, 0.0, 1.0, 0.0],
    [0.0, 0.0, 0.0, 1.0]
],
  "dcmmeta_shape": [82, 82, 56, 872],
  "dcmmeta_slice_dim": 2,
  "dcmmeta_version": 0.6,
  "global": {
    "const": {
      "AccessionNumber": "A004034",
      "AcquisitionMatrix": [82, 0, 0, 82],
      "AngioFlag": "N",
      "BitsAllocated": 16,
      "BitsStored": 16,
      "BodyPartExamined": "BRAIN",
      "Columns": 656,
      "EchoNumbers": 1,
      "EchoTime": 27.2,
      "EchoTrainLength": 82,
      "FlipAngle": 44.0,
      "HighBit": 15,
      "ImageOrientationPatient": [0.99820656105384, 0.00850271472226, -0.0592567743926, 0.00296173057122, 0.98163499604571, 0.19074580648175],
      "ImagePositionPatient": [-885.03993604436, -880.12512794926, -178.70420551989],
      "ImageType": [
        "ORIGINAL",
        "PRIMARY",
        "M",
        "MB",
        "ND",
        "NORM",
        "MOSAIC"
],
      "ImagedNucleus": "1H",
      "ImagingFrequency": 123.25233,
      "InPlanePhaseEncodingDirection": "COL",
      "MRAcquisitionType": "2D",
      "MagneticFieldStrength": 3.0,
      "Manufacturer": "SIEMENS",
      "ManufacturerModelName": "Prisma",
      "Modality": "MR",
      "NumberOfAverages": 1.0,
      "NumberOfPhaseEncodingSteps": 82,
      "PercentPhaseFieldOfView": 100.0,
      "PercentSampling": 100.0,
      "PerformedProcedureStepStartTime": "182438.845000",
      "PhotometricInterpretation": "MONOCHROME2",
      "PixelBandwidth": 3050.0,
      "PixelRepresentation": 0,
      "PixelSpacing": [2.6829268932343, 2.6829268932343],
      "ProtocolName": "func_run-01_task-social_acq-ap-mb8",
      "RepetitionTime": 460.0,
      "Rows": 656,
      "SAR": 0.09553138270523,
      "SamplesPerPixel": 1,
      "ScanOptions": "FS",
      "ScanningSequence": "EP",
      "SequenceName": "epfid2d1_82",
      "SequenceVariant": [
        "SK",
        "SS"
],
      "SeriesDescription": "func_run-01_task-social_acq-ap-mb8",
      "SeriesNumber": 12,
      "SeriesTime": "190751.833000",
      "SliceLocation": -60.286508578607,
      "SliceThickness": 2.7000000476837,
      "SmallestImagePixelValue": 0,
      "SoftwareVersions": "syngo MR E11",
      "SpacingBetweenSlices": 2.6999999123128,
      "SpecificCharacterSet": "ISO_IR 100",
      "StudyID": "1",
      "StudyTime": "182438.701000",
      "TransmitCoilName": "Body",
      "VariableFlipAngleFlag": "N",
      "WindowCenterWidthExplanation": "Algo1"
    },
    "slices": {}
  },
  "time": {
    "samples": {
      "AcquisitionNumber": [1, 2, 3, 4, 5, 6, 7, 8, 9, 10, 11, 12, 13, 14, 15, 16, 17, 18, 19, 20, 21, 22, 23, 24, 25, 26, 27, 28, 29, 30, 31, 32, 33, 34, 35, 36, 37, 38, 39, 40, 41, 42, 43, 44, 45, 46, 47, 48, 49, 50, 51, 52, 53, 54, 55, 56, 57, 58, 59, 60, 61, 62, 63, 64, 65, 66, 67, 68, 69, 70, 71, 72, 73, 74, 75, 76, 77, 78, 79, 80, 81, 82, 83, 84, 85, 86, 87, 88, 89, 90, 91, 92, 93, 94, 95, 96, 97, 98, 99, 100, 101, 102, 103, 104, 105, 106, 107, 108, 109, 110, 111, 112, 113, 114, 115, 116, 117, 118, 119, 120, 121, 122, 123, 124, 125, 126, 127, 128, 129, 130, 131, 132, 133, 134, 135, 136, 137, 138, 139, 140, 141, 142, 143, 144, 145, 146, 147, 148, 149, 150, 151, 152, 153, 154, 155, 156, 157, 158, 159, 160, 161, 162, 163, 164, 165, 166, 167, 168, 169, 170, 171, 172, 173, 174, 175, 176, 177, 178, 179, 180, 181, 182, 183, 184, 185, 186, 187, 188, 189, 190, 191, 192, 193, 194, 195, 196, 197, 198, 199, 200, 201, 202, 203, 204, 205, 206, 207, 208, 209, 210, 211, 212, 213, 214, 215, 216, 217, 218, 219, 220, 221, 222, 223, 224, 225, 226, 227, 228, 229, 230, 231, 232, 233, 234, 235, 236, 237, 238, 239, 240, 241, 242, 243, 244, 245, 246, 247, 248, 249, 250, 251, 252, 253, 254, 255, 256, 257, 258, 259, 260, 261, 262, 263, 264, 265, 266, 267, 268, 269, 270, 271, 272, 273, 274, 275, 276, 277, 278, 279, 280, 281, 282, 283, 284, 285, 286, 287, 288, 289, 290, 291, 292, 293, 294, 295, 296, 297, 298, 299, 300, 301, 302, 303, 304, 305, 306, 307, 308, 309, 310, 311, 312, 313, 314, 315, 316, 317, 318, 319, 320, 321, 322, 323, 324, 325, 326, 327, 328, 329, 330, 331, 332, 333, 334, 335, 336, 337, 338, 339, 340, 341, 342, 343, 344, 345, 346, 347, 348, 349, 350, 351, 352, 353, 354, 355, 356, 357, 358, 359, 360, 361, 362, 363, 364, 365, 366, 367, 368, 369, 370, 371, 372, 373, 374, 375, 376, 377, 378, 379, 380, 381, 382, 383, 384, 385, 386, 387, 388, 389, 390, 391, 392, 393, 394, 395, 396, 397, 398, 399, 400, 401, 402, 403, 404, 405, 406, 407, 408, 409, 410, 411, 412, 413, 414, 415, 416, 417, 418, 419, 420, 421, 422, 423, 424, 425, 426, 427, 428, 429, 430, 431, 432, 433, 434, 435, 436, 437, 438, 439, 440, 441, 442, 443, 444, 445, 446, 447, 448, 449, 450, 451, 452, 453, 454, 455, 456, 457, 458, 459, 460, 461, 462, 463, 464, 465, 466, 467, 468, 469, 470, 471, 472, 473, 474, 475, 476, 477, 478, 479, 480, 481, 482, 483, 484, 485, 486, 487, 488, 489, 490, 491, 492, 493, 494, 495, 496, 497, 498, 499, 500, 501, 502, 503, 504, 505, 506, 507, 508, 509, 510, 511, 512, 513, 514, 515, 516, 517, 518, 519, 520, 521, 522, 523, 524, 525, 526, 527, 528, 529, 530, 531, 532, 533, 534, 535, 536, 537, 538, 539, 540, 541, 542, 543, 544, 545, 546, 547, 548, 549, 550, 551, 552, 553, 554, 555, 556, 557, 558, 559, 560, 561, 562, 563, 564, 565, 566, 567, 568, 569, 570, 571, 572, 573, 574, 575, 576, 577, 578, 579, 580, 581, 582, 583, 584, 585, 586, 587, 588, 589, 590, 591, 592, 593, 594, 595, 596, 597, 598, 599, 600, 601, 602, 603, 604, 605, 606, 607, 608, 609, 610, 611, 612, 613, 614, 615, 616, 617, 618, 619, 620, 621, 622, 623, 624, 625, 626, 627, 628, 629, 630, 631, 632, 633, 634, 635, 636, 637, 638, 639, 640, 641, 642, 643, 644, 645, 646, 647, 648, 649, 650, 651, 652, 653, 654, 655, 656, 657, 658, 659, 660, 661, 662, 663, 664, 665, 666, 667, 668, 669, 670, 671, 672, 673, 674, 675, 676, 677, 678, 679, 680, 681, 682, 683, 684, 685, 686, 687, 688, 689, 690, 691, 692, 693, 694, 695, 696, 697, 698, 699, 700, 701, 702, 703, 704, 705, 706, 707, 708, 709, 710, 711, 712, 713, 714, 715, 716, 717, 718, 719, 720, 721, 722, 723, 724, 725, 726, 727, 728, 729, 730, 731, 732, 733, 734, 735, 736, 737, 738, 739, 740, 741, 742, 743, 744, 745, 746, 747, 748, 749, 750, 751, 752, 753, 754, 755, 756, 757, 758, 759, 760, 761, 762, 763, 764, 765, 766, 767, 768, 769, 770, 771, 772, 773, 774, 775, 776, 777, 778, 779, 780, 781, 782, 783, 784, 785, 786, 787, 788, 789, 790, 791, 792, 793, 794, 795, 796, 797, 798, 799, 800, 801, 802, 803, 804, 805, 806, 807, 808, 809, 810, 811, 812, 813, 814, 815, 816, 817, 818, 819, 820, 821, 822, 823, 824, 825, 826, 827, 828, 829, 830, 831, 832, 833, 834, 835, 836, 837, 838, 839, 840, 841, 842, 843, 844, 845, 846, 847, 848, 849, 850, 851, 852, 853, 854, 855, 856, 857, 858, 859, 860, 861, 862, 863, 864, 865, 866, 867, 868, 869, 870, 871, 872],
      "AcquisitionTime": ["190738.797500", "190739.257500", "190739.717500", "190740.177500", "190740.637500", "190741.097500", "190741.557500", "190742.017500", "190742.477500", "190742.937500", "190743.397500", "190743.857500", "190744.317500", "190744.777500", "190745.237500", "190745.697500", "190746.157500", "190746.617500", "190747.077500", "190747.537500", "190747.997500", "190748.457500", "190748.917500", "190749.377500", "190749.837500", "190750.297500", "190750.757500", "190751.217500", "190751.677500", "190752.137500", "190752.597500", "190753.057500", "190753.517500", "190753.977500", "190754.437500", "190754.897500", "190755.357500", "190755.817500", "190756.277500", "190756.737500", "190757.197500", "190757.657500", "190758.117500", "190758.577500", "190759.037500", "190759.497500", "190759.957500", "190800.417500", "190800.877500", "190801.337500", "190801.797500", "190802.257500", "190802.717500", "190803.177500", "190803.637500", "190804.097500", "190804.557500", "190805.017500", "190805.477500", "190805.937500", "190806.397500", "190806.857500", "190807.317500", "190807.777500", "190808.237500", "190808.697500", "190809.157500", "190809.617500", "190810.077500", "190810.537500", "190810.997500", "190811.457500", "190811.917500", "190812.377500", "190812.837500", "190813.297500", "190813.757500", "190814.217500", "190814.677500", "190815.137500", "190815.597500", "190816.057500", "190816.517500", "190816.977500", "190817.437500", "190817.897500", "190818.357500", "190818.817500", "190819.277500", "190819.737500", "190820.197500", "190820.657500", "190821.117500", "190821.577500", "190822.037500", "190822.497500", "190822.957500", "190823.417500", "190823.877500", "190824.337500", "190824.797500", "190825.257500", "190825.717500", "190826.177500", "190826.637500", "190827.097500", "190827.557500", "190828.017500", "190828.477500", "190828.937500", "190829.397500", "190829.857500", "190830.317500", "190830.777500", "190831.237500", "190831.697500", "190832.157500", "190832.617500", "190833.077500", "190833.537500", "190833.997500", "190834.457500", "190834.917500", "190835.377500", "190835.837500", "190836.297500", "190836.757500", "190837.217500", "190837.677500", "190838.137500", "190838.597500", "190839.057500", "190839.517500", "190839.977500", "190840.437500", "190840.897500", "190841.357500", "190841.817500", "190842.277500", "190842.737500", "190843.197500", "190843.657500", "190844.117500", "190844.577500", "190845.037500", "190845.497500", "190845.957500", "190846.417500", "190846.877500", "190847.337500", "190847.797500", "190848.257500", "190848.717500", "190849.177500", "190849.637500", "190850.097500", "190850.557500", "190851.017500", "190851.477500", "190851.937500", "190852.397500", "190852.857500", "190853.317500", "190853.777500", "190854.237500", "190854.697500", "190855.157500", "190855.617500", "190856.077500", "190856.537500", "190856.997500", "190857.457500", "190857.917500", "190858.377500", "190858.837500", "190859.297500", "190859.757500", "190900.217500", "190900.677500", "190901.137500", "190901.597500", "190902.057500", "190902.517500", "190902.977500", "190903.437500", "190903.897500", "190904.357500", "190904.817500", "190905.277500", "190905.737500", "190906.197500", "190906.657500", "190907.117500", "190907.577500", "190908.037500", "190908.497500", "190908.957500", "190909.417500", "190909.877500", "190910.337500", "190910.797500", "190911.257500", "190911.717500", "190912.177500", "190912.637500", "190913.097500", "190913.557500", "190914.017500", "190914.477500", "190914.937500", "190915.397500", "190915.857500", "190916.317500", "190916.777500", "190917.237500", "190917.697500", "190918.157500", "190918.617500", "190919.077500", "190919.537500", "190919.997500", "190920.457500", "190920.917500", "190921.377500", "190921.837500", "190922.297500", "190922.757500", "190923.217500", "190923.677500", "190924.137500", "190924.597500", "190925.057500", "190925.517500", "190925.977500", "190926.437500", "190926.897500", "190927.357500", "190927.817500", "190928.277500", "190928.737500", "190929.197500", "190929.657500", "190930.117500", "190930.577500", "190931.037500", "190931.497500", "190931.957500", "190932.417500", "190932.877500", "190933.337500", "190933.797500", "190934.257500", "190934.717500", "190935.177500", "190935.637500", "190936.097500", "190936.557500", "190937.017500", "190937.477500", "190937.937500", "190938.397500", "190938.857500", "190939.317500", "190939.777500", "190940.237500", "190940.697500", "190941.157500", "190941.617500", "190942.077500", "190942.537500", "190942.997500", "190943.457500", "190943.917500", "190944.377500", "190944.837500", "190945.297500", "190945.757500", "190946.217500", "190946.677500", "190947.137500", "190947.597500", "190948.057500", "190948.517500", "190948.977500", "190949.437500", "190949.897500", "190950.357500", "190950.817500", "190951.277500", "190951.737500", "190952.197500", "190952.657500", "190953.117500", "190953.577500", "190954.037500", "190954.497500", "190954.957500", "190955.417500", "190955.877500", "190956.337500", "190956.797500", "190957.257500", "190957.717500", "190958.177500", "190958.637500", "190959.097500", "190959.557500", "191000.017500", "191000.477500", "191000.937500", "191001.397500", "191001.857500", "191002.317500", "191002.777500", "191003.237500", "191003.697500", "191004.157500", "191004.617500", "191005.077500", "191005.537500", "191005.997500", "191006.457500", "191006.917500", "191007.377500", "191007.837500", "191008.297500", "191008.757500", "191009.217500", "191009.677500", "191010.137500", "191010.597500", "191011.057500", "191011.517500", "191011.977500", "191012.437500", "191012.897500", "191013.357500", "191013.817500", "191014.277500", "191014.737500", "191015.197500", "191015.657500", "191016.117500", "191016.577500", "191017.037500", "191017.497500", "191017.957500", "191018.417500", "191018.877500", "191019.337500", "191019.797500", "191020.257500", "191020.717500", "191021.177500", "191021.637500", "191022.097500", "191022.557500", "191023.017500", "191023.477500", "191023.937500", "191024.397500", "191024.857500", "191025.317500", "191025.777500", "191026.237500", "191026.697500", "191027.157500", "191027.617500", "191028.077500", "191028.537500", "191028.997500", "191029.457500", "191029.917500", "191030.377500", "191030.837500", "191031.297500", "191031.757500", "191032.217500", "191032.677500", "191033.137500", "191033.597500", "191034.057500", "191034.517500", "191034.977500", "191035.437500", "191035.897500", "191036.357500", "191036.817500", "191037.277500", "191037.737500", "191038.197500", "191038.657500", "191039.117500", "191039.577500", "191040.037500", "191040.497500", "191040.957500", "191041.417500", "191041.877500", "191042.337500", "191042.797500", "191043.257500", "191043.717500", "191044.177500", "191044.637500", "191045.097500", "191045.557500", "191046.017500", "191046.477500", "191046.937500", "191047.397500", "191047.857500", "191048.317500", "191048.777500", "191049.237500", "191049.697500", "191050.157500", "191050.617500", "191051.077500", "191051.537500", "191051.997500", "191052.457500", "191052.917500", "191053.377500", "191053.837500", "191054.297500", "191054.757500", "191055.217500", "191055.677500", "191056.137500", "191056.597500", "191057.057500", "191057.517500", "191057.977500", "191058.437500", "191058.897500", "191059.357500", "191059.817500", "191100.277500", "191100.737500", "191101.197500", "191101.657500", "191102.117500", "191102.577500", "191103.037500", "191103.497500", "191103.957500", "191104.417500", "191104.877500", "191105.337500", "191105.797500", "191106.257500", "191106.717500", "191107.177500", "191107.637500", "191108.097500", "191108.557500", "191109.017500", "191109.477500", "191109.937500", "191110.397500", "191110.857500", "191111.317500", "191111.777500", "191112.237500", "191112.697500", "191113.157500", "191113.617500", "191114.077500", "191114.537500", "191114.997500", "191115.457500", "191115.917500", "191116.377500", "191116.837500", "191117.297500", "191117.757500", "191118.217500", "191118.677500", "191119.137500", "191119.597500", "191120.057500", "191120.517500", "191120.977500", "191121.437500", "191121.897500", "191122.357500", "191122.817500", "191123.277500", "191123.737500", "191124.197500", "191124.657500", "191125.117500", "191125.577500", "191126.037500", "191126.497500", "191126.957500", "191127.417500", "191127.877500", "191128.337500", "191128.797500", "191129.257500", "191129.717500", "191130.177500", "191130.637500", "191131.097500", "191131.557500", "191132.017500", "191132.477500", "191132.937500", "191133.397500", "191133.857500", "191134.317500", "191134.777500", "191135.237500", "191135.697500", "191136.157500", "191136.617500", "191137.077500", "191137.537500", "191137.997500", "191138.457500", "191138.917500", "191139.377500", "191139.837500", "191140.297500", "191140.757500", "191141.217500", "191141.677500", "191142.137500", "191142.597500", "191143.057500", "191143.517500", "191143.977500", "191144.437500", "191144.897500", "191145.357500", "191145.817500", "191146.277500", "191146.737500", "191147.197500", "191147.657500", "191148.117500", "191148.577500", "191149.037500", "191149.497500", "191149.957500", "191150.417500", "191150.877500", "191151.337500", "191151.797500", "191152.257500", "191152.717500", "191153.177500", "191153.637500", "191154.097500", "191154.557500", "191155.017500", "191155.477500", "191155.937500", "191156.397500", "191156.857500", "191157.317500", "191157.777500", "191158.237500", "191158.697500", "191159.157500", "191159.617500", "191200.077500", "191200.537500", "191200.997500", "191201.457500", "191201.917500", "191202.377500", "191202.837500", "191203.297500", "191203.757500", "191204.217500", "191204.677500", "191205.137500", "191205.597500", "191206.057500", "191206.517500", "191206.977500", "191207.437500", "191207.897500", "191208.357500", "191208.817500", "191209.277500", "191209.737500", "191210.197500", "191210.657500", "191211.117500", "191211.577500", "191212.037500", "191212.497500", "191212.957500", "191213.417500", "191213.877500", "191214.337500", "191214.797500", "191215.257500", "191215.717500", "191216.177500", "191216.637500", "191217.097500", "191217.557500", "191218.017500", "191218.477500", "191218.937500", "191219.397500", "191219.857500", "191220.317500", "191220.777500", "191221.237500", "191221.697500", "191222.157500", "191222.617500", "191223.077500", "191223.537500", "191223.997500", "191224.457500", "191224.917500", "191225.377500", "191225.837500", "191226.297500", "191226.757500", "191227.217500", "191227.677500", "191228.137500", "191228.597500", "191229.057500", "191229.517500", "191229.977500", "191230.437500", "191230.897500", "191231.357500", "191231.817500", "191232.277500", "191232.737500", "191233.197500", "191233.657500", "191234.117500", "191234.577500", "191235.037500", "191235.497500", "191235.957500", "191236.417500", "191236.877500", "191237.337500", "191237.797500", "191238.257500", "191238.717500", "191239.177500", "191239.637500", "191240.097500", "191240.557500", "191241.017500", "191241.477500", "191241.937500", "191242.397500", "191242.857500", "191243.317500", "191243.777500", "191244.237500", "191244.697500", "191245.157500", "191245.617500", "191246.077500", "191246.537500", "191246.997500", "191247.457500", "191247.917500", "191248.377500", "191248.837500", "191249.297500", "191249.757500", "191250.217500", "191250.677500", "191251.137500", "191251.597500", "191252.057500", "191252.517500", "191252.977500", "191253.437500", "191253.897500", "191254.357500", "191254.817500", "191255.277500", "191255.737500", "191256.197500", "191256.657500", "191257.117500", "191257.577500", "191258.037500", "191258.497500", "191258.957500", "191259.417500", "191259.877500", "191300.337500", "191300.797500", "191301.257500", "191301.717500", "191302.177500", "191302.637500", "191303.097500", "191303.557500", "191304.017500", "191304.477500", "191304.937500", "191305.397500", "191305.857500", "191306.317500", "191306.777500", "191307.237500", "191307.697500", "191308.157500", "191308.617500", "191309.077500", "191309.537500", "191309.997500", "191310.457500", "191310.917500", "191311.377500", "191311.837500", "191312.297500", "191312.757500", "191313.217500", "191313.677500", "191314.137500", "191314.597500", "191315.057500", "191315.517500", "191315.977500", "191316.437500", "191316.897500", "191317.357500", "191317.817500", "191318.277500", "191318.737500", "191319.197500", "191319.657500", "191320.117500", "191320.577500", "191321.037500", "191321.497500", "191321.957500", "191322.417500", "191322.877500", "191323.337500", "191323.797500", "191324.257500", "191324.717500", "191325.177500", "191325.637500", "191326.097500", "191326.557500", "191327.017500", "191327.477500", "191327.937500", "191328.397500", "191328.857500", "191329.317500", "191329.777500", "191330.237500", "191330.697500", "191331.157500", "191331.617500", "191332.077500", "191332.537500", "191332.997500", "191333.457500", "191333.917500", "191334.377500", "191334.837500", "191335.297500", "191335.757500", "191336.217500", "191336.677500", "191337.137500", "191337.597500", "191338.057500", "191338.517500", "191338.977500", "191339.437500", "191339.897500", "191340.357500", "191340.817500", "191341.277500", "191341.737500", "191342.197500", "191342.657500", "191343.117500", "191343.577500", "191344.037500", "191344.497500", "191344.957500", "191345.417500", "191345.877500", "191346.337500", "191346.797500", "191347.257500", "191347.717500", "191348.177500", "191348.637500", "191349.097500", "191349.557500", "191350.017500", "191350.477500", "191350.937500", "191351.397500", "191351.857500", "191352.317500", "191352.777500", "191353.237500", "191353.697500", "191354.157500", "191354.617500", "191355.077500", "191355.537500", "191355.997500", "191356.457500", "191356.917500", "191357.377500", "191357.837500", "191358.297500", "191358.757500", "191359.217500", "191359.677500", "191400.137500", "191400.597500", "191401.057500", "191401.517500", "191401.977500", "191402.437500", "191402.897500", "191403.357500", "191403.817500", "191404.277500", "191404.737500", "191405.197500", "191405.657500", "191406.117500", "191406.577500", "191407.037500", "191407.497500", "191407.957500", "191408.417500", "191408.877500", "191409.337500", "191409.797500", "191410.257500", "191410.717500", "191411.177500", "191411.637500", "191412.097500", "191412.557500", "191413.017500", "191413.477500", "191413.937500", "191414.397500", "191414.857500", "191415.317500", "191415.777500", "191416.237500", "191416.697500", "191417.157500", "191417.617500", "191418.077500", "191418.537500", "191418.997500", "191419.457500"],
