{
  "AcquisitionMatrixPE": 140,
  "AcquisitionNumber": 1,
  "AcquisitionTime": "16:08:54.042500",
  "BandwidthPerPixelPhaseEncode": 10.352,
  "BaseResolution": 140,
  "BodyPartExamined": "BRAIN",
  "ConsistencyInfo": "N4_VE11E_LATEST_20181129",
  "ConversionSoftware": "dcm2niix",
  "ConversionSoftwareVersion": "v1.0.20201102",
  "DerivedVendorReportedEchoSpacing": 0.000689998,
  "DeviceSerialNumber": "66112",
  "DiffusionScheme": "Monopolar",
  "DwellTime": 2.1e-06,
  "EchoTime": 0.0884,
  "EchoTrainLength": 105,
  "EffectiveEchoSpacing": 0.000689998,
  "FlipAngle": 90,
  "ImageComments": "Unaliased MB3/PE3 SENSE1",
  "ImageOrientationPatientDICOM": [0.999733, -0.00515745, -0.0225397, 0.00994607, 0.975933, 0.217842],
  "ImageType": [
    "ORIGINAL",
    "PRIMARY",
    "DIFFUSION",
    "NONE",
    "MB",
    "ND",
    "MOSAIC"
],
  "ImagingFrequency": 123.259,
  "InPlanePhaseEncodingDirectionDICOM": "COL",
  "InstitutionAddress": "Maynard 3,Hanover,NH,US,03755",
  "InstitutionName": "Dartmouth College - PBS",
  "InstitutionalDepartmentName": "Department",
  "MRAcquisitionType": "2D",
  "MagneticFieldStrength": 3,
  "Manufacturer": "Siemens",
  "ManufacturersModelName": "Prisma",
  "Modality": "MR",
  "MultibandAccelerationFactor": 3,
  "PartialFourier": 0.75,
  "PatientPosition": "HFS",
  "PercentPhaseFOV": 100,
  "PercentSampling": 100,
  "PhaseEncodingDirection": "j-",
  "PhaseEncodingSteps": 105,
  "PhaseResolution": 1,
  "PixelBandwidth": 1700,
  "ProcedureStepDescription": "Wager_Wager^1076_spacetop",
  "ProtocolName": "dwi_acq-96dir-6b0-mb",
  "PulseSequenceDetails": "%CustomerSeq%\\cmrr_mbep2d_diff",
  "ReceiveCoilActiveElements": "HEA;HEP",
  "ReceiveCoilName": "Head_32",
  "ReconMatrixPE": 140,
  "RepetitionTime": 4.11,
  "SAR": 0.228312,
  "ScanOptions": "PFP\\FS",
  "ScanningSequence": "EP",
  "SequenceName": "ep_b5#1",
  "SequenceVariant": "SK\\SS",
  "SeriesDescription": "dwi_acq-96dir-6b0-mb",
  "SeriesNumber": 8,
  "ShimSetting": [4209, -7747, -7204, 344, -141, 119, 59, 58],
  "SliceThickness": 1.7,
  "SliceTiming": [0, 2.12, 0.15, 2.2725, 0.3025, 2.4225, 0.4525, 2.575, 0.605, 2.725, 0.7575, 2.8775, 0.9075, 3.0275, 1.06, 3.18, 1.21, 3.3325, 1.3625, 3.4825, 1.515, 3.635, 1.665, 3.785, 1.8175, 3.9375, 1.9675, 0, 2.12, 0.15, 2.2725, 0.3025, 2.4225, 0.4525, 2.575, 0.605, 2.725, 0.7575, 2.8775, 0.9075, 3.0275, 1.06, 3.18, 1.21, 3.3325, 1.3625, 3.4825, 1.515, 3.635, 1.665, 3.785, 1.8175, 3.9375, 1.9675, 0, 2.12, 0.15, 2.2725, 0.3025, 2.4225, 0.4525, 2.575, 0.605, 2.725, 0.7575, 2.8775, 0.9075, 3.0275, 1.06, 3.18, 1.21, 3.3325, 1.3625, 3.4825, 1.515, 3.635, 1.665, 3.785, 1.8175, 3.9375, 1.9675],
  "SoftwareVersions": "syngo MR E11",
  "SpacingBetweenSlices": 1.7,
  "StationName": "AWP66112",
  "TotalReadoutTime": 0.0959097,
  "TxRefAmp": 237.137,
  "WipMemBlock": "c21ddb36-6c2e-4f3e-ab82-0ac7af511ca4||Sequence: R016 ve11e/master r/434b28f1; Aug  7 2019 19:06:17 by eja",
  "dcmmeta_affine": [
    [-1.71382737159729, 0.017050402238965034, -0.03548532724380493, 123.3246841430664],
    [0.008841334842145443, 1.6730287075042725, 0.3706132173538208, -108.12269592285156],
    [-0.038639456033706665, -0.3734431266784668, 1.6587305068969727, -33.166595458984375],
    [0.0, 0.0, 0.0, 1.0]
],
  "dcmmeta_reorient_transform": [
    [0.0, -1.0, 0.0, 139.0],
    [1.0, 0.0, 0.0, 0.0],
    [0.0, 0.0, 1.0, 0.0],
    [0.0, 0.0, 0.0, 1.0]
],
  "dcmmeta_shape": [140, 140, 81, 103],
  "dcmmeta_slice_dim": 2,
  "dcmmeta_version": 0.6,
  "global": {
    "const": {
      "AccessionNumber": "A004656",
      "AcquisitionMatrix": [140, 0, 0, 140],
      "AngioFlag": "N",
      "BitsAllocated": 16,
      "BitsStored": 16,
      "BodyPartExamined": "BRAIN",
      "Columns": 1260,
      "EchoNumbers": 1,
      "EchoTime": 88.4,
      "EchoTrainLength": 105,
      "FlipAngle": 90.0,
      "HighBit": 15,
      "ImageOrientationPatient": [0.9997326459922, -0.0051574451653, -0.0225396827128, 0.00994606775488, 0.97593340721904, 0.21784182429014],
      "ImagePositionPatient": [-1094.9862658125, -1056.373225329, -272.565250088],
      "ImageType": [
        "ORIGINAL",
        "PRIMARY",
        "DIFFUSION",
        "NONE",
        "MB",
        "ND",
        "MOSAIC"
],
      "ImagedNucleus": "1H",
      "ImagingFrequency": 123.259069,
      "InPlanePhaseEncodingDirection": "COL",
      "MRAcquisitionType": "2D",
      "MagneticFieldStrength": 3.0,
      "Manufacturer": "SIEMENS",
      "ManufacturerModelName": "Prisma",
      "Modality": "MR",
      "NumberOfAverages": 1.0,
      "NumberOfPhaseEncodingSteps": 105,
      "PercentPhaseFieldOfView": 100.0,
      "PercentSampling": 100.0,
      "PerformedProcedureStepStartTime": "154150.417000",
      "PhotometricInterpretation": "MONOCHROME2",
      "PixelBandwidth": 1700.0,
      "PixelRepresentation": 0,
      "PixelSpacing": [1.7142857313156, 1.7142857313156],
      "ProtocolName": "dwi_acq-96dir-6b0-mb",
      "RepetitionTime": 4110.0,
      "Rows": 1260,
      "SAR": 0.22831154621593,
      "SamplesPerPixel": 1,
      "ScanOptions": [
        "PFP",
        "FS"
],
      "ScanningSequence": "EP",
      "SequenceVariant": [
        "SK",
        "SS"
],
      "SeriesDescription": "dwi_acq-96dir-6b0-mb",
      "SeriesNumber": 8,
      "SeriesTime": "161020.689000",
      "SliceLocation": -58.507270694498,
      "SliceThickness": 1.7000000476837,
      "SmallestImagePixelValue": 0,
      "SoftwareVersions": "syngo MR E11",
      "SpacingBetweenSlices": 1.7000000273912,
      "SpecificCharacterSet": "ISO_IR 100",
      "StudyID": "1",
      "StudyTime": "154150.364000",
      "TransmitCoilName": "Body",
      "VariableFlipAngleFlag": "N",
      "WindowCenterWidthExplanation": "Algo1"
    },
    "slices": {}
  },
  "time": {
    "samples": {
      "AcquisitionNumber": [1, 2, 3, 4, 5, 6, 7, 8, 9, 10, 11, 12, 13, 14, 15, 16, 17, 18, 19, 20, 21, 22, 23, 24, 25, 26, 27, 28, 29, 30, 31, 32, 33, 34, 35, 36, 37, 38, 39, 40, 41, 42, 43, 44, 45, 46, 47, 48, 49, 50, 51, 52, 53, 54, 55, 56, 57, 58, 59, 60, 61, 62, 63, 64, 65, 66, 67, 68, 69, 70, 71, 72, 73, 74, 75, 76, 77, 78, 79, 80, 81, 82, 83, 84, 85, 86, 87, 88, 89, 90, 91, 92, 93, 94, 95, 96, 97, 98, 99, 100, 101, 102, 103],
      "AcquisitionTime": ["160854.042500", "160858.152500", "160902.262500", "160906.372500", "160910.482500", "160914.592500", "160918.702500", "160922.812500", "160926.922500", "160931.032500", "160935.142500", "160939.252500", "160943.362500", "160947.472500", "160951.582500", "160955.692500", "160959.802500", "161003.912500", "161008.022500", "161012.132500", "161016.242500", "161020.352500", "161024.462500", "161028.572500", "161032.682500", "161036.792500", "161040.902500", "161045.012500", "161049.122500", "161053.232500", "161057.342500", "161101.452500", "161105.562500", "161109.672500", "161113.782500", "161117.892500", "161122.002500", "161126.112500", "161130.222500", "161134.332500", "161138.442500", "161142.552500", "161146.662500", "161150.772500", "161154.882500", "161158.992500", "161203.102500", "161207.212500", "161211.322500", "161215.432500", "161219.542500", "161223.652500", "161227.762500", "161231.872500", "161235.982500", "161240.092500", "161244.202500", "161248.312500", "161252.422500", "161256.532500", "161300.642500", "161304.752500", "161308.862500", "161312.972500", "161317.082500", "161321.192500", "161325.302500", "161329.412500", "161333.522500", "161337.632500", "161341.742500", "161345.852500", "161349.962500", "161354.072500", "161358.182500", "161402.292500", "161406.402500", "161410.512500", "161414.622500", "161418.732500", "161422.842500", "161426.952500", "161431.062500", "161435.172500", "161439.282500", "161443.392500", "161447.502500", "161451.612500", "161455.722500", "161459.832500", "161503.942500", "161508.052500", "161512.162500", "161516.272500", "161520.382500", "161524.492500", "161528.602500", "161532.712500", "161536.822500", "161540.932500", "161545.042500", "161549.152500", "161553.262500"],
      "ContentTime": ["161020.693000", "161020.697000", "161020.700000", "161020.703000", "161020.706000", "161020.709000", "161020.712000", "161020.714000", "161020.717000", "161020.720000", "161020.733000", "161020.736000", "161020.739000", "161020.742000", "161020.753000", "161020.756000", "161020.759000", "161020.762000", "161020.765000", "161020.768000", "161140.687000", "161140.690000", "161140.693000", "161140.696000", "161140.699000", "161140.702000", "161140.705000", "161140.708000", "161140.711000", "161140.714000", "161140.717000", "161140.720000", "161140.731000", "161140.734000", "161140.737000", "161140.740000", "161140.743000", "161140.746000", "161140.749000", "161140.752000", "161320.687000", "161320.690000", "161320.693000", "161320.696000", "161320.705000", "161320.708000", "161320.711000", "161320.714000", "161320.717000", "161320.720000", "161320.722000", "161320.725000", "161320.728000", "161320.731000", "161320.734000", "161320.737000", "161320.740000", "161320.743000", "161320.746000", "161320.749000", "161320.752000", "161320.755000", "161320.758000", "161320.761000", "161400.687000", "161400.690000", "161400.693000", "161400.696000", "161400.699000", "161400.702000", "161400.705000", "161400.708000", "161400.711000", "161400.714000", "161540.687000", "161540.690000", "161540.693000", "161540.696000", "161540.699000", "161540.702000", "161540.705000", "161540.708000", "161540.711000", "161540.714000", "161540.717000", "161540.720000", "161540.723000", "161540.741000", "161540.744000", "161540.747000", "161540.750000", "161540.753000", "161540.756000", "161540.759000", "161540.762000", "161540.765000", "161540.768000", "161540.771000", "161558.318000", "161558.321000", "161558.324000", "161558.327000", "161558.330000"],
      "InstanceCreationTime": ["161020.693000", "161020.697000", "161020.700000", "161020.703000", "161020.706000", "161020.709000", "161020.712000", "161020.714000", "161020.717000", "161020.720000", "161020.733000", "161020.736000", "161020.739000", "161020.742000", "161020.753000", "161020.756000", "161020.759000", "161020.762000", "161020.765000", "161020.768000", "161140.687000", "161140.690000", "161140.693000", "161140.696000", "161140.699000", "161140.702000", "161140.705000", "161140.708000", "161140.711000", "161140.714000", "161140.717000", "161140.720000", "161140.731000", "161140.734000", "161140.737000", "161140.740000", "161140.743000", "161140.746000", "161140.749000", "161140.752000", "161320.687000", "161320.690000", "161320.693000", "161320.696000", "161320.705000", "161320.708000", "161320.711000", "161320.714000", "161320.717000", "161320.720000", "161320.722000", "161320.725000", "161320.728000", "161320.731000", "161320.734000", "161320.737000", "161320.740000", "161320.743000", "161320.746000", "161320.749000", "161320.752000", "161320.755000", "161320.758000", "161320.761000", "161400.687000", "161400.690000", "161400.693000", "161400.696000", "161400.699000", "161400.702000", "161400.705000", "161400.708000", "161400.711000", "161400.714000", "161540.687000", "161540.690000", "161540.693000", "161540.696000", "161540.699000", "161540.702000", "161540.705000", "161540.708000", "161540.711000", "161540.714000", "161540.717000", "161540.720000", "161540.723000", "161540.741000", "161540.744000", "161540.747000", "161540.750000", "161540.753000", "161540.756000", "161540.759000", "161540.762000", "161540.765000", "161540.768000", "161540.771000", "161558.318000", "161558.321000", "161558.324000", "161558.327000", "161558.330000"],
      "InstanceNumber": [1, 2, 3, 4, 5, 6, 7, 8, 9, 10, 11, 12, 13, 14, 15, 16, 17, 18, 19, 20, 21, 22, 23, 24, 25, 26, 27, 28, 29, 30, 31, 32, 33, 34, 35, 36, 37, 38, 39, 40, 41, 42, 43, 44, 45, 46, 47, 48, 49, 50, 51, 52, 53, 54, 55, 56, 57, 58, 59, 60, 61, 62, 63, 64, 65, 66, 67, 68, 69, 70, 71, 72, 73, 74, 75, 76, 77, 78, 79, 80, 81, 82, 83, 84, 85, 86, 87, 88, 89, 90, 91, 92, 93, 94, 95, 96, 97, 98, 99, 100, 101, 102, 103],
      "LargestImagePixelValue": [65535, 65535, 65535, 65535, 65535, 65535, 65535, 65535, 65535, 48404, 51388, 46895, 48629, 47493, 48428, 50451, 49522, 50370, 49969, 48186, 48926, 47794, 50878, 48120, 65535, 24345, 24001, 26137, 26342, 26234, 30735, 27274, 27168, 26059, 27090, 26208, 24893, 25058, 27696, 26591, 65535, 14153, 15055, 16021, 17529, 14122, 14946, 14959, 15956, 13234, 15541, 16191, 15271, 15615, 15761, 14711, 13276, 13547, 14642, 14572, 14629, 14299, 14790, 14133, 13983, 16434, 13675, 14163, 13711, 13841, 13217, 15560, 14890, 65535, 15998, 15042, 16106, 14095, 15362, 14102, 14952, 16778, 15585, 14652, 13548, 14801, 15549, 16039, 16185, 16324, 15993, 15410, 14034, 14165, 14879, 15235, 14681, 13803, 14258, 15739, 13168, 14876, 65535],
      "SequenceName": [
 "ep_b5#1",
 "ep_b5#1",
 "ep_b500#2",
 "ep_b500#3",
 "ep_b500#4",
 "ep_b505#5",
 "ep_b495#6",
 "ep_b500#7",
 "ep_b5#8",
 "ep_b1000#9",
 "ep_b1005#10",
 "ep_b995#11",
 "ep_b1005#12",
 "ep_b995#13",
 "ep_b995#14",
 "ep_b1005#15",
 "ep_b1000#16",
 "ep_b1000#17",
 "ep_b995#18",
 "ep_b1000#19",
 "ep_b995#20",
 "ep_b1000#21",
 "ep_b1005#22",
 "ep_b1005#23",
 "ep_b5#24",
 "ep_b2000#25",
 "ep_b1995#26",
 "ep_b1995#27",
 "ep_b1995#28",
 "ep_b2005#29",
 "ep_b2010#30",
 "ep_b2005#31",
 "ep_b2005#32",
 "ep_b1995#33",
 "ep_b1990#34",
 "ep_b1995#35",
 "ep_b2005#36",
 "ep_b2000#37",
 "ep_b2010#38",
 "ep_b2000#39",
 "ep_b5#40",
 "ep_b3000#41",
 "ep_b3005#42",
 "ep_b3010#43",
 "ep_b3010#44",
 "ep_b3000#45",
 "ep_b2995#46",
 "ep_b2990#47",
 "ep_b3005#48",
 "ep_b3000#49",
 "ep_b2990#50",
 "ep_b2990#51",
 "ep_b2995#52",
 "ep_b2995#53",
 "ep_b3010#54",
 "ep_b3000#55",
 "ep_b2995#56",
 "ep_b3000#57",
 "ep_b2990#58",
 "ep_b2990#59",
 "ep_b3000#60",
 "ep_b2990#61",
 "ep_b2990#62",
 "ep_b2995#63",
 "ep_b3005#64",
 "ep_b3010#65",
 "ep_b3000#66",
 "ep_b3005#67",
 "ep_b3010#68",
 "ep_b3005#69",
 "ep_b3005#70",
 "ep_b3010#71",
 "ep_b2990#72",
 "ep_b5#73",
 "ep_b3010#74",
 "ep_b3000#75",
 "ep_b3005#76",
 "ep_b3005#77",
 "ep_b2995#78",
 "ep_b3005#79",
 "ep_b3000#80",
 "ep_b3010#81",
 "ep_b3010#82",
 "ep_b3005#83",
 "ep_b3000#84",
 "ep_b3005#85",
 "ep_b3010#86",
 "ep_b3010#87",
 "ep_b2990#88",
 "ep_b3010#89",
 "ep_b2995#90",
 "ep_b2995#91",
 "ep_b2995#92",
 "ep_b2995#93",
 "ep_b3005#94",
 "ep_b3005#95",
 "ep_b2995#96",
 "ep_b3000#97",
 "ep_b2990#98",
 "ep_b3000#99",
 "ep_b2995#100",
 "ep_b2995#101",
 "ep_b5#102"
],
      "WindowCenter": [11251.0, 11252.0, 7853.0, 7881.0, 7834.0, 7834.0, 7935.0, 7893.0, 11265.0, 5957.0, 6003.0, 5938.0, 5955.0, 5984.0, 5978.0, 5955.0, 6031.0, 5992.0, 5997.0, 5923.0, 6016.0, 5948.0, 5993.0, 5971.0, 11279.0, 3823.0, 3774.0, 3863.0, 3904.0, 3850.0, 3943.0, 3875.0, 3870.0, 3849.0, 3922.0, 3878.0, 3799.0, 3788.0, 3879.0, 3837.0, 11298.0, 2693.0, 2687.0, 2779.0, 2835.0, 2670.0, 2727.0, 2769.0, 2708.0, 2652.0, 2757.0, 2788.0, 2753.0, 2759.0, 2768.0, 2711.0, 2689.0, 2638.0, 2782.0, 2769.0, 2699.0, 2742.0, 2779.0, 2750.0, 2718.0, 2802.0, 2635.0, 2681.0, 2695.0, 2679.0, 2659.0, 2772.0, 2781.0, 11284.0, 2788.0, 2726.0, 2716.0, 2693.0, 2716.0, 2666.0, 2697.0, 2772.0, 2748.0, 2703.0, 2666.0, 2715.0, 2728.0, 2745.0, 2779.0, 2788.0, 2769.0, 2699.0, 2698.0, 2716.0, 2711.0, 2756.0, 2775.0, 2639.0, 2760.0, 2702.0, 2644.0, 2770.0, 11291.0],
      "WindowWidth": [25897.0, 25898.0, 16614.0, 16659.0, 16555.0, 16599.0, 16771.0, 16691.0, 25932.0, 12719.0, 12820.0, 12691.0, 12727.0, 12804.0, 12778.0, 12716.0, 12832.0, 12777.0, 12780.0, 12634.0, 12831.0, 12690.0, 12790.0, 12723.0, 25988.0, 8576.0, 8493.0, 8648.0, 8694.0, 8632.0, 8786.0, 8656.0, 8664.0, 8612.0, 8762.0, 8689.0, 8539.0, 8491.0, 8667.0, 8576.0, 26045.0, 6408.0, 6349.0, 6550.0, 6623.0, 6349.0, 6429.0, 6539.0, 6377.0, 6331.0, 6474.0, 6544.0, 6516.0, 6533.0, 6542.0, 6427.0, 6421.0, 6260.0, 6556.0, 6526.0, 6370.0, 6477.0, 6555.0, 6499.0, 6417.0, 6585.0, 6282.0, 6359.0, 6416.0, 6383.0, 6354.0, 6525.0, 6553.0, 25988.0, 6551.0, 6420.0, 6410.0, 6381.0, 6398.0, 6326.0, 6392.0, 6513.0, 6489.0, 6418.0, 6357.0, 6443.0, 6423.0, 6464.0, 6547.0, 6551.0, 6542.0, 6357.0, 6384.0, 6448.0, 6419.0, 6519.0, 6542.0, 6271.0, 6528.0, 6381.0, 6325.0, 6554.0, 26003.0]
    },
    "slices": {}
  }
}