{
  "AcquisitionMatrixPE": 140,
  "AcquisitionNumber": 1,
  "AcquisitionTime": "10:25:44.052500",
  "BandwidthPerPixelPhaseEncode": 10.352,
  "BaseResolution": 140,
  "BodyPartExamined": "BRAIN",
  "ConsistencyInfo": "N4_VE11E_LATEST_20181129",
  "ConversionSoftware": "dcm2niix",
  "ConversionSoftwareVersion": "v1.0.20201102",
  "DerivedVendorReportedEchoSpacing": 0.000689998,
  "DeviceSerialNumber": "66112",
  "DiffusionScheme": "Monopolar",
  "DwellTime": 2.1e-06,
  "EchoTime": 0.0884,
  "EchoTrainLength": 105,
  "EffectiveEchoSpacing": 0.000689998,
  "FlipAngle": 90,
  "ImageComments": "Unaliased MB3/PE3 SENSE1",
  "ImageOrientationPatientDICOM": [0.999404, 0.0011838, -0.0345003, 0.00680285, 0.97306, 0.230453],
  "ImageType": [
    "ORIGINAL",
    "PRIMARY",
    "DIFFUSION",
    "NONE",
    "MB",
    "ND",
    "MOSAIC"
],
  "ImagingFrequency": 123.252,
  "InPlanePhaseEncodingDirectionDICOM": "COL",
  "InstitutionAddress": "Maynard 3,Hanover,NH,US,03755",
  "InstitutionName": "Dartmouth College - PBS",
  "InstitutionalDepartmentName": "Department",
  "MRAcquisitionType": "2D",
  "MagneticFieldStrength": 3,
  "Manufacturer": "Siemens",
  "ManufacturersModelName": "Prisma",
  "Modality": "MR",
  "MultibandAccelerationFactor": 3,
  "PartialFourier": 0.75,
  "PatientPosition": "HFS",
  "PercentPhaseFOV": 100,
  "PercentSampling": 100,
  "PhaseEncodingDirection": "j-",
  "PhaseEncodingSteps": 105,
  "PhaseResolution": 1,
  "PixelBandwidth": 1700,
  "ProcedureStepDescription": "Wager_Wager^1076_spacetop",
  "ProtocolName": "dwi_acq-96dir-6b0-mb",
  "PulseSequenceDetails": "%CustomerSeq%\\cmrr_mbep2d_diff",
  "ReceiveCoilActiveElements": "HEA;HEP",
  "ReceiveCoilName": "Head_32",
  "ReconMatrixPE": 140,
  "RepetitionTime": 4.11,
  "SAR": 0.269717,
  "ScanOptions": "PFP\\FS",
  "ScanningSequence": "EP",
  "SequenceName": "ep_b5#1",
  "SequenceVariant": "SK\\SS",
  "SeriesDescription": "dwi_acq-96dir-6b0-mb",
  "SeriesNumber": 8,
  "ShimSetting": [4165, -7706, -7217, 656, 17, 52, -39, 66],
  "SliceThickness": 1.7,
  "SliceTiming": [0, 2.12, 0.1525, 2.2725, 0.3025, 2.425, 0.455, 2.575, 0.6075, 2.7275, 0.7575, 2.8775, 0.91, 3.03, 1.06, 3.1825, 1.2125, 3.3325, 1.365, 3.485, 1.515, 3.635, 1.6675, 3.7875, 1.8175, 3.94, 1.97, 0, 2.12, 0.1525, 2.2725, 0.3025, 2.425, 0.455, 2.575, 0.6075, 2.7275, 0.7575, 2.8775, 0.91, 3.03, 1.06, 3.1825, 1.2125, 3.3325, 1.365, 3.485, 1.515, 3.635, 1.6675, 3.7875, 1.8175, 3.94, 1.97, 0, 2.12, 0.1525, 2.2725, 0.3025, 2.425, 0.455, 2.575, 0.6075, 2.7275, 0.7575, 2.8775, 0.91, 3.03, 1.06, 3.1825, 1.2125, 3.3325, 1.365, 3.485, 1.515, 3.635, 1.6675, 3.7875, 1.8175, 3.94, 1.97],
  "SoftwareVersions": "syngo MR E11",
  "SpacingBetweenSlices": 1.7,
  "StationName": "AWP66112",
  "TotalReadoutTime": 0.0959097,
  "TxRefAmp": 244.77,
  "WipMemBlock": "5d8eb03a-3fde-4394-80f4-b49a1c2f6d04||Sequence: R016 ve11e/master r/434b28f1; Aug  7 2019 19:06:17 by eja",
  "dcmmeta_affine": [
    [-1.713263988494873, 0.011662035249173641, -0.05753425881266594, 125.57535552978516],
    [-0.002029378665611148, 1.6681022644042969, 0.3919360041618347, -101.13352966308594],
    [-0.05914340913295746, -0.39506271481513977, 1.653201699256897, -0.39324530959129333],
    [0.0, 0.0, 0.0, 1.0]
],
  "dcmmeta_reorient_transform": [
    [0.0, -1.0, 0.0, 139.0],
    [1.0, 0.0, 0.0, 0.0],
    [0.0, 0.0, 1.0, 0.0],
    [0.0, 0.0, 0.0, 1.0]
],
  "dcmmeta_shape": [140, 140, 81, 103],
  "dcmmeta_slice_dim": 2,
  "dcmmeta_version": 0.6,
  "global": {
    "const": {
      "AccessionNumber": "A004014",
      "AcquisitionMatrix": [140, 0, 0, 140],
      "AngioFlag": "N",
      "BitsAllocated": 16,
      "BitsStored": 16,
      "BodyPartExamined": "BRAIN",
      "Columns": 1260,
      "EchoNumbers": 1,
      "EchoTime": 88.4,
      "EchoTrainLength": 105,
      "FlipAngle": 90.0,
      "HighBit": 15,
      "ImageOrientationPatient": [0.9994039855948, 0.00118380420166, -0.034500321518, 0.00680285392494, 0.97305961712549, 0.23045325490884],
      "ImagePositionPatient": [-1093.1549565435, -1066.0063717868, -243.4217822403],
      "ImageType": [
        "ORIGINAL",
        "PRIMARY",
        "DIFFUSION",
        "NONE",
        "MB",
        "ND",
        "MOSAIC"
],
      "ImagedNucleus": "1H",
      "ImagingFrequency": 123.252177,
      "InPlanePhaseEncodingDirection": "COL",
      "MRAcquisitionType": "2D",
      "MagneticFieldStrength": 3.0,
      "Manufacturer": "SIEMENS",
      "ManufacturerModelName": "Prisma",
      "Modality": "MR",
      "NumberOfAverages": 1.0,
      "NumberOfPhaseEncodingSteps": 105,
      "PercentPhaseFieldOfView": 100.0,
      "PercentSampling": 100.0,
      "PerformedProcedureStepStartTime": "100947.520000",
      "PhotometricInterpretation": "MONOCHROME2",
      "PixelBandwidth": 1700.0,
      "PixelRepresentation": 0,
      "PixelSpacing": [1.7142857313156, 1.7142857313156],
      "ProtocolName": "dwi_acq-96dir-6b0-mb",
      "RepetitionTime": 4110.0,
      "Rows": 1260,
      "SAR": 0.26971676021919,
      "SamplesPerPixel": 1,
      "ScanOptions": [
        "PFP",
        "FS"
],
      "ScanningSequence": "EP",
      "SequenceVariant": [
        "SK",
        "SS"
],
      "SeriesDescription": "dwi_acq-96dir-6b0-mb",
      "SeriesNumber": 8,
      "SeriesTime": "102715.255000",
      "SliceLocation": -27.948748564176,
      "SliceThickness": 1.7000000476837,
      "SmallestImagePixelValue": 0,
      "SoftwareVersions": "syngo MR E11",
      "SpacingBetweenSlices": 1.6999999708939,
      "SpecificCharacterSet": "ISO_IR 100",
      "StudyID": "1",
      "StudyTime": "100947.433000",
      "TransmitCoilName": "Body",
      "VariableFlipAngleFlag": "N",
      "WindowCenterWidthExplanation": "Algo1"
    },
    "slices": {}
  },
  "time": {
    "samples": {
      "AcquisitionNumber": [1, 2, 3, 4, 5, 6, 7, 8, 9, 10, 11, 12, 13, 14, 15, 16, 17, 18, 19, 20, 21, 22, 23, 24, 25, 26, 27, 28, 29, 30, 31, 32, 33, 34, 35, 36, 37, 38, 39, 40, 41, 42, 43, 44, 45, 46, 47, 48, 49, 50, 51, 52, 53, 54, 55, 56, 57, 58, 59, 60, 61, 62, 63, 64, 65, 66, 67, 68, 69, 70, 71, 72, 73, 74, 75, 76, 77, 78, 79, 80, 81, 82, 83, 84, 85, 86, 87, 88, 89, 90, 91, 92, 93, 94, 95, 96, 97, 98, 99, 100, 101, 102, 103],
      "AcquisitionTime": ["102544.052500", "102548.162500", "102552.272500", "102556.382500", "102600.492500", "102604.602500", "102608.712500", "102612.822500", "102616.932500", "102621.042500", "102625.152500", "102629.262500", "102633.372500", "102637.482500", "102641.592500", "102645.702500", "102649.812500", "102653.922500", "102658.032500", "102702.142500", "102706.252500", "102710.362500", "102714.472500", "102718.582500", "102722.692500", "102726.802500", "102730.912500", "102735.022500", "102739.132500", "102743.242500", "102747.352500", "102751.462500", "102755.572500", "102759.682500", "102803.792500", "102807.902500", "102812.012500", "102816.122500", "102820.232500", "102824.342500", "102828.452500", "102832.562500", "102836.672500", "102840.782500", "102844.892500", "102849.002500", "102853.112500", "102857.222500", "102901.332500", "102905.442500", "102909.552500", "102913.662500", "102917.772500", "102921.882500", "102925.992500", "102930.102500", "102934.212500", "102938.322500", "102942.432500", "102946.542500", "102950.652500", "102954.762500", "102958.872500", "103002.982500", "103007.092500", "103011.202500", "103015.312500", "103019.422500", "103023.532500", "103027.642500", "103031.752500", "103035.862500", "103039.972500", "103044.082500", "103048.192500", "103052.302500", "103056.412500", "103100.522500", "103104.632500", "103108.742500", "103112.852500", "103116.962500", "103121.072500", "103125.182500", "103129.292500", "103133.402500", "103137.512500", "103141.622500", "103145.732500", "103149.842500", "103153.952500", "103158.062500", "103202.172500", "103206.282500", "103210.392500", "103214.502500", "103218.612500", "103222.722500", "103226.832500", "103230.942500", "103235.052500", "103239.162500", "103243.272500"],
      "ContentTime": ["102715.259000", "102715.263000", "102715.266000", "102715.269000", "102715.272000", "102715.275000", "102715.278000", "102715.281000", "102715.284000", "102715.295000", "102715.309000", "102715.312000", "102715.315000", "102715.318000", "102715.321000", "102715.324000", "102715.327000", "102715.330000", "102715.333000", "102715.336000", "102715.339000", "102835.254000", "102835.257000", "102835.261000", "102835.263000", "102835.266000", "102835.269000", "102835.272000", "102835.275000", "102835.278000", "102835.281000", "102835.284000", "102835.287000", "102835.290000", "102835.293000", "102835.296000", "102835.299000", "102835.302000", "102835.305000", "102835.308000", "102835.311000", "103015.254000", "103015.258000", "103015.261000", "103015.264000", "103015.267000", "103015.270000", "103015.273000", "103015.275000", "103015.278000", "103015.281000", "103015.284000", "103015.287000", "103015.290000", "103015.293000", "103015.296000", "103015.299000", "103015.302000", "103015.305000", "103015.308000", "103015.319000", "103015.322000", "103015.325000", "103015.329000", "103015.332000", "103135.254000", "103135.257000", "103135.260000", "103135.263000", "103135.266000", "103135.269000", "103135.272000", "103135.275000", "103135.278000", "103135.281000", "103135.284000", "103135.287000", "103135.290000", "103135.293000", "103135.296000", "103135.299000", "103135.302000", "103135.305000", "103135.308000", "103135.311000", "103248.451000", "103248.454000", "103248.457000", "103248.460000", "103248.463000", "103248.466000", "103248.469000", "103248.472000", "103248.475000", "103248.478000", "103248.481000", "103248.484000", "103248.488000", "103248.491000", "103248.495000", "103248.498000", "103248.502000", "103248.505000"],
      "InstanceCreationTime": ["102715.259000", "102715.263000", "102715.266000", "102715.269000", "102715.272000", "102715.275000", "102715.278000", "102715.281000", "102715.284000", "102715.295000", "102715.309000", "102715.312000", "102715.315000", "102715.318000", "102715.321000", "102715.324000", "102715.327000", "102715.330000", "102715.333000", "102715.336000", "102715.339000", "102835.254000", "102835.257000", "102835.261000", "102835.263000", "102835.266000", "102835.269000", "102835.272000", "102835.275000", "102835.278000", "102835.281000", "102835.284000", "102835.287000", "102835.290000", "102835.293000", "102835.296000", "102835.299000", "102835.302000", "102835.305000", "102835.308000", "102835.311000", "103015.254000", "103015.258000", "103015.261000", "103015.264000", "103015.267000", "103015.270000", "103015.273000", "103015.275000", "103015.278000", "103015.281000", "103015.284000", "103015.287000", "103015.290000", "103015.293000", "103015.296000", "103015.299000", "103015.302000", "103015.305000", "103015.308000", "103015.319000", "103015.322000", "103015.325000", "103015.329000", "103015.332000", "103135.254000", "103135.257000", "103135.260000", "103135.263000", "103135.266000", "103135.269000", "103135.272000", "103135.275000", "103135.278000", "103135.281000", "103135.284000", "103135.287000", "103135.290000", "103135.293000", "103135.296000", "103135.299000", "103135.302000", "103135.305000", "103135.308000", "103135.311000", "103248.451000", "103248.454000", "103248.457000", "103248.460000", "103248.463000", "103248.466000", "103248.469000", "103248.472000", "103248.475000", "103248.478000", "103248.481000", "103248.484000", "103248.488000", "103248.491000", "103248.495000", "103248.498000", "103248.502000", "103248.505000"],
      "InstanceNumber": [1, 2, 3, 4, 5, 6, 7, 8, 9, 10, 11, 12, 13, 14, 15, 16, 17, 18, 19, 20, 21, 22, 23, 24, 25, 26, 27, 28, 29, 30, 31, 32, 33, 34, 35, 36, 37, 38, 39, 40, 41, 42, 43, 44, 45, 46, 47, 48, 49, 50, 51, 52, 53, 54, 55, 56, 57, 58, 59, 60, 61, 62, 63, 64, 65, 66, 67, 68, 69, 70, 71, 72, 73, 74, 75, 76, 77, 78, 79, 80, 81, 82, 83, 84, 85, 86, 87, 88, 89, 90, 91, 92, 93, 94, 95, 96, 97, 98, 99, 100, 101, 102, 103],
      "LargestImagePixelValue": [65535, 65535, 65535, 65535, 65535, 65535, 65535, 65535, 65535, 46938, 52521, 51971, 50646, 51177, 46316, 48515, 47906, 48142, 49076, 48271, 46028, 47127, 54789, 49372, 65535, 24220, 28160, 26793, 25197, 30546, 32164, 25784, 29276, 25420, 26047, 30827, 25264, 26777, 29175, 25020, 65535, 15927, 17858, 19865, 19046, 16536, 15810, 18347, 16346, 15930, 17532, 18389, 16272, 18819, 18058, 14054, 17586, 17531, 16583, 18027, 15927, 20074, 16347, 15420, 14949, 16685, 17386, 18027, 21330, 18412, 17561, 15570, 16675, 65535, 19126, 15773, 18893, 15437, 16662, 17387, 15899, 17237, 16777, 19116, 15827, 15152, 17525, 20508, 22468, 18824, 21808, 16203, 18396, 20046, 19357, 20501, 14280, 16258, 20082, 14044, 17407, 16341, 65535],
      "SequenceName": [
 "ep_b5#1",
 "ep_b5#1",
 "ep_b500#2",
 "ep_b500#3",
 "ep_b500#4",
 "ep_b505#5",
 "ep_b495#6",
 "ep_b500#7",
 "ep_b5#8",
 "ep_b1000#9",
 "ep_b1005#10",
 "ep_b995#11",
 "ep_b1005#12",
 "ep_b995#13",
 "ep_b995#14",
 "ep_b1005#15",
 "ep_b1000#16",
 "ep_b1000#17",
 "ep_b995#18",
 "ep_b1000#19",
 "ep_b995#20",
 "ep_b1000#21",
 "ep_b1005#22",
 "ep_b1005#23",
 "ep_b5#24",
 "ep_b2000#25",
 "ep_b1995#26",
 "ep_b1995#27",
 "ep_b1995#28",
 "ep_b2005#29",
 "ep_b2010#30",
 "ep_b2005#31",
 "ep_b2005#32",
 "ep_b1995#33",
 "ep_b1990#34",
 "ep_b1995#35",
 "ep_b2005#36",
 "ep_b2000#37",
 "ep_b2010#38",
 "ep_b2000#39",
 "ep_b5#40",
 "ep_b3000#41",
 "ep_b3005#42",
 "ep_b3010#43",
 "ep_b3010#44",
 "ep_b3000#45",
 "ep_b2995#46",
 "ep_b2990#47",
 "ep_b3000#48",
 "ep_b3000#49",
 "ep_b2990#50",
 "ep_b2990#51",
 "ep_b2995#52",
 "ep_b2995#53",
 "ep_b3010#54",
 "ep_b3000#55",
 "ep_b2995#56",
 "ep_b3000#57",
 "ep_b2990#58",
 "ep_b2990#59",
 "ep_b3000#60",
 "ep_b2990#61",
 "ep_b2990#62",
 "ep_b2995#63",
 "ep_b3005#64",
 "ep_b3010#65",
 "ep_b3000#66",
 "ep_b3005#67",
 "ep_b3010#68",
 "ep_b3005#69",
 "ep_b3005#70",
 "ep_b3010#71",
 "ep_b2990#72",
 "ep_b5#73",
 "ep_b3010#74",
 "ep_b3000#75",
 "ep_b3005#76",
 "ep_b3005#77",
 "ep_b2995#78",
 "ep_b3005#79",
 "ep_b3000#80",
 "ep_b3010#81",
 "ep_b3010#82",
 "ep_b3005#83",
 "ep_b3000#84",
 "ep_b3005#85",
 "ep_b3005#86",
 "ep_b3010#87",
 "ep_b2990#88",
 "ep_b3010#89",
 "ep_b2995#90",
 "ep_b2995#91",
 "ep_b2995#92",
 "ep_b2995#93",
 "ep_b3005#94",
 "ep_b3005#95",
 "ep_b2995#96",
 "ep_b3000#97",
 "ep_b2990#98",
 "ep_b3000#99",
 "ep_b2995#100",
 "ep_b2995#101",
 "ep_b5#102"
],
      "WindowCenter": [11282.0, 11296.0, 7967.0, 8017.0, 7971.0, 7943.0, 8016.0, 7999.0, 11294.0, 6020.0, 6083.0, 6091.0, 6044.0, 6103.0, 6039.0, 6032.0, 6074.0, 6060.0, 6079.0, 6028.0, 6062.0, 6046.0, 6112.0, 6073.0, 11289.0, 3814.0, 3868.0, 3867.0, 3913.0, 3898.0, 3935.0, 3864.0, 3876.0, 3848.0, 3912.0, 3933.0, 3800.0, 3887.0, 3897.0, 3842.0, 11280.0, 2702.0, 2732.0, 2806.0, 2804.0, 2723.0, 2747.0, 2806.0, 2705.0, 2687.0, 2736.0, 2778.0, 2729.0, 2779.0, 2779.0, 2650.0, 2741.0, 2751.0, 2767.0, 2778.0, 2729.0, 2799.0, 2779.0, 2748.0, 2748.0, 2767.0, 2706.0, 2766.0, 2813.0, 2739.0, 2725.0, 2763.0, 2768.0, 11277.0, 2789.0, 2721.0, 2727.0, 2708.0, 2708.0, 2719.0, 2694.0, 2740.0, 2753.0, 2745.0, 2689.0, 2691.0, 2711.0, 2754.0, 2832.0, 2764.0, 2822.0, 2719.0, 2747.0, 2795.0, 2760.0, 2800.0, 2739.0, 2716.0, 2811.0, 2655.0, 2712.0, 2751.0, 11263.0],
      "WindowWidth": [25633.0, 25684.0, 17062.0, 17151.0, 17047.0, 17040.0, 17141.0, 17105.0, 25680.0, 13002.0, 13133.0, 13121.0, 13052.0, 13166.0, 13050.0, 13039.0, 13080.0, 13101.0, 13086.0, 13001.0, 13079.0, 13032.0, 13166.0, 13065.0, 25652.0, 8632.0, 8730.0, 8742.0, 8790.0, 8789.0, 8848.0, 8699.0, 8775.0, 8705.0, 8802.0, 8840.0, 8614.0, 8752.0, 8775.0, 8675.0, 25629.0, 6431.0, 6476.0, 6628.0, 6605.0, 6466.0, 6500.0, 6615.0, 6419.0, 6398.0, 6472.0, 6553.0, 6485.0, 6578.0, 6572.0, 6336.0, 6507.0, 6490.0, 6541.0, 6561.0, 6453.0, 6590.0, 6561.0, 6501.0, 6500.0, 6547.0, 6424.0, 6520.0, 6629.0, 6504.0, 6470.0, 6531.0, 6540.0, 25626.0, 6570.0, 6454.0, 6448.0, 6428.0, 6425.0, 6452.0, 6401.0, 6502.0, 6525.0, 6490.0, 6413.0, 6422.0, 6444.0, 6500.0, 6637.0, 6536.0, 6635.0, 6445.0, 6498.0, 6586.0, 6537.0, 6610.0, 6494.0, 6437.0, 6610.0, 6329.0, 6447.0, 6518.0, 25587.0]
    },
    "slices": {}
  }
}