{
  "AcquisitionMatrixPE": 82,
  "AcquisitionNumber": 1,
  "AcquisitionTime": "12:07:5.977500",
  "BandwidthPerPixelPhaseEncode": 24.888,
  "BaseResolution": 82,
  "BodyPartExamined": "BRAIN",
  "ConsistencyInfo": "N4_VE11C_LATEST_20160120",
  "ConversionSoftware": "dcm2niix",
  "ConversionSoftwareVersion": "v1.0.20201102",
  "DerivedVendorReportedEchoSpacing": 0.00049,
  "DeviceSerialNumber": "66112",
  "DwellTime": 2e-06,
  "EchoTime": 0.0272,
  "EchoTrainLength": 82,
  "EffectiveEchoSpacing": 0.00049,
  "FlipAngle": 44,
  "ImageComments": "Unaliased MB8/PE3",
  "ImageOrientationPatientDICOM": [0.996462, 0.0839955, 0.0028802, -0.0840256, 0.994916, 0.0555208],
  "ImageType": [
    "ORIGINAL",
    "PRIMARY",
    "M",
    "MB",
    "ND",
    "NORM",
    "MOSAIC"
],
  "ImagingFrequency": 123.252,
  "InPlanePhaseEncodingDirectionDICOM": "COL",
  "InstitutionAddress": "Maynard 3,Hanover,NH,US,03755",
  "InstitutionName": "Dartmouth College - PBS",
  "InstitutionalDepartmentName": "Department",
  "MRAcquisitionType": "2D",
  "MagneticFieldStrength": 3,
  "Manufacturer": "Siemens",
  "ManufacturersModelName": "Prisma",
  "Modality": "MR",
  "MultibandAccelerationFactor": 8,
  "PartialFourier": 1,
  "PatientPosition": "HFS",
  "PercentPhaseFOV": 100,
  "PercentSampling": 100,
  "PhaseEncodingDirection": "j-",
  "PhaseEncodingSteps": 82,
  "PhaseResolution": 1,
  "PixelBandwidth": 3050,
  "ProcedureStepDescription": "Wager_Wager^1076_spacetop",
  "ProtocolName": "func_run-01_task-alignvideo_acq-ap-mb8",
  "PulseSequenceDetails": "%CustomerSeq%\\cmrr_mbep2d_bold",
  "ReceiveCoilActiveElements": "HEA;HEP",
  "ReceiveCoilName": "Head_32",
  "ReconMatrixPE": 82,
  "RepetitionTime": 0.46,
  "SAR": 0.083724,
  "ScanOptions": "FS",
  "ScanningSequence": "EP",
  "SequenceName": "epfid2d1_82",
  "SequenceVariant": "SK\\SS",
  "SeriesDescription": "func_run-01_task-alignvideo_acq-ap-mb8",
  "SeriesNumber": 28,
  "ShimSetting": [4140, -7775, -7290, 600, -84, -336, 15, 83],
  "SliceThickness": 2.7,
  "SliceTiming": [0, 0.2525, 0.0625, 0.315, 0.125, 0.3775, 0.19, 0, 0.2525, 0.0625, 0.315, 0.125, 0.3775, 0.19, 0, 0.2525, 0.0625, 0.315, 0.125, 0.3775, 0.19, 0, 0.2525, 0.0625, 0.315, 0.125, 0.3775, 0.19, 0, 0.2525, 0.0625, 0.315, 0.125, 0.3775, 0.19, 0, 0.2525, 0.0625, 0.315, 0.125, 0.3775, 0.19, 0, 0.2525, 0.0625, 0.315, 0.125, 0.3775, 0.19, 0, 0.2525, 0.0625, 0.315, 0.125, 0.3775, 0.19],
  "SoftwareVersions": "syngo MR E11",
  "SpacingBetweenSlices": 2.7,
  "StationName": "AWP66112",
  "TaskName": "alignvideo",
  "TotalReadoutTime": 0.03969,
  "TxRefAmp": 233.113,
  "WipMemBlock": "f28217e8-b5ce-4afa-8d4f-dddfccacb919||Sequence: R016 ve11c/master r/e634e98; Dec 19 2017 11:00:25 by eja",
  "dcmmeta_affine": [
    [-2.6734347343444824, -0.22543452680110931, -0.004854422528296709, 120.5883560180664],
    [-0.2253536880016327, 2.669286012649536, 0.15002918243408203, -95.41978454589844],
    [0.007727377116680145, -0.148958221077919, 2.695824146270752, -70.16333770751953],
    [0.0, 0.0, 0.0, 1.0]
],
  "dcmmeta_reorient_transform": [
    [0.0, -1.0, 0.0, 81.0],
    [1.0, 0.0, 0.0, 0.0],
    [0.0, 0.0, 1.0, 0.0],
    [0.0, 0.0, 0.0, 1.0]
],
  "dcmmeta_shape": [82, 82, 56, 839],
  "dcmmeta_slice_dim": 2,
  "dcmmeta_version": 0.6,
  "global": {
    "const": {
      "AccessionNumber": "A003833",
      "AcquisitionMatrix": [82, 0, 0, 82],
      "AngioFlag": "N",
      "BitsAllocated": 16,
      "BitsStored": 16,
      "BodyPartExamined": "BRAIN",
      "Columns": 656,
      "EchoNumbers": 1,
      "EchoTime": 27.2,
      "EchoTrainLength": 82,
      "FlipAngle": 44.0,
      "HighBit": 15,
      "ImageOrientationPatient": [0.9964619744271, 0.08399546383696, 0.00288020410191, -0.0840255970117, 0.99491564519883, 0.05552078876798],
      "ImagePositionPatient": [-804.90418830603, -951.55394854179, -127.19772266809],
      "ImageType": [
        "ORIGINAL",
        "PRIMARY",
        "M",
        "MB",
        "ND",
        "NORM",
        "MOSAIC"
],
      "ImagedNucleus": "1H",
      "ImagingFrequency": 123.252252,
      "InPlanePhaseEncodingDirection": "COL",
      "MRAcquisitionType": "2D",
      "MagneticFieldStrength": 3.0,
      "Manufacturer": "SIEMENS",
      "ManufacturerModelName": "Prisma",
      "Modality": "MR",
      "NumberOfAverages": 1.0,
      "NumberOfPhaseEncodingSteps": 82,
      "PercentPhaseFieldOfView": 100.0,
      "PercentSampling": 100.0,
      "PerformedProcedureStepStartTime": "105128.066000",
      "PhotometricInterpretation": "MONOCHROME2",
      "PixelBandwidth": 3050.0,
      "PixelRepresentation": 0,
      "PixelSpacing": [2.6829268932343, 2.6829268932343],
      "ProtocolName": "func_run-01_task-alignvideo_acq-ap-mb8",
      "RepetitionTime": 460.0,
      "Rows": 656,
      "SAR": 0.08372397188009,
      "SamplesPerPixel": 1,
      "ScanOptions": "FS",
      "ScanningSequence": "EP",
      "SequenceName": "epfid2d1_82",
      "SequenceVariant": [
        "SK",
        "SS"
],
      "SeriesDescription": "func_run-01_task-alignvideo_acq-ap-mb8",
      "SeriesNumber": 28,
      "SeriesTime": "120727.417000",
      "SliceLocation": -75.573765948193,
      "SliceThickness": 2.7000000476837,
      "SmallestImagePixelValue": 0,
      "SoftwareVersions": "syngo MR E11",
      "SpacingBetweenSlices": 2.6999999671616,
      "SpecificCharacterSet": "ISO_IR 100",
      "StudyID": "1",
      "StudyTime": "105128.004000",
      "TransmitCoilName": "Body",
      "VariableFlipAngleFlag": "N",
      "WindowCenterWidthExplanation": "Algo1",
      "dBdt": 0.0},
    "slices": {}
  },
  "time": {
    "samples": {
      "AcquisitionNumber": [1, 2, 3, 4, 5, 6, 7, 8, 9, 10, 11, 12, 13, 14, 15, 16, 17, 18, 19, 20, 21, 22, 23, 24, 25, 26, 27, 28, 29, 30, 31, 32, 33, 34, 35, 36, 37, 38, 39, 40, 41, 42, 43, 44, 45, 46, 47, 48, 49, 50, 51, 52, 53, 54, 55, 56, 57, 58, 59, 60, 61, 62, 63, 64, 65, 66, 67, 68, 69, 70, 71, 72, 73, 74, 75, 76, 77, 78, 79, 80, 81, 82, 83, 84, 85, 86, 87, 88, 89, 90, 91, 92, 93, 94, 95, 96, 97, 98, 99, 100, 101, 102, 103, 104, 105, 106, 107, 108, 109, 110, 111, 112, 113, 114, 115, 116, 117, 118, 119, 120, 121, 122, 123, 124, 125, 126, 127, 128, 129, 130, 131, 132, 133, 134, 135, 136, 137, 138, 139, 140, 141, 142, 143, 144, 145, 146, 147, 148, 149, 150, 151, 152, 153, 154, 155, 156, 157, 158, 159, 160, 161, 162, 163, 164, 165, 166, 167, 168, 169, 170, 171, 172, 173, 174, 175, 176, 177, 178, 179, 180, 181, 182, 183, 184, 185, 186, 187, 188, 189, 190, 191, 192, 193, 194, 195, 196, 197, 198, 199, 200, 201, 202, 203, 204, 205, 206, 207, 208, 209, 210, 211, 212, 213, 214, 215, 216, 217, 218, 219, 220, 221, 222, 223, 224, 225, 226, 227, 228, 229, 230, 231, 232, 233, 234, 235, 236, 237, 238, 239, 240, 241, 242, 243, 244, 245, 246, 247, 248, 249, 250, 251, 252, 253, 254, 255, 256, 257, 258, 259, 260, 261, 262, 263, 264, 265, 266, 267, 268, 269, 270, 271, 272, 273, 274, 275, 276, 277, 278, 279, 280, 281, 282, 283, 284, 285, 286, 287, 288, 289, 290, 291, 292, 293, 294, 295, 296, 297, 298, 299, 300, 301, 302, 303, 304, 305, 306, 307, 308, 309, 310, 311, 312, 313, 314, 315, 316, 317, 318, 319, 320, 321, 322, 323, 324, 325, 326, 327, 328, 329, 330, 331, 332, 333, 334, 335, 336, 337, 338, 339, 340, 341, 342, 343, 344, 345, 346, 347, 348, 349, 350, 351, 352, 353, 354, 355, 356, 357, 358, 359, 360, 361, 362, 363, 364, 365, 366, 367, 368, 369, 370, 371, 372, 373, 374, 375, 376, 377, 378, 379, 380, 381, 382, 383, 384, 385, 386, 387, 388, 389, 390, 391, 392, 393, 394, 395, 396, 397, 398, 399, 400, 401, 402, 403, 404, 405, 406, 407, 408, 409, 410, 411, 412, 413, 414, 415, 416, 417, 418, 419, 420, 421, 422, 423, 424, 425, 426, 427, 428, 429, 430, 431, 432, 433, 434, 435, 436, 437, 438, 439, 440, 441, 442, 443, 444, 445, 446, 447, 448, 449, 450, 451, 452, 453, 454, 455, 456, 457, 458, 459, 460, 461, 462, 463, 464, 465, 466, 467, 468, 469, 470, 471, 472, 473, 474, 475, 476, 477, 478, 479, 480, 481, 482, 483, 484, 485, 486, 487, 488, 489, 490, 491, 492, 493, 494, 495, 496, 497, 498, 499, 500, 501, 502, 503, 504, 505, 506, 507, 508, 509, 510, 511, 512, 513, 514, 515, 516, 517, 518, 519, 520, 521, 522, 523, 524, 525, 526, 527, 528, 529, 530, 531, 532, 533, 534, 535, 536, 537, 538, 539, 540, 541, 542, 543, 544, 545, 546, 547, 548, 549, 550, 551, 552, 553, 554, 555, 556, 557, 558, 559, 560, 561, 562, 563, 564, 565, 566, 567, 568, 569, 570, 571, 572, 573, 574, 575, 576, 577, 578, 579, 580, 581, 582, 583, 584, 585, 586, 587, 588, 589, 590, 591, 592, 593, 594, 595, 596, 597, 598, 599, 600, 601, 602, 603, 604, 605, 606, 607, 608, 609, 610, 611, 612, 613, 614, 615, 616, 617, 618, 619, 620, 621, 622, 623, 624, 625, 626, 627, 628, 629, 630, 631, 632, 633, 634, 635, 636, 637, 638, 639, 640, 641, 642, 643, 644, 645, 646, 647, 648, 649, 650, 651, 652, 653, 654, 655, 656, 657, 658, 659, 660, 661, 662, 663, 664, 665, 666, 667, 668, 669, 670, 671, 672, 673, 674, 675, 676, 677, 678, 679, 680, 681, 682, 683, 684, 685, 686, 687, 688, 689, 690, 691, 692, 693, 694, 695, 696, 697, 698, 699, 700, 701, 702, 703, 704, 705, 706, 707, 708, 709, 710, 711, 712, 713, 714, 715, 716, 717, 718, 719, 720, 721, 722, 723, 724, 725, 726, 727, 728, 729, 730, 731, 732, 733, 734, 735, 736, 737, 738, 739, 740, 741, 742, 743, 744, 745, 746, 747, 748, 749, 750, 751, 752, 753, 754, 755, 756, 757, 758, 759, 760, 761, 762, 763, 764, 765, 766, 767, 768, 769, 770, 771, 772, 773, 774, 775, 776, 777, 778, 779, 780, 781, 782, 783, 784, 785, 786, 787, 788, 789, 790, 791, 792, 793, 794, 795, 796, 797, 798, 799, 800, 801, 802, 803, 804, 805, 806, 807, 808, 809, 810, 811, 812, 813, 814, 815, 816, 817, 818, 819, 820, 821, 822, 823, 824, 825, 826, 827, 828, 829, 830, 831, 832, 833, 834, 835, 836, 837, 838, 839],
      "AcquisitionTime": ["120705.977500", "120706.437500", "120706.897500", "120707.357500", "120707.817500", "120708.277500", "120708.737500", "120709.197500", "120709.657500", "120710.117500", "120710.577500", "120711.037500", "120711.497500", "120711.957500", "120712.417500", "120712.877500", "120713.337500", "120713.797500", "120714.257500", "120714.717500", "120715.177500", "120715.637500", "120716.097500", "120716.557500", "120717.017500", "120717.477500", "120717.937500", "120718.397500", "120718.857500", "120719.317500", "120719.777500", "120720.237500", "120720.697500", "120721.157500", "120721.617500", "120722.077500", "120722.537500", "120722.997500", "120723.457500", "120723.917500", "120724.377500", "120724.837500", "120725.297500", "120725.757500", "120726.217500", "120726.677500", "120727.137500", "120727.597500", "120728.057500", "120728.517500", "120728.977500", "120729.437500", "120729.897500", "120730.357500", "120730.817500", "120731.277500", "120731.737500", "120732.197500", "120732.657500", "120733.117500", "120733.577500", "120734.037500", "120734.497500", "120734.957500", "120735.417500", "120735.877500", "120736.337500", "120736.797500", "120737.257500", "120737.717500", "120738.177500", "120738.637500", "120739.097500", "120739.557500", "120740.017500", "120740.477500", "120740.937500", "120741.397500", "120741.857500", "120742.317500", "120742.777500", "120743.237500", "120743.697500", "120744.157500", "120744.617500", "120745.077500", "120745.537500", "120745.997500", "120746.457500", "120746.917500", "120747.377500", "120747.837500", "120748.297500", "120748.757500", "120749.217500", "120749.677500", "120750.137500", "120750.597500", "120751.057500", "120751.517500", "120751.977500", "120752.437500", "120752.897500", "120753.357500", "120753.817500", "120754.277500", "120754.737500", "120755.197500", "120755.657500", "120756.117500", "120756.577500", "120757.037500", "120757.497500", "120757.957500", "120758.417500", "120758.877500", "120759.337500", "120759.797500", "120800.257500", "120800.717500", "120801.177500", "120801.637500", "120802.097500", "120802.557500", "120803.017500", "120803.477500", "120803.937500", "120804.397500", "120804.857500", "120805.317500", "120805.777500", "120806.237500", "120806.697500", "120807.157500", "120807.617500", "120808.077500", "120808.537500", "120808.997500", "120809.457500", "120809.917500", "120810.377500", "120810.837500", "120811.297500", "120811.757500", "120812.217500", "120812.677500", "120813.137500", "120813.597500", "120814.057500", "120814.517500", "120814.977500", "120815.437500", "120815.897500", "120816.357500", "120816.817500", "120817.277500", "120817.737500", "120818.197500", "120818.657500", "120819.117500", "120819.577500", "120820.037500", "120820.497500", "120820.957500", "120821.417500", "120821.877500", "120822.337500", "120822.797500", "120823.257500", "120823.717500", "120824.177500", "120824.637500", "120825.097500", "120825.557500", "120826.017500", "120826.477500", "120826.937500", "120827.397500", "120827.857500", "120828.317500", "120828.777500", "120829.237500", "120829.697500", "120830.157500", "120830.617500", "120831.077500", "120831.537500", "120831.997500", "120832.457500", "120832.917500", "120833.377500", "120833.837500", "120834.297500", "120834.757500", "120835.217500", "120835.677500", "120836.137500", "120836.597500", "120837.057500", "120837.517500", "120837.977500", "120838.437500", "120838.897500", "120839.357500", "120839.817500", "120840.277500", "120840.737500", "120841.197500", "120841.657500", "120842.117500", "120842.577500", "120843.037500", "120843.497500", "120843.957500", "120844.417500", "120844.877500", "120845.337500", "120845.797500", "120846.257500", "120846.717500", "120847.177500", "120847.637500", "120848.097500", "120848.557500", "120849.017500", "120849.477500", "120849.937500", "120850.397500", "120850.857500", "120851.317500", "120851.777500", "120852.237500", "120852.697500", "120853.157500", "120853.617500", "120854.077500", "120854.537500", "120854.997500", "120855.457500", "120855.917500", "120856.377500", "120856.837500", "120857.297500", "120857.757500", "120858.217500", "120858.677500", "120859.137500", "120859.597500", "120900.057500", "120900.517500", "120900.977500", "120901.437500", "120901.897500", "120902.357500", "120902.817500", "120903.277500", "120903.737500", "120904.197500", "120904.657500", "120905.117500", "120905.577500", "120906.037500", "120906.497500", "120906.957500", "120907.417500", "120907.877500", "120908.337500", "120908.797500", "120909.257500", "120909.717500", "120910.177500", "120910.637500", "120911.097500", "120911.557500", "120912.017500", "120912.477500", "120912.937500", "120913.397500", "120913.857500", "120914.317500", "120914.777500", "120915.237500", "120915.697500", "120916.157500", "120916.617500", "120917.077500", "120917.537500", "120917.997500", "120918.457500", "120918.917500", "120919.377500", "120919.837500", "120920.297500", "120920.757500", "120921.217500", "120921.677500", "120922.137500", "120922.597500", "120923.057500", "120923.517500", "120923.977500", "120924.437500", "120924.897500", "120925.357500", "120925.817500", "120926.277500", "120926.737500", "120927.197500", "120927.657500", "120928.117500", "120928.577500", "120929.037500", "120929.497500", "120929.957500", "120930.417500", "120930.877500", "120931.337500", "120931.797500", "120932.257500", "120932.717500", "120933.177500", "120933.637500", "120934.097500", "120934.557500", "120935.017500", "120935.477500", "120935.937500", "120936.397500", "120936.857500", "120937.317500", "120937.777500", "120938.237500", "120938.697500", "120939.157500", "120939.617500", "120940.077500", "120940.537500", "120940.997500", "120941.457500", "120941.917500", "120942.377500", "120942.837500", "120943.297500", "120943.757500", "120944.217500", "120944.677500", "120945.137500", "120945.597500", "120946.057500", "120946.517500", "120946.977500", "120947.437500", "120947.897500", "120948.357500", "120948.817500", "120949.277500", "120949.737500", "120950.197500", "120950.657500", "120951.117500", "120951.577500", "120952.037500", "120952.497500", "120952.957500", "120953.417500", "120953.877500", "120954.337500", "120954.797500", "120955.257500", "120955.717500", "120956.177500", "120956.637500", "120957.097500", "120957.557500", "120958.017500", "120958.477500", "120958.937500", "120959.397500", "120959.857500", "121000.317500", "121000.777500", "121001.237500", "121001.697500", "121002.157500", "121002.617500", "121003.077500", "121003.537500", "121003.997500", "121004.457500", "121004.917500", "121005.377500", "121005.837500", "121006.297500", "121006.757500", "121007.217500", "121007.677500", "121008.137500", "121008.597500", "121009.057500", "121009.517500", "121009.977500", "121010.437500", "121010.897500", "121011.357500", "121011.817500", "121012.277500", "121012.737500", "121013.197500", "121013.657500", "121014.117500", "121014.577500", "121015.037500", "121015.497500", "121015.957500", "121016.417500", "121016.877500", "121017.337500", "121017.797500", "121018.257500", "121018.717500", "121019.177500", "121019.637500", "121020.097500", "121020.557500", "121021.017500", "121021.477500", "121021.937500", "121022.397500", "121022.857500", "121023.317500", "121023.777500", "121024.237500", "121024.697500", "121025.157500", "121025.617500", "121026.077500", "121026.537500", "121026.997500", "121027.457500", "121027.917500", "121028.377500", "121028.837500", "121029.297500", "121029.757500", "121030.217500", "121030.677500", "121031.137500", "121031.597500", "121032.057500", "121032.517500", "121032.977500", "121033.437500", "121033.897500", "121034.357500", "121034.817500", "121035.277500", "121035.737500", "121036.197500", "121036.657500", "121037.117500", "121037.577500", "121038.037500", "121038.497500", "121038.957500", "121039.417500", "121039.877500", "121040.337500", "121040.797500", "121041.257500", "121041.717500", "121042.177500", "121042.637500", "121043.097500", "121043.557500", "121044.017500", "121044.477500", "121044.937500", "121045.397500", "121045.857500", "121046.317500", "121046.777500", "121047.237500", "121047.697500", "121048.157500", "121048.617500", "121049.077500", "121049.537500", "121049.997500", "121050.457500", "121050.917500", "121051.377500", "121051.837500", "121052.297500", "121052.757500", "121053.217500", "121053.677500", "121054.137500", "121054.597500", "121055.057500", "121055.517500", "121055.977500", "121056.437500", "121056.897500", "121057.357500", "121057.817500", "121058.277500", "121058.737500", "121059.197500", "121059.657500", "121100.117500", "121100.577500", "121101.037500", "121101.497500", "121101.957500", "121102.417500", "121102.877500", "121103.337500", "121103.797500", "121104.257500", "121104.717500", "121105.177500", "121105.637500", "121106.097500", "121106.557500", "121107.017500", "121107.477500", "121107.937500", "121108.397500", "121108.857500", "121109.317500", "121109.777500", "121110.237500", "121110.697500", "121111.157500", "121111.617500", "121112.077500", "121112.537500", "121112.997500", "121113.457500", "121113.917500", "121114.377500", "121114.837500", "121115.297500", "121115.757500", "121116.217500", "121116.677500", "121117.137500", "121117.597500", "121118.057500", "121118.517500", "121118.977500", "121119.437500", "121119.897500", "121120.357500", "121120.817500", "121121.277500", "121121.737500", "121122.197500", "121122.657500", "121123.117500", "121123.577500", "121124.037500", "121124.497500", "121124.957500", "121125.417500", "121125.877500", "121126.337500", "121126.797500", "121127.257500", "121127.717500", "121128.177500", "121128.637500", "121129.097500", "121129.557500", "121130.017500", "121130.477500", "121130.937500", "121131.397500", "121131.857500", "121132.317500", "121132.777500", "121133.237500", "121133.697500", "121134.157500", "121134.617500", "121135.077500", "121135.537500", "121135.997500", "121136.457500", "121136.917500", "121137.377500", "121137.837500", "121138.297500", "121138.757500", "121139.217500", "121139.677500", "121140.137500", "121140.597500", "121141.057500", "121141.517500", "121141.977500", "121142.437500", "121142.897500", "121143.357500", "121143.817500", "121144.277500", "121144.737500", "121145.197500", "121145.657500", "121146.117500", "121146.577500", "121147.037500", "121147.497500", "121147.957500", "121148.417500", "121148.877500", "121149.337500", "121149.797500", "121150.257500", "121150.717500", "121151.177500", "121151.637500", "121152.097500", "121152.557500", "121153.017500", "121153.477500", "121153.937500", "121154.397500", "121154.857500", "121155.317500", "121155.777500", "121156.237500", "121156.697500", "121157.157500", "121157.617500", "121158.077500", "121158.537500", "121158.997500", "121159.457500", "121159.917500", "121200.377500", "121200.837500", "121201.297500", "121201.757500", "121202.217500", "121202.677500", "121203.137500", "121203.597500", "121204.057500", "121204.517500", "121204.977500", "121205.437500", "121205.897500", "121206.357500", "121206.817500", "121207.277500", "121207.737500", "121208.197500", "121208.657500", "121209.117500", "121209.577500", "121210.037500", "121210.497500", "121210.957500", "121211.417500", "121211.877500", "121212.337500", "121212.797500", "121213.257500", "121213.717500", "121214.177500", "121214.637500", "121215.097500", "121215.557500", "121216.017500", "121216.477500", "121216.937500", "121217.397500", "121217.857500", "121218.317500", "121218.777500", "121219.237500", "121219.697500", "121220.157500", "121220.617500", "121221.077500", "121221.537500", "121221.997500", "121222.457500", "121222.917500", "121223.377500", "121223.837500", "121224.297500", "121224.757500", "121225.217500", "121225.677500", "121226.137500", "121226.597500", "121227.057500", "121227.517500", "121227.977500", "121228.437500", "121228.897500", "121229.357500", "121229.817500", "121230.277500", "121230.737500", "121231.197500", "121231.657500", "121232.117500", "121232.577500", "121233.037500", "121233.497500", "121233.957500", "121234.417500", "121234.877500", "121235.337500", "121235.797500", "121236.257500", "121236.717500", "121237.177500", "121237.637500", "121238.097500", "121238.557500", "121239.017500", "121239.477500", "121239.937500", "121240.397500", "121240.857500", "121241.317500", "121241.777500", "121242.237500", "121242.697500", "121243.157500", "121243.617500", "121244.077500", "121244.537500", "121244.997500", "121245.457500", "121245.917500", "121246.377500", "121246.837500", "121247.297500", "121247.757500", "121248.217500", "121248.677500", "121249.137500", "121249.597500", "121250.057500", "121250.517500", "121250.977500", "121251.437500", "121251.897500", "121252.357500", "121252.817500", "121253.277500", "121253.737500", "121254.197500", "121254.657500", "121255.117500", "121255.577500", "121256.037500", "121256.497500", "121256.957500", "121257.417500", "121257.877500", "121258.337500", "121258.797500", "121259.257500", "121259.717500", "121300.177500", "121300.637500", "121301.097500", "121301.557500", "121302.017500", "121302.477500", "121302.937500", "121303.397500", "121303.857500", "121304.317500", "121304.777500", "121305.237500", "121305.697500", "121306.157500", "121306.617500", "121307.077500", "121307.537500", "121307.997500", "121308.457500", "121308.917500", "121309.377500", "121309.837500", "121310.297500", "121310.757500", "121311.217500", "121311.677500", "121312.137500", "121312.597500", "121313.057500", "121313.517500", "121313.977500", "121314.437500", "121314.897500", "121315.357500", "121315.817500", "121316.277500", "121316.737500", "121317.197500", "121317.657500", "121318.117500", "121318.577500", "121319.037500", "121319.497500", "121319.957500", "121320.417500", "121320.877500", "121321.337500", "121321.797500", "121322.257500", "121322.717500", "121323.177500", "121323.637500", "121324.097500", "121324.557500", "121325.017500", "121325.477500", "121325.937500", "121326.397500", "121326.857500", "121327.317500", "121327.777500", "121328.237500", "121328.697500", "121329.157500", "121329.617500", "121330.077500", "121330.537500", "121330.997500", "121331.457500"],
