{
  "AcquisitionMatrixPE": 140,
  "AcquisitionNumber": 1,
  "AcquisitionTime": "15:23:0.127500",
  "BandwidthPerPixelPhaseEncode": 10.352,
  "BaseResolution": 140,
  "BodyPartExamined": "BRAIN",
  "ConsistencyInfo": "N4_VE11C_LATEST_20160120",
  "ConversionSoftware": "dcm2niix",
  "ConversionSoftwareVersion": "v1.0.20201102",
  "DerivedVendorReportedEchoSpacing": 0.000689998,
  "DeviceSerialNumber": "66112",
  "DiffusionScheme": "Monopolar",
  "DwellTime": 2.1e-06,
  "EchoTime": 0.0884,
  "EchoTrainLength": 105,
  "EffectiveEchoSpacing": 0.000689998,
  "FlipAngle": 90,
  "ImageComments": "Unaliased MB3/PE3 SENSE1",
  "ImageOrientationPatientDICOM": [0.998361, 0.0291332, 0.0492542, -0.0106294, 0.940139, -0.340625],
  "ImageType": [
    "ORIGINAL",
    "PRIMARY",
    "DIFFUSION",
    "NONE",
    "MB",
    "ND",
    "MOSAIC"
],
  "ImagingFrequency": 123.252,
  "InPlanePhaseEncodingDirectionDICOM": "COL",
  "InstitutionAddress": "Maynard 3,Hanover,NH,US,03755",
  "InstitutionName": "dartmouth_brain_imaging_center",
  "InstitutionalDepartmentName": "Department",
  "MRAcquisitionType": "2D",
  "MagneticFieldStrength": 3,
  "Manufacturer": "Siemens",
  "ManufacturersModelName": "Prisma",
  "Modality": "MR",
  "MultibandAccelerationFactor": 3,
  "PartialFourier": 0.75,
  "PatientPosition": "HFS",
  "PercentPhaseFOV": 100,
  "PercentSampling": 100,
  "PhaseEncodingDirection": "j-",
  "PhaseEncodingSteps": 105,
  "PhaseResolution": 1,
  "PixelBandwidth": 1700,
  "ProcedureStepDescription": "Wager_Wager^1076_spacetop",
  "ProtocolName": "dwi_acq-96dir-6b0-mb",
  "PulseSequenceDetails": "%CustomerSeq%\\cmrr_mbep2d_diff",
  "ReceiveCoilActiveElements": "HEA;HEP",
  "ReceiveCoilName": "Head_32",
  "ReconMatrixPE": 140,
  "RepetitionTime": 4.11,
  "SAR": 0.278394,
  "ScanOptions": "PFP\\FS",
  "ScanningSequence": "EP",
  "SequenceName": "ep_b5#1",
  "SequenceVariant": "SK\\SS",
  "SeriesDescription": "dwi_acq-96dir-6b0-mb",
  "SeriesNumber": 8,
  "ShimSetting": [4161, -7713, -7237, 404, -60, 36, 23, 69],
  "SliceThickness": 1.7,
  "SliceTiming": [0, 2.1225, 0.1525, 2.2725, 0.305, 2.425, 0.455, 2.575, 0.6075, 2.7275, 0.7575, 2.88, 0.91, 3.03, 1.0625, 3.1825, 1.2125, 3.3325, 1.365, 3.485, 1.515, 3.6375, 1.6675, 3.7875, 1.8175, 3.94, 1.97, 0, 2.1225, 0.1525, 2.2725, 0.305, 2.425, 0.455, 2.575, 0.6075, 2.7275, 0.7575, 2.88, 0.91, 3.03, 1.0625, 3.1825, 1.2125, 3.3325, 1.365, 3.485, 1.515, 3.6375, 1.6675, 3.7875, 1.8175, 3.94, 1.97, 0, 2.1225, 0.1525, 2.2725, 0.305, 2.425, 0.455, 2.575, 0.6075, 2.7275, 0.7575, 2.88, 0.91, 3.03, 1.0625, 3.1825, 1.2125, 3.3325, 1.365, 3.485, 1.515, 3.6375, 1.6675, 3.7875, 1.8175, 3.94, 1.97],
  "SoftwareVersions": "syngo MR E11",
  "SpacingBetweenSlices": 1.7,
  "StationName": "AWP66112",
  "TotalReadoutTime": 0.0959097,
  "TxRefAmp": 262.462,
  "WipMemBlock": "8f63176f-54a3-4464-891c-ab1038b085bb||Sequence: R016 ve11c/master r/e634e98; Dec 19 2017 11:11:25 by eja",
  "dcmmeta_affine": [
    [-1.7114765644073486, -0.01822187379002571, 0.09558979421854019, 123.03225708007812],
    [-0.04994257912039757, 1.6116670370101929, -0.5772240161895752, -59.854312896728516],
    [0.08443577587604523, 0.5839290022850037, 1.5961438417434692, -80.11316680908203],
    [0.0, 0.0, 0.0, 1.0]
],
  "dcmmeta_reorient_transform": [
    [0.0, -1.0, 0.0, 139.0],
    [1.0, 0.0, 0.0, 0.0],
    [0.0, 0.0, 1.0, 0.0],
    [0.0, 0.0, 0.0, 1.0]
],
  "dcmmeta_shape": [140, 140, 81, 103],
  "dcmmeta_slice_dim": 2,
  "dcmmeta_version": 0.6,
  "global": {
    "const": {
      "AccessionNumber": "A003499",
      "AcquisitionMatrix": [140, 0, 0, 140],
      "AngioFlag": "N",
      "BitsAllocated": 16,
      "BitsStored": 16,
      "BodyPartExamined": "BRAIN",
      "Columns": 1260,
      "EchoNumbers": 1,
      "EchoTime": 88.4,
      "EchoTrainLength": 105,
      "FlipAngle": 90.0,
      "HighBit": 15,
      "ImageOrientationPatient": [0.99836129833975, 0.02913317082386, 0.04925420119261, -0.0106294259539, 0.94013906253629, -0.3406252462711],
      "ImagePositionPatient": [-1068.7220249618, -1094.6687511269, 280.7691717523],
      "ImageType": [
        "ORIGINAL",
        "PRIMARY",
        "DIFFUSION",
        "NONE",
        "MB",
        "ND",
        "MOSAIC"
],
      "ImagedNucleus": "1H",
      "ImagingFrequency": 123.252108,
      "InPlanePhaseEncodingDirection": "COL",
      "MRAcquisitionType": "2D",
      "MagneticFieldStrength": 3.0,
      "Manufacturer": "SIEMENS",
      "ManufacturerModelName": "Prisma",
      "Modality": "MR",
      "NumberOfAverages": 1.0,
      "NumberOfPhaseEncodingSteps": 105,
      "PercentPhaseFieldOfView": 100.0,
      "PercentSampling": 100.0,
      "PerformedProcedureStepStartTime": "145934.524000",
      "PhotometricInterpretation": "MONOCHROME2",
      "PixelBandwidth": 1700.0,
      "PixelRepresentation": 0,
      "PixelSpacing": [1.7142857313156, 1.7142857313156],
      "ProtocolName": "dwi_acq-96dir-6b0-mb",
      "RepetitionTime": 4110.0,
      "Rows": 1260,
      "SAR": 0.2783935858103,
      "SamplesPerPixel": 1,
      "ScanOptions": [
        "PFP",
        "FS"
],
      "ScanningSequence": "EP",
      "SequenceVariant": [
        "SK",
        "SS"
],
      "SeriesDescription": "dwi_acq-96dir-6b0-mb",
      "SeriesNumber": 8,
      "SeriesTime": "152422.854000",
      "SliceLocation": -47.977740996991,
      "SliceThickness": 1.7000000476837,
      "SmallestImagePixelValue": 0,
      "SoftwareVersions": "syngo MR E11",
      "SpacingBetweenSlices": 1.7000000163511,
      "SpecificCharacterSet": "ISO_IR 100",
      "StudyID": "1",
      "StudyTime": "145934.456000",
      "TransmitCoilName": "Body",
      "VariableFlipAngleFlag": "N",
      "WindowCenterWidthExplanation": "Algo1",
      "dBdt": 0.0},
    "slices": {}
  },
  "time": {
    "samples": {
      "AcquisitionNumber": [1, 2, 3, 4, 5, 6, 7, 8, 9, 10, 11, 12, 13, 14, 15, 16, 17, 18, 19, 20, 21, 22, 23, 24, 25, 26, 27, 28, 29, 30, 31, 32, 33, 34, 35, 36, 37, 38, 39, 40, 41, 42, 43, 44, 45, 46, 47, 48, 49, 50, 51, 52, 53, 54, 55, 56, 57, 58, 59, 60, 61, 62, 63, 64, 65, 66, 67, 68, 69, 70, 71, 72, 73, 74, 75, 76, 77, 78, 79, 80, 81, 82, 83, 84, 85, 86, 87, 88, 89, 90, 91, 92, 93, 94, 95, 96, 97, 98, 99, 100, 101, 102, 103],
      "AcquisitionTime": ["152300.127500", "152304.237500", "152308.347500", "152312.457500", "152316.567500", "152320.677500", "152324.787500", "152328.897500", "152333.007500", "152337.117500", "152341.227500", "152345.337500", "152349.447500", "152353.557500", "152357.667500", "152401.777500", "152405.887500", "152409.997500", "152414.107500", "152418.217500", "152422.327500", "152426.437500", "152430.547500", "152434.657500", "152438.767500", "152442.877500", "152446.987500", "152451.097500", "152455.207500", "152459.317500", "152503.427500", "152507.537500", "152511.647500", "152515.757500", "152519.867500", "152523.977500", "152528.087500", "152532.197500", "152536.307500", "152540.417500", "152544.527500", "152548.637500", "152552.747500", "152556.857500", "152600.967500", "152605.077500", "152609.187500", "152613.297500", "152617.407500", "152621.517500", "152625.627500", "152629.737500", "152633.847500", "152637.957500", "152642.067500", "152646.177500", "152650.287500", "152654.397500", "152658.507500", "152702.617500", "152706.727500", "152710.837500", "152714.947500", "152719.057500", "152723.167500", "152727.277500", "152731.387500", "152735.497500", "152739.607500", "152743.717500", "152747.827500", "152751.937500", "152756.047500", "152800.157500", "152804.267500", "152808.377500", "152812.487500", "152816.597500", "152820.707500", "152824.817500", "152828.927500", "152833.037500", "152837.147500", "152841.257500", "152845.367500", "152849.477500", "152853.587500", "152857.697500", "152901.807500", "152905.917500", "152910.027500", "152914.137500", "152918.247500", "152922.357500", "152926.467500", "152930.577500", "152934.687500", "152938.797500", "152942.907500", "152947.017500", "152951.127500", "152955.237500", "152959.347500"],
      "ContentTime": ["152422.858000", "152422.862000", "152422.865000", "152422.869000", "152422.872000", "152422.875000", "152422.878000", "152422.881000", "152422.885000", "152422.888000", "152422.900000", "152422.903000", "152422.906000", "152422.909000", "152422.913000", "152422.916000", "152422.919000", "152422.922000", "152422.925000", "152422.929000", "152602.853000", "152602.866000", "152602.870000", "152602.873000", "152602.876000", "152602.880000", "152602.883000", "152602.886000", "152602.890000", "152602.893000", "152602.896000", "152602.899000", "152602.903000", "152602.906000", "152602.909000", "152602.912000", "152602.916000", "152602.919000", "152602.922000", "152602.925000", "152602.929000", "152602.932000", "152602.935000", "152602.939000", "152742.853000", "152742.857000", "152742.860000", "152742.863000", "152742.867000", "152742.870000", "152742.873000", "152742.877000", "152742.880000", "152742.883000", "152742.887000", "152742.890000", "152742.893000", "152742.896000", "152742.900000", "152742.903000", "152742.906000", "152742.909000", "152742.913000", "152742.916000", "152742.919000", "152742.922000", "152742.932000", "152742.936000", "152902.854000", "152902.858000", "152902.861000", "152902.864000", "152902.868000", "152902.871000", "152902.874000", "152902.877000", "152902.881000", "152902.884000", "152902.887000", "152902.890000", "152902.894000", "152902.897000", "152902.900000", "152902.904000", "152902.907000", "152902.910000", "152902.914000", "152902.917000", "153003.596000", "153003.601000", "153003.605000", "153003.610000", "153003.613000", "153003.617000", "153003.620000", "153003.624000", "153003.627000", "153003.631000", "153003.634000", "153003.638000", "153003.641000", "153003.644000", "153003.648000"],
      "InstanceCreationTime": ["152422.858000", "152422.862000", "152422.865000", "152422.869000", "152422.872000", "152422.875000", "152422.878000", "152422.881000", "152422.885000", "152422.888000", "152422.900000", "152422.903000", "152422.906000", "152422.909000", "152422.913000", "152422.916000", "152422.919000", "152422.922000", "152422.925000", "152422.929000", "152602.853000", "152602.866000", "152602.870000", "152602.873000", "152602.876000", "152602.880000", "152602.883000", "152602.886000", "152602.890000", "152602.893000", "152602.896000", "152602.899000", "152602.903000", "152602.906000", "152602.909000", "152602.912000", "152602.916000", "152602.919000", "152602.922000", "152602.925000", "152602.929000", "152602.932000", "152602.935000", "152602.939000", "152742.853000", "152742.857000", "152742.860000", "152742.863000", "152742.867000", "152742.870000", "152742.873000", "152742.877000", "152742.880000", "152742.883000", "152742.887000", "152742.890000", "152742.893000", "152742.896000", "152742.900000", "152742.903000", "152742.906000", "152742.909000", "152742.913000", "152742.916000", "152742.919000", "152742.922000", "152742.932000", "152742.936000", "152902.854000", "152902.858000", "152902.861000", "152902.864000", "152902.868000", "152902.871000", "152902.874000", "152902.877000", "152902.881000", "152902.884000", "152902.887000", "152902.890000", "152902.894000", "152902.897000", "152902.900000", "152902.904000", "152902.907000", "152902.910000", "152902.914000", "152902.917000", "153003.596000", "153003.601000", "153003.605000", "153003.610000", "153003.613000", "153003.617000", "153003.620000", "153003.624000", "153003.627000", "153003.631000", "153003.634000", "153003.638000", "153003.641000", "153003.644000", "153003.648000"],
      "InstanceNumber": [1, 2, 3, 4, 5, 6, 7, 8, 9, 10, 11, 12, 13, 14, 15, 16, 17, 18, 19, 20, 21, 22, 23, 24, 25, 26, 27, 28, 29, 30, 31, 32, 33, 34, 35, 36, 37, 38, 39, 40, 41, 42, 43, 44, 45, 46, 47, 48, 49, 50, 51, 52, 53, 54, 55, 56, 57, 58, 59, 60, 61, 62, 63, 64, 65, 66, 67, 68, 69, 70, 71, 72, 73, 74, 75, 76, 77, 78, 79, 80, 81, 82, 83, 84, 85, 86, 87, 88, 89, 90, 91, 92, 93, 94, 95, 96, 97, 98, 99, 100, 101, 102, 103],
      "LargestImagePixelValue": [65535, 65535, 38564, 39181, 40534, 38375, 38238, 37235, 65535, 24435, 23595, 24588, 25544, 25215, 24774, 24138, 25006, 25444, 22681, 25268, 24115, 26024, 23195, 24683, 65535, 13520, 12983, 13084, 12300, 12534, 12986, 12369, 13289, 13895, 11905, 12616, 13800, 13653, 11926, 12338, 65535, 9843, 8133, 8070, 7810, 8197, 7159, 7369, 7881, 10243, 9997, 8477, 7652, 8264, 7232, 8672, 9782, 7662, 7413, 8317, 7598, 8284, 7041, 6999, 7273, 6522, 8195, 7082, 7131, 8152, 9576, 6830, 7482, 65535, 7941, 7860, 8746, 7071, 8422, 8595, 9196, 8654, 6655, 9553, 8998, 10907, 9465, 9474, 9350, 8638, 8803, 7916, 8780, 8053, 8675, 10116, 7371, 8190, 7512, 7572, 9170, 7149, 65535],
      "SequenceName": [
 "ep_b5#1",
 "ep_b5#1",
 "ep_b500#2",
 "ep_b495#3",
 "ep_b500#4",
 "ep_b505#5",
 "ep_b500#6",
 "ep_b500#7",
 "ep_b5#8",
 "ep_b1000#9",
 "ep_b1005#10",
 "ep_b995#11",
 "ep_b1005#12",
 "ep_b995#13",
 "ep_b995#14",
 "ep_b1005#15",
 "ep_b1000#16",
 "ep_b1005#17",
 "ep_b1000#18",
 "ep_b1000#19",
 "ep_b1000#20",
 "ep_b995#21",
 "ep_b1005#22",
 "ep_b1000#23",
 "ep_b5#24",
 "ep_b2000#25",
 "ep_b1995#26",
 "ep_b1990#27",
 "ep_b2000#28",
 "ep_b2005#29",
 "ep_b2010#30",
 "ep_b2000#31",
 "ep_b2010#32",
 "ep_b2000#33",
 "ep_b1995#34",
 "ep_b1995#35",
 "ep_b2005#36",
 "ep_b1995#37",
 "ep_b2005#38",
 "ep_b1995#39",
 "ep_b5#40",
 "ep_b3000#41",
 "ep_b3010#42",
 "ep_b3010#43",
 "ep_b3010#44",
 "ep_b3000#45",
 "ep_b3005#46",
 "ep_b2995#47",
 "ep_b3010#48",
 "ep_b3005#49",
 "ep_b2990#50",
 "ep_b2990#51",
 "ep_b3000#52",
 "ep_b2995#53",
 "ep_b3005#54",
 "ep_b3005#55",
 "ep_b2995#56",
 "ep_b2995#57",
 "ep_b2990#58",
 "ep_b2990#59",
 "ep_b2995#60",
 "ep_b2990#61",
 "ep_b2995#62",
 "ep_b3000#63",
 "ep_b3000#64",
 "ep_b3005#65",
 "ep_b2995#66",
 "ep_b3000#67",
 "ep_b3005#68",
 "ep_b3005#69",
 "ep_b3005#70",
 "ep_b3000#71",
 "ep_b2990#72",
 "ep_b5#73",
 "ep_b3010#74",
 "ep_b3005#75",
 "ep_b3010#76",
 "ep_b3000#77",
 "ep_b2990#78",
 "ep_b3005#79",
 "ep_b2995#80",
 "ep_b3010#81",
 "ep_b3005#82",
 "ep_b3010#83",
 "ep_b3000#84",
 "ep_b3000#85",
 "ep_b3010#86",
 "ep_b3010#87",
 "ep_b2990#88",
 "ep_b3010#89",
 "ep_b2995#90",
 "ep_b2990#91",
 "ep_b2990#92",
 "ep_b3000#93",
 "ep_b3005#94",
 "ep_b3005#95",
 "ep_b3000#96",
 "ep_b2995#97",
 "ep_b2990#98",
 "ep_b2995#99",
 "ep_b2995#100",
 "ep_b3000#101",
 "ep_b5#102"
],
      "WindowCenter": [10257.0, 10248.0, 6579.0, 6641.0, 6625.0, 6547.0, 6630.0, 6575.0, 10256.0, 4828.0, 4833.0, 4832.0, 4795.0, 4827.0, 4838.0, 4833.0, 4850.0, 4803.0, 4807.0, 4842.0, 4890.0, 4839.0, 4794.0, 4882.0, 10252.0, 3057.0, 3054.0, 3043.0, 3116.0, 3044.0, 3065.0, 3056.0, 3013.0, 3114.0, 3086.0, 3061.0, 3037.0, 3087.0, 3095.0, 3043.0, 10237.0, 2190.0, 2074.0, 2120.0, 2115.0, 2147.0, 2101.0, 2139.0, 2087.0, 2184.0, 2157.0, 2127.0, 2113.0, 2150.0, 2113.0, 2126.0, 2192.0, 2094.0, 2125.0, 2129.0, 2121.0, 2131.0, 2142.0, 2102.0, 2143.0, 2078.0, 2130.0, 2116.0, 2115.0, 2137.0, 2179.0, 2119.0, 2137.0, 10229.0, 2128.0, 2119.0, 2096.0, 2085.0, 2102.0, 2123.0, 2149.0, 2110.0, 2106.0, 2163.0, 2157.0, 2213.0, 2115.0, 2144.0, 2177.0, 2137.0, 2197.0, 2104.0, 2126.0, 2164.0, 2127.0, 2202.0, 2156.0, 2142.0, 2137.0, 2091.0, 2181.0, 2117.0, 10228.0],
      "WindowWidth": [23179.0, 23171.0, 14126.0, 14229.0, 14190.0, 14058.0, 14216.0, 14123.0, 23173.0, 10625.0, 10625.0, 10624.0, 10559.0, 10633.0, 10646.0, 10621.0, 10651.0, 10577.0, 10593.0, 10629.0, 10724.0, 10632.0, 10572.0, 10692.0, 23160.0, 7119.0, 7115.0, 7098.0, 7225.0, 7100.0, 7120.0, 7119.0, 7039.0, 7214.0, 7178.0, 7138.0, 7077.0, 7163.0, 7185.0, 7105.0, 23119.0, 5364.0, 5156.0, 5251.0, 5224.0, 5310.0, 5237.0, 5293.0, 5182.0, 5340.0, 5281.0, 5244.0, 5255.0, 5318.0, 5254.0, 5249.0, 5372.0, 5207.0, 5266.0, 5251.0, 5260.0, 5265.0, 5309.0, 5240.0, 5323.0, 5194.0, 5267.0, 5268.0, 5263.0, 5299.0, 5350.0, 5276.0, 5282.0, 23098.0, 5250.0, 5253.0, 5189.0, 5200.0, 5207.0, 5239.0, 5285.0, 5208.0, 5255.0, 5312.0, 5320.0, 5399.0, 5208.0, 5264.0, 5339.0, 5258.0, 5390.0, 5219.0, 5249.0, 5349.0, 5254.0, 5387.0, 5343.0, 5289.0, 5287.0, 5195.0, 5354.0, 5270.0, 23038.0]
    },
    "slices": {}
  }
}