{
  "AcquisitionMatrixPE": 82,
  "AcquisitionNumber": 1,
  "AcquisitionTime": "09:26:42.515000",
  "BandwidthPerPixelPhaseEncode": 24.888,
  "BaseResolution": 82,
  "BodyPartExamined": "BRAIN",
  "ConsistencyInfo": "N4_VE11E_LATEST_20181129",
  "ConversionSoftware": "dcm2niix",
  "ConversionSoftwareVersion": "v1.0.20201102",
  "DerivedVendorReportedEchoSpacing": 0.00049,
  "DeviceSerialNumber": "66112",
  "DwellTime": 2e-06,
  "EchoTime": 0.0272,
  "EchoTrainLength": 82,
  "EffectiveEchoSpacing": 0.00049,
  "FlipAngle": 44,
  "ImageComments": "Unaliased MB8/PE3",
  "ImageOrientationPatientDICOM": [0.998857, 0.0099587, 0.0467509, -0.000522931, 0.980274, -0.197642],
  "ImageType": [
    "ORIGINAL",
    "PRIMARY",
    "M",
    "MB",
    "ND",
    "NORM",
    "MOSAIC"
],
  "ImagingFrequency": 123.259,
  "InPlanePhaseEncodingDirectionDICOM": "COL",
  "InstitutionAddress": "Maynard 3,Hanover,NH,US,03755",
  "InstitutionName": "Dartmouth College - PBS",
  "InstitutionalDepartmentName": "Department",
  "MRAcquisitionType": "2D",
  "MagneticFieldStrength": 3,
  "Manufacturer": "Siemens",
  "ManufacturersModelName": "Prisma",
  "Modality": "MR",
  "MultibandAccelerationFactor": 8,
  "PartialFourier": 1,
  "PatientPosition": "HFS",
  "PercentPhaseFOV": 100,
  "PercentSampling": 100,
  "PhaseEncodingDirection": "j-",
  "PhaseEncodingSteps": 82,
  "PhaseResolution": 1,
  "PixelBandwidth": 3050,
  "ProcedureStepDescription": "Wager_Wager^1076_spacetop",
  "ProtocolName": "func_run-04_task-social_acq-ap-mb8",
  "PulseSequenceDetails": "%CustomerSeq%\\cmrr_mbep2d_bold",
  "ReceiveCoilActiveElements": "HEA;HEP",
  "ReceiveCoilName": "Head_32",
  "ReconMatrixPE": 82,
  "RepetitionTime": 0.46,
  "SAR": 0.116302,
  "ScanOptions": "FS",
  "ScanningSequence": "EP",
  "SequenceName": "epfid2d1_82",
  "SequenceVariant": "SK\\SS",
  "SeriesDescription": "func_run-04_task-social_acq-ap-mb8",
  "SeriesNumber": 14,
  "ShimSetting": [4225, -7755, -7222, 72, -151, -77, 69, 59],
  "SliceThickness": 2.7,
  "SliceTiming": [0, 0.25, 0.0625, 0.3125, 0.125, 0.375, 0.1875, 0, 0.25, 0.0625, 0.3125, 0.125, 0.375, 0.1875, 0, 0.25, 0.0625, 0.3125, 0.125, 0.375, 0.1875, 0, 0.25, 0.0625, 0.3125, 0.125, 0.375, 0.1875, 0, 0.25, 0.0625, 0.3125, 0.125, 0.375, 0.1875, 0, 0.25, 0.0625, 0.3125, 0.125, 0.375, 0.1875, 0, 0.25, 0.0625, 0.3125, 0.125, 0.375, 0.1875, 0, 0.25, 0.0625, 0.3125, 0.125, 0.375, 0.1875],
  "SoftwareVersions": "syngo MR E11",
  "SpacingBetweenSlices": 2.7,
  "StationName": "AWP66112",
  "TaskName": "social",
  "TotalReadoutTime": 0.03969,
  "TxRefAmp": 305.621,
  "WipMemBlock": "337bff83-63a8-4881-a32f-84396d0c116a||Sequence: R016 ve11e/master r/434b28f1; Aug  7 2019 18:53:46 by eja",
  "dcmmeta_affine": [
    [-2.6798601150512695, -0.0014029855374246836, 0.1290517896413803, 109.62295532226562],
    [-0.026718467473983765, 2.6300039291381836, -0.5329564809799194, -74.9377212524414],
    [0.12542924284934998, 0.530258059501648, 2.6437289714813232, -102.9595718383789],
    [0.0, 0.0, 0.0, 1.0]
],
  "dcmmeta_reorient_transform": [
    [0.0, -1.0, 0.0, 81.0],
    [1.0, 0.0, 0.0, 0.0],
    [0.0, 0.0, 1.0, 0.0],
    [0.0, 0.0, 0.0, 1.0]
],
  "dcmmeta_shape": [82, 82, 56, 872],
  "dcmmeta_slice_dim": 2,
  "dcmmeta_version": 0.6,
  "global": {
    "const": {
      "AccessionNumber": "A004338",
      "AcquisitionMatrix": [82, 0, 0, 82],
      "AngioFlag": "N",
      "BitsAllocated": 16,
      "BitsStored": 16,
      "BodyPartExamined": "BRAIN",
      "Columns": 656,
      "EchoNumbers": 1,
      "EchoTime": 27.2,
      "EchoTrainLength": 82,
      "FlipAngle": 44.0,
      "HighBit": 15,
      "ImageOrientationPatient": [0.99885693548106, 0.00995870143998, 0.04675090060108, -0.0005229309436, 0.9802741998175, -0.1976416446891],
      "ImagePositionPatient": [-878.22651511854, -900.5719546259, 56.177206657081],
      "ImageType": [
        "ORIGINAL",
        "PRIMARY",
        "M",
        "MB",
        "ND",
        "NORM",
        "MOSAIC"
],
      "ImagedNucleus": "1H",
      "ImagingFrequency": 123.259073,
      "InPlanePhaseEncodingDirection": "COL",
      "MRAcquisitionType": "2D",
      "MagneticFieldStrength": 3.0,
      "Manufacturer": "SIEMENS",
      "ManufacturerModelName": "Prisma",
      "Modality": "MR",
      "NumberOfAverages": 1.0,
      "NumberOfPhaseEncodingSteps": 82,
      "PercentPhaseFieldOfView": 100.0,
      "PercentSampling": 100.0,
      "PerformedProcedureStepStartTime": "083944.957000",
      "PhotometricInterpretation": "MONOCHROME2",
      "PixelBandwidth": 3050.0,
      "PixelRepresentation": 0,
      "PixelSpacing": [2.6829268932343, 2.6829268932343],
      "ProtocolName": "func_run-04_task-social_acq-ap-mb8",
      "RepetitionTime": 460.0,
      "Rows": 656,
      "SAR": 0.11630244295507,
      "SamplesPerPixel": 1,
      "ScanOptions": "FS",
      "ScanningSequence": "EP",
      "SequenceName": "epfid2d1_82",
      "SequenceVariant": [
        "SK",
        "SS"
],
      "SeriesDescription": "func_run-04_task-social_acq-ap-mb8",
      "SeriesNumber": 14,
      "SeriesTime": "092657.680000",
      "SliceLocation": -80.782085600027,
      "SliceThickness": 2.7000000476837,
      "SmallestImagePixelValue": 0,
      "SoftwareVersions": "syngo MR E11",
      "SpacingBetweenSlices": 2.7000000461369,
      "SpecificCharacterSet": "ISO_IR 100",
      "StudyID": "3",
      "StudyTime": "083944.764000",
      "TransmitCoilName": "Body",
      "VariableFlipAngleFlag": "N",
      "WindowCenterWidthExplanation": "Algo1"
    },
    "slices": {}
  },
  "time": {
    "samples": {
      "AcquisitionNumber": [1, 2, 3, 4, 5, 6, 7, 8, 9, 10, 11, 12, 13, 14, 15, 16, 17, 18, 19, 20, 21, 22, 23, 24, 25, 26, 27, 28, 29, 30, 31, 32, 33, 34, 35, 36, 37, 38, 39, 40, 41, 42, 43, 44, 45, 46, 47, 48, 49, 50, 51, 52, 53, 54, 55, 56, 57, 58, 59, 60, 61, 62, 63, 64, 65, 66, 67, 68, 69, 70, 71, 72, 73, 74, 75, 76, 77, 78, 79, 80, 81, 82, 83, 84, 85, 86, 87, 88, 89, 90, 91, 92, 93, 94, 95, 96, 97, 98, 99, 100, 101, 102, 103, 104, 105, 106, 107, 108, 109, 110, 111, 112, 113, 114, 115, 116, 117, 118, 119, 120, 121, 122, 123, 124, 125, 126, 127, 128, 129, 130, 131, 132, 133, 134, 135, 136, 137, 138, 139, 140, 141, 142, 143, 144, 145, 146, 147, 148, 149, 150, 151, 152, 153, 154, 155, 156, 157, 158, 159, 160, 161, 162, 163, 164, 165, 166, 167, 168, 169, 170, 171, 172, 173, 174, 175, 176, 177, 178, 179, 180, 181, 182, 183, 184, 185, 186, 187, 188, 189, 190, 191, 192, 193, 194, 195, 196, 197, 198, 199, 200, 201, 202, 203, 204, 205, 206, 207, 208, 209, 210, 211, 212, 213, 214, 215, 216, 217, 218, 219, 220, 221, 222, 223, 224, 225, 226, 227, 228, 229, 230, 231, 232, 233, 234, 235, 236, 237, 238, 239, 240, 241, 242, 243, 244, 245, 246, 247, 248, 249, 250, 251, 252, 253, 254, 255, 256, 257, 258, 259, 260, 261, 262, 263, 264, 265, 266, 267, 268, 269, 270, 271, 272, 273, 274, 275, 276, 277, 278, 279, 280, 281, 282, 283, 284, 285, 286, 287, 288, 289, 290, 291, 292, 293, 294, 295, 296, 297, 298, 299, 300, 301, 302, 303, 304, 305, 306, 307, 308, 309, 310, 311, 312, 313, 314, 315, 316, 317, 318, 319, 320, 321, 322, 323, 324, 325, 326, 327, 328, 329, 330, 331, 332, 333, 334, 335, 336, 337, 338, 339, 340, 341, 342, 343, 344, 345, 346, 347, 348, 349, 350, 351, 352, 353, 354, 355, 356, 357, 358, 359, 360, 361, 362, 363, 364, 365, 366, 367, 368, 369, 370, 371, 372, 373, 374, 375, 376, 377, 378, 379, 380, 381, 382, 383, 384, 385, 386, 387, 388, 389, 390, 391, 392, 393, 394, 395, 396, 397, 398, 399, 400, 401, 402, 403, 404, 405, 406, 407, 408, 409, 410, 411, 412, 413, 414, 415, 416, 417, 418, 419, 420, 421, 422, 423, 424, 425, 426, 427, 428, 429, 430, 431, 432, 433, 434, 435, 436, 437, 438, 439, 440, 441, 442, 443, 444, 445, 446, 447, 448, 449, 450, 451, 452, 453, 454, 455, 456, 457, 458, 459, 460, 461, 462, 463, 464, 465, 466, 467, 468, 469, 470, 471, 472, 473, 474, 475, 476, 477, 478, 479, 480, 481, 482, 483, 484, 485, 486, 487, 488, 489, 490, 491, 492, 493, 494, 495, 496, 497, 498, 499, 500, 501, 502, 503, 504, 505, 506, 507, 508, 509, 510, 511, 512, 513, 514, 515, 516, 517, 518, 519, 520, 521, 522, 523, 524, 525, 526, 527, 528, 529, 530, 531, 532, 533, 534, 535, 536, 537, 538, 539, 540, 541, 542, 543, 544, 545, 546, 547, 548, 549, 550, 551, 552, 553, 554, 555, 556, 557, 558, 559, 560, 561, 562, 563, 564, 565, 566, 567, 568, 569, 570, 571, 572, 573, 574, 575, 576, 577, 578, 579, 580, 581, 582, 583, 584, 585, 586, 587, 588, 589, 590, 591, 592, 593, 594, 595, 596, 597, 598, 599, 600, 601, 602, 603, 604, 605, 606, 607, 608, 609, 610, 611, 612, 613, 614, 615, 616, 617, 618, 619, 620, 621, 622, 623, 624, 625, 626, 627, 628, 629, 630, 631, 632, 633, 634, 635, 636, 637, 638, 639, 640, 641, 642, 643, 644, 645, 646, 647, 648, 649, 650, 651, 652, 653, 654, 655, 656, 657, 658, 659, 660, 661, 662, 663, 664, 665, 666, 667, 668, 669, 670, 671, 672, 673, 674, 675, 676, 677, 678, 679, 680, 681, 682, 683, 684, 685, 686, 687, 688, 689, 690, 691, 692, 693, 694, 695, 696, 697, 698, 699, 700, 701, 702, 703, 704, 705, 706, 707, 708, 709, 710, 711, 712, 713, 714, 715, 716, 717, 718, 719, 720, 721, 722, 723, 724, 725, 726, 727, 728, 729, 730, 731, 732, 733, 734, 735, 736, 737, 738, 739, 740, 741, 742, 743, 744, 745, 746, 747, 748, 749, 750, 751, 752, 753, 754, 755, 756, 757, 758, 759, 760, 761, 762, 763, 764, 765, 766, 767, 768, 769, 770, 771, 772, 773, 774, 775, 776, 777, 778, 779, 780, 781, 782, 783, 784, 785, 786, 787, 788, 789, 790, 791, 792, 793, 794, 795, 796, 797, 798, 799, 800, 801, 802, 803, 804, 805, 806, 807, 808, 809, 810, 811, 812, 813, 814, 815, 816, 817, 818, 819, 820, 821, 822, 823, 824, 825, 826, 827, 828, 829, 830, 831, 832, 833, 834, 835, 836, 837, 838, 839, 840, 841, 842, 843, 844, 845, 846, 847, 848, 849, 850, 851, 852, 853, 854, 855, 856, 857, 858, 859, 860, 861, 862, 863, 864, 865, 866, 867, 868, 869, 870, 871, 872],
      "AcquisitionTime": ["092642.515000", "092642.975000", "092643.435000", "092643.895000", "092644.355000", "092644.815000", "092645.275000", "092645.735000", "092646.195000", "092646.655000", "092647.115000", "092647.575000", "092648.035000", "092648.495000", "092648.955000", "092649.415000", "092649.875000", "092650.335000", "092650.795000", "092651.255000", "092651.715000", "092652.175000", "092652.635000", "092653.095000", "092653.555000", "092654.015000", "092654.475000", "092654.935000", "092655.395000", "092655.855000", "092656.315000", "092656.775000", "092657.235000", "092657.695000", "092658.155000", "092658.615000", "092659.075000", "092659.535000", "092659.995000", "092700.455000", "092700.915000", "092701.375000", "092701.835000", "092702.295000", "092702.755000", "092703.215000", "092703.675000", "092704.135000", "092704.595000", "092705.055000", "092705.515000", "092705.975000", "092706.435000", "092706.895000", "092707.355000", "092707.815000", "092708.275000", "092708.735000", "092709.195000", "092709.655000", "092710.115000", "092710.575000", "092711.035000", "092711.495000", "092711.955000", "092712.415000", "092712.875000", "092713.335000", "092713.795000", "092714.255000", "092714.715000", "092715.175000", "092715.635000", "092716.095000", "092716.555000", "092717.015000", "092717.475000", "092717.935000", "092718.395000", "092718.855000", "092719.315000", "092719.775000", "092720.235000", "092720.695000", "092721.155000", "092721.615000", "092722.075000", "092722.535000", "092722.995000", "092723.455000", "092723.915000", "092724.375000", "092724.835000", "092725.295000", "092725.755000", "092726.215000", "092726.675000", "092727.135000", "092727.595000", "092728.055000", "092728.515000", "092728.975000", "092729.435000", "092729.895000", "092730.355000", "092730.815000", "092731.275000", "092731.735000", "092732.195000", "092732.655000", "092733.115000", "092733.575000", "092734.035000", "092734.495000", "092734.955000", "092735.415000", "092735.875000", "092736.335000", "092736.795000", "092737.255000", "092737.715000", "092738.175000", "092738.635000", "092739.095000", "092739.555000", "092740.015000", "092740.475000", "092740.935000", "092741.395000", "092741.855000", "092742.315000", "092742.775000", "092743.235000", "092743.695000", "092744.155000", "092744.615000", "092745.075000", "092745.535000", "092745.995000", "092746.455000", "092746.915000", "092747.375000", "092747.835000", "092748.295000", "092748.755000", "092749.215000", "092749.675000", "092750.135000", "092750.595000", "092751.055000", "092751.515000", "092751.975000", "092752.435000", "092752.895000", "092753.355000", "092753.815000", "092754.275000", "092754.735000", "092755.195000", "092755.655000", "092756.115000", "092756.575000", "092757.035000", "092757.495000", "092757.955000", "092758.415000", "092758.875000", "092759.335000", "092759.795000", "092800.255000", "092800.715000", "092801.175000", "092801.635000", "092802.095000", "092802.555000", "092803.015000", "092803.475000", "092803.935000", "092804.395000", "092804.855000", "092805.315000", "092805.775000", "092806.235000", "092806.695000", "092807.155000", "092807.615000", "092808.075000", "092808.535000", "092808.995000", "092809.455000", "092809.915000", "092810.375000", "092810.835000", "092811.295000", "092811.755000", "092812.215000", "092812.675000", "092813.135000", "092813.595000", "092814.055000", "092814.515000", "092814.975000", "092815.435000", "092815.895000", "092816.355000", "092816.815000", "092817.275000", "092817.735000", "092818.195000", "092818.655000", "092819.115000", "092819.575000", "092820.035000", "092820.495000", "092820.955000", "092821.415000", "092821.875000", "092822.335000", "092822.795000", "092823.255000", "092823.715000", "092824.175000", "092824.635000", "092825.095000", "092825.555000", "092826.015000", "092826.475000", "092826.935000", "092827.395000", "092827.855000", "092828.315000", "092828.775000", "092829.235000", "092829.695000", "092830.155000", "092830.615000", "092831.075000", "092831.535000", "092831.995000", "092832.455000", "092832.915000", "092833.375000", "092833.835000", "092834.295000", "092834.755000", "092835.215000", "092835.675000", "092836.135000", "092836.595000", "092837.055000", "092837.515000", "092837.975000", "092838.435000", "092838.895000", "092839.355000", "092839.815000", "092840.275000", "092840.735000", "092841.195000", "092841.655000", "092842.115000", "092842.575000", "092843.035000", "092843.495000", "092843.955000", "092844.415000", "092844.875000", "092845.335000", "092845.795000", "092846.255000", "092846.715000", "092847.175000", "092847.635000", "092848.095000", "092848.555000", "092849.015000", "092849.475000", "092849.935000", "092850.395000", "092850.855000", "092851.315000", "092851.775000", "092852.235000", "092852.695000", "092853.155000", "092853.615000", "092854.075000", "092854.535000", "092854.995000", "092855.455000", "092855.915000", "092856.375000", "092856.835000", "092857.295000", "092857.755000", "092858.215000", "092858.675000", "092859.135000", "092859.595000", "092900.055000", "092900.515000", "092900.975000", "092901.435000", "092901.895000", "092902.355000", "092902.815000", "092903.275000", "092903.735000", "092904.195000", "092904.655000", "092905.115000", "092905.575000", "092906.035000", "092906.495000", "092906.955000", "092907.415000", "092907.875000", "092908.335000", "092908.795000", "092909.255000", "092909.715000", "092910.175000", "092910.635000", "092911.095000", "092911.555000", "092912.015000", "092912.475000", "092912.935000", "092913.395000", "092913.855000", "092914.315000", "092914.775000", "092915.235000", "092915.695000", "092916.155000", "092916.615000", "092917.075000", "092917.535000", "092917.995000", "092918.455000", "092918.915000", "092919.375000", "092919.835000", "092920.295000", "092920.755000", "092921.215000", "092921.675000", "092922.135000", "092922.595000", "092923.055000", "092923.515000", "092923.975000", "092924.435000", "092924.895000", "092925.355000", "092925.815000", "092926.275000", "092926.735000", "092927.195000", "092927.655000", "092928.115000", "092928.575000", "092929.035000", "092929.495000", "092929.955000", "092930.415000", "092930.875000", "092931.335000", "092931.795000", "092932.255000", "092932.715000", "092933.175000", "092933.635000", "092934.095000", "092934.555000", "092935.015000", "092935.475000", "092935.935000", "092936.395000", "092936.855000", "092937.315000", "092937.775000", "092938.235000", "092938.695000", "092939.155000", "092939.615000", "092940.075000", "092940.535000", "092940.995000", "092941.455000", "092941.915000", "092942.375000", "092942.835000", "092943.295000", "092943.755000", "092944.215000", "092944.675000", "092945.135000", "092945.595000", "092946.055000", "092946.515000", "092946.975000", "092947.435000", "092947.895000", "092948.355000", "092948.815000", "092949.275000", "092949.735000", "092950.195000", "092950.655000", "092951.115000", "092951.575000", "092952.035000", "092952.495000", "092952.955000", "092953.415000", "092953.875000", "092954.335000", "092954.795000", "092955.255000", "092955.715000", "092956.175000", "092956.635000", "092957.095000", "092957.555000", "092958.015000", "092958.475000", "092958.935000", "092959.395000", "092959.855000", "093000.315000", "093000.775000", "093001.235000", "093001.695000", "093002.155000", "093002.615000", "093003.075000", "093003.535000", "093003.995000", "093004.455000", "093004.915000", "093005.375000", "093005.835000", "093006.295000", "093006.755000", "093007.215000", "093007.675000", "093008.135000", "093008.595000", "093009.055000", "093009.515000", "093009.975000", "093010.435000", "093010.895000", "093011.355000", "093011.815000", "093012.275000", "093012.735000", "093013.195000", "093013.655000", "093014.115000", "093014.575000", "093015.035000", "093015.495000", "093015.955000", "093016.415000", "093016.875000", "093017.335000", "093017.795000", "093018.255000", "093018.715000", "093019.175000", "093019.635000", "093020.095000", "093020.555000", "093021.015000", "093021.475000", "093021.935000", "093022.395000", "093022.855000", "093023.315000", "093023.775000", "093024.235000", "093024.695000", "093025.155000", "093025.615000", "093026.075000", "093026.535000", "093026.995000", "093027.455000", "093027.915000", "093028.375000", "093028.835000", "093029.295000", "093029.755000", "093030.215000", "093030.675000", "093031.135000", "093031.595000", "093032.055000", "093032.515000", "093032.975000", "093033.435000", "093033.895000", "093034.355000", "093034.815000", "093035.275000", "093035.735000", "093036.195000", "093036.655000", "093037.115000", "093037.575000", "093038.035000", "093038.495000", "093038.955000", "093039.415000", "093039.875000", "093040.335000", "093040.795000", "093041.255000", "093041.715000", "093042.175000", "093042.635000", "093043.095000", "093043.555000", "093044.015000", "093044.475000", "093044.935000", "093045.395000", "093045.855000", "093046.315000", "093046.775000", "093047.235000", "093047.695000", "093048.155000", "093048.615000", "093049.075000", "093049.535000", "093049.995000", "093050.455000", "093050.915000", "093051.375000", "093051.835000", "093052.295000", "093052.755000", "093053.215000", "093053.675000", "093054.135000", "093054.595000", "093055.055000", "093055.515000", "093055.975000", "093056.435000", "093056.895000", "093057.355000", "093057.815000", "093058.275000", "093058.735000", "093059.195000", "093059.655000", "093100.115000", "093100.575000", "093101.035000", "093101.495000", "093101.955000", "093102.415000", "093102.875000", "093103.335000", "093103.795000", "093104.255000", "093104.715000", "093105.175000", "093105.635000", "093106.095000", "093106.555000", "093107.015000", "093107.475000", "093107.935000", "093108.395000", "093108.855000", "093109.315000", "093109.775000", "093110.235000", "093110.695000", "093111.155000", "093111.615000", "093112.075000", "093112.535000", "093112.995000", "093113.455000", "093113.915000", "093114.375000", "093114.835000", "093115.295000", "093115.755000", "093116.215000", "093116.675000", "093117.135000", "093117.595000", "093118.055000", "093118.515000", "093118.975000", "093119.435000", "093119.895000", "093120.355000", "093120.815000", "093121.275000", "093121.735000", "093122.195000", "093122.655000", "093123.115000", "093123.575000", "093124.035000", "093124.495000", "093124.955000", "093125.415000", "093125.875000", "093126.335000", "093126.795000", "093127.255000", "093127.715000", "093128.175000", "093128.635000", "093129.095000", "093129.555000", "093130.015000", "093130.475000", "093130.935000", "093131.395000", "093131.855000", "093132.315000", "093132.775000", "093133.235000", "093133.695000", "093134.155000", "093134.615000", "093135.075000", "093135.535000", "093135.995000", "093136.455000", "093136.915000", "093137.375000", "093137.835000", "093138.295000", "093138.755000", "093139.215000", "093139.675000", "093140.135000", "093140.595000", "093141.055000", "093141.515000", "093141.975000", "093142.435000", "093142.895000", "093143.355000", "093143.815000", "093144.275000", "093144.735000", "093145.195000", "093145.655000", "093146.115000", "093146.575000", "093147.035000", "093147.495000", "093147.955000", "093148.415000", "093148.875000", "093149.335000", "093149.795000", "093150.255000", "093150.715000", "093151.175000", "093151.635000", "093152.095000", "093152.555000", "093153.015000", "093153.475000", "093153.935000", "093154.395000", "093154.855000", "093155.315000", "093155.775000", "093156.235000", "093156.695000", "093157.155000", "093157.615000", "093158.075000", "093158.535000", "093158.995000", "093159.455000", "093159.915000", "093200.375000", "093200.835000", "093201.295000", "093201.755000", "093202.215000", "093202.675000", "093203.135000", "093203.595000", "093204.055000", "093204.515000", "093204.975000", "093205.435000", "093205.895000", "093206.355000", "093206.815000", "093207.275000", "093207.735000", "093208.195000", "093208.655000", "093209.115000", "093209.575000", "093210.035000", "093210.495000", "093210.955000", "093211.415000", "093211.875000", "093212.335000", "093212.795000", "093213.255000", "093213.715000", "093214.175000", "093214.635000", "093215.095000", "093215.555000", "093216.015000", "093216.475000", "093216.935000", "093217.395000", "093217.855000", "093218.315000", "093218.775000", "093219.235000", "093219.695000", "093220.155000", "093220.615000", "093221.075000", "093221.535000", "093221.995000", "093222.455000", "093222.915000", "093223.375000", "093223.835000", "093224.295000", "093224.755000", "093225.215000", "093225.675000", "093226.135000", "093226.595000", "093227.055000", "093227.515000", "093227.975000", "093228.435000", "093228.895000", "093229.355000", "093229.815000", "093230.275000", "093230.735000", "093231.195000", "093231.655000", "093232.115000", "093232.575000", "093233.035000", "093233.495000", "093233.955000", "093234.415000", "093234.875000", "093235.335000", "093235.795000", "093236.255000", "093236.715000", "093237.175000", "093237.635000", "093238.095000", "093238.555000", "093239.015000", "093239.475000", "093239.935000", "093240.395000", "093240.855000", "093241.315000", "093241.775000", "093242.235000", "093242.695000", "093243.155000", "093243.615000", "093244.075000", "093244.535000", "093244.995000", "093245.455000", "093245.915000", "093246.375000", "093246.835000", "093247.295000", "093247.755000", "093248.215000", "093248.675000", "093249.135000", "093249.595000", "093250.055000", "093250.515000", "093250.975000", "093251.435000", "093251.895000", "093252.355000", "093252.815000", "093253.275000", "093253.735000", "093254.195000", "093254.655000", "093255.115000", "093255.575000", "093256.035000", "093256.495000", "093256.955000", "093257.415000", "093257.875000", "093258.335000", "093258.795000", "093259.255000", "093259.715000", "093300.175000", "093300.635000", "093301.095000", "093301.555000", "093302.015000", "093302.475000", "093302.935000", "093303.395000", "093303.855000", "093304.315000", "093304.775000", "093305.235000", "093305.695000", "093306.155000", "093306.615000", "093307.075000", "093307.535000", "093307.995000", "093308.455000", "093308.915000", "093309.375000", "093309.835000", "093310.295000", "093310.755000", "093311.215000", "093311.675000", "093312.135000", "093312.595000", "093313.055000", "093313.515000", "093313.975000", "093314.435000", "093314.895000", "093315.355000", "093315.815000", "093316.275000", "093316.735000", "093317.195000", "093317.655000", "093318.115000", "093318.575000", "093319.035000", "093319.495000", "093319.955000", "093320.415000", "093320.875000", "093321.335000", "093321.795000", "093322.255000", "093322.715000", "093323.175000"],
