{
  "AcquisitionMatrixPE": 82,
  "AcquisitionNumber": 1,
  "AcquisitionTime": "09:33:45.112500",
  "BandwidthPerPixelPhaseEncode": 24.888,
  "BaseResolution": 82,
  "BodyPartExamined": "BRAIN",
  "ConsistencyInfo": "N4_VE11E_LATEST_20181129",
  "ConversionSoftware": "dcm2niix",
  "ConversionSoftwareVersion": "v1.0.20201102",
  "DerivedVendorReportedEchoSpacing": 0.00049,
  "DeviceSerialNumber": "66112",
  "DwellTime": 2e-06,
  "EchoTime": 0.0272,
  "EchoTrainLength": 82,
  "EffectiveEchoSpacing": 0.00049,
  "FlipAngle": 44,
  "ImageComments": "Unaliased MB8/PE3",
  "ImageOrientationPatientDICOM": [0.998857, 0.0099587, 0.0467509, -0.000522931, 0.980274, -0.197642],
  "ImageType": [
    "ORIGINAL",
    "PRIMARY",
    "M",
    "MB",
    "ND",
    "NORM",
    "MOSAIC"
],
  "ImagingFrequency": 123.259,
  "InPlanePhaseEncodingDirectionDICOM": "COL",
  "InstitutionAddress": "Maynard 3,Hanover,NH,US,03755",
  "InstitutionName": "Dartmouth College - PBS",
  "InstitutionalDepartmentName": "Department",
  "MRAcquisitionType": "2D",
  "MagneticFieldStrength": 3,
  "Manufacturer": "Siemens",
  "ManufacturersModelName": "Prisma",
  "Modality": "MR",
  "MultibandAccelerationFactor": 8,
  "PartialFourier": 1,
  "PatientPosition": "HFS",
  "PercentPhaseFOV": 100,
  "PercentSampling": 100,
  "PhaseEncodingDirection": "j-",
  "PhaseEncodingSteps": 82,
  "PhaseResolution": 1,
  "PixelBandwidth": 3050,
  "ProcedureStepDescription": "Wager_Wager^1076_spacetop",
  "ProtocolName": "func_run-05_task-social_acq-ap-mb8",
  "PulseSequenceDetails": "%CustomerSeq%\\cmrr_mbep2d_bold",
  "ReceiveCoilActiveElements": "HEA;HEP",
  "ReceiveCoilName": "Head_32",
  "ReconMatrixPE": 82,
  "RepetitionTime": 0.46,
  "SAR": 0.116302,
  "ScanOptions": "FS",
  "ScanningSequence": "EP",
  "SequenceName": "epfid2d1_82",
  "SequenceVariant": "SK\\SS",
  "SeriesDescription": "func_run-05_task-social_acq-ap-mb8",
  "SeriesNumber": 16,
  "ShimSetting": [4225, -7755, -7222, 72, -151, -77, 69, 59],
  "SliceThickness": 2.7,
  "SliceTiming": [0, 0.25, 0.0625, 0.3125, 0.125, 0.3775, 0.1875, 0, 0.25, 0.0625, 0.3125, 0.125, 0.3775, 0.1875, 0, 0.25, 0.0625, 0.3125, 0.125, 0.3775, 0.1875, 0, 0.25, 0.0625, 0.3125, 0.125, 0.3775, 0.1875, 0, 0.25, 0.0625, 0.3125, 0.125, 0.3775, 0.1875, 0, 0.25, 0.0625, 0.3125, 0.125, 0.3775, 0.1875, 0, 0.25, 0.0625, 0.3125, 0.125, 0.3775, 0.1875, 0, 0.25, 0.0625, 0.3125, 0.125, 0.3775, 0.1875],
  "SoftwareVersions": "syngo MR E11",
  "SpacingBetweenSlices": 2.7,
  "StationName": "AWP66112",
  "TaskName": "social",
  "TotalReadoutTime": 0.03969,
  "TxRefAmp": 305.621,
  "WipMemBlock": "7864d31d-fd4d-48f4-a03f-f0d898436e65||Sequence: R016 ve11e/master r/434b28f1; Aug  7 2019 18:53:46 by eja",
  "dcmmeta_affine": [
    [-2.6798601150512695, -0.0014029855374246836, 0.1290517896413803, 109.62295532226562],
    [-0.026718467473983765, 2.6300039291381836, -0.5329564809799194, -74.9377212524414],
    [0.12542924284934998, 0.530258059501648, 2.6437289714813232, -102.9595718383789],
    [0.0, 0.0, 0.0, 1.0]
],
  "dcmmeta_reorient_transform": [
    [0.0, -1.0, 0.0, 81.0],
    [1.0, 0.0, 0.0, 0.0],
    [0.0, 0.0, 1.0, 0.0],
    [0.0, 0.0, 0.0, 1.0]
],
  "dcmmeta_shape": [82, 82, 56, 872],
  "dcmmeta_slice_dim": 2,
  "dcmmeta_version": 0.6,
  "global": {
    "const": {
      "AccessionNumber": "A004338",
      "AcquisitionMatrix": [82, 0, 0, 82],
      "AngioFlag": "N",
      "BitsAllocated": 16,
      "BitsStored": 16,
      "BodyPartExamined": "BRAIN",
      "Columns": 656,
      "EchoNumbers": 1,
      "EchoTime": 27.2,
      "EchoTrainLength": 82,
      "FlipAngle": 44.0,
      "HighBit": 15,
      "ImageOrientationPatient": [0.99885693548106, 0.00995870143998, 0.04675090060108, -0.0005229309436, 0.9802741998175, -0.1976416446891],
      "ImagePositionPatient": [-878.22651511854, -900.5719546259, 56.177206657081],
      "ImageType": [
        "ORIGINAL",
        "PRIMARY",
        "M",
        "MB",
        "ND",
        "NORM",
        "MOSAIC"
],
      "ImagedNucleus": "1H",
      "ImagingFrequency": 123.259078,
      "InPlanePhaseEncodingDirection": "COL",
      "MRAcquisitionType": "2D",
      "MagneticFieldStrength": 3.0,
      "Manufacturer": "SIEMENS",
      "ManufacturerModelName": "Prisma",
      "Modality": "MR",
      "NumberOfAverages": 1.0,
      "NumberOfPhaseEncodingSteps": 82,
      "PercentPhaseFieldOfView": 100.0,
      "PercentSampling": 100.0,
      "PerformedProcedureStepStartTime": "083944.957000",
      "PhotometricInterpretation": "MONOCHROME2",
      "PixelBandwidth": 3050.0,
      "PixelRepresentation": 0,
      "PixelSpacing": [2.6829268932343, 2.6829268932343],
      "ProtocolName": "func_run-05_task-social_acq-ap-mb8",
      "RepetitionTime": 460.0,
      "Rows": 656,
      "SAR": 0.11630244295507,
      "SamplesPerPixel": 1,
      "ScanOptions": "FS",
      "ScanningSequence": "EP",
      "SequenceName": "epfid2d1_82",
      "SequenceVariant": [
        "SK",
        "SS"
],
      "SeriesDescription": "func_run-05_task-social_acq-ap-mb8",
      "SeriesNumber": 16,
      "SeriesTime": "093357.722000",
      "SliceLocation": -80.782085600027,
      "SliceThickness": 2.7000000476837,
      "SmallestImagePixelValue": 0,
      "SoftwareVersions": "syngo MR E11",
      "SpacingBetweenSlices": 2.7000000461369,
      "SpecificCharacterSet": "ISO_IR 100",
      "StudyID": "3",
      "StudyTime": "083944.764000",
      "TransmitCoilName": "Body",
      "VariableFlipAngleFlag": "N",
      "WindowCenterWidthExplanation": "Algo1"
    },
    "slices": {}
  },
  "time": {
    "samples": {
      "AcquisitionNumber": [1, 2, 3, 4, 5, 6, 7, 8, 9, 10, 11, 12, 13, 14, 15, 16, 17, 18, 19, 20, 21, 22, 23, 24, 25, 26, 27, 28, 29, 30, 31, 32, 33, 34, 35, 36, 37, 38, 39, 40, 41, 42, 43, 44, 45, 46, 47, 48, 49, 50, 51, 52, 53, 54, 55, 56, 57, 58, 59, 60, 61, 62, 63, 64, 65, 66, 67, 68, 69, 70, 71, 72, 73, 74, 75, 76, 77, 78, 79, 80, 81, 82, 83, 84, 85, 86, 87, 88, 89, 90, 91, 92, 93, 94, 95, 96, 97, 98, 99, 100, 101, 102, 103, 104, 105, 106, 107, 108, 109, 110, 111, 112, 113, 114, 115, 116, 117, 118, 119, 120, 121, 122, 123, 124, 125, 126, 127, 128, 129, 130, 131, 132, 133, 134, 135, 136, 137, 138, 139, 140, 141, 142, 143, 144, 145, 146, 147, 148, 149, 150, 151, 152, 153, 154, 155, 156, 157, 158, 159, 160, 161, 162, 163, 164, 165, 166, 167, 168, 169, 170, 171, 172, 173, 174, 175, 176, 177, 178, 179, 180, 181, 182, 183, 184, 185, 186, 187, 188, 189, 190, 191, 192, 193, 194, 195, 196, 197, 198, 199, 200, 201, 202, 203, 204, 205, 206, 207, 208, 209, 210, 211, 212, 213, 214, 215, 216, 217, 218, 219, 220, 221, 222, 223, 224, 225, 226, 227, 228, 229, 230, 231, 232, 233, 234, 235, 236, 237, 238, 239, 240, 241, 242, 243, 244, 245, 246, 247, 248, 249, 250, 251, 252, 253, 254, 255, 256, 257, 258, 259, 260, 261, 262, 263, 264, 265, 266, 267, 268, 269, 270, 271, 272, 273, 274, 275, 276, 277, 278, 279, 280, 281, 282, 283, 284, 285, 286, 287, 288, 289, 290, 291, 292, 293, 294, 295, 296, 297, 298, 299, 300, 301, 302, 303, 304, 305, 306, 307, 308, 309, 310, 311, 312, 313, 314, 315, 316, 317, 318, 319, 320, 321, 322, 323, 324, 325, 326, 327, 328, 329, 330, 331, 332, 333, 334, 335, 336, 337, 338, 339, 340, 341, 342, 343, 344, 345, 346, 347, 348, 349, 350, 351, 352, 353, 354, 355, 356, 357, 358, 359, 360, 361, 362, 363, 364, 365, 366, 367, 368, 369, 370, 371, 372, 373, 374, 375, 376, 377, 378, 379, 380, 381, 382, 383, 384, 385, 386, 387, 388, 389, 390, 391, 392, 393, 394, 395, 396, 397, 398, 399, 400, 401, 402, 403, 404, 405, 406, 407, 408, 409, 410, 411, 412, 413, 414, 415, 416, 417, 418, 419, 420, 421, 422, 423, 424, 425, 426, 427, 428, 429, 430, 431, 432, 433, 434, 435, 436, 437, 438, 439, 440, 441, 442, 443, 444, 445, 446, 447, 448, 449, 450, 451, 452, 453, 454, 455, 456, 457, 458, 459, 460, 461, 462, 463, 464, 465, 466, 467, 468, 469, 470, 471, 472, 473, 474, 475, 476, 477, 478, 479, 480, 481, 482, 483, 484, 485, 486, 487, 488, 489, 490, 491, 492, 493, 494, 495, 496, 497, 498, 499, 500, 501, 502, 503, 504, 505, 506, 507, 508, 509, 510, 511, 512, 513, 514, 515, 516, 517, 518, 519, 520, 521, 522, 523, 524, 525, 526, 527, 528, 529, 530, 531, 532, 533, 534, 535, 536, 537, 538, 539, 540, 541, 542, 543, 544, 545, 546, 547, 548, 549, 550, 551, 552, 553, 554, 555, 556, 557, 558, 559, 560, 561, 562, 563, 564, 565, 566, 567, 568, 569, 570, 571, 572, 573, 574, 575, 576, 577, 578, 579, 580, 581, 582, 583, 584, 585, 586, 587, 588, 589, 590, 591, 592, 593, 594, 595, 596, 597, 598, 599, 600, 601, 602, 603, 604, 605, 606, 607, 608, 609, 610, 611, 612, 613, 614, 615, 616, 617, 618, 619, 620, 621, 622, 623, 624, 625, 626, 627, 628, 629, 630, 631, 632, 633, 634, 635, 636, 637, 638, 639, 640, 641, 642, 643, 644, 645, 646, 647, 648, 649, 650, 651, 652, 653, 654, 655, 656, 657, 658, 659, 660, 661, 662, 663, 664, 665, 666, 667, 668, 669, 670, 671, 672, 673, 674, 675, 676, 677, 678, 679, 680, 681, 682, 683, 684, 685, 686, 687, 688, 689, 690, 691, 692, 693, 694, 695, 696, 697, 698, 699, 700, 701, 702, 703, 704, 705, 706, 707, 708, 709, 710, 711, 712, 713, 714, 715, 716, 717, 718, 719, 720, 721, 722, 723, 724, 725, 726, 727, 728, 729, 730, 731, 732, 733, 734, 735, 736, 737, 738, 739, 740, 741, 742, 743, 744, 745, 746, 747, 748, 749, 750, 751, 752, 753, 754, 755, 756, 757, 758, 759, 760, 761, 762, 763, 764, 765, 766, 767, 768, 769, 770, 771, 772, 773, 774, 775, 776, 777, 778, 779, 780, 781, 782, 783, 784, 785, 786, 787, 788, 789, 790, 791, 792, 793, 794, 795, 796, 797, 798, 799, 800, 801, 802, 803, 804, 805, 806, 807, 808, 809, 810, 811, 812, 813, 814, 815, 816, 817, 818, 819, 820, 821, 822, 823, 824, 825, 826, 827, 828, 829, 830, 831, 832, 833, 834, 835, 836, 837, 838, 839, 840, 841, 842, 843, 844, 845, 846, 847, 848, 849, 850, 851, 852, 853, 854, 855, 856, 857, 858, 859, 860, 861, 862, 863, 864, 865, 866, 867, 868, 869, 870, 871, 872],
      "AcquisitionTime": ["093345.112500", "093345.572500", "093346.032500", "093346.492500", "093346.952500", "093347.412500", "093347.872500", "093348.332500", "093348.792500", "093349.252500", "093349.712500", "093350.172500", "093350.632500", "093351.092500", "093351.552500", "093352.012500", "093352.472500", "093352.932500", "093353.392500", "093353.852500", "093354.312500", "093354.772500", "093355.232500", "093355.692500", "093356.152500", "093356.612500", "093357.072500", "093357.532500", "093357.992500", "093358.452500", "093358.912500", "093359.372500", "093359.832500", "093400.292500", "093400.752500", "093401.212500", "093401.672500", "093402.132500", "093402.592500", "093403.052500", "093403.512500", "093403.972500", "093404.432500", "093404.892500", "093405.352500", "093405.812500", "093406.272500", "093406.732500", "093407.192500", "093407.652500", "093408.112500", "093408.572500", "093409.032500", "093409.492500", "093409.952500", "093410.412500", "093410.872500", "093411.332500", "093411.792500", "093412.252500", "093412.712500", "093413.172500", "093413.632500", "093414.092500", "093414.552500", "093415.012500", "093415.472500", "093415.932500", "093416.392500", "093416.852500", "093417.312500", "093417.772500", "093418.232500", "093418.692500", "093419.152500", "093419.612500", "093420.072500", "093420.532500", "093420.992500", "093421.452500", "093421.912500", "093422.372500", "093422.832500", "093423.292500", "093423.752500", "093424.212500", "093424.672500", "093425.132500", "093425.592500", "093426.052500", "093426.512500", "093426.972500", "093427.432500", "093427.892500", "093428.352500", "093428.812500", "093429.272500", "093429.732500", "093430.192500", "093430.652500", "093431.112500", "093431.572500", "093432.032500", "093432.492500", "093432.952500", "093433.412500", "093433.872500", "093434.332500", "093434.792500", "093435.252500", "093435.712500", "093436.172500", "093436.632500", "093437.092500", "093437.552500", "093438.012500", "093438.472500", "093438.932500", "093439.392500", "093439.852500", "093440.312500", "093440.772500", "093441.232500", "093441.692500", "093442.152500", "093442.612500", "093443.072500", "093443.532500", "093443.992500", "093444.452500", "093444.912500", "093445.372500", "093445.832500", "093446.292500", "093446.752500", "093447.212500", "093447.672500", "093448.132500", "093448.592500", "093449.052500", "093449.512500", "093449.972500", "093450.432500", "093450.892500", "093451.352500", "093451.812500", "093452.272500", "093452.732500", "093453.192500", "093453.652500", "093454.112500", "093454.572500", "093455.032500", "093455.492500", "093455.952500", "093456.412500", "093456.872500", "093457.332500", "093457.792500", "093458.252500", "093458.712500", "093459.172500", "093459.632500", "093500.092500", "093500.552500", "093501.012500", "093501.472500", "093501.932500", "093502.392500", "093502.852500", "093503.312500", "093503.772500", "093504.232500", "093504.692500", "093505.152500", "093505.612500", "093506.072500", "093506.532500", "093506.992500", "093507.452500", "093507.912500", "093508.372500", "093508.832500", "093509.292500", "093509.752500", "093510.212500", "093510.672500", "093511.132500", "093511.592500", "093512.052500", "093512.512500", "093512.972500", "093513.432500", "093513.892500", "093514.352500", "093514.812500", "093515.272500", "093515.732500", "093516.192500", "093516.652500", "093517.112500", "093517.572500", "093518.032500", "093518.492500", "093518.952500", "093519.412500", "093519.872500", "093520.332500", "093520.792500", "093521.252500", "093521.712500", "093522.172500", "093522.632500", "093523.092500", "093523.552500", "093524.012500", "093524.472500", "093524.932500", "093525.392500", "093525.852500", "093526.312500", "093526.772500", "093527.232500", "093527.692500", "093528.152500", "093528.612500", "093529.072500", "093529.532500", "093529.992500", "093530.452500", "093530.912500", "093531.372500", "093531.832500", "093532.292500", "093532.752500", "093533.212500", "093533.672500", "093534.132500", "093534.592500", "093535.052500", "093535.512500", "093535.972500", "093536.432500", "093536.892500", "093537.352500", "093537.812500", "093538.272500", "093538.732500", "093539.192500", "093539.652500", "093540.112500", "093540.572500", "093541.032500", "093541.492500", "093541.952500", "093542.412500", "093542.872500", "093543.332500", "093543.792500", "093544.252500", "093544.712500", "093545.172500", "093545.632500", "093546.092500", "093546.552500", "093547.012500", "093547.472500", "093547.932500", "093548.392500", "093548.852500", "093549.312500", "093549.772500", "093550.232500", "093550.692500", "093551.152500", "093551.612500", "093552.072500", "093552.532500", "093552.992500", "093553.452500", "093553.912500", "093554.372500", "093554.832500", "093555.292500", "093555.752500", "093556.212500", "093556.672500", "093557.132500", "093557.592500", "093558.052500", "093558.512500", "093558.972500", "093559.432500", "093559.892500", "093600.352500", "093600.812500", "093601.272500", "093601.732500", "093602.192500", "093602.652500", "093603.112500", "093603.572500", "093604.032500", "093604.492500", "093604.952500", "093605.412500", "093605.872500", "093606.332500", "093606.792500", "093607.252500", "093607.712500", "093608.172500", "093608.632500", "093609.092500", "093609.552500", "093610.012500", "093610.472500", "093610.932500", "093611.392500", "093611.852500", "093612.312500", "093612.772500", "093613.232500", "093613.692500", "093614.152500", "093614.612500", "093615.072500", "093615.532500", "093615.992500", "093616.452500", "093616.912500", "093617.372500", "093617.832500", "093618.292500", "093618.752500", "093619.212500", "093619.672500", "093620.132500", "093620.592500", "093621.052500", "093621.512500", "093621.972500", "093622.432500", "093622.892500", "093623.352500", "093623.812500", "093624.272500", "093624.732500", "093625.192500", "093625.652500", "093626.112500", "093626.572500", "093627.032500", "093627.492500", "093627.952500", "093628.412500", "093628.872500", "093629.332500", "093629.792500", "093630.252500", "093630.712500", "093631.172500", "093631.632500", "093632.092500", "093632.552500", "093633.012500", "093633.472500", "093633.932500", "093634.392500", "093634.852500", "093635.312500", "093635.772500", "093636.232500", "093636.692500", "093637.152500", "093637.612500", "093638.072500", "093638.532500", "093638.992500", "093639.452500", "093639.912500", "093640.372500", "093640.832500", "093641.292500", "093641.752500", "093642.212500", "093642.672500", "093643.132500", "093643.592500", "093644.052500", "093644.512500", "093644.972500", "093645.432500", "093645.892500", "093646.352500", "093646.812500", "093647.272500", "093647.732500", "093648.192500", "093648.652500", "093649.112500", "093649.572500", "093650.032500", "093650.492500", "093650.952500", "093651.412500", "093651.872500", "093652.332500", "093652.792500", "093653.252500", "093653.712500", "093654.172500", "093654.632500", "093655.092500", "093655.552500", "093656.012500", "093656.472500", "093656.932500", "093657.392500", "093657.852500", "093658.312500", "093658.772500", "093659.232500", "093659.692500", "093700.152500", "093700.612500", "093701.072500", "093701.532500", "093701.992500", "093702.452500", "093702.912500", "093703.372500", "093703.832500", "093704.292500", "093704.752500", "093705.212500", "093705.672500", "093706.132500", "093706.592500", "093707.052500", "093707.512500", "093707.972500", "093708.432500", "093708.892500", "093709.352500", "093709.812500", "093710.272500", "093710.732500", "093711.192500", "093711.652500", "093712.112500", "093712.572500", "093713.032500", "093713.492500", "093713.952500", "093714.412500", "093714.872500", "093715.332500", "093715.792500", "093716.252500", "093716.712500", "093717.172500", "093717.632500", "093718.092500", "093718.552500", "093719.012500", "093719.472500", "093719.932500", "093720.392500", "093720.852500", "093721.312500", "093721.772500", "093722.232500", "093722.692500", "093723.152500", "093723.612500", "093724.072500", "093724.532500", "093724.992500", "093725.452500", "093725.912500", "093726.372500", "093726.832500", "093727.292500", "093727.752500", "093728.212500", "093728.672500", "093729.132500", "093729.592500", "093730.052500", "093730.512500", "093730.972500", "093731.432500", "093731.892500", "093732.352500", "093732.812500", "093733.272500", "093733.732500", "093734.192500", "093734.652500", "093735.112500", "093735.572500", "093736.032500", "093736.492500", "093736.952500", "093737.412500", "093737.872500", "093738.332500", "093738.792500", "093739.252500", "093739.712500", "093740.172500", "093740.632500", "093741.092500", "093741.552500", "093742.012500", "093742.472500", "093742.932500", "093743.392500", "093743.852500", "093744.312500", "093744.772500", "093745.232500", "093745.692500", "093746.152500", "093746.612500", "093747.072500", "093747.532500", "093747.992500", "093748.452500", "093748.912500", "093749.372500", "093749.832500", "093750.292500", "093750.752500", "093751.212500", "093751.672500", "093752.132500", "093752.592500", "093753.052500", "093753.512500", "093753.972500", "093754.432500", "093754.892500", "093755.352500", "093755.812500", "093756.272500", "093756.732500", "093757.192500", "093757.652500", "093758.112500", "093758.572500", "093759.032500", "093759.492500", "093759.952500", "093800.412500", "093800.872500", "093801.332500", "093801.792500", "093802.252500", "093802.712500", "093803.172500", "093803.632500", "093804.092500", "093804.552500", "093805.012500", "093805.472500", "093805.932500", "093806.392500", "093806.852500", "093807.312500", "093807.772500", "093808.232500", "093808.692500", "093809.152500", "093809.612500", "093810.072500", "093810.532500", "093810.992500", "093811.452500", "093811.912500", "093812.372500", "093812.832500", "093813.292500", "093813.752500", "093814.212500", "093814.672500", "093815.132500", "093815.592500", "093816.052500", "093816.512500", "093816.972500", "093817.432500", "093817.892500", "093818.352500", "093818.812500", "093819.272500", "093819.732500", "093820.192500", "093820.652500", "093821.112500", "093821.572500", "093822.032500", "093822.492500", "093822.952500", "093823.412500", "093823.872500", "093824.332500", "093824.792500", "093825.252500", "093825.712500", "093826.172500", "093826.632500", "093827.092500", "093827.552500", "093828.012500", "093828.472500", "093828.932500", "093829.392500", "093829.852500", "093830.312500", "093830.772500", "093831.232500", "093831.692500", "093832.152500", "093832.612500", "093833.072500", "093833.532500", "093833.992500", "093834.452500", "093834.912500", "093835.372500", "093835.832500", "093836.292500", "093836.752500", "093837.212500", "093837.672500", "093838.132500", "093838.592500", "093839.052500", "093839.512500", "093839.972500", "093840.432500", "093840.892500", "093841.352500", "093841.812500", "093842.272500", "093842.732500", "093843.192500", "093843.652500", "093844.112500", "093844.572500", "093845.032500", "093845.492500", "093845.952500", "093846.412500", "093846.872500", "093847.332500", "093847.792500", "093848.252500", "093848.712500", "093849.172500", "093849.632500", "093850.092500", "093850.552500", "093851.012500", "093851.472500", "093851.932500", "093852.392500", "093852.852500", "093853.312500", "093853.772500", "093854.232500", "093854.692500", "093855.152500", "093855.612500", "093856.072500", "093856.532500", "093856.992500", "093857.452500", "093857.912500", "093858.372500", "093858.832500", "093859.292500", "093859.752500", "093900.212500", "093900.672500", "093901.132500", "093901.592500", "093902.052500", "093902.512500", "093902.972500", "093903.432500", "093903.892500", "093904.352500", "093904.812500", "093905.272500", "093905.732500", "093906.192500", "093906.652500", "093907.112500", "093907.572500", "093908.032500", "093908.492500", "093908.952500", "093909.412500", "093909.872500", "093910.332500", "093910.792500", "093911.252500", "093911.712500", "093912.172500", "093912.632500", "093913.092500", "093913.552500", "093914.012500", "093914.472500", "093914.932500", "093915.392500", "093915.852500", "093916.312500", "093916.772500", "093917.232500", "093917.692500", "093918.152500", "093918.612500", "093919.072500", "093919.532500", "093919.992500", "093920.452500", "093920.912500", "093921.372500", "093921.832500", "093922.292500", "093922.752500", "093923.212500", "093923.672500", "093924.132500", "093924.592500", "093925.052500", "093925.512500", "093925.972500", "093926.432500", "093926.892500", "093927.352500", "093927.812500", "093928.272500", "093928.732500", "093929.192500", "093929.652500", "093930.112500", "093930.572500", "093931.032500", "093931.492500", "093931.952500", "093932.412500", "093932.872500", "093933.332500", "093933.792500", "093934.252500", "093934.712500", "093935.172500", "093935.632500", "093936.092500", "093936.552500", "093937.012500", "093937.472500", "093937.932500", "093938.392500", "093938.852500", "093939.312500", "093939.772500", "093940.232500", "093940.692500", "093941.152500", "093941.612500", "093942.072500", "093942.532500", "093942.992500", "093943.452500", "093943.912500", "093944.372500", "093944.832500", "093945.292500", "093945.752500", "093946.212500", "093946.672500", "093947.132500", "093947.592500", "093948.052500", "093948.512500", "093948.972500", "093949.432500", "093949.892500", "093950.352500", "093950.812500", "093951.272500", "093951.732500", "093952.192500", "093952.652500", "093953.112500", "093953.572500", "093954.032500", "093954.492500", "093954.952500", "093955.412500", "093955.872500", "093956.332500", "093956.792500", "093957.252500", "093957.712500", "093958.172500", "093958.632500", "093959.092500", "093959.552500", "094000.012500", "094000.472500", "094000.932500", "094001.392500", "094001.852500", "094002.312500", "094002.772500", "094003.232500", "094003.692500", "094004.152500", "094004.612500", "094005.072500", "094005.532500", "094005.992500", "094006.452500", "094006.912500", "094007.372500", "094007.832500", "094008.292500", "094008.752500", "094009.212500", "094009.672500", "094010.132500", "094010.592500", "094011.052500", "094011.512500", "094011.972500", "094012.432500", "094012.892500", "094013.352500", "094013.812500", "094014.272500", "094014.732500", "094015.192500", "094015.652500", "094016.112500", "094016.572500", "094017.032500", "094017.492500", "094017.952500", "094018.412500", "094018.872500", "094019.332500", "094019.792500", "094020.252500", "094020.712500", "094021.172500", "094021.632500", "094022.092500", "094022.552500", "094023.012500", "094023.472500", "094023.932500", "094024.392500", "094024.852500", "094025.312500", "094025.772500"],
