{
  "AcquisitionMatrixPE": 82,
  "AcquisitionNumber": 1,
  "AcquisitionTime": "09:12:22.342500",
  "BandwidthPerPixelPhaseEncode": 24.888,
  "BaseResolution": 82,
  "BodyPartExamined": "BRAIN",
  "ConsistencyInfo": "N4_VE11E_LATEST_20181129",
  "ConversionSoftware": "dcm2niix",
  "ConversionSoftwareVersion": "v1.0.20201102",
  "DerivedVendorReportedEchoSpacing": 0.00049,
  "DeviceSerialNumber": "66112",
  "DwellTime": 2e-06,
  "EchoTime": 0.0272,
  "EchoTrainLength": 82,
  "EffectiveEchoSpacing": 0.00049,
  "FlipAngle": 44,
  "ImageComments": "Unaliased MB8/PE3",
  "ImageOrientationPatientDICOM": [0.998857, 0.0099587, 0.0467509, -0.000522931, 0.980274, -0.197642],
  "ImageType": [
    "ORIGINAL",
    "PRIMARY",
    "M",
    "MB",
    "ND",
    "NORM",
    "MOSAIC"
],
  "ImagingFrequency": 123.259,
  "InPlanePhaseEncodingDirectionDICOM": "COL",
  "InstitutionAddress": "Maynard 3,Hanover,NH,US,03755",
  "InstitutionName": "Dartmouth College - PBS",
  "InstitutionalDepartmentName": "Department",
  "MRAcquisitionType": "2D",
  "MagneticFieldStrength": 3,
  "Manufacturer": "Siemens",
  "ManufacturersModelName": "Prisma",
  "Modality": "MR",
  "MultibandAccelerationFactor": 8,
  "PartialFourier": 1,
  "PatientPosition": "HFS",
  "PercentPhaseFOV": 100,
  "PercentSampling": 100,
  "PhaseEncodingDirection": "j-",
  "PhaseEncodingSteps": 82,
  "PhaseResolution": 1,
  "PixelBandwidth": 3050,
  "ProcedureStepDescription": "Wager_Wager^1076_spacetop",
  "ProtocolName": "func_run-02_task-social_acq-ap-mb8",
  "PulseSequenceDetails": "%CustomerSeq%\\cmrr_mbep2d_bold",
  "ReceiveCoilActiveElements": "HEA;HEP",
  "ReceiveCoilName": "Head_32",
  "ReconMatrixPE": 82,
  "RepetitionTime": 0.46,
  "SAR": 0.116302,
  "ScanOptions": "FS",
  "ScanningSequence": "EP",
  "SequenceName": "epfid2d1_82",
  "SequenceVariant": "SK\\SS",
  "SeriesDescription": "func_run-02_task-social_acq-ap-mb8",
  "SeriesNumber": 10,
  "ShimSetting": [4225, -7755, -7222, 72, -151, -77, 69, 59],
  "SliceThickness": 2.7,
  "SliceTiming": [0, 0.25, 0.0625, 0.3125, 0.125, 0.375, 0.1875, 0, 0.25, 0.0625, 0.3125, 0.125, 0.375, 0.1875, 0, 0.25, 0.0625, 0.3125, 0.125, 0.375, 0.1875, 0, 0.25, 0.0625, 0.3125, 0.125, 0.375, 0.1875, 0, 0.25, 0.0625, 0.3125, 0.125, 0.375, 0.1875, 0, 0.25, 0.0625, 0.3125, 0.125, 0.375, 0.1875, 0, 0.25, 0.0625, 0.3125, 0.125, 0.375, 0.1875, 0, 0.25, 0.0625, 0.3125, 0.125, 0.375, 0.1875],
  "SoftwareVersions": "syngo MR E11",
  "SpacingBetweenSlices": 2.7,
  "StationName": "AWP66112",
  "TaskName": "social",
  "TotalReadoutTime": 0.03969,
  "TxRefAmp": 305.621,
  "WipMemBlock": "5c00926c-891b-42bf-9ee0-0b8bb06f96d0||Sequence: R016 ve11e/master r/434b28f1; Aug  7 2019 18:53:46 by eja",
  "dcmmeta_affine": [
    [-2.6798601150512695, -0.0014029855374246836, 0.1290517896413803, 109.62295532226562],
    [-0.026718467473983765, 2.6300039291381836, -0.5329564809799194, -74.9377212524414],
    [0.12542924284934998, 0.530258059501648, 2.6437289714813232, -102.9595718383789],
    [0.0, 0.0, 0.0, 1.0]
],
  "dcmmeta_reorient_transform": [
    [0.0, -1.0, 0.0, 81.0],
    [1.0, 0.0, 0.0, 0.0],
    [0.0, 0.0, 1.0, 0.0],
    [0.0, 0.0, 0.0, 1.0]
],
  "dcmmeta_shape": [82, 82, 56, 872],
  "dcmmeta_slice_dim": 2,
  "dcmmeta_version": 0.6,
  "global": {
    "const": {
      "AccessionNumber": "A004338",
      "AcquisitionMatrix": [82, 0, 0, 82],
      "AngioFlag": "N",
      "BitsAllocated": 16,
      "BitsStored": 16,
      "BodyPartExamined": "BRAIN",
      "Columns": 656,
      "EchoNumbers": 1,
      "EchoTime": 27.2,
      "EchoTrainLength": 82,
      "FlipAngle": 44.0,
      "HighBit": 15,
      "ImageOrientationPatient": [0.99885693548106, 0.00995870143998, 0.04675090060108, -0.0005229309436, 0.9802741998175, -0.1976416446891],
      "ImagePositionPatient": [-878.22651511854, -900.5719546259, 56.177206657081],
      "ImageType": [
        "ORIGINAL",
        "PRIMARY",
        "M",
        "MB",
        "ND",
        "NORM",
        "MOSAIC"
],
      "ImagedNucleus": "1H",
      "ImagingFrequency": 123.259067,
      "InPlanePhaseEncodingDirection": "COL",
      "MRAcquisitionType": "2D",
      "MagneticFieldStrength": 3.0,
      "Manufacturer": "SIEMENS",
      "ManufacturerModelName": "Prisma",
      "Modality": "MR",
      "NumberOfAverages": 1.0,
      "NumberOfPhaseEncodingSteps": 82,
      "PercentPhaseFieldOfView": 100.0,
      "PercentSampling": 100.0,
      "PerformedProcedureStepStartTime": "083944.957000",
      "PhotometricInterpretation": "MONOCHROME2",
      "PixelBandwidth": 3050.0,
      "PixelRepresentation": 0,
      "PixelSpacing": [2.6829268932343, 2.6829268932343],
      "ProtocolName": "func_run-02_task-social_acq-ap-mb8",
      "RepetitionTime": 460.0,
      "Rows": 656,
      "SAR": 0.11630244295507,
      "SamplesPerPixel": 1,
      "ScanOptions": "FS",
      "ScanningSequence": "EP",
      "SequenceName": "epfid2d1_82",
      "SequenceVariant": [
        "SK",
        "SS"
],
      "SeriesDescription": "func_run-02_task-social_acq-ap-mb8",
      "SeriesNumber": 10,
      "SeriesTime": "091237.701000",
      "SliceLocation": -80.782085600027,
      "SliceThickness": 2.7000000476837,
      "SmallestImagePixelValue": 0,
      "SoftwareVersions": "syngo MR E11",
      "SpacingBetweenSlices": 2.7000000461369,
      "SpecificCharacterSet": "ISO_IR 100",
      "StudyID": "3",
      "StudyTime": "083944.764000",
      "TransmitCoilName": "Body",
      "VariableFlipAngleFlag": "N",
      "WindowCenterWidthExplanation": "Algo1"
    },
    "slices": {}
  },
  "time": {
    "samples": {
      "AcquisitionNumber": [1, 2, 3, 4, 5, 6, 7, 8, 9, 10, 11, 12, 13, 14, 15, 16, 17, 18, 19, 20, 21, 22, 23, 24, 25, 26, 27, 28, 29, 30, 31, 32, 33, 34, 35, 36, 37, 38, 39, 40, 41, 42, 43, 44, 45, 46, 47, 48, 49, 50, 51, 52, 53, 54, 55, 56, 57, 58, 59, 60, 61, 62, 63, 64, 65, 66, 67, 68, 69, 70, 71, 72, 73, 74, 75, 76, 77, 78, 79, 80, 81, 82, 83, 84, 85, 86, 87, 88, 89, 90, 91, 92, 93, 94, 95, 96, 97, 98, 99, 100, 101, 102, 103, 104, 105, 106, 107, 108, 109, 110, 111, 112, 113, 114, 115, 116, 117, 118, 119, 120, 121, 122, 123, 124, 125, 126, 127, 128, 129, 130, 131, 132, 133, 134, 135, 136, 137, 138, 139, 140, 141, 142, 143, 144, 145, 146, 147, 148, 149, 150, 151, 152, 153, 154, 155, 156, 157, 158, 159, 160, 161, 162, 163, 164, 165, 166, 167, 168, 169, 170, 171, 172, 173, 174, 175, 176, 177, 178, 179, 180, 181, 182, 183, 184, 185, 186, 187, 188, 189, 190, 191, 192, 193, 194, 195, 196, 197, 198, 199, 200, 201, 202, 203, 204, 205, 206, 207, 208, 209, 210, 211, 212, 213, 214, 215, 216, 217, 218, 219, 220, 221, 222, 223, 224, 225, 226, 227, 228, 229, 230, 231, 232, 233, 234, 235, 236, 237, 238, 239, 240, 241, 242, 243, 244, 245, 246, 247, 248, 249, 250, 251, 252, 253, 254, 255, 256, 257, 258, 259, 260, 261, 262, 263, 264, 265, 266, 267, 268, 269, 270, 271, 272, 273, 274, 275, 276, 277, 278, 279, 280, 281, 282, 283, 284, 285, 286, 287, 288, 289, 290, 291, 292, 293, 294, 295, 296, 297, 298, 299, 300, 301, 302, 303, 304, 305, 306, 307, 308, 309, 310, 311, 312, 313, 314, 315, 316, 317, 318, 319, 320, 321, 322, 323, 324, 325, 326, 327, 328, 329, 330, 331, 332, 333, 334, 335, 336, 337, 338, 339, 340, 341, 342, 343, 344, 345, 346, 347, 348, 349, 350, 351, 352, 353, 354, 355, 356, 357, 358, 359, 360, 361, 362, 363, 364, 365, 366, 367, 368, 369, 370, 371, 372, 373, 374, 375, 376, 377, 378, 379, 380, 381, 382, 383, 384, 385, 386, 387, 388, 389, 390, 391, 392, 393, 394, 395, 396, 397, 398, 399, 400, 401, 402, 403, 404, 405, 406, 407, 408, 409, 410, 411, 412, 413, 414, 415, 416, 417, 418, 419, 420, 421, 422, 423, 424, 425, 426, 427, 428, 429, 430, 431, 432, 433, 434, 435, 436, 437, 438, 439, 440, 441, 442, 443, 444, 445, 446, 447, 448, 449, 450, 451, 452, 453, 454, 455, 456, 457, 458, 459, 460, 461, 462, 463, 464, 465, 466, 467, 468, 469, 470, 471, 472, 473, 474, 475, 476, 477, 478, 479, 480, 481, 482, 483, 484, 485, 486, 487, 488, 489, 490, 491, 492, 493, 494, 495, 496, 497, 498, 499, 500, 501, 502, 503, 504, 505, 506, 507, 508, 509, 510, 511, 512, 513, 514, 515, 516, 517, 518, 519, 520, 521, 522, 523, 524, 525, 526, 527, 528, 529, 530, 531, 532, 533, 534, 535, 536, 537, 538, 539, 540, 541, 542, 543, 544, 545, 546, 547, 548, 549, 550, 551, 552, 553, 554, 555, 556, 557, 558, 559, 560, 561, 562, 563, 564, 565, 566, 567, 568, 569, 570, 571, 572, 573, 574, 575, 576, 577, 578, 579, 580, 581, 582, 583, 584, 585, 586, 587, 588, 589, 590, 591, 592, 593, 594, 595, 596, 597, 598, 599, 600, 601, 602, 603, 604, 605, 606, 607, 608, 609, 610, 611, 612, 613, 614, 615, 616, 617, 618, 619, 620, 621, 622, 623, 624, 625, 626, 627, 628, 629, 630, 631, 632, 633, 634, 635, 636, 637, 638, 639, 640, 641, 642, 643, 644, 645, 646, 647, 648, 649, 650, 651, 652, 653, 654, 655, 656, 657, 658, 659, 660, 661, 662, 663, 664, 665, 666, 667, 668, 669, 670, 671, 672, 673, 674, 675, 676, 677, 678, 679, 680, 681, 682, 683, 684, 685, 686, 687, 688, 689, 690, 691, 692, 693, 694, 695, 696, 697, 698, 699, 700, 701, 702, 703, 704, 705, 706, 707, 708, 709, 710, 711, 712, 713, 714, 715, 716, 717, 718, 719, 720, 721, 722, 723, 724, 725, 726, 727, 728, 729, 730, 731, 732, 733, 734, 735, 736, 737, 738, 739, 740, 741, 742, 743, 744, 745, 746, 747, 748, 749, 750, 751, 752, 753, 754, 755, 756, 757, 758, 759, 760, 761, 762, 763, 764, 765, 766, 767, 768, 769, 770, 771, 772, 773, 774, 775, 776, 777, 778, 779, 780, 781, 782, 783, 784, 785, 786, 787, 788, 789, 790, 791, 792, 793, 794, 795, 796, 797, 798, 799, 800, 801, 802, 803, 804, 805, 806, 807, 808, 809, 810, 811, 812, 813, 814, 815, 816, 817, 818, 819, 820, 821, 822, 823, 824, 825, 826, 827, 828, 829, 830, 831, 832, 833, 834, 835, 836, 837, 838, 839, 840, 841, 842, 843, 844, 845, 846, 847, 848, 849, 850, 851, 852, 853, 854, 855, 856, 857, 858, 859, 860, 861, 862, 863, 864, 865, 866, 867, 868, 869, 870, 871, 872],
      "AcquisitionTime": ["091222.342500", "091222.802500", "091223.262500", "091223.722500", "091224.182500", "091224.642500", "091225.102500", "091225.562500", "091226.022500", "091226.482500", "091226.942500", "091227.402500", "091227.862500", "091228.322500", "091228.782500", "091229.242500", "091229.702500", "091230.162500", "091230.622500", "091231.082500", "091231.542500", "091232.002500", "091232.462500", "091232.922500", "091233.382500", "091233.842500", "091234.302500", "091234.762500", "091235.222500", "091235.682500", "091236.142500", "091236.602500", "091237.062500", "091237.522500", "091237.982500", "091238.442500", "091238.902500", "091239.362500", "091239.822500", "091240.282500", "091240.742500", "091241.202500", "091241.662500", "091242.122500", "091242.582500", "091243.042500", "091243.502500", "091243.962500", "091244.422500", "091244.882500", "091245.342500", "091245.802500", "091246.262500", "091246.722500", "091247.182500", "091247.642500", "091248.102500", "091248.562500", "091249.022500", "091249.482500", "091249.942500", "091250.402500", "091250.862500", "091251.322500", "091251.782500", "091252.242500", "091252.702500", "091253.162500", "091253.622500", "091254.082500", "091254.542500", "091255.002500", "091255.462500", "091255.922500", "091256.382500", "091256.842500", "091257.302500", "091257.762500", "091258.222500", "091258.682500", "091259.142500", "091259.602500", "091300.062500", "091300.522500", "091300.982500", "091301.442500", "091301.902500", "091302.362500", "091302.822500", "091303.282500", "091303.742500", "091304.202500", "091304.662500", "091305.122500", "091305.582500", "091306.042500", "091306.502500", "091306.962500", "091307.422500", "091307.882500", "091308.342500", "091308.802500", "091309.262500", "091309.722500", "091310.182500", "091310.642500", "091311.102500", "091311.562500", "091312.022500", "091312.482500", "091312.942500", "091313.402500", "091313.862500", "091314.322500", "091314.782500", "091315.242500", "091315.702500", "091316.162500", "091316.622500", "091317.082500", "091317.542500", "091318.002500", "091318.462500", "091318.922500", "091319.382500", "091319.842500", "091320.302500", "091320.762500", "091321.222500", "091321.682500", "091322.142500", "091322.602500", "091323.062500", "091323.522500", "091323.982500", "091324.442500", "091324.902500", "091325.362500", "091325.822500", "091326.282500", "091326.742500", "091327.202500", "091327.662500", "091328.122500", "091328.582500", "091329.042500", "091329.502500", "091329.962500", "091330.422500", "091330.882500", "091331.342500", "091331.802500", "091332.262500", "091332.722500", "091333.182500", "091333.642500", "091334.102500", "091334.562500", "091335.022500", "091335.482500", "091335.942500", "091336.402500", "091336.862500", "091337.322500", "091337.782500", "091338.242500", "091338.702500", "091339.162500", "091339.622500", "091340.082500", "091340.542500", "091341.002500", "091341.462500", "091341.922500", "091342.382500", "091342.842500", "091343.302500", "091343.762500", "091344.222500", "091344.682500", "091345.142500", "091345.602500", "091346.062500", "091346.522500", "091346.982500", "091347.442500", "091347.902500", "091348.362500", "091348.822500", "091349.282500", "091349.742500", "091350.202500", "091350.662500", "091351.122500", "091351.582500", "091352.042500", "091352.502500", "091352.962500", "091353.422500", "091353.882500", "091354.342500", "091354.802500", "091355.262500", "091355.722500", "091356.182500", "091356.642500", "091357.102500", "091357.562500", "091358.022500", "091358.482500", "091358.942500", "091359.402500", "091359.862500", "091400.322500", "091400.782500", "091401.242500", "091401.702500", "091402.162500", "091402.622500", "091403.082500", "091403.542500", "091404.002500", "091404.462500", "091404.922500", "091405.382500", "091405.842500", "091406.302500", "091406.762500", "091407.222500", "091407.682500", "091408.142500", "091408.602500", "091409.062500", "091409.522500", "091409.982500", "091410.442500", "091410.902500", "091411.362500", "091411.822500", "091412.282500", "091412.742500", "091413.202500", "091413.662500", "091414.122500", "091414.582500", "091415.042500", "091415.502500", "091415.962500", "091416.422500", "091416.882500", "091417.342500", "091417.802500", "091418.262500", "091418.722500", "091419.182500", "091419.642500", "091420.102500", "091420.562500", "091421.022500", "091421.482500", "091421.942500", "091422.402500", "091422.862500", "091423.322500", "091423.782500", "091424.242500", "091424.702500", "091425.162500", "091425.622500", "091426.082500", "091426.542500", "091427.002500", "091427.462500", "091427.922500", "091428.382500", "091428.842500", "091429.302500", "091429.762500", "091430.222500", "091430.682500", "091431.142500", "091431.602500", "091432.062500", "091432.522500", "091432.982500", "091433.442500", "091433.902500", "091434.362500", "091434.822500", "091435.282500", "091435.742500", "091436.202500", "091436.662500", "091437.122500", "091437.582500", "091438.042500", "091438.502500", "091438.962500", "091439.422500", "091439.882500", "091440.342500", "091440.802500", "091441.262500", "091441.722500", "091442.182500", "091442.642500", "091443.102500", "091443.562500", "091444.022500", "091444.482500", "091444.942500", "091445.402500", "091445.862500", "091446.322500", "091446.782500", "091447.242500", "091447.702500", "091448.162500", "091448.622500", "091449.082500", "091449.542500", "091450.002500", "091450.462500", "091450.922500", "091451.382500", "091451.842500", "091452.302500", "091452.762500", "091453.222500", "091453.682500", "091454.142500", "091454.602500", "091455.062500", "091455.522500", "091455.982500", "091456.442500", "091456.902500", "091457.362500", "091457.822500", "091458.282500", "091458.742500", "091459.202500", "091459.662500", "091500.122500", "091500.582500", "091501.042500", "091501.502500", "091501.962500", "091502.422500", "091502.882500", "091503.342500", "091503.802500", "091504.262500", "091504.722500", "091505.182500", "091505.642500", "091506.102500", "091506.562500", "091507.022500", "091507.482500", "091507.942500", "091508.402500", "091508.862500", "091509.322500", "091509.782500", "091510.242500", "091510.702500", "091511.162500", "091511.622500", "091512.082500", "091512.542500", "091513.002500", "091513.462500", "091513.922500", "091514.382500", "091514.842500", "091515.302500", "091515.762500", "091516.222500", "091516.682500", "091517.142500", "091517.602500", "091518.062500", "091518.522500", "091518.982500", "091519.442500", "091519.902500", "091520.362500", "091520.822500", "091521.282500", "091521.742500", "091522.202500", "091522.662500", "091523.122500", "091523.582500", "091524.042500", "091524.502500", "091524.962500", "091525.422500", "091525.882500", "091526.342500", "091526.802500", "091527.262500", "091527.722500", "091528.182500", "091528.642500", "091529.102500", "091529.562500", "091530.022500", "091530.482500", "091530.942500", "091531.402500", "091531.862500", "091532.322500", "091532.782500", "091533.242500", "091533.702500", "091534.162500", "091534.622500", "091535.082500", "091535.542500", "091536.002500", "091536.462500", "091536.922500", "091537.382500", "091537.842500", "091538.302500", "091538.762500", "091539.222500", "091539.682500", "091540.142500", "091540.602500", "091541.062500", "091541.522500", "091541.982500", "091542.442500", "091542.902500", "091543.362500", "091543.822500", "091544.282500", "091544.742500", "091545.202500", "091545.662500", "091546.122500", "091546.582500", "091547.042500", "091547.502500", "091547.962500", "091548.422500", "091548.882500", "091549.342500", "091549.802500", "091550.262500", "091550.722500", "091551.182500", "091551.642500", "091552.102500", "091552.562500", "091553.022500", "091553.482500", "091553.942500", "091554.402500", "091554.862500", "091555.322500", "091555.782500", "091556.242500", "091556.702500", "091557.162500", "091557.622500", "091558.082500", "091558.542500", "091559.002500", "091559.462500", "091559.922500", "091600.382500", "091600.842500", "091601.302500", "091601.762500", "091602.222500", "091602.682500", "091603.142500", "091603.602500", "091604.062500", "091604.522500", "091604.982500", "091605.442500", "091605.902500", "091606.362500", "091606.822500", "091607.282500", "091607.742500", "091608.202500", "091608.662500", "091609.122500", "091609.582500", "091610.042500", "091610.502500", "091610.962500", "091611.422500", "091611.882500", "091612.342500", "091612.802500", "091613.262500", "091613.722500", "091614.182500", "091614.642500", "091615.102500", "091615.562500", "091616.022500", "091616.482500", "091616.942500", "091617.402500", "091617.862500", "091618.322500", "091618.782500", "091619.242500", "091619.702500", "091620.162500", "091620.622500", "091621.082500", "091621.542500", "091622.002500", "091622.462500", "091622.922500", "091623.382500", "091623.842500", "091624.302500", "091624.762500", "091625.222500", "091625.682500", "091626.142500", "091626.602500", "091627.062500", "091627.522500", "091627.982500", "091628.442500", "091628.902500", "091629.362500", "091629.822500", "091630.282500", "091630.742500", "091631.202500", "091631.662500", "091632.122500", "091632.582500", "091633.042500", "091633.502500", "091633.962500", "091634.422500", "091634.882500", "091635.342500", "091635.802500", "091636.262500", "091636.722500", "091637.182500", "091637.642500", "091638.102500", "091638.562500", "091639.022500", "091639.482500", "091639.942500", "091640.402500", "091640.862500", "091641.322500", "091641.782500", "091642.242500", "091642.702500", "091643.162500", "091643.622500", "091644.082500", "091644.542500", "091645.002500", "091645.462500", "091645.922500", "091646.382500", "091646.842500", "091647.302500", "091647.762500", "091648.222500", "091648.682500", "091649.142500", "091649.602500", "091650.062500", "091650.522500", "091650.982500", "091651.442500", "091651.902500", "091652.362500", "091652.822500", "091653.282500", "091653.742500", "091654.202500", "091654.662500", "091655.122500", "091655.582500", "091656.042500", "091656.502500", "091656.962500", "091657.422500", "091657.882500", "091658.342500", "091658.802500", "091659.262500", "091659.722500", "091700.182500", "091700.642500", "091701.102500", "091701.562500", "091702.022500", "091702.482500", "091702.942500", "091703.402500", "091703.862500", "091704.322500", "091704.782500", "091705.242500", "091705.702500", "091706.162500", "091706.622500", "091707.082500", "091707.542500", "091708.002500", "091708.462500", "091708.922500", "091709.382500", "091709.842500", "091710.302500", "091710.762500", "091711.222500", "091711.682500", "091712.142500", "091712.602500", "091713.062500", "091713.522500", "091713.982500", "091714.442500", "091714.902500", "091715.362500", "091715.822500", "091716.282500", "091716.742500", "091717.202500", "091717.662500", "091718.122500", "091718.582500", "091719.042500", "091719.502500", "091719.962500", "091720.422500", "091720.882500", "091721.342500", "091721.802500", "091722.262500", "091722.722500", "091723.182500", "091723.642500", "091724.102500", "091724.562500", "091725.022500", "091725.482500", "091725.942500", "091726.402500", "091726.862500", "091727.322500", "091727.782500", "091728.242500", "091728.702500", "091729.162500", "091729.622500", "091730.082500", "091730.542500", "091731.002500", "091731.462500", "091731.922500", "091732.382500", "091732.842500", "091733.302500", "091733.762500", "091734.222500", "091734.682500", "091735.142500", "091735.602500", "091736.062500", "091736.522500", "091736.982500", "091737.442500", "091737.902500", "091738.362500", "091738.822500", "091739.282500", "091739.742500", "091740.202500", "091740.662500", "091741.122500", "091741.582500", "091742.042500", "091742.502500", "091742.962500", "091743.422500", "091743.882500", "091744.342500", "091744.802500", "091745.262500", "091745.722500", "091746.182500", "091746.642500", "091747.102500", "091747.562500", "091748.022500", "091748.482500", "091748.942500", "091749.402500", "091749.862500", "091750.322500", "091750.782500", "091751.242500", "091751.702500", "091752.162500", "091752.622500", "091753.082500", "091753.542500", "091754.002500", "091754.462500", "091754.922500", "091755.382500", "091755.842500", "091756.302500", "091756.762500", "091757.222500", "091757.682500", "091758.142500", "091758.602500", "091759.062500", "091759.522500", "091759.982500", "091800.442500", "091800.902500", "091801.362500", "091801.822500", "091802.282500", "091802.742500", "091803.202500", "091803.662500", "091804.122500", "091804.582500", "091805.042500", "091805.502500", "091805.962500", "091806.422500", "091806.882500", "091807.342500", "091807.802500", "091808.262500", "091808.722500", "091809.182500", "091809.642500", "091810.102500", "091810.562500", "091811.022500", "091811.482500", "091811.942500", "091812.402500", "091812.862500", "091813.322500", "091813.782500", "091814.242500", "091814.702500", "091815.162500", "091815.622500", "091816.082500", "091816.542500", "091817.002500", "091817.462500", "091817.922500", "091818.382500", "091818.842500", "091819.302500", "091819.762500", "091820.222500", "091820.682500", "091821.142500", "091821.602500", "091822.062500", "091822.522500", "091822.982500", "091823.442500", "091823.902500", "091824.362500", "091824.822500", "091825.282500", "091825.742500", "091826.202500", "091826.662500", "091827.122500", "091827.582500", "091828.042500", "091828.502500", "091828.962500", "091829.422500", "091829.882500", "091830.342500", "091830.802500", "091831.262500", "091831.722500", "091832.182500", "091832.642500", "091833.102500", "091833.562500", "091834.022500", "091834.482500", "091834.942500", "091835.402500", "091835.862500", "091836.322500", "091836.782500", "091837.242500", "091837.702500", "091838.162500", "091838.622500", "091839.082500", "091839.542500", "091840.002500", "091840.462500", "091840.922500", "091841.382500", "091841.842500", "091842.302500", "091842.762500", "091843.222500", "091843.682500", "091844.142500", "091844.602500", "091845.062500", "091845.522500", "091845.982500", "091846.442500", "091846.902500", "091847.362500", "091847.822500", "091848.282500", "091848.742500", "091849.202500", "091849.662500", "091850.122500", "091850.582500", "091851.042500", "091851.502500", "091851.962500", "091852.422500", "091852.882500", "091853.342500", "091853.802500", "091854.262500", "091854.722500", "091855.182500", "091855.642500", "091856.102500", "091856.562500", "091857.022500", "091857.482500", "091857.942500", "091858.402500", "091858.862500", "091859.322500", "091859.782500", "091900.242500", "091900.702500", "091901.162500", "091901.622500", "091902.082500", "091902.542500", "091903.002500"],
