{
  "AcquisitionMatrixPE": 140,
  "AcquisitionNumber": 1,
  "AcquisitionTime": "12:55:1.345000",
  "BandwidthPerPixelPhaseEncode": 10.352,
  "BaseResolution": 140,
  "BodyPartExamined": "BRAIN",
  "ConsistencyInfo": "N4_VE11C_LATEST_20160120",
  "ConversionSoftware": "dcm2niix",
  "ConversionSoftwareVersion": "v1.0.20201102",
  "DerivedVendorReportedEchoSpacing": 0.000689998,
  "DeviceSerialNumber": "66112",
  "DiffusionScheme": "Monopolar",
  "DwellTime": 2.1e-06,
  "EchoTime": 0.088,
  "EchoTrainLength": 105,
  "EffectiveEchoSpacing": 0.000689998,
  "FlipAngle": 90,
  "ImageComments": "Unaliased MB3/PE3",
  "ImageOrientationPatientDICOM": [0.999194, 0.034573, 0.0203796, -0.0382105, 0.974819, 0.219698],
  "ImageType": [
    "ORIGINAL",
    "PRIMARY",
    "DIFFUSION",
    "NONE",
    "MB",
    "ND"
],
  "ImagingFrequency": 123.252,
  "InPlanePhaseEncodingDirectionDICOM": "COL",
  "InstitutionAddress": "Maynard 3,Hanover,NH,US,03755",
  "InstitutionName": "Dartmouth College - PBS",
  "InstitutionalDepartmentName": "Department",
  "IntendedFor": [
    "ses-01/dwi/sub-0016_ses-01_acq-96dirX6b0Xmb_dwi.nii.gz"
],
  "MRAcquisitionType": "2D",
  "MagneticFieldStrength": 3,
  "Manufacturer": "Siemens",
  "ManufacturersModelName": "Prisma",
  "Modality": "MR",
  "MultibandAccelerationFactor": 3,
  "PartialFourier": 0.75,
  "PatientPosition": "HFS",
  "PercentPhaseFOV": 100,
  "PercentSampling": 100,
  "PhaseEncodingDirection": "j",
  "PhaseEncodingSteps": 105,
  "PhaseResolution": 1,
  "PixelBandwidth": 1700,
  "ProcedureStepDescription": "Wager_Wager^1076_spacetop",
  "ProtocolName": "dwi_acq-discorr-PA",
  "PulseSequenceDetails": "%CustomerSeq%\\cmrr_mbep2d_diff",
  "ReceiveCoilActiveElements": "HEA;HEP",
  "ReceiveCoilName": "Head_32",
  "ReconMatrixPE": 140,
  "RepetitionTime": 4.1,
  "SAR": 0.154394,
  "ScanOptions": "PFP\\FS",
  "ScanningSequence": "EP",
  "SequenceName": "ep_b0",
  "SequenceVariant": "SK\\SS",
  "SeriesDescription": "dwi_acq-discorr-PA",
  "SeriesNumber": 6,
  "ShimSetting": [4154, -7762, -7239, 549, -79, -152, -38, 72],
  "SliceThickness": 1.7,
  "SliceTiming": [0, 2.11719, 0.15625, 2.26562, 0.30469, 2.42188, 0.45312, 2.57031, 0.60938, 2.71875, 0.75781, 2.875, 0.90625, 3.02344, 1.0625, 3.17969, 1.21094, 3.32812, 1.35938, 3.47656, 1.51562, 3.625, 1.66406, 3.78125, 1.8125, 3.92969, 1.96875, 0, 2.11719, 0.15625, 2.26562, 0.30469, 2.42188, 0.45312, 2.57031, 0.60938, 2.71875, 0.75781, 2.875, 0.90625, 3.02344, 1.0625, 3.17969, 1.21094, 3.32812, 1.35938, 3.47656, 1.51562, 3.625, 1.66406, 3.78125, 1.8125, 3.92969, 1.96875, 0, 2.11719, 0.15625, 2.26562, 0.30469, 2.42188, 0.45312, 2.57031, 0.60938, 2.71875, 0.75781, 2.875, 0.90625, 3.02344, 1.0625, 3.17969, 1.21094, 3.32812, 1.35938, 3.47656, 1.51562, 3.625, 1.66406, 3.78125, 1.8125, 3.92969, 1.96875],
  "SoftwareVersions": "syngo MR E11",
  "SpacingBetweenSlices": 1.7,
  "StationName": "AWP66112",
  "TotalReadoutTime": 0.0959097,
  "TxRefAmp": 234.206,
  "WipMemBlock": "555c9fc0-d1d1-47db-97d4-b6649e311743||Sequence: R016 ve11c/master r/e634e98; Dec 19 2017 11:11:25 by eja",
  "dcmmeta_affine": [
    [-1.712904691696167, -0.06550376117229462, 0.020860493183135986, 123.47517395019531],
    [-0.05926791951060295, 1.6711187362670898, 0.37451171875, -101.68375396728516],
    [0.03493642807006836, -0.37662577629089355, 1.6581039428710938, -27.318159103393555],
    [0.0, 0.0, 0.0, 1.0]
],
  "dcmmeta_reorient_transform": [
    [0.0, -1.0, 0.0, 139.0],
    [1.0, 0.0, 0.0, 0.0],
    [0.0, 0.0, -1.0, 80.0],
    [0.0, 0.0, 0.0, 1.0]
],
  "dcmmeta_shape": [140, 140, 81],
  "dcmmeta_slice_dim": 2,
  "dcmmeta_version": 0.6,
  "global": {
    "const": {
      "AccessionNumber": "A003491",
      "AcquisitionMatrix": [140, 0, 0, 140],
      "AcquisitionNumber": 1,
      "AngioFlag": "N",
      "BitsAllocated": 16,
      "BitsStored": 16,
      "BodyPartExamined": "BRAIN",
      "Columns": 140,
      "EchoNumbers": 1,
      "EchoTime": 88.0,
      "EchoTrainLength": 105,
      "FlipAngle": 90.0,
      "HighBit": 15,
      "ImageOrientationPatient": [0.99919436723545, 0.03457295313939, 0.02037958282621, -0.0382105251406, 0.9748192578123, 0.21969836223047],
      "ImageType": [
        "ORIGINAL",
        "PRIMARY",
        "DIFFUSION",
        "NONE",
        "MB",
        "ND"
],
      "ImagedNucleus": "1H",
      "ImagingFrequency": 123.252099,
      "InPlanePhaseEncodingDirection": "COL",
      "MRAcquisitionType": "2D",
      "MagneticFieldStrength": 3.0,
      "Manufacturer": "SIEMENS",
      "ManufacturerModelName": "Prisma",
      "Modality": "MR",
      "NumberOfAverages": 1.0,
      "NumberOfPhaseEncodingSteps": 105,
      "PercentPhaseFieldOfView": 100.0,
      "PercentSampling": 100.0,
      "PerformedProcedureStepStartTime": "114622.429000",
      "PhotometricInterpretation": "MONOCHROME2",
      "PixelBandwidth": 1700.0,
      "PixelRepresentation": 0,
      "PixelSpacing": [1.7142857313156, 1.7142857313156],
      "ProtocolName": "dwi_acq-discorr-PA",
      "RepetitionTime": 4100.0,
      "Rows": 140,
      "SAR": 0.15439427937091,
      "SamplesPerPixel": 1,
      "ScanOptions": [
        "PFP",
        "FS"
],
      "ScanningSequence": "EP",
      "SequenceName": "ep_b0",
      "SequenceVariant": [
        "SK",
        "SS"
],
      "SeriesDescription": "dwi_acq-discorr-PA",
      "SeriesNumber": 6,
      "SeriesTime": "125506.042000",
      "SliceThickness": 1.7000000476837,
      "SmallestImagePixelValue": 0,
      "SoftwareVersions": "syngo MR E11",
      "SpacingBetweenSlices": 1.7,
      "SpecificCharacterSet": "ISO_IR 100",
      "StudyID": "1",
      "StudyTime": "114622.367000",
      "TransmitCoilName": "Body",
      "VariableFlipAngleFlag": "N",
      "WindowCenterWidthExplanation": "Algo1",
      "dBdt": 0.0},
    "slices": {
      "AcquisitionTime": ["125501.345000", "125503.462500", "125501.497500", "125503.612500", "125501.647500", "125503.762500", "125501.800000", "125503.915000", "125501.950000", "125504.065000", "125502.102500", "125504.217500", "125502.252500", "125504.367500", "125502.402500", "125504.520000", "125502.555000", "125504.670000", "125502.705000", "125504.822500", "125502.857500", "125504.972500", "125503.007500", "125505.122500", "125503.160000", "125505.275000", "125503.310000", "125501.345000", "125503.462500", "125501.497500", "125503.612500", "125501.647500", "125503.762500", "125501.800000", "125503.915000", "125501.950000", "125504.065000", "125502.102500", "125504.217500", "125502.252500", "125504.367500", "125502.402500", "125504.520000", "125502.555000", "125504.670000", "125502.705000", "125504.822500", "125502.857500", "125504.972500", "125503.007500", "125505.122500", "125503.160000", "125505.275000", "125503.310000", "125501.345000", "125503.462500", "125501.497500", "125503.612500", "125501.647500", "125503.762500", "125501.800000", "125503.915000", "125501.950000", "125504.065000", "125502.102500", "125504.217500", "125502.252500", "125504.367500", "125502.402500", "125504.520000", "125502.555000", "125504.670000", "125502.705000", "125504.822500", "125502.857500", "125504.972500", "125503.007500", "125505.122500", "125503.160000", "125505.275000", "125503.310000"],
      "ContentTime": ["125506.046000", "125506.220000", "125506.059000", "125506.227000", "125506.066000", "125506.233000", "125506.072000", "125506.242000", "125506.079000", "125506.248000", "125506.085000", "125506.255000", "125506.167000", "125506.262000", "125506.175000", "125506.269000", "125506.182000", "125506.276000", "125506.189000", "125506.283000", "125506.195000", "125506.290000", "125506.201000", "125506.297000", "125506.207000", "125506.304000", "125506.214000", "125506.055000", "125506.222000", "125506.062000", "125506.229000", "125506.068000", "125506.238000", "125506.075000", "125506.244000", "125506.081000", "125506.251000", "125506.087000", "125506.258000", "125506.170000", "125506.264000", "125506.177000", "125506.271000", "125506.184000", "125506.278000", "125506.191000", "125506.285000", "125506.197000", "125506.292000", "125506.203000", "125506.300000", "125506.209000", "125506.306000", "125506.216000", "125506.057000", "125506.224000", "125506.064000", "125506.231000", "125506.070000", "125506.240000", "125506.077000", "125506.246000", "125506.083000", "125506.253000", "125506.090000", "125506.260000", "125506.173000", "125506.267000", "125506.180000", "125506.274000", "125506.186000", "125506.280000", "125506.193000", "125506.288000", "125506.199000", "125506.295000", "125506.205000", "125506.302000", "125506.212000", "125506.309000", "125506.218000"],
      "CsaImage.ICE_Dims": [
        "X_1_1_1_1_1_1_1_1_1_1_1_89",
        "X_1_1_1_1_1_1_42_1_1_2_1_89",
        "X_1_1_1_1_1_1_2_1_1_3_1_89",
        "X_1_1_1_1_1_1_43_1_1_4_1_89",
        "X_1_1_1_1_1_1_3_1_1_5_1_89",
        "X_1_1_1_1_1_1_44_1_1_6_1_89",
        "X_1_1_1_1_1_1_4_1_1_7_1_89",
        "X_1_1_1_1_1_1_45_1_1_8_1_89",
        "X_1_1_1_1_1_1_5_1_1_9_1_89",
        "X_1_1_1_1_1_1_46_1_1_10_1_89",
        "X_1_1_1_1_1_1_6_1_1_11_1_89",
        "X_1_1_1_1_1_1_47_1_1_12_1_89",
        "X_1_1_1_1_1_1_7_1_1_13_1_89",
        "X_1_1_1_1_1_1_48_1_1_14_1_89",
        "X_1_1_1_1_1_1_8_1_1_15_1_89",
        "X_1_1_1_1_1_1_49_1_1_16_1_89",
        "X_1_1_1_1_1_1_9_1_1_17_1_89",
        "X_1_1_1_1_1_1_50_1_1_18_1_89",
        "X_1_1_1_1_1_1_10_1_1_19_1_89",
        "X_1_1_1_1_1_1_51_1_1_20_1_89",
        "X_1_1_1_1_1_1_11_1_1_21_1_89",
        "X_1_1_1_1_1_1_52_1_1_22_1_89",
        "X_1_1_1_1_1_1_12_1_1_23_1_89",
        "X_1_1_1_1_1_1_53_1_1_24_1_89",
        "X_1_1_1_1_1_1_13_1_1_25_1_89",
        "X_1_1_1_1_1_1_54_1_1_26_1_89",
        "X_1_1_1_1_1_1_14_1_1_27_1_89",
        "X_1_1_1_1_1_1_55_1_1_28_1_89",
        "X_1_1_1_1_1_1_15_1_1_29_1_89",
        "X_1_1_1_1_1_1_56_1_1_30_1_89",
        "X_1_1_1_1_1_1_16_1_1_31_1_89",
        "X_1_1_1_1_1_1_57_1_1_32_1_89",
        "X_1_1_1_1_1_1_17_1_1_33_1_89",
        "X_1_1_1_1_1_1_58_1_1_34_1_89",
        "X_1_1_1_1_1_1_18_1_1_35_1_89",
        "X_1_1_1_1_1_1_59_1_1_36_1_89",
        "X_1_1_1_1_1_1_19_1_1_37_1_89",
        "X_1_1_1_1_1_1_60_1_1_38_1_89",
        "X_1_1_1_1_1_1_20_1_1_39_1_89",
        "X_1_1_1_1_1_1_61_1_1_40_1_89",
        "X_1_1_1_1_1_1_21_1_1_41_1_89",
        "X_1_1_1_1_1_1_62_1_1_42_1_89",
        "X_1_1_1_1_1_1_22_1_1_43_1_89",
        "X_1_1_1_1_1_1_63_1_1_44_1_89",
        "X_1_1_1_1_1_1_23_1_1_45_1_89",
        "X_1_1_1_1_1_1_64_1_1_46_1_89",
        "X_1_1_1_1_1_1_24_1_1_47_1_89",
        "X_1_1_1_1_1_1_65_1_1_48_1_89",
        "X_1_1_1_1_1_1_25_1_1_49_1_89",
        "X_1_1_1_1_1_1_66_1_1_50_1_89",
        "X_1_1_1_1_1_1_26_1_1_51_1_89",
        "X_1_1_1_1_1_1_67_1_1_52_1_89",
        "X_1_1_1_1_1_1_27_1_1_53_1_89",
        "X_1_1_1_1_1_1_68_1_1_54_1_89",
        "X_1_1_1_1_1_1_28_1_1_55_1_89",
        "X_1_1_1_1_1_1_69_1_1_56_1_89",
        "X_1_1_1_1_1_1_29_1_1_57_1_89",
        "X_1_1_1_1_1_1_70_1_1_58_1_89",
        "X_1_1_1_1_1_1_30_1_1_59_1_89",
        "X_1_1_1_1_1_1_71_1_1_60_1_89",
        "X_1_1_1_1_1_1_31_1_1_61_1_89",
        "X_1_1_1_1_1_1_72_1_1_62_1_89",
        "X_1_1_1_1_1_1_32_1_1_63_1_89",
        "X_1_1_1_1_1_1_73_1_1_64_1_89",
        "X_1_1_1_1_1_1_33_1_1_65_1_89",
        "X_1_1_1_1_1_1_74_1_1_66_1_89",
        "X_1_1_1_1_1_1_34_1_1_67_1_89",
        "X_1_1_1_1_1_1_75_1_1_68_1_89",
        "X_1_1_1_1_1_1_35_1_1_69_1_89",
        "X_1_1_1_1_1_1_76_1_1_70_1_89",
        "X_1_1_1_1_1_1_36_1_1_71_1_89",
        "X_1_1_1_1_1_1_77_1_1_72_1_89",
        "X_1_1_1_1_1_1_37_1_1_73_1_89",
        "X_1_1_1_1_1_1_78_1_1_74_1_89",
        "X_1_1_1_1_1_1_38_1_1_75_1_89",
        "X_1_1_1_1_1_1_79_1_1_76_1_89",
        "X_1_1_1_1_1_1_39_1_1_77_1_89",
        "X_1_1_1_1_1_1_80_1_1_78_1_89",
        "X_1_1_1_1_1_1_40_1_1_79_1_89",
        "X_1_1_1_1_1_1_81_1_1_80_1_89",
        "X_1_1_1_1_1_1_41_1_1_81_1_89"
],
      "CsaImage.ProtocolSliceNumber": [0, 1, 2, 3, 4, 5, 6, 7, 8, 9, 10, 11, 12, 13, 14, 15, 16, 17, 18, 19, 20, 21, 22, 23, 24, 25, 26, 27, 28, 29, 30, 31, 32, 33, 34, 35, 36, 37, 38, 39, 40, 41, 42, 43, 44, 45, 46, 47, 48, 49, 50, 51, 52, 53, 54, 55, 56, 57, 58, 59, 60, 61, 62, 63, 64, 65, 66, 67, 68, 69, 70, 71, 72, 73, 74, 75, 76, 77, 78, 79, 80],
      "CsaImage.RFSWDDataType": [
        "predicted",
        "predicted",
        "predicted",
        "predicted",
        "predicted",
        "predicted",
        "predicted",
        "predicted",
        "predicted",
        "predicted",
        "predicted",
        "predicted",
        "predicted",
        "predicted",
        "predicted",
        "predicted",
        "predicted",
        "predicted",
        "predicted",
        "predicted",
        "predicted",
        "predicted",
        "predicted",
        "predicted",
        "predicted",
        "measured",
        "predicted",
        "predicted",
        "predicted",
        "predicted",
        "predicted",
        "predicted",
        "predicted",
        "predicted",
        "predicted",
        "predicted",
        "predicted",
        "predicted",
        "predicted",
        "predicted",
        "predicted",
        "predicted",
        "predicted",
        "predicted",
        "predicted",
        "predicted",
        "predicted",
        "predicted",
        "predicted",
        "predicted",
        "predicted",
        "predicted",
        "measured",
        "predicted",
        "predicted",
        "predicted",
        "predicted",
        "predicted",
        "predicted",
        "predicted",
        "predicted",
        "predicted",
        "predicted",
        "predicted",
        "predicted",
        "predicted",
        "predicted",
        "predicted",
        "predicted",
        "predicted",
        "predicted",
        "predicted",
        "predicted",
        "predicted",
        "predicted",
        "predicted",
        "predicted",
        "predicted",
        "predicted",
        "measured",
        "predicted"
],
      "CsaImage.SlicePosition_PCS": [
        [-114.37015225, -130.60189714, -79.66901861],
        [-114.39101274, -130.97640696, -78.01091848],
        [-114.41187317, -131.35091677, -76.35281454],
        [-114.43273361, -131.72542658, -74.6947106],
        [-114.4535941, -132.09993639, -73.03661047],
        [-114.47445453, -132.4744462, -71.37850653],
        [-114.49531497, -132.84895697, -69.7204064],
        [-114.51617546, -133.22346678, -68.06230245],
        [-114.53703589, -133.59797659, -66.40419851],
        [-114.55789639, -133.9724864, -64.74609838],
        [-114.57875682, -134.34699621, -63.08799444],
        [-114.59961725, -134.72150602, -61.42989431],
        [-114.62047775, -135.09601584, -59.77179037],
        [-114.64133818, -135.47052565, -58.11368833],
        [-114.66219867, -135.84503546, -56.4555863],
        [-114.68305911, -136.21954527, -54.79748426],
        [-114.70391954, -136.59405508, -53.13938223],
        [-114.72478003, -136.96856489, -51.48127828],
        [-114.74564047, -137.34307566, -49.82317625],
        [-114.76650096, -137.71758547, -48.16507421],
        [-114.78736139, -138.09209528, -46.50697218],
        [-114.80822183, -138.46660509, -44.84887014],
        [-114.82908232, -138.8411149, -43.19076715],
        [-114.84994275, -139.21562471, -41.53266512],
        [-114.87080322, -139.59013453, -39.87456213],
        [-114.89166368, -139.96464434, -38.21646009],
        [-114.91252414, -140.33915415, -36.55835758],
        [-114.93338461, -140.71366396, -34.90025507],
        [-114.95424504, -141.08817377, -33.24215256],
        [-114.9751055, -141.46268358, -31.58405052],
        [-114.99596597, -141.83719339, -29.92594801],
        [-115.01682643, -142.21170321, -28.26784561],
        [-115.03768687, -142.58621302, -26.60974322],
        [-115.05854733, -142.96072283, -24.95164095],
        [-115.07940779, -143.33523264, -23.29353843],
        [-115.10026826, -143.70974436, -21.63543592],
        [-115.1211287, -144.08425417, -19.97733389],
        [-115.14198917, -144.45876398, -18.3192309],
        [-115.16284962, -144.83327379, -16.66112886],
        [-115.18371008, -145.2077836, -15.00302683],
        [-115.20457054, -145.58229342, -13.34492384],
        [-115.22543099, -145.95680323, -11.6868218],
        [-115.24629145, -146.33131304, -10.02871977],
        [-115.26715191, -146.70582285, -8.37061773],
        [-115.28801236, -147.08033266, -6.71251379],
        [-115.30887282, -147.45484247, -5.05441175],
        [-115.32973328, -147.82935228, -3.39630972],
        [-115.35059373, -148.2038621, -1.73820768],
        [-115.37145419, -148.57837191, -0.08010565],
        [-115.39231465, -148.95288172, 1.57799639],
        [-115.41317511, -149.32739153, 3.23609842],
        [-115.43403557, -149.70190134, 4.89420237],
        [-115.45489601, -150.07641115, 6.5523025],
        [-115.47575648, -150.45092096, 8.21040644],
        [-115.49661694, -150.82543078, 9.86851038],
        [-115.51747739, -151.19994059, 11.52661051],
        [-115.53833785, -151.5744504, 13.18471445],
        [-115.5591983, -151.94896021, 14.84281458],
        [-115.58005876, -152.32347193, 16.50091852],
        [-115.60091923, -152.69798174, 18.15902247],
        [-115.62177969, -153.07249155, 19.81712259],
        [-115.64264012, -153.44700136, 21.47522654],
        [-115.66350059, -153.82150927, 23.13332667],
        [-115.68436105, -154.19602099, 24.79143061],
        [-115.70522151, -154.57052889, 26.44953455],
        [-115.72608195, -154.94504061, 28.10763468],
        [-115.74694241, -155.31954851, 29.76573862],
        [-115.76780288, -155.69406023, 31.42383875],
        [-115.78866334, -156.06856813, 33.08194269],
        [-115.8095238, -156.44307985, 34.74004664],
        [-115.83038427, -156.81759157, 36.39815058],
        [-115.8512447, -157.19209948, 38.05624689],
        [-115.87210513, -157.5666112, 39.71435084],
        [-115.89296563, -157.9411191, 41.37245478],
        [-115.91382606, -158.31563082, 43.03055872],
        [-115.93468655, -158.69013872, 44.68866266],
        [-115.95554699, -159.06465044, 46.34675898],
        [-115.97640742, -159.43915834, 48.00486292],
        [-115.99726791, -159.81367006, 49.66296686],
        [-116.01812835, -160.18817797, 51.32107081],
        [-116.03898884, -160.56268969, 52.97917475]
],
      "CsaImage.TimeAfterStart": [16.4, 18.515, 16.5525, 18.6675, 16.7025, 18.8175, 16.8525, 18.97, 17.005, 19.12, 17.155, 19.2725, 17.3075, 19.4225, 17.4575, 19.5725, 17.61, 19.725, 17.76, 19.875, 17.9125, 20.0275, 18.0625, 20.1775, 18.2125, 20.33, 18.365, 16.4, 18.515, 16.5525, 18.6675, 16.7025, 18.8175, 16.8525, 18.97, 17.005, 19.12, 17.155, 19.2725, 17.3075, 19.4225, 17.4575, 19.5725, 17.61, 19.725, 17.76, 19.875, 17.9125, 20.0275, 18.0625, 20.1775, 18.2125, 20.33, 18.365, 16.4, 18.515, 16.5525, 18.6675, 16.7025, 18.8175, 16.8525, 18.97, 17.005, 19.12, 17.155, 19.2725, 17.3075, 19.4225, 17.4575, 19.5725, 17.61, 19.725, 17.76, 19.875, 17.9125, 20.0275, 18.0625, 20.1775, 18.2125, 20.33, 18.365],
      "ImagePositionPatient": [
        [-114.37015224576, -130.60189714493, -79.669018609988],
        [-114.39101273894, -130.97640695633, -78.010918481815],
        [-114.41187317252, -131.35091676774, -76.352814538943],
        [-114.4327336061, -131.72542657914, -74.694710596072],
        [-114.45359409928, -132.09993639054, -73.036610467899],
        [-114.47445453286, -132.47444620194, -71.378506525027],
        [-114.49531496644, -132.84895696702, -69.720406396854],
        [-114.51617545962, -133.22346677842, -68.062302453983],
        [-114.5370358932, -133.59797658982, -66.404198511111],
        [-114.55789638638, -133.97248640122, -64.746098382938],
        [-114.57875681996, -134.34699621262, -63.087994440067],
        [-114.59961725354, -134.72150602402, -61.429894311893],
        [-114.62047774672, -135.09601583542, -59.771790369022],
        [-114.6413381803, -135.47052564683, -58.113688333499],
        [-114.66219867348, -135.84503545823, -56.455586297977],
        [-114.68305910706, -136.21954526963, -54.797484262454],
        [-114.70391954064, -136.59405508103, -53.139382226932],
        [-114.72478003382, -136.96856489243, -51.481278284061],
        [-114.7456404674, -137.34307565751, -49.823176248538],
        [-114.76650096058, -137.71758546891, -48.165074213016],
        [-114.78736139416, -138.09209528031, -46.506972177493],
        [-114.80822182774, -138.46660509171, -44.848870141971],
        [-114.82908232092, -138.84111490311, -43.190767152774],
        [-114.8499427545, -139.21562471451, -41.532665117252],
        [-114.87080321788, -139.59013452592, -39.874562128055],
        [-114.89166368126, -139.96464433732, -38.216460092532],
        [-114.91252414465, -140.33915414872, -36.558357580173],
        [-114.93338460803, -140.71366396012, -34.900255067813],
        [-114.9542450416, -141.08817377152, -33.242152555453],
        [-114.97510550499, -141.46268358292, -31.584050519931],
        [-114.99596596837, -141.83719339432, -29.925948007571],
        [-115.01682643175, -142.21170320572, -28.267845614421],
        [-115.03768686533, -142.58621301713, -26.609743221271],
        [-115.05854732871, -142.96072282853, -24.95164094733],
        [-115.07940779209, -143.33523263993, -23.29353843497],
        [-115.10026825547, -143.70974435868, -21.63543592261],
        [-115.12112870395, -144.08425417008, -19.977333887088],
        [-115.14198916733, -144.45876398148, -18.319230897891],
        [-115.16284961581, -144.83327379288, -16.661128862369],
        [-115.18371007919, -145.20778360428, -15.003026826846],
        [-115.20457053512, -145.58229341569, -13.34492383765],
        [-115.22543099105, -145.95680322709, -11.686821802127],
        [-115.24629144698, -146.33131303849, -10.028719766605],
        [-115.26715190664, -146.70582284989, -8.3706177310822],
        [-115.28801236443, -147.08033266129, -6.7125137882111],
        [-115.30887282129, -147.45484247269, -5.0544117526886],
        [-115.32973327815, -147.82935228409, -3.3963097171661],
        [-115.35059373408, -148.2038620955, -1.7382076816437],
        [-115.37145419374, -148.5783719069, -0.0801056461212],
        [-115.39231464594, -148.9528817183, 1.5779963894012],
        [-115.41317510932, -149.3273915297, 3.2360984249237],
        [-115.43403556525, -149.7019013411, 4.8942023677948],
        [-115.45489601373, -150.0764111525, 6.5523024959686],
        [-115.47575647711, -150.4509209639, 8.2104064388397],
        [-115.49661694049, -150.8254307753, 9.8685103817108],
        [-115.51747738897, -151.19994058671, 11.526610509885],
        [-115.53833785236, -151.57445039811, 13.184714452756],
        [-115.55919830083, -151.94896020951, 14.84281458093],
        [-115.58005876422, -152.32347192826, 16.500918523801],
        [-115.6009192276, -152.69798173966, 18.159022466672],
        [-115.62177969098, -153.07249155106, 19.817122594846],
        [-115.64264012456, -153.44700136246, 21.475226537717],
        [-115.66350058794, -153.82150926652, 23.133326665891],
        [-115.68436105132, -154.19602098527, 24.791430608762],
        [-115.7052215147, -154.57052888932, 26.449534551633],
        [-115.72608194828, -154.94504060807, 28.107634679807],
        [-115.74694241166, -155.31954851212, 29.765738622678],
        [-115.76780287504, -155.69406023087, 31.423838750851],
        [-115.78866333842, -156.06856813492, 33.081942693723],
        [-115.8095238018, -156.44307985367, 34.740046636594],
        [-115.83038426518, -156.81759157242, 36.398150579465],
        [-115.85124469876, -157.19209947648, 38.056246892941],
        [-115.87210513234, -157.56661119523, 39.714350835812],
        [-115.89296562552, -157.94111909928, 41.372454778683],
        [-115.9138260591, -158.31563081803, 43.030558721555],
        [-115.93468655228, -158.69013872208, 44.688662664426],
        [-115.95554698586, -159.06465044083, 46.346758977902],
        [-115.97640741944, -159.43915834488, 48.004862920773],
        [-115.99726791262, -159.81367006363, 49.662966863644],
        [-116.0181283462, -160.18817796769, 51.321070806516],
        [-116.03898883938, -160.56268968644, 52.979174749387]
],
      "InstanceCreationTime": ["125506.046000", "125506.220000", "125506.059000", "125506.227000", "125506.066000", "125506.233000", "125506.072000", "125506.242000", "125506.079000", "125506.248000", "125506.085000", "125506.255000", "125506.167000", "125506.262000", "125506.175000", "125506.269000", "125506.182000", "125506.276000", "125506.189000", "125506.283000", "125506.195000", "125506.290000", "125506.201000", "125506.297000", "125506.207000", "125506.304000", "125506.214000", "125506.055000", "125506.222000", "125506.062000", "125506.229000", "125506.068000", "125506.238000", "125506.075000", "125506.244000", "125506.081000", "125506.251000", "125506.087000", "125506.258000", "125506.170000", "125506.264000", "125506.177000", "125506.271000", "125506.184000", "125506.278000", "125506.191000", "125506.285000", "125506.197000", "125506.292000", "125506.203000", "125506.300000", "125506.209000", "125506.306000", "125506.216000", "125506.057000", "125506.224000", "125506.064000", "125506.231000", "125506.070000", "125506.240000", "125506.077000", "125506.246000", "125506.083000", "125506.253000", "125506.090000", "125506.260000", "125506.173000", "125506.267000", "125506.180000", "125506.274000", "125506.186000", "125506.280000", "125506.193000", "125506.288000", "125506.199000", "125506.295000", "125506.205000", "125506.302000", "125506.212000", "125506.309000", "125506.218000"],
      "InstanceNumber": [1, 2, 3, 4, 5, 6, 7, 8, 9, 10, 11, 12, 13, 14, 15, 16, 17, 18, 19, 20, 21, 22, 23, 24, 25, 26, 27, 28, 29, 30, 31, 32, 33, 34, 35, 36, 37, 38, 39, 40, 41, 42, 43, 44, 45, 46, 47, 48, 49, 50, 51, 52, 53, 54, 55, 56, 57, 58, 59, 60, 61, 62, 63, 64, 65, 66, 67, 68, 69, 70, 71, 72, 73, 74, 75, 76, 77, 78, 79, 80, 81],
      "LargestImagePixelValue": [39527, 23798, 31266, 49558, 46487, 51949, 44047, 43217, 48146, 39220, 42038, 35074, 37636, 53525, 47292, 53384, 35071, 36298, 35662, 30411, 23048, 24719, 31673, 32445, 40402, 53851, 50641, 65535, 65535, 65535, 65535, 65535, 65535, 65535, 65535, 65535, 51534, 65535, 65535, 65535, 65535, 65535, 41060, 44990, 58947, 45129, 44862, 46968, 49390, 37723, 37245, 48989, 53143, 44097, 38600, 37488, 40461, 40943, 39667, 38293, 38505, 40897, 37422, 39661, 43104, 44427, 49329, 46812, 48788, 48662, 42330, 51358, 46501, 45782, 42676, 40695, 48957, 52234, 47768, 19900, 9519],
      "SliceLocation": [-47.530552203096, -45.830555498963, -44.130555074878, -42.430554650793, -40.730557946661, -39.030557522575, -37.33056060908, -35.630560184263, -33.930559760178, -32.230563056046, -30.530562631961, -28.830565928559, -27.130565503743, -25.43056694, -23.730568375525, -22.030569811782, -20.330571248039, -18.630570823223, -16.930572049385, -15.23057348491, -13.530574921167, -11.830576357424, -10.130576862779, -8.4305782990355, -6.7305788047557, -5.0305802406469, -3.3305812114526, -1.6305821822582, 0.06941684657037, 1.7694154106792, 3.4694144398735, 5.1694133527964, 6.8694122653537, 8.5694110620052, 10.2694100912, 11.969409540583, 13.669408104509, 15.369407598789, 17.069406162715, 18.769404726823, 20.469404221012, 22.169402785029, 23.869401349047, 25.56939991311, 27.269400337492, 28.969398901521, 30.66939746555, 32.369396029567, 34.06939459363, 35.769393157602, 37.469391721711, 39.16939214607, 40.869388849654, 42.569389274105, 44.269389698556, 45.96938640214, 47.66938682659, 49.369383530174, 51.069384374814, 52.769384799265, 54.469381503032, 56.169381927117, 57.869378210695, 59.569379055335, 61.269379059596, 62.969376183187, 64.669376187448, 66.369373311404, 68.069373315666, 69.769374160306, 71.469375004946, 73.169367567474, 74.869368411748, 76.569368416375, 78.269369260649, 79.969369265277, 81.669362668183, 83.369362672079, 85.069363517085, 86.769363520981, 88.469364365986],
      "WindowCenter": [6454.0, 5273.0, 5983.0, 7856.0, 7830.0, 8265.0, 8066.0, 8158.0, 8214.0, 7985.0, 8076.0, 8035.0, 8336.0, 8822.0, 8425.0, 8953.0, 8254.0, 8039.0, 7822.0, 7656.0, 7297.0, 7561.0, 7778.0, 7993.0, 8156.0, 8529.0, 8291.0, 8326.0, 8559.0, 8756.0, 8808.0, 9123.0, 9442.0, 9566.0, 9801.0, 9838.0, 9103.0, 9455.0, 9431.0, 9434.0, 9383.0, 9271.0, 9209.0, 9114.0, 9269.0, 8947.0, 9030.0, 9133.0, 9503.0, 9454.0, 9615.0, 9572.0, 9683.0, 9419.0, 8933.0, 9042.0, 9420.0, 9553.0, 9587.0, 9414.0, 9545.0, 9525.0, 9670.0, 9716.0, 9829.0, 9961.0, 10240.0, 10559.0, 10852.0, 11038.0, 10806.0, 10889.0, 10748.0, 10691.0, 10461.0, 10326.0, 10056.0, 9859.0, 6816.0, 3733.0, 1646.0],
      "WindowWidth": [14353.0, 12360.0, 13275.0, 16689.0, 16654.0, 17557.0, 17093.0, 17147.0, 17280.0, 17072.0, 17518.0, 17700.0, 18275.0, 19273.0, 18192.0, 19375.0, 17830.0, 17317.0, 16770.0, 16329.0, 15657.0, 16211.0, 16714.0, 17270.0, 17631.0, 18676.0, 18894.0, 19148.0, 19318.0, 19977.0, 20557.0, 21291.0, 21780.0, 21708.0, 22526.0, 22998.0, 19826.0, 21538.0, 22434.0, 22407.0, 21987.0, 20812.0, 20034.0, 19751.0, 20152.0, 19527.0, 19735.0, 19718.0, 20431.0, 20384.0, 20857.0, 20775.0, 21249.0, 20713.0, 19548.0, 19886.0, 20869.0, 21216.0, 21420.0, 20965.0, 21158.0, 20877.0, 21308.0, 21514.0, 21723.0, 21910.0, 22597.0, 23367.0, 24281.0, 25232.0, 24466.0, 25243.0, 25138.0, 25457.0, 24562.0, 24550.0, 24736.0, 22647.0, 14833.0, 8792.0, 5020.0]
    }
  }
}