{
  "AcquisitionMatrixPE": 140,
  "AcquisitionNumber": 1,
  "AcquisitionTime": "12:55:25.050000",
  "BandwidthPerPixelPhaseEncode": 10.352,
  "BaseResolution": 140,
  "BodyPartExamined": "BRAIN",
  "ConsistencyInfo": "N4_VE11C_LATEST_20160120",
  "ConversionSoftware": "dcm2niix",
  "ConversionSoftwareVersion": "v1.0.20201102",
  "DerivedVendorReportedEchoSpacing": 0.000689998,
  "DeviceSerialNumber": "66112",
  "DiffusionScheme": "Monopolar",
  "DwellTime": 2.1e-06,
  "EchoTime": 0.088,
  "EchoTrainLength": 105,
  "EffectiveEchoSpacing": 0.000689998,
  "FlipAngle": 90,
  "ImageComments": "Unaliased MB3/PE3",
  "ImageOrientationPatientDICOM": [0.999194, 0.0345729, 0.0203797, -0.0382105, 0.974819, 0.219698],
  "ImageType": [
    "ORIGINAL",
    "PRIMARY",
    "DIFFUSION",
    "NONE",
    "MB",
    "ND"
],
  "ImagingFrequency": 123.252,
  "InPlanePhaseEncodingDirectionDICOM": "COL",
  "InstitutionAddress": "Maynard 3,Hanover,NH,US,03755",
  "InstitutionName": "Dartmouth College - PBS",
  "InstitutionalDepartmentName": "Department",
  "IntendedFor": [
    "ses-01/dwi/sub-0016_ses-01_acq-96dirX6b0Xmb_dwi.nii.gz"
],
  "MRAcquisitionType": "2D",
  "MagneticFieldStrength": 3,
  "Manufacturer": "Siemens",
  "ManufacturersModelName": "Prisma",
  "Modality": "MR",
  "MultibandAccelerationFactor": 3,
  "PartialFourier": 0.75,
  "PatientPosition": "HFS",
  "PercentPhaseFOV": 100,
  "PercentSampling": 100,
  "PhaseEncodingDirection": "j-",
  "PhaseEncodingSteps": 105,
  "PhaseResolution": 1,
  "PixelBandwidth": 1700,
  "ProcedureStepDescription": "Wager_Wager^1076_spacetop",
  "ProtocolName": "dwi_acq-discorr-AP",
  "PulseSequenceDetails": "%CustomerSeq%\\cmrr_mbep2d_diff",
  "ReceiveCoilActiveElements": "HEA;HEP",
  "ReceiveCoilName": "Head_32",
  "ReconMatrixPE": 140,
  "RepetitionTime": 4.1,
  "SAR": 0.154394,
  "ScanOptions": "PFP\\FS",
  "ScanningSequence": "EP",
  "SequenceName": "ep_b0",
  "SequenceVariant": "SK\\SS",
  "SeriesDescription": "dwi_acq-discorr-AP",
  "SeriesNumber": 7,
  "ShimSetting": [4154, -7762, -7239, 549, -79, -152, -38, 72],
  "SliceThickness": 1.7,
  "SliceTiming": [0, 2.11719, 0.15625, 2.26562, 0.30469, 2.42188, 0.45312, 2.57031, 0.60938, 2.72656, 0.75781, 2.875, 0.90625, 3.02344, 1.0625, 3.17188, 1.21094, 3.32812, 1.35938, 3.47656, 1.51562, 3.625, 1.66406, 3.78125, 1.8125, 3.92969, 1.96875, 0, 2.11719, 0.15625, 2.26562, 0.30469, 2.42188, 0.45312, 2.57031, 0.60938, 2.72656, 0.75781, 2.875, 0.90625, 3.02344, 1.0625, 3.17188, 1.21094, 3.32812, 1.35938, 3.47656, 1.51562, 3.625, 1.66406, 3.78125, 1.8125, 3.92969, 1.96875, 0, 2.11719, 0.15625, 2.26562, 0.30469, 2.42188, 0.45312, 2.57031, 0.60938, 2.72656, 0.75781, 2.875, 0.90625, 3.02344, 1.0625, 3.17188, 1.21094, 3.32812, 1.35938, 3.47656, 1.51562, 3.625, 1.66406, 3.78125, 1.8125, 3.92969, 1.96875],
  "SoftwareVersions": "syngo MR E11",
  "SpacingBetweenSlices": 1.7,
  "StationName": "AWP66112",
  "TotalReadoutTime": 0.0959097,
  "TxRefAmp": 234.206,
  "WipMemBlock": "2e8fb390-0469-43ae-9870-a8c4ef25df77||Sequence: R016 ve11c/master r/e634e98; Dec 19 2017 11:11:25 by eja",
  "dcmmeta_affine": [
    [-1.712904691696167, -0.06550363451242447, 0.020860493183135986, 123.47516632080078],
    [-0.05926774814724922, 1.6711187362670898, 0.37451171875, -101.68376922607422],
    [0.03493664413690567, -0.37662577629089355, 1.6581039428710938, -27.318174362182617],
    [0.0, 0.0, 0.0, 1.0]
],
  "dcmmeta_reorient_transform": [
    [0.0, -1.0, 0.0, 139.0],
    [1.0, 0.0, 0.0, 0.0],
    [0.0, 0.0, -1.0, 80.0],
    [0.0, 0.0, 0.0, 1.0]
],
  "dcmmeta_shape": [140, 140, 81],
  "dcmmeta_slice_dim": 2,
  "dcmmeta_version": 0.6,
  "global": {
    "const": {
      "AccessionNumber": "A003491",
      "AcquisitionMatrix": [140, 0, 0, 140],
      "AcquisitionNumber": 1,
      "AngioFlag": "N",
      "BitsAllocated": 16,
      "BitsStored": 16,
      "BodyPartExamined": "BRAIN",
      "Columns": 140,
      "EchoNumbers": 1,
      "EchoTime": 88.0,
      "EchoTrainLength": 105,
      "FlipAngle": 90.0,
      "HighBit": 15,
      "ImageOrientationPatient": [0.99919436814025, 0.03457285275255, 0.02037970876547, -0.0382104549469, 0.97481926069456, 0.21969836164995],
      "ImageType": [
        "ORIGINAL",
        "PRIMARY",
        "DIFFUSION",
        "NONE",
        "MB",
        "ND"
],
      "ImagedNucleus": "1H",
      "ImagingFrequency": 123.252098,
      "InPlanePhaseEncodingDirection": "COL",
      "MRAcquisitionType": "2D",
      "MagneticFieldStrength": 3.0,
      "Manufacturer": "SIEMENS",
      "ManufacturerModelName": "Prisma",
      "Modality": "MR",
      "NumberOfAverages": 1.0,
      "NumberOfPhaseEncodingSteps": 105,
      "PercentPhaseFieldOfView": 100.0,
      "PercentSampling": 100.0,
      "PerformedProcedureStepStartTime": "114622.429000",
      "PhotometricInterpretation": "MONOCHROME2",
      "PixelBandwidth": 1700.0,
      "PixelRepresentation": 0,
      "PixelSpacing": [1.7142857313156, 1.7142857313156],
      "ProtocolName": "dwi_acq-discorr-AP",
      "RepetitionTime": 4100.0,
      "Rows": 140,
      "SAR": 0.15439427937091,
      "SamplesPerPixel": 1,
      "ScanOptions": [
        "PFP",
        "FS"
],
      "ScanningSequence": "EP",
      "SequenceName": "ep_b0",
      "SequenceVariant": [
        "SK",
        "SS"
],
      "SeriesDescription": "dwi_acq-discorr-AP",
      "SeriesNumber": 7,
      "SeriesTime": "125529.219000",
      "SliceThickness": 1.7000000476837,
      "SmallestImagePixelValue": 0,
      "SoftwareVersions": "syngo MR E11",
      "SpacingBetweenSlices": 1.7,
      "SpecificCharacterSet": "ISO_IR 100",
      "StudyID": "1",
      "StudyTime": "114622.367000",
      "TransmitCoilName": "Body",
      "VariableFlipAngleFlag": "N",
      "WindowCenterWidthExplanation": "Algo1",
      "dBdt": 0.0},
    "slices": {
      "AcquisitionTime": ["125525.050000", "125527.165000", "125525.200000", "125527.315000", "125525.352500", "125527.467500", "125525.502500", "125527.617500", "125525.652500", "125527.770000", "125525.805000", "125527.920000", "125525.955000", "125528.072500", "125526.107500", "125528.222500", "125526.257500", "125528.372500", "125526.410000", "125528.525000", "125526.560000", "125528.675000", "125526.712500", "125528.827500", "125526.862500", "125528.977500", "125527.012500", "125525.050000", "125527.165000", "125525.200000", "125527.315000", "125525.352500", "125527.467500", "125525.502500", "125527.617500", "125525.652500", "125527.770000", "125525.805000", "125527.920000", "125525.955000", "125528.072500", "125526.107500", "125528.222500", "125526.257500", "125528.372500", "125526.410000", "125528.525000", "125526.560000", "125528.675000", "125526.712500", "125528.827500", "125526.862500", "125528.977500", "125527.012500", "125525.050000", "125527.165000", "125525.200000", "125527.315000", "125525.352500", "125527.467500", "125525.502500", "125527.617500", "125525.652500", "125527.770000", "125525.805000", "125527.920000", "125525.955000", "125528.072500", "125526.107500", "125528.222500", "125526.257500", "125528.372500", "125526.410000", "125528.525000", "125526.560000", "125528.675000", "125526.712500", "125528.827500", "125526.862500", "125528.977500", "125527.012500"],
      "ContentTime": ["125529.223000", "125529.373000", "125529.240000", "125529.380000", "125529.246000", "125529.391000", "125529.253000", "125529.397000", "125529.259000", "125529.404000", "125529.266000", "125529.410000", "125529.272000", "125529.416000", "125529.279000", "125529.423000", "125529.285000", "125529.429000", "125529.340000", "125529.437000", "125529.347000", "125529.443000", "125529.354000", "125529.450000", "125529.361000", "125529.457000", "125529.367000", "125529.235000", "125529.375000", "125529.242000", "125529.382000", "125529.249000", "125529.393000", "125529.255000", "125529.399000", "125529.262000", "125529.406000", "125529.268000", "125529.412000", "125529.274000", "125529.419000", "125529.281000", "125529.425000", "125529.287000", "125529.432000", "125529.343000", "125529.439000", "125529.349000", "125529.446000", "125529.356000", "125529.452000", "125529.363000", "125529.459000", "125529.369000", "125529.237000", "125529.378000", "125529.244000", "125529.384000", "125529.251000", "125529.395000", "125529.257000", "125529.401000", "125529.264000", "125529.408000", "125529.270000", "125529.414000", "125529.277000", "125529.421000", "125529.283000", "125529.427000", "125529.338000", "125529.434000", "125529.345000", "125529.441000", "125529.352000", "125529.448000", "125529.358000", "125529.455000", "125529.365000", "125529.461000", "125529.371000"],
      "CsaImage.ICE_Dims": [
        "X_1_1_1_1_1_1_1_1_1_1_1_91",
        "X_1_1_1_1_1_1_42_1_1_2_1_91",
        "X_1_1_1_1_1_1_2_1_1_3_1_91",
        "X_1_1_1_1_1_1_43_1_1_4_1_91",
        "X_1_1_1_1_1_1_3_1_1_5_1_91",
        "X_1_1_1_1_1_1_44_1_1_6_1_91",
        "X_1_1_1_1_1_1_4_1_1_7_1_91",
        "X_1_1_1_1_1_1_45_1_1_8_1_91",
        "X_1_1_1_1_1_1_5_1_1_9_1_91",
        "X_1_1_1_1_1_1_46_1_1_10_1_91",
        "X_1_1_1_1_1_1_6_1_1_11_1_91",
        "X_1_1_1_1_1_1_47_1_1_12_1_91",
        "X_1_1_1_1_1_1_7_1_1_13_1_91",
        "X_1_1_1_1_1_1_48_1_1_14_1_91",
        "X_1_1_1_1_1_1_8_1_1_15_1_91",
        "X_1_1_1_1_1_1_49_1_1_16_1_91",
        "X_1_1_1_1_1_1_9_1_1_17_1_91",
        "X_1_1_1_1_1_1_50_1_1_18_1_91",
        "X_1_1_1_1_1_1_10_1_1_19_1_91",
        "X_1_1_1_1_1_1_51_1_1_20_1_91",
        "X_1_1_1_1_1_1_11_1_1_21_1_91",
        "X_1_1_1_1_1_1_52_1_1_22_1_91",
        "X_1_1_1_1_1_1_12_1_1_23_1_91",
        "X_1_1_1_1_1_1_53_1_1_24_1_91",
        "X_1_1_1_1_1_1_13_1_1_25_1_91",
        "X_1_1_1_1_1_1_54_1_1_26_1_91",
        "X_1_1_1_1_1_1_14_1_1_27_1_91",
        "X_1_1_1_1_1_1_55_1_1_28_1_91",
        "X_1_1_1_1_1_1_15_1_1_29_1_91",
        "X_1_1_1_1_1_1_56_1_1_30_1_91",
        "X_1_1_1_1_1_1_16_1_1_31_1_91",
        "X_1_1_1_1_1_1_57_1_1_32_1_91",
        "X_1_1_1_1_1_1_17_1_1_33_1_91",
        "X_1_1_1_1_1_1_58_1_1_34_1_91",
        "X_1_1_1_1_1_1_18_1_1_35_1_91",
        "X_1_1_1_1_1_1_59_1_1_36_1_91",
        "X_1_1_1_1_1_1_19_1_1_37_1_91",
        "X_1_1_1_1_1_1_60_1_1_38_1_91",
        "X_1_1_1_1_1_1_20_1_1_39_1_91",
        "X_1_1_1_1_1_1_61_1_1_40_1_91",
        "X_1_1_1_1_1_1_21_1_1_41_1_91",
        "X_1_1_1_1_1_1_62_1_1_42_1_91",
        "X_1_1_1_1_1_1_22_1_1_43_1_91",
        "X_1_1_1_1_1_1_63_1_1_44_1_91",
        "X_1_1_1_1_1_1_23_1_1_45_1_91",
        "X_1_1_1_1_1_1_64_1_1_46_1_91",
        "X_1_1_1_1_1_1_24_1_1_47_1_91",
        "X_1_1_1_1_1_1_65_1_1_48_1_91",
        "X_1_1_1_1_1_1_25_1_1_49_1_91",
        "X_1_1_1_1_1_1_66_1_1_50_1_91",
        "X_1_1_1_1_1_1_26_1_1_51_1_91",
        "X_1_1_1_1_1_1_67_1_1_52_1_91",
        "X_1_1_1_1_1_1_27_1_1_53_1_91",
        "X_1_1_1_1_1_1_68_1_1_54_1_91",
        "X_1_1_1_1_1_1_28_1_1_55_1_91",
        "X_1_1_1_1_1_1_69_1_1_56_1_91",
        "X_1_1_1_1_1_1_29_1_1_57_1_91",
        "X_1_1_1_1_1_1_70_1_1_58_1_91",
        "X_1_1_1_1_1_1_30_1_1_59_1_91",
        "X_1_1_1_1_1_1_71_1_1_60_1_91",
        "X_1_1_1_1_1_1_31_1_1_61_1_91",
        "X_1_1_1_1_1_1_72_1_1_62_1_91",
        "X_1_1_1_1_1_1_32_1_1_63_1_91",
        "X_1_1_1_1_1_1_73_1_1_64_1_91",
        "X_1_1_1_1_1_1_33_1_1_65_1_91",
        "X_1_1_1_1_1_1_74_1_1_66_1_91",
        "X_1_1_1_1_1_1_34_1_1_67_1_91",
        "X_1_1_1_1_1_1_75_1_1_68_1_91",
        "X_1_1_1_1_1_1_35_1_1_69_1_91",
        "X_1_1_1_1_1_1_76_1_1_70_1_91",
        "X_1_1_1_1_1_1_36_1_1_71_1_91",
        "X_1_1_1_1_1_1_77_1_1_72_1_91",
        "X_1_1_1_1_1_1_37_1_1_73_1_91",
        "X_1_1_1_1_1_1_78_1_1_74_1_91",
        "X_1_1_1_1_1_1_38_1_1_75_1_91",
        "X_1_1_1_1_1_1_79_1_1_76_1_91",
        "X_1_1_1_1_1_1_39_1_1_77_1_91",
        "X_1_1_1_1_1_1_80_1_1_78_1_91",
        "X_1_1_1_1_1_1_40_1_1_79_1_91",
        "X_1_1_1_1_1_1_81_1_1_80_1_91",
        "X_1_1_1_1_1_1_41_1_1_81_1_91"
],
      "CsaImage.ProtocolSliceNumber": [0, 1, 2, 3, 4, 5, 6, 7, 8, 9, 10, 11, 12, 13, 14, 15, 16, 17, 18, 19, 20, 21, 22, 23, 24, 25, 26, 27, 28, 29, 30, 31, 32, 33, 34, 35, 36, 37, 38, 39, 40, 41, 42, 43, 44, 45, 46, 47, 48, 49, 50, 51, 52, 53, 54, 55, 56, 57, 58, 59, 60, 61, 62, 63, 64, 65, 66, 67, 68, 69, 70, 71, 72, 73, 74, 75, 76, 77, 78, 79, 80],
      "CsaImage.RFSWDDataType": [
        "predicted",
        "predicted",
        "predicted",
        "predicted",
        "predicted",
        "predicted",
        "predicted",
        "predicted",
        "predicted",
        "predicted",
        "predicted",
        "predicted",
        "predicted",
        "predicted",
        "predicted",
        "predicted",
        "predicted",
        "predicted",
        "predicted",
        "predicted",
        "predicted",
        "predicted",
        "predicted",
        "predicted",
        "predicted",
        "measured",
        "predicted",
        "predicted",
        "predicted",
        "predicted",
        "predicted",
        "predicted",
        "predicted",
        "predicted",
        "predicted",
        "predicted",
        "predicted",
        "predicted",
        "predicted",
        "predicted",
        "predicted",
        "predicted",
        "predicted",
        "predicted",
        "predicted",
        "predicted",
        "predicted",
        "predicted",
        "predicted",
        "predicted",
        "predicted",
        "predicted",
        "measured",
        "predicted",
        "predicted",
        "predicted",
        "predicted",
        "predicted",
        "predicted",
        "predicted",
        "predicted",
        "predicted",
        "predicted",
        "predicted",
        "predicted",
        "predicted",
        "predicted",
        "predicted",
        "predicted",
        "predicted",
        "predicted",
        "predicted",
        "predicted",
        "predicted",
        "predicted",
        "predicted",
        "predicted",
        "predicted",
        "predicted",
        "measured",
        "predicted"
],
      "CsaImage.SlicePosition_PCS": [
        [-114.37016078, -130.60188544, -79.66903365],
        [-114.39102127, -130.97639526, -78.01093352],
        [-114.4118817, -131.35090507, -76.35282958],
        [-114.43274214, -131.72541488, -74.69472564],
        [-114.45360263, -132.09992469, -73.03662551],
        [-114.47446306, -132.4744345, -71.37852157],
        [-114.4953235, -132.84894527, -69.72042144],
        [-114.51618399, -133.22345508, -68.0623175],
        [-114.53704443, -133.59796489, -66.40421355],
        [-114.55790492, -133.9724747, -64.74611343],
        [-114.57876535, -134.34698451, -63.08800948],
        [-114.59962579, -134.72149432, -61.42990935],
        [-114.62048628, -135.09600413, -59.77180541],
        [-114.64134671, -135.47051395, -58.11370338],
        [-114.66220721, -135.84502376, -56.45560134],
        [-114.68306764, -136.21953357, -54.79749931],
        [-114.70392807, -136.59404338, -53.13939727],
        [-114.72478857, -136.96855319, -51.48129333],
        [-114.745649, -137.34306396, -49.82319129],
        [-114.76650949, -137.71757377, -48.16508926],
        [-114.78736993, -138.09208358, -46.50698722],
        [-114.80823036, -138.46659339, -44.84888519],
        [-114.82909085, -138.8411032, -43.1907822],
        [-114.84995129, -139.21561301, -41.53268016],
        [-114.87081175, -139.59012283, -39.87457717],
        [-114.89167221, -139.96463264, -38.21647514],
        [-114.91253268, -140.33914245, -36.55837262],
        [-114.93339314, -140.71365226, -34.90027011],
        [-114.95425357, -141.08816207, -33.2421676],
        [-114.97511404, -141.46267188, -31.58406556],
        [-114.9959745, -141.83718169, -29.92596305],
        [-115.01683496, -142.21169151, -28.26786066],
        [-115.0376954, -142.58620132, -26.60975826],
        [-115.05855586, -142.96071113, -24.95165599],
        [-115.07941632, -143.33522094, -23.29355348],
        [-115.10027679, -143.70973266, -21.63545097],
        [-115.12113724, -144.08424247, -19.97734893],
        [-115.1419977, -144.45875228, -18.31924594],
        [-115.16285815, -144.83326209, -16.66114391],
        [-115.18371861, -145.2077719, -15.00304187],
        [-115.20457907, -145.58228172, -13.34493888],
        [-115.22543952, -145.95679153, -11.68683685],
        [-115.24629998, -146.33130134, -10.02873481],
        [-115.26716044, -146.70581115, -8.37063277],
        [-115.2880209, -147.08032096, -6.71252883],
        [-115.30888135, -147.45483077, -5.0544268],
        [-115.32974181, -147.82934058, -3.39632476],
        [-115.35060227, -148.20385039, -1.73822272],
        [-115.37146273, -148.57836021, -0.08012069],
        [-115.39232318, -148.95287002, 1.57798135],
        [-115.41318364, -149.32737983, 3.23608338],
        [-115.4340441, -149.70188964, 4.89418732],
        [-115.45490455, -150.07639945, 6.55228745],
        [-115.47576501, -150.45090926, 8.2103914],
        [-115.49662547, -150.82541907, 9.86849534],
        [-115.51748592, -151.19992889, 11.52659547],
        [-115.53834638, -151.5744387, 13.18469941],
        [-115.55920683, -151.94894851, 14.84279954],
        [-115.5800673, -152.32346023, 16.50090348],
        [-115.60092776, -152.69797004, 18.15900742],
        [-115.62178822, -153.07247985, 19.81710755],
        [-115.64264866, -153.44698966, 21.47521149],
        [-115.66350912, -153.82149757, 23.13331162],
        [-115.68436958, -154.19600928, 24.79141557],
        [-115.70523005, -154.57051719, 26.44951951],
        [-115.72609048, -154.94502891, 28.10761964],
        [-115.74695094, -155.31953681, 29.76572358],
        [-115.76781141, -155.69404853, 31.42382371],
        [-115.78867187, -156.06855643, 33.08192765],
        [-115.80953233, -156.44306815, 34.74003159],
        [-115.8303928, -156.81757987, 36.39813554],
        [-115.85125323, -157.19208778, 38.05623185],
        [-115.87211366, -157.56659949, 39.71433579],
        [-115.89297416, -157.9411074, 41.37243974],
        [-115.91383459, -158.31561912, 43.03054368],
        [-115.93469508, -158.69012702, 44.68864762],
        [-115.95555552, -159.06463874, 46.34674393],
        [-115.97641595, -159.43914664, 48.00484788],
        [-115.99727644, -159.81365836, 49.66295182],
        [-116.01813688, -160.18816627, 51.32105576],
        [-116.03899737, -160.56267799, 52.97915971]
],
      "CsaImage.TimeAfterStart": [16.4, 18.515, 16.55, 18.665, 16.7, 18.8175, 16.8525, 18.9675, 17.0025, 19.12, 17.155, 19.27, 17.305, 19.42, 17.4575, 19.5725, 17.6075, 19.7225, 17.76, 19.875, 17.91, 20.025, 18.06, 20.1775, 18.2125, 20.3275, 18.3625, 16.4, 18.515, 16.55, 18.665, 16.7, 18.8175, 16.8525, 18.9675, 17.0025, 19.12, 17.155, 19.27, 17.305, 19.42, 17.4575, 19.5725, 17.6075, 19.7225, 17.76, 19.875, 17.91, 20.025, 18.06, 20.1775, 18.2125, 20.3275, 18.3625, 16.4, 18.515, 16.55, 18.665, 16.7, 18.8175, 16.8525, 18.9675, 17.0025, 19.12, 17.155, 19.27, 17.305, 19.42, 17.4575, 19.5725, 17.6075, 19.7225, 17.76, 19.875, 17.91, 20.025, 18.06, 20.1775, 18.2125, 20.3275, 18.3625],
      "ImagePositionPatient": [
        [-114.37016077757, -130.60188544438, -79.669033653038],
        [-114.39102127076, -130.97639525578, -78.010933524864],
        [-114.41188170434, -131.35090506719, -76.352829581993],
        [-114.43274213791, -131.72541487859, -74.694725639122],
        [-114.4536026311, -132.09992468999, -73.036625510948],
        [-114.47446306468, -132.47443450139, -71.378521568077],
        [-114.49532349825, -132.84894526647, -69.720421439904],
        [-114.51618399144, -133.22345507787, -68.062317497032],
        [-114.53704442502, -133.59796488927, -66.404213554161],
        [-114.5579049182, -133.97247470067, -64.746113425988],
        [-114.57876535178, -134.34698451207, -63.088009483116],
        [-114.59962578536, -134.72149432347, -61.429909354943],
        [-114.62048627854, -135.09600413487, -59.771805412072],
        [-114.64134671212, -135.47051394628, -58.113703376549],
        [-114.6622072053, -135.84502375768, -56.455601341027],
        [-114.68306763888, -136.21953356908, -54.797499305504],
        [-114.70392807246, -136.59404338048, -53.139397269982],
        [-114.72478856564, -136.96855319188, -51.481293327111],
        [-114.74564899922, -137.34306395696, -49.823191291588],
        [-114.7665094924, -137.71757376836, -48.165089256066],
        [-114.78736992598, -138.09208357976, -46.506987220543],
        [-114.80823035956, -138.46659339116, -44.848885185021],
        [-114.82909085274, -138.84110320256, -43.190782195824],
        [-114.84995128632, -139.21561301396, -41.532680160301],
        [-114.8708117497, -139.59012282536, -39.874577171105],
        [-114.89167221308, -139.96463263677, -38.216475135582],
        [-114.91253267646, -140.33914244817, -36.558372623223],
        [-114.93339313984, -140.71365225957, -34.900270110863],
        [-114.95425357342, -141.08816207097, -33.242167598503],
        [-114.9751140368, -141.46267188237, -31.584065562981],
        [-114.99597450019, -141.83718169377, -29.925963050621],
        [-115.01683496357, -142.21169150517, -28.267860657471],
        [-115.03769539714, -142.58620131658, -26.609758264321],
        [-115.05855586053, -142.96071112798, -24.95165599038],
        [-115.07941632391, -143.33522093938, -23.29355347802],
        [-115.10027678729, -143.70973265813, -21.63545096566],
        [-115.12113723577, -144.08424246953, -19.977348930138],
        [-115.14199769915, -144.45875228093, -18.319245940941],
        [-115.16285814763, -144.83326209233, -16.661143905419],
        [-115.18371861101, -145.20777190373, -15.003041869896],
        [-115.20457906694, -145.58228171514, -13.344938880699],
        [-115.22543952287, -145.95679152654, -11.686836845177],
        [-115.2462999788, -146.33130133794, -10.028734809655],
        [-115.26716043845, -146.70581114934, -8.3706327741321],
        [-115.28802089625, -147.08032096074, -6.712528831261],
        [-115.30888135311, -147.45483077214, -5.0544267957385],
        [-115.32974180997, -147.82934058354, -3.396324760216],
        [-115.3506022659, -148.20385039494, -1.7382227246936],
        [-115.37146272556, -148.57836020635, -0.0801206891711],
        [-115.39232317776, -148.95287001775, 1.5779813463513],
        [-115.41318364114, -149.32737982915, 3.2360833818738],
        [-115.43404409707, -149.70188964055, 4.8941873247449],
        [-115.45490454555, -150.07639945195, 6.5522874529187],
        [-115.47576500893, -150.45090926335, 8.2103913957898],
        [-115.49662547231, -150.82541907475, 9.8684953386609],
        [-115.51748592079, -151.19992888616, 11.526595466835],
        [-115.53834638417, -151.57443869756, 13.184699409706],
        [-115.55920683265, -151.94894850896, 14.84279953788],
        [-115.58006729603, -152.32346022771, 16.500903480751],
        [-115.60092775941, -152.69797003911, 18.159007423622],
        [-115.6217882228, -153.07247985051, 19.817107551796],
        [-115.64264865637, -153.44698966191, 21.475211494667],
        [-115.66350911975, -153.82149756597, 23.133311622841],
        [-115.68436958314, -154.19600928472, 24.791415565712],
        [-115.70523004652, -154.57051718877, 26.449519508583],
        [-115.72609048009, -154.94502890752, 28.107619636757],
        [-115.74695094348, -155.31953681157, 29.765723579628],
        [-115.76781140686, -155.69404853032, 31.423823707802],
        [-115.78867187024, -156.06855643437, 33.081927650673],
        [-115.80953233362, -156.44306815312, 34.740031593544],
        [-115.830392797, -156.81757987187, 36.398135536415],
        [-115.85125323058, -157.19208777593, 38.056231849891],
        [-115.87211366416, -157.56659949468, 39.714335792762],
        [-115.89297415734, -157.94110739873, 41.372439735634],
        [-115.91383459092, -158.31561911748, 43.030543678505],
        [-115.9346950841, -158.69012702153, 44.688647621376],
        [-115.95555551768, -159.06463874028, 46.346743934852],
        [-115.97641595126, -159.43914664433, 48.004847877723],
        [-115.99727644444, -159.81365836308, 49.662951820595],
        [-116.01813687802, -160.18816626714, 51.321055763466],
        [-116.0389973712, -160.56267798589, 52.979159706337]
],
      "InstanceCreationTime": ["125529.223000", "125529.373000", "125529.240000", "125529.380000", "125529.246000", "125529.391000", "125529.253000", "125529.397000", "125529.259000", "125529.404000", "125529.266000", "125529.410000", "125529.272000", "125529.416000", "125529.279000", "125529.423000", "125529.285000", "125529.429000", "125529.340000", "125529.437000", "125529.347000", "125529.443000", "125529.354000", "125529.450000", "125529.361000", "125529.457000", "125529.367000", "125529.235000", "125529.375000", "125529.242000", "125529.382000", "125529.249000", "125529.393000", "125529.255000", "125529.399000", "125529.262000", "125529.406000", "125529.268000", "125529.412000", "125529.274000", "125529.419000", "125529.281000", "125529.425000", "125529.287000", "125529.432000", "125529.343000", "125529.439000", "125529.349000", "125529.446000", "125529.356000", "125529.452000", "125529.363000", "125529.459000", "125529.369000", "125529.237000", "125529.378000", "125529.244000", "125529.384000", "125529.251000", "125529.395000", "125529.257000", "125529.401000", "125529.264000", "125529.408000", "125529.270000", "125529.414000", "125529.277000", "125529.421000", "125529.283000", "125529.427000", "125529.338000", "125529.434000", "125529.345000", "125529.441000", "125529.352000", "125529.448000", "125529.358000", "125529.455000", "125529.365000", "125529.461000", "125529.371000"],
      "InstanceNumber": [1, 2, 3, 4, 5, 6, 7, 8, 9, 10, 11, 12, 13, 14, 15, 16, 17, 18, 19, 20, 21, 22, 23, 24, 25, 26, 27, 28, 29, 30, 31, 32, 33, 34, 35, 36, 37, 38, 39, 40, 41, 42, 43, 44, 45, 46, 47, 48, 49, 50, 51, 52, 53, 54, 55, 56, 57, 58, 59, 60, 61, 62, 63, 64, 65, 66, 67, 68, 69, 70, 71, 72, 73, 74, 75, 76, 77, 78, 79, 80, 81],
      "LargestImagePixelValue": [23500, 18773, 30941, 24293, 23652, 19784, 18834, 16938, 26347, 35198, 23675, 27761, 28463, 24103, 21504, 23395, 29474, 34393, 33841, 38531, 34928, 49134, 46236, 47867, 56792, 60899, 65535, 53060, 38162, 27006, 35987, 45115, 36736, 36663, 44699, 50589, 39704, 41807, 38035, 37013, 43915, 38107, 34497, 40139, 53006, 43319, 46100, 43492, 46141, 41965, 50401, 51616, 46811, 49893, 43467, 45194, 45501, 43476, 53123, 53519, 64873, 65535, 65535, 61012, 52926, 48345, 58631, 65535, 65535, 59140, 65535, 65535, 65535, 37897, 49750, 38891, 40047, 50651, 42098, 27328, 8425],
      "SliceLocation": [-47.530552184837, -45.830555480704, -44.130555056619, -42.430554632534, -40.730557928402, -39.030557504317, -37.330560590821, -35.630560166004, -33.930559741919, -32.230563037787, -30.530562613702, -28.8305659103, -27.130565485484, -25.430566921741, -23.730568357266, -22.030569793523, -20.33057122978, -18.630570804964, -16.930572031126, -15.230573466651, -13.530574902908, -11.830576339165, -10.13057684452, -8.4305782807766, -6.7305787864968, -5.0305802223879, -3.3305811931936, -1.6305821639993, 0.0694168648293, 1.7694154289381, 3.4694144581324, 5.1694133710554, 6.8694122836126, 8.5694110802642, 10.269410109458, 11.969409558842, 13.669408122768, 15.369407617048, 17.069406180974, 18.769404745082, 20.469404239271, 22.169402803288, 23.869401367306, 25.569399931369, 27.269400355751, 28.96939891978, 30.669397483809, 32.369396047826, 34.069394611889, 35.769393175861, 37.46939173997, 39.169392164329, 40.869388867913, 42.569389292364, 44.269389716815, 45.969386420399, 47.669386844849, 49.369383548433, 51.069384393073, 52.769384817524, 54.469381521291, 56.169381945376, 57.869378228954, 59.569379073594, 61.269379077855, 62.969376201446, 64.669376205707, 66.369373329663, 68.069373333925, 69.769374178565, 71.469375023205, 73.169367585733, 74.869368430007, 76.569368434634, 78.269369278908, 79.969369283536, 81.669362686442, 83.369362690338, 85.069363535344, 86.76936353924, 88.469364384245],
      "WindowCenter": [4787.0, 4959.0, 5495.0, 5432.0, 5490.0, 5275.0, 5261.0, 5126.0, 5840.0, 6158.0, 5928.0, 6143.0, 6356.0, 6388.0, 6194.0, 6446.0, 6972.0, 7152.0, 7118.0, 7305.0, 7338.0, 7888.0, 7739.0, 7941.0, 8299.0, 8338.0, 8519.0, 8142.0, 8079.0, 7722.0, 7995.0, 8432.0, 8487.0, 8516.0, 8585.0, 9071.0, 8760.0, 8913.0, 8928.0, 8857.0, 8990.0, 8837.0, 8974.0, 9236.0, 9182.0, 9040.0, 8996.0, 9190.0, 9311.0, 9385.0, 9670.0, 9732.0, 9743.0, 9921.0, 9322.0, 9537.0, 9722.0, 9878.0, 10198.0, 10097.0, 10087.0, 10055.0, 10283.0, 10192.0, 10297.0, 10138.0, 10597.0, 10924.0, 11144.0, 10982.0, 11181.0, 10922.0, 10809.0, 10386.0, 10484.0, 10224.0, 10108.0, 9607.0, 5746.0, 3873.0, 1576.0],
      "WindowWidth": [10952.0, 10984.0, 11914.0, 11922.0, 12217.0, 11771.0, 11776.0, 11474.0, 12576.0, 13158.0, 12872.0, 13169.0, 13619.0, 13941.0, 13592.0, 14083.0, 15227.0, 15907.0, 15803.0, 15932.0, 16032.0, 17270.0, 17309.0, 17872.0, 18670.0, 19284.0, 19787.0, 18436.0, 17869.0, 16932.0, 17457.0, 18680.0, 18513.0, 18548.0, 18589.0, 19436.0, 18780.0, 19239.0, 19198.0, 19281.0, 19661.0, 19222.0, 19501.0, 20128.0, 20075.0, 19775.0, 19785.0, 20099.0, 20295.0, 20542.0, 21205.0, 21414.0, 21557.0, 22088.0, 20712.0, 21212.0, 21536.0, 21975.0, 22769.0, 22498.0, 22659.0, 22642.0, 23153.0, 22743.0, 22892.0, 22477.0, 23836.0, 25037.0, 26065.0, 25535.0, 26958.0, 25736.0, 25520.0, 23368.0, 24181.0, 23226.0, 23155.0, 20986.0, 13538.0, 9274.0, 4541.0]
    }
  }
}