{
  "AcquisitionMatrixPE": 82,
  "AcquisitionNumber": 1,
  "AcquisitionTime": "18:10:41.425000",
  "BandwidthPerPixelPhaseEncode": 24.888,
  "BaseResolution": 82,
  "BodyPartExamined": "BRAIN",
  "ConsistencyInfo": "N4_VE11C_LATEST_20160120",
  "ConversionSoftware": "dcm2niix",
  "ConversionSoftwareVersion": "v1.0.20201102",
  "DerivedVendorReportedEchoSpacing": 0.00049,
  "DeviceSerialNumber": "66112",
  "DwellTime": 2e-06,
  "EchoTime": 0.0272,
  "EchoTrainLength": 82,
  "EffectiveEchoSpacing": 0.00049,
  "FlipAngle": 44,
  "ImageComments": "Unaliased MB8/PE3",
  "ImageOrientationPatientDICOM": [0.997974, -0.0601957, 0.0206163, 0.0580671, 0.994092, 0.0917015],
  "ImageType": [
    "ORIGINAL",
    "PRIMARY",
    "M",
    "MB",
    "ND",
    "NORM",
    "MOSAIC"
],
  "ImagingFrequency": 123.252,
  "InPlanePhaseEncodingDirectionDICOM": "COL",
  "InstitutionAddress": "Maynard 3,Hanover,NH,US,03755",
  "InstitutionName": "Dartmouth College - PBS",
  "InstitutionalDepartmentName": "Department",
  "MRAcquisitionType": "2D",
  "MagneticFieldStrength": 3,
  "Manufacturer": "Siemens",
  "ManufacturersModelName": "Prisma",
  "Modality": "MR",
  "MultibandAccelerationFactor": 8,
  "PartialFourier": 1,
  "PatientPosition": "HFS",
  "PercentPhaseFOV": 100,
  "PercentSampling": 100,
  "PhaseEncodingDirection": "j-",
  "PhaseEncodingSteps": 82,
  "PhaseResolution": 1,
  "PixelBandwidth": 3050,
  "ProcedureStepDescription": "Wager_Wager^1076_spacetop",
  "ProtocolName": "func_run-03_task-faces_acq-ap-mb8",
  "PulseSequenceDetails": "%CustomerSeq%\\cmrr_mbep2d_bold",
  "ReceiveCoilActiveElements": "HEA;HEP",
  "ReceiveCoilName": "Head_32",
  "ReconMatrixPE": 82,
  "RepetitionTime": 0.46,
  "SAR": 0.0945567,
  "ScanOptions": "FS",
  "ScanningSequence": "EP",
  "SequenceName": "epfid2d1_82",
  "SequenceVariant": "SK\\SS",
  "SeriesDescription": "func_run-03_task-faces_acq-ap-mb8",
  "SeriesNumber": 24,
  "ShimSetting": [4147, -7784, -7251, 509, -67, -241, -36, 74],
  "SliceThickness": 2.7,
  "SliceTiming": [0, 0.2525, 0.0625, 0.315, 0.125, 0.3775, 0.1875, 0, 0.2525, 0.0625, 0.315, 0.125, 0.3775, 0.1875, 0, 0.2525, 0.0625, 0.315, 0.125, 0.3775, 0.1875, 0, 0.2525, 0.0625, 0.315, 0.125, 0.3775, 0.1875, 0, 0.2525, 0.0625, 0.315, 0.125, 0.3775, 0.1875, 0, 0.2525, 0.0625, 0.315, 0.125, 0.3775, 0.1875, 0, 0.2525, 0.0625, 0.315, 0.125, 0.3775, 0.1875, 0, 0.2525, 0.0625, 0.315, 0.125, 0.3775, 0.1875],
  "SoftwareVersions": "syngo MR E11",
  "SpacingBetweenSlices": 2.7,
  "StationName": "AWP66112",
  "TaskName": "faces",
  "TotalReadoutTime": 0.03969,
  "TxRefAmp": 243.766,
  "WipMemBlock": "aa0e10c2-36ca-41ef-a56f-356409732d61||Sequence: R016 ve11c/master r/e634e98; Dec 19 2017 11:00:25 by eja",
  "dcmmeta_affine": [
    [-2.677490472793579, 0.15578989684581757, 0.07023927569389343, 105.69416046142578],
    [0.16150055825710297, 2.667076349258423, 0.2438601404428482, -103.3736801147461],
    [0.05531206354498863, -0.24602846801280975, 2.688047409057617, -54.154659271240234],
    [0.0, 0.0, 0.0, 1.0]
],
  "dcmmeta_reorient_transform": [
    [0.0, -1.0, 0.0, 81.0],
    [1.0, 0.0, 0.0, 0.0],
    [0.0, 0.0, 1.0, 0.0],
    [0.0, 0.0, 0.0, 1.0]
],
  "dcmmeta_shape": [82, 82, 56, 914],
  "dcmmeta_slice_dim": 2,
  "dcmmeta_version": 0.6,
  "global": {
    "const": {
      "AccessionNumber": "A003828",
      "AcquisitionMatrix": [82, 0, 0, 82],
      "AngioFlag": "N",
      "BitsAllocated": 16,
      "BitsStored": 16,
      "BodyPartExamined": "BRAIN",
      "Columns": 656,
      "EchoNumbers": 1,
      "EchoTime": 27.2,
      "EchoTrainLength": 82,
      "FlipAngle": 44.0,
      "HighBit": 15,
      "ImageOrientationPatient": [0.99797367200966, -0.060195660669, 0.0206163142241, 0.05806714452379, 0.99409206730941, 0.09170151819553],
      "ImagePositionPatient": [-931.46459039859, -831.7597522892, -160.56769934136],
      "ImageType": [
        "ORIGINAL",
        "PRIMARY",
        "M",
        "MB",
        "ND",
        "NORM",
        "MOSAIC"
],
      "ImagedNucleus": "1H",
      "ImagingFrequency": 123.252212,
      "InPlanePhaseEncodingDirection": "COL",
      "MRAcquisitionType": "2D",
      "MagneticFieldStrength": 3.0,
      "Manufacturer": "SIEMENS",
      "ManufacturerModelName": "Prisma",
      "Modality": "MR",
      "NumberOfAverages": 1.0,
      "NumberOfPhaseEncodingSteps": 82,
      "PercentPhaseFieldOfView": 100.0,
      "PercentSampling": 100.0,
      "PerformedProcedureStepStartTime": "170552.492000",
      "PhotometricInterpretation": "MONOCHROME2",
      "PixelBandwidth": 3050.0,
      "PixelRepresentation": 0,
      "PixelSpacing": [2.6829268932343, 2.6829268932343],
      "ProtocolName": "func_run-03_task-faces_acq-ap-mb8",
      "RepetitionTime": 460.0,
      "Rows": 656,
      "SAR": 0.09455668521743,
      "SamplesPerPixel": 1,
      "ScanOptions": "FS",
      "ScanningSequence": "EP",
      "SequenceName": "epfid2d1_82",
      "SequenceVariant": [
        "SK",
        "SS"
],
      "SeriesDescription": "func_run-03_task-faces_acq-ap-mb8",
      "SeriesNumber": 24,
      "SeriesTime": "181101.291000",
      "SliceLocation": -60.501900429899,
      "SliceThickness": 2.7000000476837,
      "SmallestImagePixelValue": 0,
      "SoftwareVersions": "syngo MR E11",
      "SpacingBetweenSlices": 2.7000000017941,
      "SpecificCharacterSet": "ISO_IR 100",
      "StudyID": "1",
      "StudyTime": "170552.425000",
      "TransmitCoilName": "Body",
      "VariableFlipAngleFlag": "N",
      "WindowCenterWidthExplanation": "Algo1",
      "dBdt": 0.0},
    "slices": {}
  },
  "time": {
    "samples": {
      "AcquisitionNumber": [1, 2, 3, 4, 5, 6, 7, 8, 9, 10, 11, 12, 13, 14, 15, 16, 17, 18, 19, 20, 21, 22, 23, 24, 25, 26, 27, 28, 29, 30, 31, 32, 33, 34, 35, 36, 37, 38, 39, 40, 41, 42, 43, 44, 45, 46, 47, 48, 49, 50, 51, 52, 53, 54, 55, 56, 57, 58, 59, 60, 61, 62, 63, 64, 65, 66, 67, 68, 69, 70, 71, 72, 73, 74, 75, 76, 77, 78, 79, 80, 81, 82, 83, 84, 85, 86, 87, 88, 89, 90, 91, 92, 93, 94, 95, 96, 97, 98, 99, 100, 101, 102, 103, 104, 105, 106, 107, 108, 109, 110, 111, 112, 113, 114, 115, 116, 117, 118, 119, 120, 121, 122, 123, 124, 125, 126, 127, 128, 129, 130, 131, 132, 133, 134, 135, 136, 137, 138, 139, 140, 141, 142, 143, 144, 145, 146, 147, 148, 149, 150, 151, 152, 153, 154, 155, 156, 157, 158, 159, 160, 161, 162, 163, 164, 165, 166, 167, 168, 169, 170, 171, 172, 173, 174, 175, 176, 177, 178, 179, 180, 181, 182, 183, 184, 185, 186, 187, 188, 189, 190, 191, 192, 193, 194, 195, 196, 197, 198, 199, 200, 201, 202, 203, 204, 205, 206, 207, 208, 209, 210, 211, 212, 213, 214, 215, 216, 217, 218, 219, 220, 221, 222, 223, 224, 225, 226, 227, 228, 229, 230, 231, 232, 233, 234, 235, 236, 237, 238, 239, 240, 241, 242, 243, 244, 245, 246, 247, 248, 249, 250, 251, 252, 253, 254, 255, 256, 257, 258, 259, 260, 261, 262, 263, 264, 265, 266, 267, 268, 269, 270, 271, 272, 273, 274, 275, 276, 277, 278, 279, 280, 281, 282, 283, 284, 285, 286, 287, 288, 289, 290, 291, 292, 293, 294, 295, 296, 297, 298, 299, 300, 301, 302, 303, 304, 305, 306, 307, 308, 309, 310, 311, 312, 313, 314, 315, 316, 317, 318, 319, 320, 321, 322, 323, 324, 325, 326, 327, 328, 329, 330, 331, 332, 333, 334, 335, 336, 337, 338, 339, 340, 341, 342, 343, 344, 345, 346, 347, 348, 349, 350, 351, 352, 353, 354, 355, 356, 357, 358, 359, 360, 361, 362, 363, 364, 365, 366, 367, 368, 369, 370, 371, 372, 373, 374, 375, 376, 377, 378, 379, 380, 381, 382, 383, 384, 385, 386, 387, 388, 389, 390, 391, 392, 393, 394, 395, 396, 397, 398, 399, 400, 401, 402, 403, 404, 405, 406, 407, 408, 409, 410, 411, 412, 413, 414, 415, 416, 417, 418, 419, 420, 421, 422, 423, 424, 425, 426, 427, 428, 429, 430, 431, 432, 433, 434, 435, 436, 437, 438, 439, 440, 441, 442, 443, 444, 445, 446, 447, 448, 449, 450, 451, 452, 453, 454, 455, 456, 457, 458, 459, 460, 461, 462, 463, 464, 465, 466, 467, 468, 469, 470, 471, 472, 473, 474, 475, 476, 477, 478, 479, 480, 481, 482, 483, 484, 485, 486, 487, 488, 489, 490, 491, 492, 493, 494, 495, 496, 497, 498, 499, 500, 501, 502, 503, 504, 505, 506, 507, 508, 509, 510, 511, 512, 513, 514, 515, 516, 517, 518, 519, 520, 521, 522, 523, 524, 525, 526, 527, 528, 529, 530, 531, 532, 533, 534, 535, 536, 537, 538, 539, 540, 541, 542, 543, 544, 545, 546, 547, 548, 549, 550, 551, 552, 553, 554, 555, 556, 557, 558, 559, 560, 561, 562, 563, 564, 565, 566, 567, 568, 569, 570, 571, 572, 573, 574, 575, 576, 577, 578, 579, 580, 581, 582, 583, 584, 585, 586, 587, 588, 589, 590, 591, 592, 593, 594, 595, 596, 597, 598, 599, 600, 601, 602, 603, 604, 605, 606, 607, 608, 609, 610, 611, 612, 613, 614, 615, 616, 617, 618, 619, 620, 621, 622, 623, 624, 625, 626, 627, 628, 629, 630, 631, 632, 633, 634, 635, 636, 637, 638, 639, 640, 641, 642, 643, 644, 645, 646, 647, 648, 649, 650, 651, 652, 653, 654, 655, 656, 657, 658, 659, 660, 661, 662, 663, 664, 665, 666, 667, 668, 669, 670, 671, 672, 673, 674, 675, 676, 677, 678, 679, 680, 681, 682, 683, 684, 685, 686, 687, 688, 689, 690, 691, 692, 693, 694, 695, 696, 697, 698, 699, 700, 701, 702, 703, 704, 705, 706, 707, 708, 709, 710, 711, 712, 713, 714, 715, 716, 717, 718, 719, 720, 721, 722, 723, 724, 725, 726, 727, 728, 729, 730, 731, 732, 733, 734, 735, 736, 737, 738, 739, 740, 741, 742, 743, 744, 745, 746, 747, 748, 749, 750, 751, 752, 753, 754, 755, 756, 757, 758, 759, 760, 761, 762, 763, 764, 765, 766, 767, 768, 769, 770, 771, 772, 773, 774, 775, 776, 777, 778, 779, 780, 781, 782, 783, 784, 785, 786, 787, 788, 789, 790, 791, 792, 793, 794, 795, 796, 797, 798, 799, 800, 801, 802, 803, 804, 805, 806, 807, 808, 809, 810, 811, 812, 813, 814, 815, 816, 817, 818, 819, 820, 821, 822, 823, 824, 825, 826, 827, 828, 829, 830, 831, 832, 833, 834, 835, 836, 837, 838, 839, 840, 841, 842, 843, 844, 845, 846, 847, 848, 849, 850, 851, 852, 853, 854, 855, 856, 857, 858, 859, 860, 861, 862, 863, 864, 865, 866, 867, 868, 869, 870, 871, 872, 873, 874, 875, 876, 877, 878, 879, 880, 881, 882, 883, 884, 885, 886, 887, 888, 889, 890, 891, 892, 893, 894, 895, 896, 897, 898, 899, 900, 901, 902, 903, 904, 905, 906, 907, 908, 909, 910, 911, 912, 913, 914],
      "AcquisitionTime": ["181041.425000", "181041.885000", "181042.345000", "181042.805000", "181043.265000", "181043.725000", "181044.185000", "181044.645000", "181045.105000", "181045.565000", "181046.025000", "181046.485000", "181046.945000", "181047.405000", "181047.865000", "181048.325000", "181048.785000", "181049.245000", "181049.705000", "181050.165000", "181050.625000", "181051.085000", "181051.545000", "181052.005000", "181052.465000", "181052.925000", "181053.385000", "181053.845000", "181054.305000", "181054.765000", "181055.225000", "181055.685000", "181056.145000", "181056.605000", "181057.065000", "181057.525000", "181057.985000", "181058.445000", "181058.905000", "181059.365000", "181059.825000", "181100.285000", "181100.745000", "181101.205000", "181101.665000", "181102.125000", "181102.585000", "181103.045000", "181103.505000", "181103.965000", "181104.425000", "181104.885000", "181105.345000", "181105.805000", "181106.265000", "181106.725000", "181107.185000", "181107.645000", "181108.105000", "181108.565000", "181109.025000", "181109.485000", "181109.945000", "181110.405000", "181110.865000", "181111.325000", "181111.785000", "181112.245000", "181112.705000", "181113.165000", "181113.625000", "181114.085000", "181114.545000", "181115.005000", "181115.465000", "181115.925000", "181116.385000", "181116.845000", "181117.305000", "181117.765000", "181118.225000", "181118.685000", "181119.145000", "181119.605000", "181120.065000", "181120.525000", "181120.985000", "181121.445000", "181121.905000", "181122.365000", "181122.825000", "181123.285000", "181123.745000", "181124.205000", "181124.665000", "181125.125000", "181125.585000", "181126.045000", "181126.505000", "181126.965000", "181127.425000", "181127.885000", "181128.345000", "181128.805000", "181129.265000", "181129.725000", "181130.185000", "181130.645000", "181131.105000", "181131.565000", "181132.025000", "181132.485000", "181132.945000", "181133.405000", "181133.865000", "181134.325000", "181134.785000", "181135.245000", "181135.705000", "181136.165000", "181136.625000", "181137.085000", "181137.545000", "181138.005000", "181138.465000", "181138.925000", "181139.385000", "181139.845000", "181140.305000", "181140.765000", "181141.225000", "181141.685000", "181142.145000", "181142.605000", "181143.065000", "181143.525000", "181143.985000", "181144.445000", "181144.905000", "181145.365000", "181145.825000", "181146.285000", "181146.745000", "181147.205000", "181147.665000", "181148.125000", "181148.585000", "181149.045000", "181149.505000", "181149.965000", "181150.425000", "181150.885000", "181151.345000", "181151.805000", "181152.265000", "181152.725000", "181153.185000", "181153.645000", "181154.105000", "181154.565000", "181155.025000", "181155.485000", "181155.945000", "181156.405000", "181156.865000", "181157.325000", "181157.785000", "181158.245000", "181158.705000", "181159.165000", "181159.625000", "181200.085000", "181200.545000", "181201.005000", "181201.465000", "181201.925000", "181202.385000", "181202.845000", "181203.305000", "181203.765000", "181204.225000", "181204.685000", "181205.145000", "181205.605000", "181206.065000", "181206.525000", "181206.985000", "181207.445000", "181207.905000", "181208.365000", "181208.825000", "181209.285000", "181209.745000", "181210.205000", "181210.665000", "181211.125000", "181211.585000", "181212.045000", "181212.505000", "181212.965000", "181213.425000", "181213.885000", "181214.345000", "181214.805000", "181215.265000", "181215.725000", "181216.185000", "181216.645000", "181217.105000", "181217.565000", "181218.025000", "181218.485000", "181218.945000", "181219.405000", "181219.865000", "181220.325000", "181220.785000", "181221.245000", "181221.705000", "181222.165000", "181222.625000", "181223.085000", "181223.545000", "181224.005000", "181224.465000", "181224.925000", "181225.385000", "181225.845000", "181226.305000", "181226.765000", "181227.225000", "181227.685000", "181228.145000", "181228.605000", "181229.065000", "181229.525000", "181229.985000", "181230.445000", "181230.905000", "181231.365000", "181231.825000", "181232.285000", "181232.745000", "181233.205000", "181233.665000", "181234.125000", "181234.585000", "181235.045000", "181235.505000", "181235.965000", "181236.425000", "181236.885000", "181237.345000", "181237.805000", "181238.265000", "181238.725000", "181239.185000", "181239.645000", "181240.105000", "181240.565000", "181241.025000", "181241.485000", "181241.945000", "181242.405000", "181242.865000", "181243.325000", "181243.785000", "181244.245000", "181244.705000", "181245.165000", "181245.625000", "181246.085000", "181246.545000", "181247.005000", "181247.465000", "181247.925000", "181248.385000", "181248.845000", "181249.305000", "181249.765000", "181250.225000", "181250.685000", "181251.145000", "181251.605000", "181252.065000", "181252.525000", "181252.985000", "181253.445000", "181253.905000", "181254.365000", "181254.825000", "181255.285000", "181255.745000", "181256.205000", "181256.665000", "181257.125000", "181257.585000", "181258.045000", "181258.505000", "181258.965000", "181259.425000", "181259.885000", "181300.345000", "181300.805000", "181301.265000", "181301.725000", "181302.185000", "181302.645000", "181303.105000", "181303.565000", "181304.025000", "181304.485000", "181304.945000", "181305.405000", "181305.865000", "181306.325000", "181306.785000", "181307.245000", "181307.705000", "181308.165000", "181308.625000", "181309.085000", "181309.545000", "181310.005000", "181310.465000", "181310.925000", "181311.385000", "181311.845000", "181312.305000", "181312.765000", "181313.225000", "181313.685000", "181314.145000", "181314.605000", "181315.065000", "181315.525000", "181315.985000", "181316.445000", "181316.905000", "181317.365000", "181317.825000", "181318.285000", "181318.745000", "181319.205000", "181319.665000", "181320.125000", "181320.585000", "181321.045000", "181321.505000", "181321.965000", "181322.425000", "181322.885000", "181323.345000", "181323.805000", "181324.265000", "181324.725000", "181325.185000", "181325.645000", "181326.105000", "181326.565000", "181327.025000", "181327.485000", "181327.945000", "181328.405000", "181328.865000", "181329.325000", "181329.785000", "181330.245000", "181330.705000", "181331.165000", "181331.625000", "181332.085000", "181332.545000", "181333.005000", "181333.465000", "181333.925000", "181334.385000", "181334.845000", "181335.305000", "181335.765000", "181336.225000", "181336.685000", "181337.145000", "181337.605000", "181338.065000", "181338.525000", "181338.985000", "181339.445000", "181339.905000", "181340.365000", "181340.825000", "181341.285000", "181341.745000", "181342.205000", "181342.665000", "181343.125000", "181343.585000", "181344.045000", "181344.505000", "181344.965000", "181345.425000", "181345.885000", "181346.345000", "181346.805000", "181347.265000", "181347.725000", "181348.185000", "181348.645000", "181349.105000", "181349.565000", "181350.025000", "181350.485000", "181350.945000", "181351.405000", "181351.865000", "181352.325000", "181352.785000", "181353.245000", "181353.705000", "181354.165000", "181354.625000", "181355.085000", "181355.545000", "181356.005000", "181356.465000", "181356.925000", "181357.385000", "181357.845000", "181358.305000", "181358.765000", "181359.225000", "181359.685000", "181400.145000", "181400.605000", "181401.065000", "181401.525000", "181401.985000", "181402.445000", "181402.905000", "181403.365000", "181403.825000", "181404.285000", "181404.745000", "181405.205000", "181405.665000", "181406.125000", "181406.585000", "181407.045000", "181407.505000", "181407.965000", "181408.425000", "181408.885000", "181409.345000", "181409.805000", "181410.265000", "181410.725000", "181411.185000", "181411.645000", "181412.105000", "181412.565000", "181413.025000", "181413.485000", "181413.945000", "181414.405000", "181414.865000", "181415.325000", "181415.785000", "181416.245000", "181416.705000", "181417.165000", "181417.625000", "181418.085000", "181418.545000", "181419.005000", "181419.465000", "181419.925000", "181420.385000", "181420.845000", "181421.305000", "181421.765000", "181422.225000", "181422.685000", "181423.145000", "181423.605000", "181424.065000", "181424.525000", "181424.985000", "181425.445000", "181425.905000", "181426.365000", "181426.825000", "181427.285000", "181427.745000", "181428.205000", "181428.665000", "181429.125000", "181429.585000", "181430.045000", "181430.505000", "181430.965000", "181431.425000", "181431.885000", "181432.345000", "181432.805000", "181433.265000", "181433.725000", "181434.185000", "181434.645000", "181435.105000", "181435.565000", "181436.025000", "181436.485000", "181436.945000", "181437.405000", "181437.865000", "181438.325000", "181438.785000", "181439.245000", "181439.705000", "181440.165000", "181440.625000", "181441.085000", "181441.545000", "181442.005000", "181442.465000", "181442.925000", "181443.385000", "181443.845000", "181444.305000", "181444.765000", "181445.225000", "181445.685000", "181446.145000", "181446.605000", "181447.065000", "181447.525000", "181447.985000", "181448.445000", "181448.905000", "181449.365000", "181449.825000", "181450.285000", "181450.745000", "181451.205000", "181451.665000", "181452.125000", "181452.585000", "181453.045000", "181453.505000", "181453.965000", "181454.425000", "181454.885000", "181455.345000", "181455.805000", "181456.265000", "181456.725000", "181457.185000", "181457.645000", "181458.105000", "181458.565000", "181459.025000", "181459.485000", "181459.945000", "181500.405000", "181500.865000", "181501.325000", "181501.785000", "181502.245000", "181502.705000", "181503.165000", "181503.625000", "181504.085000", "181504.545000", "181505.005000", "181505.465000", "181505.925000", "181506.385000", "181506.845000", "181507.305000", "181507.765000", "181508.225000", "181508.685000", "181509.145000", "181509.605000", "181510.065000", "181510.525000", "181510.985000", "181511.445000", "181511.905000", "181512.365000", "181512.825000", "181513.285000", "181513.745000", "181514.205000", "181514.665000", "181515.125000", "181515.585000", "181516.045000", "181516.505000", "181516.965000", "181517.425000", "181517.885000", "181518.345000", "181518.805000", "181519.265000", "181519.725000", "181520.185000", "181520.645000", "181521.105000", "181521.565000", "181522.025000", "181522.485000", "181522.945000", "181523.405000", "181523.865000", "181524.325000", "181524.785000", "181525.245000", "181525.705000", "181526.165000", "181526.625000", "181527.085000", "181527.545000", "181528.005000", "181528.465000", "181528.925000", "181529.385000", "181529.845000", "181530.305000", "181530.765000", "181531.225000", "181531.685000", "181532.145000", "181532.605000", "181533.065000", "181533.525000", "181533.985000", "181534.445000", "181534.905000", "181535.365000", "181535.825000", "181536.285000", "181536.745000", "181537.205000", "181537.665000", "181538.125000", "181538.585000", "181539.045000", "181539.505000", "181539.965000", "181540.425000", "181540.885000", "181541.345000", "181541.805000", "181542.265000", "181542.725000", "181543.185000", "181543.645000", "181544.105000", "181544.565000", "181545.025000", "181545.485000", "181545.945000", "181546.405000", "181546.865000", "181547.325000", "181547.785000", "181548.245000", "181548.705000", "181549.165000", "181549.625000", "181550.085000", "181550.545000", "181551.005000", "181551.465000", "181551.925000", "181552.385000", "181552.845000", "181553.305000", "181553.765000", "181554.225000", "181554.685000", "181555.145000", "181555.605000", "181556.065000", "181556.525000", "181556.985000", "181557.445000", "181557.905000", "181558.365000", "181558.825000", "181559.285000", "181559.745000", "181600.205000", "181600.665000", "181601.125000", "181601.585000", "181602.045000", "181602.505000", "181602.965000", "181603.425000", "181603.885000", "181604.345000", "181604.805000", "181605.265000", "181605.725000", "181606.185000", "181606.645000", "181607.105000", "181607.565000", "181608.025000", "181608.485000", "181608.945000", "181609.405000", "181609.865000", "181610.325000", "181610.785000", "181611.245000", "181611.705000", "181612.165000", "181612.625000", "181613.085000", "181613.545000", "181614.005000", "181614.465000", "181614.925000", "181615.385000", "181615.845000", "181616.305000", "181616.765000", "181617.225000", "181617.685000", "181618.145000", "181618.605000", "181619.065000", "181619.525000", "181619.985000", "181620.445000", "181620.905000", "181621.365000", "181621.825000", "181622.285000", "181622.745000", "181623.205000", "181623.665000", "181624.125000", "181624.585000", "181625.045000", "181625.505000", "181625.965000", "181626.425000", "181626.885000", "181627.345000", "181627.805000", "181628.265000", "181628.725000", "181629.185000", "181629.645000", "181630.105000", "181630.565000", "181631.025000", "181631.485000", "181631.945000", "181632.405000", "181632.865000", "181633.325000", "181633.785000", "181634.245000", "181634.705000", "181635.165000", "181635.625000", "181636.085000", "181636.545000", "181637.005000", "181637.465000", "181637.925000", "181638.385000", "181638.845000", "181639.305000", "181639.765000", "181640.225000", "181640.685000", "181641.145000", "181641.605000", "181642.065000", "181642.525000", "181642.985000", "181643.445000", "181643.905000", "181644.365000", "181644.825000", "181645.285000", "181645.745000", "181646.205000", "181646.665000", "181647.125000", "181647.585000", "181648.045000", "181648.505000", "181648.965000", "181649.425000", "181649.885000", "181650.345000", "181650.805000", "181651.265000", "181651.725000", "181652.185000", "181652.645000", "181653.105000", "181653.565000", "181654.025000", "181654.485000", "181654.945000", "181655.405000", "181655.865000", "181656.325000", "181656.785000", "181657.245000", "181657.705000", "181658.165000", "181658.625000", "181659.085000", "181659.545000", "181700.005000", "181700.465000", "181700.925000", "181701.385000", "181701.845000", "181702.305000", "181702.765000", "181703.225000", "181703.685000", "181704.145000", "181704.605000", "181705.065000", "181705.525000", "181705.985000", "181706.445000", "181706.905000", "181707.365000", "181707.825000", "181708.285000", "181708.745000", "181709.205000", "181709.665000", "181710.125000", "181710.585000", "181711.045000", "181711.505000", "181711.965000", "181712.425000", "181712.885000", "181713.345000", "181713.805000", "181714.265000", "181714.725000", "181715.185000", "181715.645000", "181716.105000", "181716.565000", "181717.025000", "181717.485000", "181717.945000", "181718.405000", "181718.865000", "181719.325000", "181719.785000", "181720.245000", "181720.705000", "181721.165000", "181721.625000", "181722.085000", "181722.545000", "181723.005000", "181723.465000", "181723.925000", "181724.385000", "181724.845000", "181725.305000", "181725.765000", "181726.225000", "181726.685000", "181727.145000", "181727.605000", "181728.065000", "181728.525000", "181728.985000", "181729.445000", "181729.905000", "181730.365000", "181730.825000", "181731.285000", "181731.745000", "181732.205000", "181732.665000", "181733.125000", "181733.585000", "181734.045000", "181734.505000", "181734.965000", "181735.425000", "181735.885000", "181736.345000", "181736.805000", "181737.265000", "181737.725000", "181738.185000", "181738.645000", "181739.105000", "181739.565000", "181740.025000", "181740.485000", "181740.945000", "181741.405000"],
