{
  "AcquisitionMatrixPE": 82,
  "AcquisitionNumber": 1,
  "AcquisitionTime": "17:53:21.435000",
  "BandwidthPerPixelPhaseEncode": 24.888,
  "BaseResolution": 82,
  "BodyPartExamined": "BRAIN",
  "ConsistencyInfo": "N4_VE11C_LATEST_20160120",
  "ConversionSoftware": "dcm2niix",
  "ConversionSoftwareVersion": "v1.0.20201102",
  "DerivedVendorReportedEchoSpacing": 0.00049,
  "DeviceSerialNumber": "66112",
  "DwellTime": 2e-06,
  "EchoTime": 0.0272,
  "EchoTrainLength": 82,
  "EffectiveEchoSpacing": 0.00049,
  "FlipAngle": 44,
  "ImageComments": "Unaliased MB8/PE3",
  "ImageOrientationPatientDICOM": [0.997974, -0.0601957, 0.0206163, 0.0580671, 0.994092, 0.0917015],
  "ImageType": [
    "ORIGINAL",
    "PRIMARY",
    "M",
    "MB",
    "ND",
    "NORM",
    "MOSAIC"
],
  "ImagingFrequency": 123.252,
  "InPlanePhaseEncodingDirectionDICOM": "COL",
  "InstitutionAddress": "Maynard 3,Hanover,NH,US,03755",
  "InstitutionName": "Dartmouth College - PBS",
  "InstitutionalDepartmentName": "Department",
  "MRAcquisitionType": "2D",
  "MagneticFieldStrength": 3,
  "Manufacturer": "Siemens",
  "ManufacturersModelName": "Prisma",
  "Modality": "MR",
  "MultibandAccelerationFactor": 8,
  "PartialFourier": 1,
  "PatientPosition": "HFS",
  "PercentPhaseFOV": 100,
  "PercentSampling": 100,
  "PhaseEncodingDirection": "j-",
  "PhaseEncodingSteps": 82,
  "PhaseResolution": 1,
  "PixelBandwidth": 3050,
  "ProcedureStepDescription": "Wager_Wager^1076_spacetop",
  "ProtocolName": "func_run-01_task-faces_acq-ap-mb8",
  "PulseSequenceDetails": "%CustomerSeq%\\cmrr_mbep2d_bold",
  "ReceiveCoilActiveElements": "HEA;HEP",
  "ReceiveCoilName": "Head_32",
  "ReconMatrixPE": 82,
  "RepetitionTime": 0.46,
  "SAR": 0.0945567,
  "ScanOptions": "FS",
  "ScanningSequence": "EP",
  "SequenceName": "epfid2d1_82",
  "SequenceVariant": "SK\\SS",
  "SeriesDescription": "func_run-01_task-faces_acq-ap-mb8",
  "SeriesNumber": 18,
  "ShimSetting": [4147, -7784, -7251, 509, -67, -241, -36, 74],
  "SliceThickness": 2.7,
  "SliceTiming": [0, 0.2525, 0.0625, 0.315, 0.125, 0.3775, 0.19, 0, 0.2525, 0.0625, 0.315, 0.125, 0.3775, 0.19, 0, 0.2525, 0.0625, 0.315, 0.125, 0.3775, 0.19, 0, 0.2525, 0.0625, 0.315, 0.125, 0.3775, 0.19, 0, 0.2525, 0.0625, 0.315, 0.125, 0.3775, 0.19, 0, 0.2525, 0.0625, 0.315, 0.125, 0.3775, 0.19, 0, 0.2525, 0.0625, 0.315, 0.125, 0.3775, 0.19, 0, 0.2525, 0.0625, 0.315, 0.125, 0.3775, 0.19],
  "SoftwareVersions": "syngo MR E11",
  "SpacingBetweenSlices": 2.7,
  "StationName": "AWP66112",
  "TaskName": "faces",
  "TotalReadoutTime": 0.03969,
  "TxRefAmp": 243.766,
  "WipMemBlock": "3aa815b2-04c2-4ef9-abe2-66029ba8aa65||Sequence: R016 ve11c/master r/e634e98; Dec 19 2017 11:00:25 by eja",
  "dcmmeta_affine": [
    [-2.677490472793579, 0.15578989684581757, 0.07023927569389343, 105.69416046142578],
    [0.16150055825710297, 2.667076349258423, 0.2438601404428482, -103.3736801147461],
    [0.05531206354498863, -0.24602846801280975, 2.688047409057617, -54.154659271240234],
    [0.0, 0.0, 0.0, 1.0]
],
  "dcmmeta_reorient_transform": [
    [0.0, -1.0, 0.0, 81.0],
    [1.0, 0.0, 0.0, 0.0],
    [0.0, 0.0, 1.0, 0.0],
    [0.0, 0.0, 0.0, 1.0]
],
  "dcmmeta_shape": [82, 82, 56, 914],
  "dcmmeta_slice_dim": 2,
  "dcmmeta_version": 0.6,
  "global": {
    "const": {
      "AccessionNumber": "A003828",
      "AcquisitionMatrix": [82, 0, 0, 82],
      "AngioFlag": "N",
      "BitsAllocated": 16,
      "BitsStored": 16,
      "BodyPartExamined": "BRAIN",
      "Columns": 656,
      "EchoNumbers": 1,
      "EchoTime": 27.2,
      "EchoTrainLength": 82,
      "FlipAngle": 44.0,
      "HighBit": 15,
      "ImageOrientationPatient": [0.99797367200966, -0.060195660669, 0.0206163142241, 0.05806714452379, 0.99409206730941, 0.09170151819553],
      "ImagePositionPatient": [-931.46459039859, -831.7597522892, -160.56769934136],
      "ImageType": [
        "ORIGINAL",
        "PRIMARY",
        "M",
        "MB",
        "ND",
        "NORM",
        "MOSAIC"
],
      "ImagedNucleus": "1H",
      "ImagingFrequency": 123.252204,
      "InPlanePhaseEncodingDirection": "COL",
      "MRAcquisitionType": "2D",
      "MagneticFieldStrength": 3.0,
      "Manufacturer": "SIEMENS",
      "ManufacturerModelName": "Prisma",
      "Modality": "MR",
      "NumberOfAverages": 1.0,
      "NumberOfPhaseEncodingSteps": 82,
      "PercentPhaseFieldOfView": 100.0,
      "PercentSampling": 100.0,
      "PerformedProcedureStepStartTime": "170552.492000",
      "PhotometricInterpretation": "MONOCHROME2",
      "PixelBandwidth": 3050.0,
      "PixelRepresentation": 0,
      "PixelSpacing": [2.6829268932343, 2.6829268932343],
      "ProtocolName": "func_run-01_task-faces_acq-ap-mb8",
      "RepetitionTime": 460.0,
      "Rows": 656,
      "SAR": 0.09455668521743,
      "SamplesPerPixel": 1,
      "ScanOptions": "FS",
      "ScanningSequence": "EP",
      "SequenceName": "epfid2d1_82",
      "SequenceVariant": [
        "SK",
        "SS"
],
      "SeriesDescription": "func_run-01_task-faces_acq-ap-mb8",
      "SeriesNumber": 18,
      "SeriesTime": "175341.293000",
      "SliceLocation": -60.501900429899,
      "SliceThickness": 2.7000000476837,
      "SmallestImagePixelValue": 0,
      "SoftwareVersions": "syngo MR E11",
      "SpacingBetweenSlices": 2.7000000017941,
      "SpecificCharacterSet": "ISO_IR 100",
      "StudyID": "1",
      "StudyTime": "170552.425000",
      "TransmitCoilName": "Body",
      "VariableFlipAngleFlag": "N",
      "WindowCenterWidthExplanation": "Algo1",
      "dBdt": 0.0},
    "slices": {}
  },
  "time": {
    "samples": {
      "AcquisitionNumber": [1, 2, 3, 4, 5, 6, 7, 8, 9, 10, 11, 12, 13, 14, 15, 16, 17, 18, 19, 20, 21, 22, 23, 24, 25, 26, 27, 28, 29, 30, 31, 32, 33, 34, 35, 36, 37, 38, 39, 40, 41, 42, 43, 44, 45, 46, 47, 48, 49, 50, 51, 52, 53, 54, 55, 56, 57, 58, 59, 60, 61, 62, 63, 64, 65, 66, 67, 68, 69, 70, 71, 72, 73, 74, 75, 76, 77, 78, 79, 80, 81, 82, 83, 84, 85, 86, 87, 88, 89, 90, 91, 92, 93, 94, 95, 96, 97, 98, 99, 100, 101, 102, 103, 104, 105, 106, 107, 108, 109, 110, 111, 112, 113, 114, 115, 116, 117, 118, 119, 120, 121, 122, 123, 124, 125, 126, 127, 128, 129, 130, 131, 132, 133, 134, 135, 136, 137, 138, 139, 140, 141, 142, 143, 144, 145, 146, 147, 148, 149, 150, 151, 152, 153, 154, 155, 156, 157, 158, 159, 160, 161, 162, 163, 164, 165, 166, 167, 168, 169, 170, 171, 172, 173, 174, 175, 176, 177, 178, 179, 180, 181, 182, 183, 184, 185, 186, 187, 188, 189, 190, 191, 192, 193, 194, 195, 196, 197, 198, 199, 200, 201, 202, 203, 204, 205, 206, 207, 208, 209, 210, 211, 212, 213, 214, 215, 216, 217, 218, 219, 220, 221, 222, 223, 224, 225, 226, 227, 228, 229, 230, 231, 232, 233, 234, 235, 236, 237, 238, 239, 240, 241, 242, 243, 244, 245, 246, 247, 248, 249, 250, 251, 252, 253, 254, 255, 256, 257, 258, 259, 260, 261, 262, 263, 264, 265, 266, 267, 268, 269, 270, 271, 272, 273, 274, 275, 276, 277, 278, 279, 280, 281, 282, 283, 284, 285, 286, 287, 288, 289, 290, 291, 292, 293, 294, 295, 296, 297, 298, 299, 300, 301, 302, 303, 304, 305, 306, 307, 308, 309, 310, 311, 312, 313, 314, 315, 316, 317, 318, 319, 320, 321, 322, 323, 324, 325, 326, 327, 328, 329, 330, 331, 332, 333, 334, 335, 336, 337, 338, 339, 340, 341, 342, 343, 344, 345, 346, 347, 348, 349, 350, 351, 352, 353, 354, 355, 356, 357, 358, 359, 360, 361, 362, 363, 364, 365, 366, 367, 368, 369, 370, 371, 372, 373, 374, 375, 376, 377, 378, 379, 380, 381, 382, 383, 384, 385, 386, 387, 388, 389, 390, 391, 392, 393, 394, 395, 396, 397, 398, 399, 400, 401, 402, 403, 404, 405, 406, 407, 408, 409, 410, 411, 412, 413, 414, 415, 416, 417, 418, 419, 420, 421, 422, 423, 424, 425, 426, 427, 428, 429, 430, 431, 432, 433, 434, 435, 436, 437, 438, 439, 440, 441, 442, 443, 444, 445, 446, 447, 448, 449, 450, 451, 452, 453, 454, 455, 456, 457, 458, 459, 460, 461, 462, 463, 464, 465, 466, 467, 468, 469, 470, 471, 472, 473, 474, 475, 476, 477, 478, 479, 480, 481, 482, 483, 484, 485, 486, 487, 488, 489, 490, 491, 492, 493, 494, 495, 496, 497, 498, 499, 500, 501, 502, 503, 504, 505, 506, 507, 508, 509, 510, 511, 512, 513, 514, 515, 516, 517, 518, 519, 520, 521, 522, 523, 524, 525, 526, 527, 528, 529, 530, 531, 532, 533, 534, 535, 536, 537, 538, 539, 540, 541, 542, 543, 544, 545, 546, 547, 548, 549, 550, 551, 552, 553, 554, 555, 556, 557, 558, 559, 560, 561, 562, 563, 564, 565, 566, 567, 568, 569, 570, 571, 572, 573, 574, 575, 576, 577, 578, 579, 580, 581, 582, 583, 584, 585, 586, 587, 588, 589, 590, 591, 592, 593, 594, 595, 596, 597, 598, 599, 600, 601, 602, 603, 604, 605, 606, 607, 608, 609, 610, 611, 612, 613, 614, 615, 616, 617, 618, 619, 620, 621, 622, 623, 624, 625, 626, 627, 628, 629, 630, 631, 632, 633, 634, 635, 636, 637, 638, 639, 640, 641, 642, 643, 644, 645, 646, 647, 648, 649, 650, 651, 652, 653, 654, 655, 656, 657, 658, 659, 660, 661, 662, 663, 664, 665, 666, 667, 668, 669, 670, 671, 672, 673, 674, 675, 676, 677, 678, 679, 680, 681, 682, 683, 684, 685, 686, 687, 688, 689, 690, 691, 692, 693, 694, 695, 696, 697, 698, 699, 700, 701, 702, 703, 704, 705, 706, 707, 708, 709, 710, 711, 712, 713, 714, 715, 716, 717, 718, 719, 720, 721, 722, 723, 724, 725, 726, 727, 728, 729, 730, 731, 732, 733, 734, 735, 736, 737, 738, 739, 740, 741, 742, 743, 744, 745, 746, 747, 748, 749, 750, 751, 752, 753, 754, 755, 756, 757, 758, 759, 760, 761, 762, 763, 764, 765, 766, 767, 768, 769, 770, 771, 772, 773, 774, 775, 776, 777, 778, 779, 780, 781, 782, 783, 784, 785, 786, 787, 788, 789, 790, 791, 792, 793, 794, 795, 796, 797, 798, 799, 800, 801, 802, 803, 804, 805, 806, 807, 808, 809, 810, 811, 812, 813, 814, 815, 816, 817, 818, 819, 820, 821, 822, 823, 824, 825, 826, 827, 828, 829, 830, 831, 832, 833, 834, 835, 836, 837, 838, 839, 840, 841, 842, 843, 844, 845, 846, 847, 848, 849, 850, 851, 852, 853, 854, 855, 856, 857, 858, 859, 860, 861, 862, 863, 864, 865, 866, 867, 868, 869, 870, 871, 872, 873, 874, 875, 876, 877, 878, 879, 880, 881, 882, 883, 884, 885, 886, 887, 888, 889, 890, 891, 892, 893, 894, 895, 896, 897, 898, 899, 900, 901, 902, 903, 904, 905, 906, 907, 908, 909, 910, 911, 912, 913, 914],
      "AcquisitionTime": ["175321.435000", "175321.895000", "175322.355000", "175322.815000", "175323.275000", "175323.735000", "175324.195000", "175324.655000", "175325.115000", "175325.575000", "175326.035000", "175326.495000", "175326.955000", "175327.415000", "175327.875000", "175328.335000", "175328.795000", "175329.255000", "175329.715000", "175330.175000", "175330.635000", "175331.095000", "175331.555000", "175332.015000", "175332.475000", "175332.935000", "175333.395000", "175333.855000", "175334.315000", "175334.775000", "175335.235000", "175335.695000", "175336.155000", "175336.615000", "175337.075000", "175337.535000", "175337.995000", "175338.455000", "175338.915000", "175339.375000", "175339.835000", "175340.295000", "175340.755000", "175341.215000", "175341.675000", "175342.135000", "175342.595000", "175343.055000", "175343.515000", "175343.975000", "175344.435000", "175344.895000", "175345.355000", "175345.815000", "175346.275000", "175346.735000", "175347.195000", "175347.655000", "175348.115000", "175348.575000", "175349.035000", "175349.495000", "175349.955000", "175350.415000", "175350.875000", "175351.335000", "175351.795000", "175352.255000", "175352.715000", "175353.175000", "175353.635000", "175354.095000", "175354.555000", "175355.015000", "175355.475000", "175355.935000", "175356.395000", "175356.855000", "175357.315000", "175357.775000", "175358.235000", "175358.695000", "175359.155000", "175359.615000", "175400.075000", "175400.535000", "175400.995000", "175401.455000", "175401.915000", "175402.375000", "175402.835000", "175403.295000", "175403.755000", "175404.215000", "175404.675000", "175405.135000", "175405.595000", "175406.055000", "175406.515000", "175406.975000", "175407.435000", "175407.895000", "175408.355000", "175408.815000", "175409.275000", "175409.735000", "175410.195000", "175410.655000", "175411.115000", "175411.575000", "175412.035000", "175412.495000", "175412.955000", "175413.415000", "175413.875000", "175414.335000", "175414.795000", "175415.255000", "175415.715000", "175416.175000", "175416.635000", "175417.095000", "175417.555000", "175418.015000", "175418.475000", "175418.935000", "175419.395000", "175419.855000", "175420.315000", "175420.775000", "175421.235000", "175421.695000", "175422.155000", "175422.615000", "175423.075000", "175423.535000", "175423.995000", "175424.455000", "175424.915000", "175425.375000", "175425.835000", "175426.295000", "175426.755000", "175427.215000", "175427.675000", "175428.135000", "175428.595000", "175429.055000", "175429.515000", "175429.975000", "175430.435000", "175430.895000", "175431.355000", "175431.815000", "175432.275000", "175432.735000", "175433.195000", "175433.655000", "175434.115000", "175434.575000", "175435.035000", "175435.495000", "175435.955000", "175436.415000", "175436.875000", "175437.335000", "175437.795000", "175438.255000", "175438.715000", "175439.175000", "175439.635000", "175440.095000", "175440.555000", "175441.015000", "175441.475000", "175441.935000", "175442.395000", "175442.855000", "175443.315000", "175443.775000", "175444.235000", "175444.695000", "175445.155000", "175445.615000", "175446.075000", "175446.535000", "175446.995000", "175447.455000", "175447.915000", "175448.375000", "175448.835000", "175449.295000", "175449.755000", "175450.215000", "175450.675000", "175451.135000", "175451.595000", "175452.055000", "175452.515000", "175452.975000", "175453.435000", "175453.895000", "175454.355000", "175454.815000", "175455.275000", "175455.735000", "175456.195000", "175456.655000", "175457.115000", "175457.575000", "175458.035000", "175458.495000", "175458.955000", "175459.415000", "175459.875000", "175500.335000", "175500.795000", "175501.255000", "175501.715000", "175502.175000", "175502.635000", "175503.095000", "175503.555000", "175504.015000", "175504.475000", "175504.935000", "175505.395000", "175505.855000", "175506.315000", "175506.775000", "175507.235000", "175507.695000", "175508.155000", "175508.615000", "175509.075000", "175509.535000", "175509.995000", "175510.455000", "175510.915000", "175511.375000", "175511.835000", "175512.295000", "175512.755000", "175513.215000", "175513.675000", "175514.135000", "175514.595000", "175515.055000", "175515.515000", "175515.975000", "175516.435000", "175516.895000", "175517.355000", "175517.815000", "175518.275000", "175518.735000", "175519.195000", "175519.655000", "175520.115000", "175520.575000", "175521.035000", "175521.495000", "175521.955000", "175522.415000", "175522.875000", "175523.335000", "175523.795000", "175524.255000", "175524.715000", "175525.175000", "175525.635000", "175526.095000", "175526.555000", "175527.015000", "175527.475000", "175527.935000", "175528.395000", "175528.855000", "175529.315000", "175529.775000", "175530.235000", "175530.695000", "175531.155000", "175531.615000", "175532.075000", "175532.535000", "175532.995000", "175533.455000", "175533.915000", "175534.375000", "175534.835000", "175535.295000", "175535.755000", "175536.215000", "175536.675000", "175537.135000", "175537.595000", "175538.055000", "175538.515000", "175538.975000", "175539.435000", "175539.895000", "175540.355000", "175540.815000", "175541.275000", "175541.735000", "175542.195000", "175542.655000", "175543.115000", "175543.575000", "175544.035000", "175544.495000", "175544.955000", "175545.415000", "175545.875000", "175546.335000", "175546.795000", "175547.255000", "175547.715000", "175548.175000", "175548.635000", "175549.095000", "175549.555000", "175550.015000", "175550.475000", "175550.935000", "175551.395000", "175551.855000", "175552.315000", "175552.775000", "175553.235000", "175553.695000", "175554.155000", "175554.615000", "175555.075000", "175555.535000", "175555.995000", "175556.455000", "175556.915000", "175557.375000", "175557.835000", "175558.295000", "175558.755000", "175559.215000", "175559.675000", "175600.135000", "175600.595000", "175601.055000", "175601.515000", "175601.975000", "175602.435000", "175602.895000", "175603.355000", "175603.815000", "175604.275000", "175604.735000", "175605.195000", "175605.655000", "175606.115000", "175606.575000", "175607.035000", "175607.495000", "175607.955000", "175608.415000", "175608.875000", "175609.335000", "175609.795000", "175610.255000", "175610.715000", "175611.175000", "175611.635000", "175612.095000", "175612.555000", "175613.015000", "175613.475000", "175613.935000", "175614.395000", "175614.855000", "175615.315000", "175615.775000", "175616.235000", "175616.695000", "175617.155000", "175617.615000", "175618.075000", "175618.535000", "175618.995000", "175619.455000", "175619.915000", "175620.375000", "175620.835000", "175621.295000", "175621.755000", "175622.215000", "175622.675000", "175623.135000", "175623.595000", "175624.055000", "175624.515000", "175624.975000", "175625.435000", "175625.895000", "175626.355000", "175626.815000", "175627.275000", "175627.735000", "175628.195000", "175628.655000", "175629.115000", "175629.575000", "175630.035000", "175630.495000", "175630.955000", "175631.415000", "175631.875000", "175632.335000", "175632.795000", "175633.255000", "175633.715000", "175634.175000", "175634.635000", "175635.095000", "175635.555000", "175636.015000", "175636.475000", "175636.935000", "175637.395000", "175637.855000", "175638.315000", "175638.775000", "175639.235000", "175639.695000", "175640.155000", "175640.615000", "175641.075000", "175641.535000", "175641.995000", "175642.455000", "175642.915000", "175643.375000", "175643.835000", "175644.295000", "175644.755000", "175645.215000", "175645.675000", "175646.135000", "175646.595000", "175647.055000", "175647.515000", "175647.975000", "175648.435000", "175648.895000", "175649.355000", "175649.815000", "175650.275000", "175650.735000", "175651.195000", "175651.655000", "175652.115000", "175652.575000", "175653.035000", "175653.495000", "175653.955000", "175654.415000", "175654.875000", "175655.335000", "175655.795000", "175656.255000", "175656.715000", "175657.175000", "175657.635000", "175658.095000", "175658.555000", "175659.015000", "175659.475000", "175659.935000", "175700.395000", "175700.855000", "175701.315000", "175701.775000", "175702.235000", "175702.695000", "175703.155000", "175703.615000", "175704.075000", "175704.535000", "175704.995000", "175705.455000", "175705.915000", "175706.375000", "175706.835000", "175707.295000", "175707.755000", "175708.215000", "175708.675000", "175709.135000", "175709.595000", "175710.055000", "175710.515000", "175710.975000", "175711.435000", "175711.895000", "175712.355000", "175712.815000", "175713.275000", "175713.735000", "175714.195000", "175714.655000", "175715.115000", "175715.575000", "175716.035000", "175716.495000", "175716.955000", "175717.415000", "175717.875000", "175718.335000", "175718.795000", "175719.255000", "175719.715000", "175720.175000", "175720.635000", "175721.095000", "175721.555000", "175722.015000", "175722.475000", "175722.935000", "175723.395000", "175723.855000", "175724.315000", "175724.775000", "175725.235000", "175725.695000", "175726.155000", "175726.615000", "175727.075000", "175727.535000", "175727.995000", "175728.455000", "175728.915000", "175729.375000", "175729.835000", "175730.295000", "175730.755000", "175731.215000", "175731.675000", "175732.135000", "175732.595000", "175733.055000", "175733.515000", "175733.975000", "175734.435000", "175734.895000", "175735.355000", "175735.815000", "175736.275000", "175736.735000", "175737.195000", "175737.655000", "175738.115000", "175738.575000", "175739.035000", "175739.495000", "175739.955000", "175740.415000", "175740.875000", "175741.335000", "175741.795000", "175742.255000", "175742.715000", "175743.175000", "175743.635000", "175744.095000", "175744.555000", "175745.015000", "175745.475000", "175745.935000", "175746.395000", "175746.855000", "175747.315000", "175747.775000", "175748.235000", "175748.695000", "175749.155000", "175749.615000", "175750.075000", "175750.535000", "175750.995000", "175751.455000", "175751.915000", "175752.375000", "175752.835000", "175753.295000", "175753.755000", "175754.215000", "175754.675000", "175755.135000", "175755.595000", "175756.055000", "175756.515000", "175756.975000", "175757.435000", "175757.895000", "175758.355000", "175758.815000", "175759.275000", "175759.735000", "175800.195000", "175800.655000", "175801.115000", "175801.575000", "175802.035000", "175802.495000", "175802.955000", "175803.415000", "175803.875000", "175804.335000", "175804.795000", "175805.255000", "175805.715000", "175806.175000", "175806.635000", "175807.095000", "175807.555000", "175808.015000", "175808.475000", "175808.935000", "175809.395000", "175809.855000", "175810.315000", "175810.775000", "175811.235000", "175811.695000", "175812.155000", "175812.615000", "175813.075000", "175813.535000", "175813.995000", "175814.455000", "175814.915000", "175815.375000", "175815.835000", "175816.295000", "175816.755000", "175817.215000", "175817.675000", "175818.135000", "175818.595000", "175819.055000", "175819.515000", "175819.975000", "175820.435000", "175820.895000", "175821.355000", "175821.815000", "175822.275000", "175822.735000", "175823.195000", "175823.655000", "175824.115000", "175824.575000", "175825.035000", "175825.495000", "175825.955000", "175826.415000", "175826.875000", "175827.335000", "175827.795000", "175828.255000", "175828.715000", "175829.175000", "175829.635000", "175830.095000", "175830.555000", "175831.015000", "175831.475000", "175831.935000", "175832.395000", "175832.855000", "175833.315000", "175833.775000", "175834.235000", "175834.695000", "175835.155000", "175835.615000", "175836.075000", "175836.535000", "175836.995000", "175837.455000", "175837.915000", "175838.375000", "175838.835000", "175839.295000", "175839.755000", "175840.215000", "175840.675000", "175841.135000", "175841.595000", "175842.055000", "175842.515000", "175842.975000", "175843.435000", "175843.895000", "175844.355000", "175844.815000", "175845.275000", "175845.735000", "175846.195000", "175846.655000", "175847.115000", "175847.575000", "175848.035000", "175848.495000", "175848.955000", "175849.415000", "175849.875000", "175850.335000", "175850.795000", "175851.255000", "175851.715000", "175852.175000", "175852.635000", "175853.095000", "175853.555000", "175854.015000", "175854.475000", "175854.935000", "175855.395000", "175855.855000", "175856.315000", "175856.775000", "175857.235000", "175857.695000", "175858.155000", "175858.615000", "175859.075000", "175859.535000", "175859.995000", "175900.455000", "175900.915000", "175901.375000", "175901.835000", "175902.295000", "175902.755000", "175903.215000", "175903.675000", "175904.135000", "175904.595000", "175905.055000", "175905.515000", "175905.975000", "175906.435000", "175906.895000", "175907.355000", "175907.815000", "175908.275000", "175908.735000", "175909.195000", "175909.655000", "175910.115000", "175910.575000", "175911.035000", "175911.495000", "175911.955000", "175912.415000", "175912.875000", "175913.335000", "175913.795000", "175914.255000", "175914.715000", "175915.175000", "175915.635000", "175916.095000", "175916.555000", "175917.015000", "175917.475000", "175917.935000", "175918.395000", "175918.855000", "175919.315000", "175919.775000", "175920.235000", "175920.695000", "175921.155000", "175921.615000", "175922.075000", "175922.535000", "175922.995000", "175923.455000", "175923.915000", "175924.375000", "175924.835000", "175925.295000", "175925.755000", "175926.215000", "175926.675000", "175927.135000", "175927.595000", "175928.055000", "175928.515000", "175928.975000", "175929.435000", "175929.895000", "175930.355000", "175930.815000", "175931.275000", "175931.735000", "175932.195000", "175932.655000", "175933.115000", "175933.575000", "175934.035000", "175934.495000", "175934.955000", "175935.415000", "175935.875000", "175936.335000", "175936.795000", "175937.255000", "175937.715000", "175938.175000", "175938.635000", "175939.095000", "175939.555000", "175940.015000", "175940.475000", "175940.935000", "175941.395000", "175941.855000", "175942.315000", "175942.775000", "175943.235000", "175943.695000", "175944.155000", "175944.615000", "175945.075000", "175945.535000", "175945.995000", "175946.455000", "175946.915000", "175947.375000", "175947.835000", "175948.295000", "175948.755000", "175949.215000", "175949.675000", "175950.135000", "175950.595000", "175951.055000", "175951.515000", "175951.975000", "175952.435000", "175952.895000", "175953.355000", "175953.815000", "175954.275000", "175954.735000", "175955.195000", "175955.655000", "175956.115000", "175956.575000", "175957.035000", "175957.495000", "175957.955000", "175958.415000", "175958.875000", "175959.335000", "175959.795000", "180000.255000", "180000.715000", "180001.175000", "180001.635000", "180002.095000", "180002.555000", "180003.015000", "180003.475000", "180003.935000", "180004.395000", "180004.855000", "180005.315000", "180005.775000", "180006.235000", "180006.695000", "180007.155000", "180007.615000", "180008.075000", "180008.535000", "180008.995000", "180009.455000", "180009.915000", "180010.375000", "180010.835000", "180011.295000", "180011.755000", "180012.215000", "180012.675000", "180013.135000", "180013.595000", "180014.055000", "180014.515000", "180014.975000", "180015.435000", "180015.895000", "180016.355000", "180016.815000", "180017.275000", "180017.735000", "180018.195000", "180018.655000", "180019.115000", "180019.575000", "180020.035000", "180020.495000", "180020.955000", "180021.415000"],
