{
  "AcquisitionMatrixPE": 82,
  "AcquisitionNumber": 1,
  "AcquisitionTime": "18:20:38.170000",
  "BandwidthPerPixelPhaseEncode": 24.888,
  "BaseResolution": 82,
  "BodyPartExamined": "BRAIN",
  "ConsistencyInfo": "N4_VE11C_LATEST_20160120",
  "ConversionSoftware": "dcm2niix",
  "ConversionSoftwareVersion": "v1.0.20201102",
  "DerivedVendorReportedEchoSpacing": 0.00049,
  "DeviceSerialNumber": "66112",
  "DwellTime": 2e-06,
  "EchoTime": 0.0272,
  "EchoTrainLength": 82,
  "EffectiveEchoSpacing": 0.00049,
  "FlipAngle": 44,
  "ImageComments": "Unaliased MB8/PE3",
  "ImageOrientationPatientDICOM": [0.996956, -0.0779004, 0.00310894, 0.0772368, 0.992319, 0.09663],
  "ImageType": [
    "ORIGINAL",
    "PRIMARY",
    "M",
    "MB",
    "ND",
    "NORM",
    "MOSAIC"
],
  "ImagingFrequency": 123.252,
  "InPlanePhaseEncodingDirectionDICOM": "COL",
  "InstitutionAddress": "Maynard 3,Hanover,NH,US,03755",
  "InstitutionName": "Dartmouth College - PBS",
  "InstitutionalDepartmentName": "Department",
  "MRAcquisitionType": "2D",
  "MagneticFieldStrength": 3,
  "Manufacturer": "Siemens",
  "ManufacturersModelName": "Prisma",
  "Modality": "MR",
  "MultibandAccelerationFactor": 8,
  "PartialFourier": 1,
  "PatientPosition": "HFS",
  "PercentPhaseFOV": 100,
  "PercentSampling": 100,
  "PhaseEncodingDirection": "j-",
  "PhaseEncodingSteps": 82,
  "PhaseResolution": 1,
  "PixelBandwidth": 3050,
  "ProcedureStepDescription": "Wager_Wager^1076_spacetop",
  "ProtocolName": "func_run-01_task-alignvideo_acq-ap-mb8",
  "PulseSequenceDetails": "%CustomerSeq%\\cmrr_mbep2d_bold",
  "ReceiveCoilActiveElements": "HEA;HEP",
  "ReceiveCoilName": "Head_32",
  "ReconMatrixPE": 82,
  "RepetitionTime": 0.46,
  "SAR": 0.0945066,
  "ScanOptions": "FS",
  "ScanningSequence": "EP",
  "SequenceName": "epfid2d1_82",
  "SequenceVariant": "SK\\SS",
  "SeriesDescription": "func_run-01_task-alignvideo_acq-ap-mb8",
  "SeriesNumber": 32,
  "ShimSetting": [4148, -7788, -7250, 524, -65, -254, -38, 71],
  "SliceThickness": 2.7,
  "SliceTiming": [0, 0.2525, 0.0625, 0.315, 0.125, 0.3775, 0.19, 0, 0.2525, 0.0625, 0.315, 0.125, 0.3775, 0.19, 0, 0.2525, 0.0625, 0.315, 0.125, 0.3775, 0.19, 0, 0.2525, 0.0625, 0.315, 0.125, 0.3775, 0.19, 0, 0.2525, 0.0625, 0.315, 0.125, 0.3775, 0.19, 0, 0.2525, 0.0625, 0.315, 0.125, 0.3775, 0.19, 0, 0.2525, 0.0625, 0.315, 0.125, 0.3775, 0.19, 0, 0.2525, 0.0625, 0.315, 0.125, 0.3775, 0.19],
  "SoftwareVersions": "syngo MR E11",
  "SpacingBetweenSlices": 2.7,
  "StationName": "AWP66112",
  "TaskName": "alignvideo",
  "TotalReadoutTime": 0.03969,
  "TxRefAmp": 243.766,
  "WipMemBlock": "0c54840e-6d1d-4720-8723-c86d0d87021c||Sequence: R016 ve11c/master r/e634e98; Dec 19 2017 11:00:25 by eja",
  "dcmmeta_affine": [
    [-2.6747608184814453, 0.20722061395645142, 0.028653951361775398, 104.49422454833984],
    [0.20900121331214905, 2.6623194217681885, 0.25945845246315, -107.08548736572266],
    [0.008341050706803799, -0.25925111770629883, 2.687351942062378, -56.24384307861328],
    [0.0, 0.0, 0.0, 1.0]
],
  "dcmmeta_reorient_transform": [
    [0.0, -1.0, 0.0, 81.0],
    [1.0, 0.0, 0.0, 0.0],
    [0.0, 0.0, 1.0, 0.0],
    [0.0, 0.0, 0.0, 1.0]
],
  "dcmmeta_shape": [82, 82, 56, 839],
  "dcmmeta_slice_dim": 2,
  "dcmmeta_version": 0.6,
  "global": {
    "const": {
      "AccessionNumber": "A003828",
      "AcquisitionMatrix": [82, 0, 0, 82],
      "AngioFlag": "N",
      "BitsAllocated": 16,
      "BitsStored": 16,
      "BodyPartExamined": "BRAIN",
      "Columns": 656,
      "EchoNumbers": 1,
      "EchoTime": 27.2,
      "EchoTrainLength": 82,
      "FlipAngle": 44.0,
      "HighBit": 15,
      "ImageOrientationPatient": [0.99695629524607, -0.0779004485252, 0.00310893692571, 0.07723676998681, 0.99231906825387, 0.09662995468167],
      "ImagePositionPatient": [-948.40777191498, -812.6647486551, -154.0421306988],
      "ImageType": [
        "ORIGINAL",
        "PRIMARY",
        "M",
        "MB",
        "ND",
        "NORM",
        "MOSAIC"
],
      "ImagedNucleus": "1H",
      "ImagingFrequency": 123.25221,
      "InPlanePhaseEncodingDirection": "COL",
      "MRAcquisitionType": "2D",
      "MagneticFieldStrength": 3.0,
      "Manufacturer": "SIEMENS",
      "ManufacturerModelName": "Prisma",
      "Modality": "MR",
      "NumberOfAverages": 1.0,
      "NumberOfPhaseEncodingSteps": 82,
      "PercentPhaseFieldOfView": 100.0,
      "PercentSampling": 100.0,
      "PerformedProcedureStepStartTime": "170552.492000",
      "PhotometricInterpretation": "MONOCHROME2",
      "PixelBandwidth": 3050.0,
      "PixelRepresentation": 0,
      "PixelSpacing": [2.6829268932343, 2.6829268932343],
      "ProtocolName": "func_run-01_task-alignvideo_acq-ap-mb8",
      "RepetitionTime": 460.0,
      "Rows": 656,
      "SAR": 0.09450664362397,
      "SamplesPerPixel": 1,
      "ScanOptions": "FS",
      "ScanningSequence": "EP",
      "SequenceName": "epfid2d1_82",
      "SequenceVariant": [
        "SK",
        "SS"
],
      "SeriesDescription": "func_run-01_task-alignvideo_acq-ap-mb8",
      "SeriesNumber": 32,
      "SeriesTime": "182101.364000",
      "SliceLocation": -65.161873705399,
      "SliceThickness": 2.7000000476837,
      "SmallestImagePixelValue": 0,
      "SoftwareVersions": "syngo MR E11",
      "SpacingBetweenSlices": 2.7000000810044,
      "SpecificCharacterSet": "ISO_IR 100",
      "StudyID": "1",
      "StudyTime": "170552.425000",
      "TransmitCoilName": "Body",
      "VariableFlipAngleFlag": "N",
      "WindowCenterWidthExplanation": "Algo1",
      "dBdt": 0.0},
    "slices": {}
  },
  "time": {
    "samples": {
      "AcquisitionNumber": [1, 2, 3, 4, 5, 6, 7, 8, 9, 10, 11, 12, 13, 14, 15, 16, 17, 18, 19, 20, 21, 22, 23, 24, 25, 26, 27, 28, 29, 30, 31, 32, 33, 34, 35, 36, 37, 38, 39, 40, 41, 42, 43, 44, 45, 46, 47, 48, 49, 50, 51, 52, 53, 54, 55, 56, 57, 58, 59, 60, 61, 62, 63, 64, 65, 66, 67, 68, 69, 70, 71, 72, 73, 74, 75, 76, 77, 78, 79, 80, 81, 82, 83, 84, 85, 86, 87, 88, 89, 90, 91, 92, 93, 94, 95, 96, 97, 98, 99, 100, 101, 102, 103, 104, 105, 106, 107, 108, 109, 110, 111, 112, 113, 114, 115, 116, 117, 118, 119, 120, 121, 122, 123, 124, 125, 126, 127, 128, 129, 130, 131, 132, 133, 134, 135, 136, 137, 138, 139, 140, 141, 142, 143, 144, 145, 146, 147, 148, 149, 150, 151, 152, 153, 154, 155, 156, 157, 158, 159, 160, 161, 162, 163, 164, 165, 166, 167, 168, 169, 170, 171, 172, 173, 174, 175, 176, 177, 178, 179, 180, 181, 182, 183, 184, 185, 186, 187, 188, 189, 190, 191, 192, 193, 194, 195, 196, 197, 198, 199, 200, 201, 202, 203, 204, 205, 206, 207, 208, 209, 210, 211, 212, 213, 214, 215, 216, 217, 218, 219, 220, 221, 222, 223, 224, 225, 226, 227, 228, 229, 230, 231, 232, 233, 234, 235, 236, 237, 238, 239, 240, 241, 242, 243, 244, 245, 246, 247, 248, 249, 250, 251, 252, 253, 254, 255, 256, 257, 258, 259, 260, 261, 262, 263, 264, 265, 266, 267, 268, 269, 270, 271, 272, 273, 274, 275, 276, 277, 278, 279, 280, 281, 282, 283, 284, 285, 286, 287, 288, 289, 290, 291, 292, 293, 294, 295, 296, 297, 298, 299, 300, 301, 302, 303, 304, 305, 306, 307, 308, 309, 310, 311, 312, 313, 314, 315, 316, 317, 318, 319, 320, 321, 322, 323, 324, 325, 326, 327, 328, 329, 330, 331, 332, 333, 334, 335, 336, 337, 338, 339, 340, 341, 342, 343, 344, 345, 346, 347, 348, 349, 350, 351, 352, 353, 354, 355, 356, 357, 358, 359, 360, 361, 362, 363, 364, 365, 366, 367, 368, 369, 370, 371, 372, 373, 374, 375, 376, 377, 378, 379, 380, 381, 382, 383, 384, 385, 386, 387, 388, 389, 390, 391, 392, 393, 394, 395, 396, 397, 398, 399, 400, 401, 402, 403, 404, 405, 406, 407, 408, 409, 410, 411, 412, 413, 414, 415, 416, 417, 418, 419, 420, 421, 422, 423, 424, 425, 426, 427, 428, 429, 430, 431, 432, 433, 434, 435, 436, 437, 438, 439, 440, 441, 442, 443, 444, 445, 446, 447, 448, 449, 450, 451, 452, 453, 454, 455, 456, 457, 458, 459, 460, 461, 462, 463, 464, 465, 466, 467, 468, 469, 470, 471, 472, 473, 474, 475, 476, 477, 478, 479, 480, 481, 482, 483, 484, 485, 486, 487, 488, 489, 490, 491, 492, 493, 494, 495, 496, 497, 498, 499, 500, 501, 502, 503, 504, 505, 506, 507, 508, 509, 510, 511, 512, 513, 514, 515, 516, 517, 518, 519, 520, 521, 522, 523, 524, 525, 526, 527, 528, 529, 530, 531, 532, 533, 534, 535, 536, 537, 538, 539, 540, 541, 542, 543, 544, 545, 546, 547, 548, 549, 550, 551, 552, 553, 554, 555, 556, 557, 558, 559, 560, 561, 562, 563, 564, 565, 566, 567, 568, 569, 570, 571, 572, 573, 574, 575, 576, 577, 578, 579, 580, 581, 582, 583, 584, 585, 586, 587, 588, 589, 590, 591, 592, 593, 594, 595, 596, 597, 598, 599, 600, 601, 602, 603, 604, 605, 606, 607, 608, 609, 610, 611, 612, 613, 614, 615, 616, 617, 618, 619, 620, 621, 622, 623, 624, 625, 626, 627, 628, 629, 630, 631, 632, 633, 634, 635, 636, 637, 638, 639, 640, 641, 642, 643, 644, 645, 646, 647, 648, 649, 650, 651, 652, 653, 654, 655, 656, 657, 658, 659, 660, 661, 662, 663, 664, 665, 666, 667, 668, 669, 670, 671, 672, 673, 674, 675, 676, 677, 678, 679, 680, 681, 682, 683, 684, 685, 686, 687, 688, 689, 690, 691, 692, 693, 694, 695, 696, 697, 698, 699, 700, 701, 702, 703, 704, 705, 706, 707, 708, 709, 710, 711, 712, 713, 714, 715, 716, 717, 718, 719, 720, 721, 722, 723, 724, 725, 726, 727, 728, 729, 730, 731, 732, 733, 734, 735, 736, 737, 738, 739, 740, 741, 742, 743, 744, 745, 746, 747, 748, 749, 750, 751, 752, 753, 754, 755, 756, 757, 758, 759, 760, 761, 762, 763, 764, 765, 766, 767, 768, 769, 770, 771, 772, 773, 774, 775, 776, 777, 778, 779, 780, 781, 782, 783, 784, 785, 786, 787, 788, 789, 790, 791, 792, 793, 794, 795, 796, 797, 798, 799, 800, 801, 802, 803, 804, 805, 806, 807, 808, 809, 810, 811, 812, 813, 814, 815, 816, 817, 818, 819, 820, 821, 822, 823, 824, 825, 826, 827, 828, 829, 830, 831, 832, 833, 834, 835, 836, 837, 838, 839],
      "AcquisitionTime": ["182038.170000", "182038.630000", "182039.090000", "182039.550000", "182040.010000", "182040.470000", "182040.930000", "182041.390000", "182041.850000", "182042.310000", "182042.770000", "182043.230000", "182043.690000", "182044.150000", "182044.610000", "182045.070000", "182045.530000", "182045.990000", "182046.450000", "182046.910000", "182047.370000", "182047.830000", "182048.290000", "182048.750000", "182049.210000", "182049.670000", "182050.130000", "182050.590000", "182051.050000", "182051.510000", "182051.970000", "182052.430000", "182052.890000", "182053.350000", "182053.810000", "182054.270000", "182054.730000", "182055.190000", "182055.650000", "182056.110000", "182056.570000", "182057.030000", "182057.490000", "182057.950000", "182058.410000", "182058.870000", "182059.330000", "182059.790000", "182100.250000", "182100.710000", "182101.170000", "182101.630000", "182102.090000", "182102.550000", "182103.010000", "182103.470000", "182103.930000", "182104.390000", "182104.850000", "182105.310000", "182105.770000", "182106.230000", "182106.690000", "182107.150000", "182107.610000", "182108.070000", "182108.530000", "182108.990000", "182109.450000", "182109.910000", "182110.370000", "182110.830000", "182111.290000", "182111.750000", "182112.210000", "182112.670000", "182113.130000", "182113.590000", "182114.050000", "182114.510000", "182114.970000", "182115.430000", "182115.890000", "182116.350000", "182116.810000", "182117.270000", "182117.730000", "182118.190000", "182118.650000", "182119.110000", "182119.570000", "182120.030000", "182120.490000", "182120.950000", "182121.410000", "182121.870000", "182122.330000", "182122.790000", "182123.250000", "182123.710000", "182124.170000", "182124.630000", "182125.090000", "182125.550000", "182126.010000", "182126.470000", "182126.930000", "182127.390000", "182127.850000", "182128.310000", "182128.770000", "182129.230000", "182129.690000", "182130.150000", "182130.610000", "182131.070000", "182131.530000", "182131.990000", "182132.450000", "182132.910000", "182133.370000", "182133.830000", "182134.290000", "182134.750000", "182135.210000", "182135.670000", "182136.130000", "182136.590000", "182137.050000", "182137.510000", "182137.970000", "182138.430000", "182138.890000", "182139.350000", "182139.810000", "182140.270000", "182140.730000", "182141.190000", "182141.650000", "182142.110000", "182142.570000", "182143.030000", "182143.490000", "182143.950000", "182144.410000", "182144.870000", "182145.330000", "182145.790000", "182146.250000", "182146.710000", "182147.170000", "182147.630000", "182148.090000", "182148.550000", "182149.010000", "182149.470000", "182149.930000", "182150.390000", "182150.850000", "182151.310000", "182151.770000", "182152.230000", "182152.690000", "182153.150000", "182153.610000", "182154.070000", "182154.530000", "182154.990000", "182155.450000", "182155.910000", "182156.370000", "182156.830000", "182157.290000", "182157.750000", "182158.210000", "182158.670000", "182159.130000", "182159.590000", "182200.050000", "182200.510000", "182200.970000", "182201.430000", "182201.890000", "182202.350000", "182202.810000", "182203.270000", "182203.730000", "182204.190000", "182204.650000", "182205.110000", "182205.570000", "182206.030000", "182206.490000", "182206.950000", "182207.410000", "182207.870000", "182208.330000", "182208.790000", "182209.250000", "182209.710000", "182210.170000", "182210.630000", "182211.090000", "182211.550000", "182212.010000", "182212.470000", "182212.930000", "182213.390000", "182213.850000", "182214.310000", "182214.770000", "182215.230000", "182215.690000", "182216.150000", "182216.610000", "182217.070000", "182217.530000", "182217.990000", "182218.450000", "182218.910000", "182219.370000", "182219.830000", "182220.290000", "182220.750000", "182221.210000", "182221.670000", "182222.130000", "182222.590000", "182223.050000", "182223.510000", "182223.970000", "182224.430000", "182224.890000", "182225.350000", "182225.810000", "182226.270000", "182226.730000", "182227.190000", "182227.650000", "182228.110000", "182228.570000", "182229.030000", "182229.490000", "182229.950000", "182230.410000", "182230.870000", "182231.330000", "182231.790000", "182232.250000", "182232.710000", "182233.170000", "182233.630000", "182234.090000", "182234.550000", "182235.010000", "182235.470000", "182235.930000", "182236.390000", "182236.850000", "182237.310000", "182237.770000", "182238.230000", "182238.690000", "182239.150000", "182239.610000", "182240.070000", "182240.530000", "182240.990000", "182241.450000", "182241.910000", "182242.370000", "182242.830000", "182243.290000", "182243.750000", "182244.210000", "182244.670000", "182245.130000", "182245.590000", "182246.050000", "182246.510000", "182246.970000", "182247.430000", "182247.890000", "182248.350000", "182248.810000", "182249.270000", "182249.730000", "182250.190000", "182250.650000", "182251.110000", "182251.570000", "182252.030000", "182252.490000", "182252.950000", "182253.410000", "182253.870000", "182254.330000", "182254.790000", "182255.250000", "182255.710000", "182256.170000", "182256.630000", "182257.090000", "182257.550000", "182258.010000", "182258.470000", "182258.930000", "182259.390000", "182259.850000", "182300.310000", "182300.770000", "182301.230000", "182301.690000", "182302.150000", "182302.610000", "182303.070000", "182303.530000", "182303.990000", "182304.450000", "182304.910000", "182305.370000", "182305.830000", "182306.290000", "182306.750000", "182307.210000", "182307.670000", "182308.130000", "182308.590000", "182309.050000", "182309.510000", "182309.970000", "182310.430000", "182310.890000", "182311.350000", "182311.810000", "182312.270000", "182312.730000", "182313.190000", "182313.650000", "182314.110000", "182314.570000", "182315.030000", "182315.490000", "182315.950000", "182316.410000", "182316.870000", "182317.330000", "182317.790000", "182318.250000", "182318.710000", "182319.170000", "182319.630000", "182320.090000", "182320.550000", "182321.010000", "182321.470000", "182321.930000", "182322.390000", "182322.850000", "182323.310000", "182323.770000", "182324.230000", "182324.690000", "182325.150000", "182325.610000", "182326.070000", "182326.530000", "182326.990000", "182327.450000", "182327.910000", "182328.370000", "182328.830000", "182329.290000", "182329.750000", "182330.210000", "182330.670000", "182331.130000", "182331.590000", "182332.050000", "182332.510000", "182332.970000", "182333.430000", "182333.890000", "182334.350000", "182334.810000", "182335.270000", "182335.730000", "182336.190000", "182336.650000", "182337.110000", "182337.570000", "182338.030000", "182338.490000", "182338.950000", "182339.410000", "182339.870000", "182340.330000", "182340.790000", "182341.250000", "182341.710000", "182342.170000", "182342.630000", "182343.090000", "182343.550000", "182344.010000", "182344.470000", "182344.930000", "182345.390000", "182345.850000", "182346.310000", "182346.770000", "182347.230000", "182347.690000", "182348.150000", "182348.610000", "182349.070000", "182349.530000", "182349.990000", "182350.450000", "182350.910000", "182351.370000", "182351.830000", "182352.290000", "182352.750000", "182353.210000", "182353.670000", "182354.130000", "182354.590000", "182355.050000", "182355.510000", "182355.970000", "182356.430000", "182356.890000", "182357.350000", "182357.810000", "182358.270000", "182358.730000", "182359.190000", "182359.650000", "182400.110000", "182400.570000", "182401.030000", "182401.490000", "182401.950000", "182402.410000", "182402.870000", "182403.330000", "182403.790000", "182404.250000", "182404.710000", "182405.170000", "182405.630000", "182406.090000", "182406.550000", "182407.010000", "182407.470000", "182407.930000", "182408.390000", "182408.850000", "182409.310000", "182409.770000", "182410.230000", "182410.690000", "182411.150000", "182411.610000", "182412.070000", "182412.530000", "182412.990000", "182413.450000", "182413.910000", "182414.370000", "182414.830000", "182415.290000", "182415.750000", "182416.210000", "182416.670000", "182417.130000", "182417.590000", "182418.050000", "182418.510000", "182418.970000", "182419.430000", "182419.890000", "182420.350000", "182420.810000", "182421.270000", "182421.730000", "182422.190000", "182422.650000", "182423.110000", "182423.570000", "182424.030000", "182424.490000", "182424.950000", "182425.410000", "182425.870000", "182426.330000", "182426.790000", "182427.250000", "182427.710000", "182428.170000", "182428.630000", "182429.090000", "182429.550000", "182430.010000", "182430.470000", "182430.930000", "182431.390000", "182431.850000", "182432.310000", "182432.770000", "182433.230000", "182433.690000", "182434.150000", "182434.610000", "182435.070000", "182435.530000", "182435.990000", "182436.450000", "182436.910000", "182437.370000", "182437.830000", "182438.290000", "182438.750000", "182439.210000", "182439.670000", "182440.130000", "182440.590000", "182441.050000", "182441.510000", "182441.970000", "182442.430000", "182442.890000", "182443.350000", "182443.810000", "182444.270000", "182444.730000", "182445.190000", "182445.650000", "182446.110000", "182446.570000", "182447.030000", "182447.490000", "182447.950000", "182448.410000", "182448.870000", "182449.330000", "182449.790000", "182450.250000", "182450.710000", "182451.170000", "182451.630000", "182452.090000", "182452.550000", "182453.010000", "182453.470000", "182453.930000", "182454.390000", "182454.850000", "182455.310000", "182455.770000", "182456.230000", "182456.690000", "182457.150000", "182457.610000", "182458.070000", "182458.530000", "182458.990000", "182459.450000", "182459.910000", "182500.370000", "182500.830000", "182501.290000", "182501.750000", "182502.210000", "182502.670000", "182503.130000", "182503.590000", "182504.050000", "182504.510000", "182504.970000", "182505.430000", "182505.890000", "182506.350000", "182506.810000", "182507.270000", "182507.730000", "182508.190000", "182508.650000", "182509.110000", "182509.570000", "182510.030000", "182510.490000", "182510.950000", "182511.410000", "182511.870000", "182512.330000", "182512.790000", "182513.250000", "182513.710000", "182514.170000", "182514.630000", "182515.090000", "182515.550000", "182516.010000", "182516.470000", "182516.930000", "182517.390000", "182517.850000", "182518.310000", "182518.770000", "182519.230000", "182519.690000", "182520.150000", "182520.610000", "182521.070000", "182521.530000", "182521.990000", "182522.450000", "182522.910000", "182523.370000", "182523.830000", "182524.290000", "182524.750000", "182525.210000", "182525.670000", "182526.130000", "182526.590000", "182527.050000", "182527.510000", "182527.970000", "182528.430000", "182528.890000", "182529.350000", "182529.810000", "182530.270000", "182530.730000", "182531.190000", "182531.650000", "182532.110000", "182532.570000", "182533.030000", "182533.490000", "182533.950000", "182534.410000", "182534.870000", "182535.330000", "182535.790000", "182536.250000", "182536.710000", "182537.170000", "182537.630000", "182538.090000", "182538.550000", "182539.010000", "182539.470000", "182539.930000", "182540.390000", "182540.850000", "182541.310000", "182541.770000", "182542.230000", "182542.690000", "182543.150000", "182543.610000", "182544.070000", "182544.530000", "182544.990000", "182545.450000", "182545.910000", "182546.370000", "182546.830000", "182547.290000", "182547.750000", "182548.210000", "182548.670000", "182549.130000", "182549.590000", "182550.050000", "182550.510000", "182550.970000", "182551.430000", "182551.890000", "182552.350000", "182552.810000", "182553.270000", "182553.730000", "182554.190000", "182554.650000", "182555.110000", "182555.570000", "182556.030000", "182556.490000", "182556.950000", "182557.410000", "182557.870000", "182558.330000", "182558.790000", "182559.250000", "182559.710000", "182600.170000", "182600.630000", "182601.090000", "182601.550000", "182602.010000", "182602.470000", "182602.930000", "182603.390000", "182603.850000", "182604.310000", "182604.770000", "182605.230000", "182605.690000", "182606.150000", "182606.610000", "182607.070000", "182607.530000", "182607.990000", "182608.450000", "182608.910000", "182609.370000", "182609.830000", "182610.290000", "182610.750000", "182611.210000", "182611.670000", "182612.130000", "182612.590000", "182613.050000", "182613.510000", "182613.970000", "182614.430000", "182614.890000", "182615.350000", "182615.810000", "182616.270000", "182616.730000", "182617.190000", "182617.650000", "182618.110000", "182618.570000", "182619.030000", "182619.490000", "182619.950000", "182620.410000", "182620.870000", "182621.330000", "182621.790000", "182622.250000", "182622.710000", "182623.170000", "182623.630000", "182624.090000", "182624.550000", "182625.010000", "182625.470000", "182625.930000", "182626.390000", "182626.850000", "182627.310000", "182627.770000", "182628.230000", "182628.690000", "182629.150000", "182629.610000", "182630.070000", "182630.530000", "182630.990000", "182631.450000", "182631.910000", "182632.370000", "182632.830000", "182633.290000", "182633.750000", "182634.210000", "182634.670000", "182635.130000", "182635.590000", "182636.050000", "182636.510000", "182636.970000", "182637.430000", "182637.890000", "182638.350000", "182638.810000", "182639.270000", "182639.730000", "182640.190000", "182640.650000", "182641.110000", "182641.570000", "182642.030000", "182642.490000", "182642.950000", "182643.410000", "182643.870000", "182644.330000", "182644.790000", "182645.250000", "182645.710000", "182646.170000", "182646.630000", "182647.090000", "182647.550000", "182648.010000", "182648.470000", "182648.930000", "182649.390000", "182649.850000", "182650.310000", "182650.770000", "182651.230000", "182651.690000", "182652.150000", "182652.610000", "182653.070000", "182653.530000", "182653.990000", "182654.450000", "182654.910000", "182655.370000", "182655.830000", "182656.290000", "182656.750000", "182657.210000", "182657.670000", "182658.130000", "182658.590000", "182659.050000", "182659.510000", "182659.970000", "182700.430000", "182700.890000", "182701.350000", "182701.810000", "182702.270000", "182702.730000", "182703.190000", "182703.650000"],
