{
  "AcquisitionMatrixPE": 82,
  "AcquisitionNumber": 1,
  "AcquisitionTime": "18:00:45.332500",
  "BandwidthPerPixelPhaseEncode": 24.888,
  "BaseResolution": 82,
  "BodyPartExamined": "BRAIN",
  "ConsistencyInfo": "N4_VE11C_LATEST_20160120",
  "ConversionSoftware": "dcm2niix",
  "ConversionSoftwareVersion": "v1.0.20201102",
  "DerivedVendorReportedEchoSpacing": 0.00049,
  "DeviceSerialNumber": "66112",
  "DwellTime": 2e-06,
  "EchoTime": 0.0272,
  "EchoTrainLength": 82,
  "EffectiveEchoSpacing": 0.00049,
  "FlipAngle": 44,
  "ImageComments": "Unaliased MB8/PE3",
  "ImageOrientationPatientDICOM": [0.997974, -0.0601957, 0.0206163, 0.0580671, 0.994092, 0.0917015],
  "ImageType": [
    "ORIGINAL",
    "PRIMARY",
    "M",
    "MB",
    "ND",
    "NORM",
    "MOSAIC"
],
  "ImagingFrequency": 123.252,
  "InPlanePhaseEncodingDirectionDICOM": "COL",
  "InstitutionAddress": "Maynard 3,Hanover,NH,US,03755",
  "InstitutionName": "Dartmouth College - PBS",
  "InstitutionalDepartmentName": "Department",
  "MRAcquisitionType": "2D",
  "MagneticFieldStrength": 3,
  "Manufacturer": "Siemens",
  "ManufacturersModelName": "Prisma",
  "Modality": "MR",
  "MultibandAccelerationFactor": 8,
  "PartialFourier": 1,
  "PatientPosition": "HFS",
  "PercentPhaseFOV": 100,
  "PercentSampling": 100,
  "PhaseEncodingDirection": "j-",
  "PhaseEncodingSteps": 82,
  "PhaseResolution": 1,
  "PixelBandwidth": 3050,
  "ProcedureStepDescription": "Wager_Wager^1076_spacetop",
  "ProtocolName": "func_run-02_task-faces_acq-ap-mb8",
  "PulseSequenceDetails": "%CustomerSeq%\\cmrr_mbep2d_bold",
  "ReceiveCoilActiveElements": "HEA;HEP",
  "ReceiveCoilName": "Head_32",
  "ReconMatrixPE": 82,
  "RepetitionTime": 0.46,
  "SAR": 0.0945567,
  "ScanOptions": "FS",
  "ScanningSequence": "EP",
  "SequenceName": "epfid2d1_82",
  "SequenceVariant": "SK\\SS",
  "SeriesDescription": "func_run-02_task-faces_acq-ap-mb8",
  "SeriesNumber": 20,
  "ShimSetting": [4147, -7784, -7251, 509, -67, -241, -36, 74],
  "SliceThickness": 2.7,
  "SliceTiming": [0, 0.2525, 0.065, 0.315, 0.1275, 0.3775, 0.19, 0, 0.2525, 0.065, 0.315, 0.1275, 0.3775, 0.19, 0, 0.2525, 0.065, 0.315, 0.1275, 0.3775, 0.19, 0, 0.2525, 0.065, 0.315, 0.1275, 0.3775, 0.19, 0, 0.2525, 0.065, 0.315, 0.1275, 0.3775, 0.19, 0, 0.2525, 0.065, 0.315, 0.1275, 0.3775, 0.19, 0, 0.2525, 0.065, 0.315, 0.1275, 0.3775, 0.19, 0, 0.2525, 0.065, 0.315, 0.1275, 0.3775, 0.19],
  "SoftwareVersions": "syngo MR E11",
  "SpacingBetweenSlices": 2.7,
  "StationName": "AWP66112",
  "TaskName": "faces",
  "TotalReadoutTime": 0.03969,
  "TxRefAmp": 243.766,
  "WipMemBlock": "454322f2-764f-4b33-892d-e59bb8da6424||Sequence: R016 ve11c/master r/e634e98; Dec 19 2017 11:00:25 by eja",
  "dcmmeta_affine": [
    [-2.677490472793579, 0.15578989684581757, 0.07023927569389343, 105.69416046142578],
    [0.16150055825710297, 2.667076349258423, 0.2438601404428482, -103.3736801147461],
    [0.05531206354498863, -0.24602846801280975, 2.688047409057617, -54.154659271240234],
    [0.0, 0.0, 0.0, 1.0]
],
  "dcmmeta_reorient_transform": [
    [0.0, -1.0, 0.0, 81.0],
    [1.0, 0.0, 0.0, 0.0],
    [0.0, 0.0, 1.0, 0.0],
    [0.0, 0.0, 0.0, 1.0]
],
  "dcmmeta_shape": [82, 82, 56, 914],
  "dcmmeta_slice_dim": 2,
  "dcmmeta_version": 0.6,
  "global": {
    "const": {
      "AccessionNumber": "A003828",
      "AcquisitionMatrix": [82, 0, 0, 82],
      "AngioFlag": "N",
      "BitsAllocated": 16,
      "BitsStored": 16,
      "BodyPartExamined": "BRAIN",
      "Columns": 656,
      "EchoNumbers": 1,
      "EchoTime": 27.2,
      "EchoTrainLength": 82,
      "FlipAngle": 44.0,
      "HighBit": 15,
      "ImageOrientationPatient": [0.99797367200966, -0.060195660669, 0.0206163142241, 0.05806714452379, 0.99409206730941, 0.09170151819553],
      "ImagePositionPatient": [-931.46459039859, -831.7597522892, -160.56769934136],
      "ImageType": [
        "ORIGINAL",
        "PRIMARY",
        "M",
        "MB",
        "ND",
        "NORM",
        "MOSAIC"
],
      "ImagedNucleus": "1H",
      "ImagingFrequency": 123.252205,
      "InPlanePhaseEncodingDirection": "COL",
      "MRAcquisitionType": "2D",
      "MagneticFieldStrength": 3.0,
      "Manufacturer": "SIEMENS",
      "ManufacturerModelName": "Prisma",
      "Modality": "MR",
      "NumberOfAverages": 1.0,
      "NumberOfPhaseEncodingSteps": 82,
      "PercentPhaseFieldOfView": 100.0,
      "PercentSampling": 100.0,
      "PerformedProcedureStepStartTime": "170552.492000",
      "PhotometricInterpretation": "MONOCHROME2",
      "PixelBandwidth": 3050.0,
      "PixelRepresentation": 0,
      "PixelSpacing": [2.6829268932343, 2.6829268932343],
      "ProtocolName": "func_run-02_task-faces_acq-ap-mb8",
      "RepetitionTime": 460.0,
      "Rows": 656,
      "SAR": 0.09455668521743,
      "SamplesPerPixel": 1,
      "ScanOptions": "FS",
      "ScanningSequence": "EP",
      "SequenceName": "epfid2d1_82",
      "SequenceVariant": [
        "SK",
        "SS"
],
      "SeriesDescription": "func_run-02_task-faces_acq-ap-mb8",
      "SeriesNumber": 20,
      "SeriesTime": "180101.357000",
      "SliceLocation": -60.501900429899,
      "SliceThickness": 2.7000000476837,
      "SmallestImagePixelValue": 0,
      "SoftwareVersions": "syngo MR E11",
      "SpacingBetweenSlices": 2.7000000017941,
      "SpecificCharacterSet": "ISO_IR 100",
      "StudyID": "1",
      "StudyTime": "170552.425000",
      "TransmitCoilName": "Body",
      "VariableFlipAngleFlag": "N",
      "WindowCenterWidthExplanation": "Algo1",
      "dBdt": 0.0},
    "slices": {}
  },
  "time": {
    "samples": {
      "AcquisitionNumber": [1, 2, 3, 4, 5, 6, 7, 8, 9, 10, 11, 12, 13, 14, 15, 16, 17, 18, 19, 20, 21, 22, 23, 24, 25, 26, 27, 28, 29, 30, 31, 32, 33, 34, 35, 36, 37, 38, 39, 40, 41, 42, 43, 44, 45, 46, 47, 48, 49, 50, 51, 52, 53, 54, 55, 56, 57, 58, 59, 60, 61, 62, 63, 64, 65, 66, 67, 68, 69, 70, 71, 72, 73, 74, 75, 76, 77, 78, 79, 80, 81, 82, 83, 84, 85, 86, 87, 88, 89, 90, 91, 92, 93, 94, 95, 96, 97, 98, 99, 100, 101, 102, 103, 104, 105, 106, 107, 108, 109, 110, 111, 112, 113, 114, 115, 116, 117, 118, 119, 120, 121, 122, 123, 124, 125, 126, 127, 128, 129, 130, 131, 132, 133, 134, 135, 136, 137, 138, 139, 140, 141, 142, 143, 144, 145, 146, 147, 148, 149, 150, 151, 152, 153, 154, 155, 156, 157, 158, 159, 160, 161, 162, 163, 164, 165, 166, 167, 168, 169, 170, 171, 172, 173, 174, 175, 176, 177, 178, 179, 180, 181, 182, 183, 184, 185, 186, 187, 188, 189, 190, 191, 192, 193, 194, 195, 196, 197, 198, 199, 200, 201, 202, 203, 204, 205, 206, 207, 208, 209, 210, 211, 212, 213, 214, 215, 216, 217, 218, 219, 220, 221, 222, 223, 224, 225, 226, 227, 228, 229, 230, 231, 232, 233, 234, 235, 236, 237, 238, 239, 240, 241, 242, 243, 244, 245, 246, 247, 248, 249, 250, 251, 252, 253, 254, 255, 256, 257, 258, 259, 260, 261, 262, 263, 264, 265, 266, 267, 268, 269, 270, 271, 272, 273, 274, 275, 276, 277, 278, 279, 280, 281, 282, 283, 284, 285, 286, 287, 288, 289, 290, 291, 292, 293, 294, 295, 296, 297, 298, 299, 300, 301, 302, 303, 304, 305, 306, 307, 308, 309, 310, 311, 312, 313, 314, 315, 316, 317, 318, 319, 320, 321, 322, 323, 324, 325, 326, 327, 328, 329, 330, 331, 332, 333, 334, 335, 336, 337, 338, 339, 340, 341, 342, 343, 344, 345, 346, 347, 348, 349, 350, 351, 352, 353, 354, 355, 356, 357, 358, 359, 360, 361, 362, 363, 364, 365, 366, 367, 368, 369, 370, 371, 372, 373, 374, 375, 376, 377, 378, 379, 380, 381, 382, 383, 384, 385, 386, 387, 388, 389, 390, 391, 392, 393, 394, 395, 396, 397, 398, 399, 400, 401, 402, 403, 404, 405, 406, 407, 408, 409, 410, 411, 412, 413, 414, 415, 416, 417, 418, 419, 420, 421, 422, 423, 424, 425, 426, 427, 428, 429, 430, 431, 432, 433, 434, 435, 436, 437, 438, 439, 440, 441, 442, 443, 444, 445, 446, 447, 448, 449, 450, 451, 452, 453, 454, 455, 456, 457, 458, 459, 460, 461, 462, 463, 464, 465, 466, 467, 468, 469, 470, 471, 472, 473, 474, 475, 476, 477, 478, 479, 480, 481, 482, 483, 484, 485, 486, 487, 488, 489, 490, 491, 492, 493, 494, 495, 496, 497, 498, 499, 500, 501, 502, 503, 504, 505, 506, 507, 508, 509, 510, 511, 512, 513, 514, 515, 516, 517, 518, 519, 520, 521, 522, 523, 524, 525, 526, 527, 528, 529, 530, 531, 532, 533, 534, 535, 536, 537, 538, 539, 540, 541, 542, 543, 544, 545, 546, 547, 548, 549, 550, 551, 552, 553, 554, 555, 556, 557, 558, 559, 560, 561, 562, 563, 564, 565, 566, 567, 568, 569, 570, 571, 572, 573, 574, 575, 576, 577, 578, 579, 580, 581, 582, 583, 584, 585, 586, 587, 588, 589, 590, 591, 592, 593, 594, 595, 596, 597, 598, 599, 600, 601, 602, 603, 604, 605, 606, 607, 608, 609, 610, 611, 612, 613, 614, 615, 616, 617, 618, 619, 620, 621, 622, 623, 624, 625, 626, 627, 628, 629, 630, 631, 632, 633, 634, 635, 636, 637, 638, 639, 640, 641, 642, 643, 644, 645, 646, 647, 648, 649, 650, 651, 652, 653, 654, 655, 656, 657, 658, 659, 660, 661, 662, 663, 664, 665, 666, 667, 668, 669, 670, 671, 672, 673, 674, 675, 676, 677, 678, 679, 680, 681, 682, 683, 684, 685, 686, 687, 688, 689, 690, 691, 692, 693, 694, 695, 696, 697, 698, 699, 700, 701, 702, 703, 704, 705, 706, 707, 708, 709, 710, 711, 712, 713, 714, 715, 716, 717, 718, 719, 720, 721, 722, 723, 724, 725, 726, 727, 728, 729, 730, 731, 732, 733, 734, 735, 736, 737, 738, 739, 740, 741, 742, 743, 744, 745, 746, 747, 748, 749, 750, 751, 752, 753, 754, 755, 756, 757, 758, 759, 760, 761, 762, 763, 764, 765, 766, 767, 768, 769, 770, 771, 772, 773, 774, 775, 776, 777, 778, 779, 780, 781, 782, 783, 784, 785, 786, 787, 788, 789, 790, 791, 792, 793, 794, 795, 796, 797, 798, 799, 800, 801, 802, 803, 804, 805, 806, 807, 808, 809, 810, 811, 812, 813, 814, 815, 816, 817, 818, 819, 820, 821, 822, 823, 824, 825, 826, 827, 828, 829, 830, 831, 832, 833, 834, 835, 836, 837, 838, 839, 840, 841, 842, 843, 844, 845, 846, 847, 848, 849, 850, 851, 852, 853, 854, 855, 856, 857, 858, 859, 860, 861, 862, 863, 864, 865, 866, 867, 868, 869, 870, 871, 872, 873, 874, 875, 876, 877, 878, 879, 880, 881, 882, 883, 884, 885, 886, 887, 888, 889, 890, 891, 892, 893, 894, 895, 896, 897, 898, 899, 900, 901, 902, 903, 904, 905, 906, 907, 908, 909, 910, 911, 912, 913, 914],
      "AcquisitionTime": ["180045.332500", "180045.792500", "180046.252500", "180046.712500", "180047.172500", "180047.632500", "180048.092500", "180048.552500", "180049.012500", "180049.472500", "180049.932500", "180050.392500", "180050.852500", "180051.312500", "180051.772500", "180052.232500", "180052.692500", "180053.152500", "180053.612500", "180054.072500", "180054.532500", "180054.992500", "180055.452500", "180055.912500", "180056.372500", "180056.832500", "180057.292500", "180057.752500", "180058.212500", "180058.672500", "180059.132500", "180059.592500", "180100.052500", "180100.512500", "180100.972500", "180101.432500", "180101.892500", "180102.352500", "180102.812500", "180103.272500", "180103.732500", "180104.192500", "180104.652500", "180105.112500", "180105.572500", "180106.032500", "180106.492500", "180106.952500", "180107.412500", "180107.872500", "180108.332500", "180108.792500", "180109.252500", "180109.712500", "180110.172500", "180110.632500", "180111.092500", "180111.552500", "180112.012500", "180112.472500", "180112.932500", "180113.392500", "180113.852500", "180114.312500", "180114.772500", "180115.232500", "180115.692500", "180116.152500", "180116.612500", "180117.072500", "180117.532500", "180117.992500", "180118.452500", "180118.912500", "180119.372500", "180119.832500", "180120.292500", "180120.752500", "180121.212500", "180121.672500", "180122.132500", "180122.592500", "180123.052500", "180123.512500", "180123.972500", "180124.432500", "180124.892500", "180125.352500", "180125.812500", "180126.272500", "180126.732500", "180127.192500", "180127.652500", "180128.112500", "180128.572500", "180129.032500", "180129.492500", "180129.952500", "180130.412500", "180130.872500", "180131.332500", "180131.792500", "180132.252500", "180132.712500", "180133.172500", "180133.632500", "180134.092500", "180134.552500", "180135.012500", "180135.472500", "180135.932500", "180136.392500", "180136.852500", "180137.312500", "180137.772500", "180138.232500", "180138.692500", "180139.152500", "180139.612500", "180140.072500", "180140.532500", "180140.992500", "180141.452500", "180141.912500", "180142.372500", "180142.832500", "180143.292500", "180143.752500", "180144.212500", "180144.672500", "180145.132500", "180145.592500", "180146.052500", "180146.512500", "180146.972500", "180147.432500", "180147.892500", "180148.352500", "180148.812500", "180149.272500", "180149.732500", "180150.192500", "180150.652500", "180151.112500", "180151.572500", "180152.032500", "180152.492500", "180152.952500", "180153.412500", "180153.872500", "180154.332500", "180154.792500", "180155.252500", "180155.712500", "180156.172500", "180156.632500", "180157.092500", "180157.552500", "180158.012500", "180158.472500", "180158.932500", "180159.392500", "180159.852500", "180200.312500", "180200.772500", "180201.232500", "180201.692500", "180202.152500", "180202.612500", "180203.072500", "180203.532500", "180203.992500", "180204.452500", "180204.912500", "180205.372500", "180205.832500", "180206.292500", "180206.752500", "180207.212500", "180207.672500", "180208.132500", "180208.592500", "180209.052500", "180209.512500", "180209.972500", "180210.432500", "180210.892500", "180211.352500", "180211.812500", "180212.272500", "180212.732500", "180213.192500", "180213.652500", "180214.112500", "180214.572500", "180215.032500", "180215.492500", "180215.952500", "180216.412500", "180216.872500", "180217.332500", "180217.792500", "180218.252500", "180218.712500", "180219.172500", "180219.632500", "180220.092500", "180220.552500", "180221.012500", "180221.472500", "180221.932500", "180222.392500", "180222.852500", "180223.312500", "180223.772500", "180224.232500", "180224.692500", "180225.152500", "180225.612500", "180226.072500", "180226.532500", "180226.992500", "180227.452500", "180227.912500", "180228.372500", "180228.832500", "180229.292500", "180229.752500", "180230.212500", "180230.672500", "180231.132500", "180231.592500", "180232.052500", "180232.512500", "180232.972500", "180233.432500", "180233.892500", "180234.352500", "180234.812500", "180235.272500", "180235.732500", "180236.192500", "180236.652500", "180237.112500", "180237.572500", "180238.032500", "180238.492500", "180238.952500", "180239.412500", "180239.872500", "180240.332500", "180240.792500", "180241.252500", "180241.712500", "180242.172500", "180242.632500", "180243.092500", "180243.552500", "180244.012500", "180244.472500", "180244.932500", "180245.392500", "180245.852500", "180246.312500", "180246.772500", "180247.232500", "180247.692500", "180248.152500", "180248.612500", "180249.072500", "180249.532500", "180249.992500", "180250.452500", "180250.912500", "180251.372500", "180251.832500", "180252.292500", "180252.752500", "180253.212500", "180253.672500", "180254.132500", "180254.592500", "180255.052500", "180255.512500", "180255.972500", "180256.432500", "180256.892500", "180257.352500", "180257.812500", "180258.272500", "180258.732500", "180259.192500", "180259.652500", "180300.112500", "180300.572500", "180301.032500", "180301.492500", "180301.952500", "180302.412500", "180302.872500", "180303.332500", "180303.792500", "180304.252500", "180304.712500", "180305.172500", "180305.632500", "180306.092500", "180306.552500", "180307.012500", "180307.472500", "180307.932500", "180308.392500", "180308.852500", "180309.312500", "180309.772500", "180310.232500", "180310.692500", "180311.152500", "180311.612500", "180312.072500", "180312.532500", "180312.992500", "180313.452500", "180313.912500", "180314.372500", "180314.832500", "180315.292500", "180315.752500", "180316.212500", "180316.672500", "180317.132500", "180317.592500", "180318.052500", "180318.512500", "180318.972500", "180319.432500", "180319.892500", "180320.352500", "180320.812500", "180321.272500", "180321.732500", "180322.192500", "180322.652500", "180323.112500", "180323.572500", "180324.032500", "180324.492500", "180324.952500", "180325.412500", "180325.872500", "180326.332500", "180326.792500", "180327.252500", "180327.712500", "180328.172500", "180328.632500", "180329.092500", "180329.552500", "180330.012500", "180330.472500", "180330.932500", "180331.392500", "180331.852500", "180332.312500", "180332.772500", "180333.232500", "180333.692500", "180334.152500", "180334.612500", "180335.072500", "180335.532500", "180335.992500", "180336.452500", "180336.912500", "180337.372500", "180337.832500", "180338.292500", "180338.752500", "180339.212500", "180339.672500", "180340.132500", "180340.592500", "180341.052500", "180341.512500", "180341.972500", "180342.432500", "180342.892500", "180343.352500", "180343.812500", "180344.272500", "180344.732500", "180345.192500", "180345.652500", "180346.112500", "180346.572500", "180347.032500", "180347.492500", "180347.952500", "180348.412500", "180348.872500", "180349.332500", "180349.792500", "180350.252500", "180350.712500", "180351.172500", "180351.632500", "180352.092500", "180352.552500", "180353.012500", "180353.472500", "180353.932500", "180354.392500", "180354.852500", "180355.312500", "180355.772500", "180356.232500", "180356.692500", "180357.152500", "180357.612500", "180358.072500", "180358.532500", "180358.992500", "180359.452500", "180359.912500", "180400.372500", "180400.832500", "180401.292500", "180401.752500", "180402.212500", "180402.672500", "180403.132500", "180403.592500", "180404.052500", "180404.512500", "180404.972500", "180405.432500", "180405.892500", "180406.352500", "180406.812500", "180407.272500", "180407.732500", "180408.192500", "180408.652500", "180409.112500", "180409.572500", "180410.032500", "180410.492500", "180410.952500", "180411.412500", "180411.872500", "180412.332500", "180412.792500", "180413.252500", "180413.712500", "180414.172500", "180414.632500", "180415.092500", "180415.552500", "180416.012500", "180416.472500", "180416.932500", "180417.392500", "180417.852500", "180418.312500", "180418.772500", "180419.232500", "180419.692500", "180420.152500", "180420.612500", "180421.072500", "180421.532500", "180421.992500", "180422.452500", "180422.912500", "180423.372500", "180423.832500", "180424.292500", "180424.752500", "180425.212500", "180425.672500", "180426.132500", "180426.592500", "180427.052500", "180427.512500", "180427.972500", "180428.432500", "180428.892500", "180429.352500", "180429.812500", "180430.272500", "180430.732500", "180431.192500", "180431.652500", "180432.112500", "180432.572500", "180433.032500", "180433.492500", "180433.952500", "180434.412500", "180434.872500", "180435.332500", "180435.792500", "180436.252500", "180436.712500", "180437.172500", "180437.632500", "180438.092500", "180438.552500", "180439.012500", "180439.472500", "180439.932500", "180440.392500", "180440.852500", "180441.312500", "180441.772500", "180442.232500", "180442.692500", "180443.152500", "180443.612500", "180444.072500", "180444.532500", "180444.992500", "180445.452500", "180445.912500", "180446.372500", "180446.832500", "180447.292500", "180447.752500", "180448.212500", "180448.672500", "180449.132500", "180449.592500", "180450.052500", "180450.512500", "180450.972500", "180451.432500", "180451.892500", "180452.352500", "180452.812500", "180453.272500", "180453.732500", "180454.192500", "180454.652500", "180455.112500", "180455.572500", "180456.032500", "180456.492500", "180456.952500", "180457.412500", "180457.872500", "180458.332500", "180458.792500", "180459.252500", "180459.712500", "180500.172500", "180500.632500", "180501.092500", "180501.552500", "180502.012500", "180502.472500", "180502.932500", "180503.392500", "180503.852500", "180504.312500", "180504.772500", "180505.232500", "180505.692500", "180506.152500", "180506.612500", "180507.072500", "180507.532500", "180507.992500", "180508.452500", "180508.912500", "180509.372500", "180509.832500", "180510.292500", "180510.752500", "180511.212500", "180511.672500", "180512.132500", "180512.592500", "180513.052500", "180513.512500", "180513.972500", "180514.432500", "180514.892500", "180515.352500", "180515.812500", "180516.272500", "180516.732500", "180517.192500", "180517.652500", "180518.112500", "180518.572500", "180519.032500", "180519.492500", "180519.952500", "180520.412500", "180520.872500", "180521.332500", "180521.792500", "180522.252500", "180522.712500", "180523.172500", "180523.632500", "180524.092500", "180524.552500", "180525.012500", "180525.472500", "180525.932500", "180526.392500", "180526.852500", "180527.312500", "180527.772500", "180528.232500", "180528.692500", "180529.152500", "180529.612500", "180530.072500", "180530.532500", "180530.992500", "180531.452500", "180531.912500", "180532.372500", "180532.832500", "180533.292500", "180533.752500", "180534.212500", "180534.672500", "180535.132500", "180535.592500", "180536.052500", "180536.512500", "180536.972500", "180537.432500", "180537.892500", "180538.352500", "180538.812500", "180539.272500", "180539.732500", "180540.192500", "180540.652500", "180541.112500", "180541.572500", "180542.032500", "180542.492500", "180542.952500", "180543.412500", "180543.872500", "180544.332500", "180544.792500", "180545.252500", "180545.712500", "180546.172500", "180546.632500", "180547.092500", "180547.552500", "180548.012500", "180548.472500", "180548.932500", "180549.392500", "180549.852500", "180550.312500", "180550.772500", "180551.232500", "180551.692500", "180552.152500", "180552.612500", "180553.072500", "180553.532500", "180553.992500", "180554.452500", "180554.912500", "180555.372500", "180555.832500", "180556.292500", "180556.752500", "180557.212500", "180557.672500", "180558.132500", "180558.592500", "180559.052500", "180559.512500", "180559.972500", "180600.432500", "180600.892500", "180601.352500", "180601.812500", "180602.272500", "180602.732500", "180603.192500", "180603.652500", "180604.112500", "180604.572500", "180605.032500", "180605.492500", "180605.952500", "180606.412500", "180606.872500", "180607.332500", "180607.792500", "180608.252500", "180608.712500", "180609.172500", "180609.632500", "180610.092500", "180610.552500", "180611.012500", "180611.472500", "180611.932500", "180612.392500", "180612.852500", "180613.312500", "180613.772500", "180614.232500", "180614.692500", "180615.152500", "180615.612500", "180616.072500", "180616.532500", "180616.992500", "180617.452500", "180617.912500", "180618.372500", "180618.832500", "180619.292500", "180619.752500", "180620.212500", "180620.672500", "180621.132500", "180621.592500", "180622.052500", "180622.512500", "180622.972500", "180623.432500", "180623.892500", "180624.352500", "180624.812500", "180625.272500", "180625.732500", "180626.192500", "180626.652500", "180627.112500", "180627.572500", "180628.032500", "180628.492500", "180628.952500", "180629.412500", "180629.872500", "180630.332500", "180630.792500", "180631.252500", "180631.712500", "180632.172500", "180632.632500", "180633.092500", "180633.552500", "180634.012500", "180634.472500", "180634.932500", "180635.392500", "180635.852500", "180636.312500", "180636.772500", "180637.232500", "180637.692500", "180638.152500", "180638.612500", "180639.072500", "180639.532500", "180639.992500", "180640.452500", "180640.912500", "180641.372500", "180641.832500", "180642.292500", "180642.752500", "180643.212500", "180643.672500", "180644.132500", "180644.592500", "180645.052500", "180645.512500", "180645.972500", "180646.432500", "180646.892500", "180647.352500", "180647.812500", "180648.272500", "180648.732500", "180649.192500", "180649.652500", "180650.112500", "180650.572500", "180651.032500", "180651.492500", "180651.952500", "180652.412500", "180652.872500", "180653.332500", "180653.792500", "180654.252500", "180654.712500", "180655.172500", "180655.632500", "180656.092500", "180656.552500", "180657.012500", "180657.472500", "180657.932500", "180658.392500", "180658.852500", "180659.312500", "180659.772500", "180700.232500", "180700.692500", "180701.152500", "180701.612500", "180702.072500", "180702.532500", "180702.992500", "180703.452500", "180703.912500", "180704.372500", "180704.832500", "180705.292500", "180705.752500", "180706.212500", "180706.672500", "180707.132500", "180707.592500", "180708.052500", "180708.512500", "180708.972500", "180709.432500", "180709.892500", "180710.352500", "180710.812500", "180711.272500", "180711.732500", "180712.192500", "180712.652500", "180713.112500", "180713.572500", "180714.032500", "180714.492500", "180714.952500", "180715.412500", "180715.872500", "180716.332500", "180716.792500", "180717.252500", "180717.712500", "180718.172500", "180718.632500", "180719.092500", "180719.552500", "180720.012500", "180720.472500", "180720.932500", "180721.392500", "180721.852500", "180722.312500", "180722.772500", "180723.232500", "180723.692500", "180724.152500", "180724.612500", "180725.072500", "180725.532500", "180725.992500", "180726.452500", "180726.912500", "180727.372500", "180727.832500", "180728.292500", "180728.752500", "180729.212500", "180729.672500", "180730.132500", "180730.592500", "180731.052500", "180731.512500", "180731.972500", "180732.432500", "180732.892500", "180733.352500", "180733.812500", "180734.272500", "180734.732500", "180735.192500", "180735.652500", "180736.112500", "180736.572500", "180737.032500", "180737.492500", "180737.952500", "180738.412500", "180738.872500", "180739.332500", "180739.792500", "180740.252500", "180740.712500", "180741.172500", "180741.632500", "180742.092500", "180742.552500", "180743.012500", "180743.472500", "180743.932500", "180744.392500", "180744.852500", "180745.312500"],
