{
  "AcquisitionMatrixPE": 82,
  "AcquisitionNumber": 1,
  "AcquisitionTime": "16:42:12.987500",
  "BandwidthPerPixelPhaseEncode": 24.888,
  "BaseResolution": 82,
  "BodyPartExamined": "BRAIN",
  "ConsistencyInfo": "N4_VE11E_LATEST_20181129",
  "ConversionSoftware": "dcm2niix",
  "ConversionSoftwareVersion": "v1.0.20201102",
  "DerivedVendorReportedEchoSpacing": 0.00049,
  "DeviceSerialNumber": "66112",
  "DwellTime": 2e-06,
  "EchoTime": 0.0272,
  "EchoTrainLength": 82,
  "EffectiveEchoSpacing": 0.00049,
  "FlipAngle": 44,
  "ImageComments": "Unaliased MB8/PE3",
  "ImageOrientationPatientDICOM": [0.999732, -0.0051843, -0.0225391, 0.00610707, 0.999138, 0.0410665],
  "ImageType": [
    "ORIGINAL",
    "PRIMARY",
    "M",
    "MB",
    "ND",
    "NORM",
    "MOSAIC"
],
  "ImagingFrequency": 123.259,
  "InPlanePhaseEncodingDirectionDICOM": "COL",
  "InstitutionAddress": "Maynard 3,Hanover,NH,US,03755",
  "InstitutionName": "Dartmouth College - PBS",
  "InstitutionalDepartmentName": "Department",
  "MRAcquisitionType": "2D",
  "MagneticFieldStrength": 3,
  "Manufacturer": "Siemens",
  "ManufacturersModelName": "Prisma",
  "Modality": "MR",
  "MultibandAccelerationFactor": 8,
  "PartialFourier": 1,
  "PatientPosition": "HFS",
  "PercentPhaseFOV": 100,
  "PercentSampling": 100,
  "PhaseEncodingDirection": "j-",
  "PhaseEncodingSteps": 82,
  "PhaseResolution": 1,
  "PixelBandwidth": 3050,
  "ProcedureStepDescription": "Wager_Wager^1076_spacetop",
  "ProtocolName": "func_run-04_task-social_acq-ap-mb8",
  "PulseSequenceDetails": "%CustomerSeq%\\cmrr_mbep2d_bold",
  "ReceiveCoilActiveElements": "HEA;HEP",
  "ReceiveCoilName": "Head_32",
  "ReconMatrixPE": 82,
  "RepetitionTime": 0.46,
  "SAR": 0.0878736,
  "ScanOptions": "FS",
  "ScanningSequence": "EP",
  "SequenceName": "epfid2d1_82",
  "SequenceVariant": "SK\\SS",
  "SeriesDescription": "func_run-04_task-social_acq-ap-mb8",
  "SeriesNumber": 18,
  "ShimSetting": [4208, -7751, -7194, 417, -140, 90, 40, 58],
  "SliceThickness": 2.7,
  "SliceTiming": [0, 0.2525, 0.0625, 0.315, 0.125, 0.3775, 0.1875, 0, 0.2525, 0.0625, 0.315, 0.125, 0.3775, 0.1875, 0, 0.2525, 0.0625, 0.315, 0.125, 0.3775, 0.1875, 0, 0.2525, 0.0625, 0.315, 0.125, 0.3775, 0.1875, 0, 0.2525, 0.0625, 0.315, 0.125, 0.3775, 0.1875, 0, 0.2525, 0.0625, 0.315, 0.125, 0.3775, 0.1875, 0, 0.2525, 0.0625, 0.315, 0.125, 0.3775, 0.1875, 0, 0.2525, 0.0625, 0.315, 0.125, 0.3775, 0.1875],
  "SoftwareVersions": "syngo MR E11",
  "SpacingBetweenSlices": 2.7,
  "StationName": "AWP66112",
  "TaskName": "social",
  "TotalReadoutTime": 0.03969,
  "TxRefAmp": 237.137,
  "WipMemBlock": "36dc5e0f-6e36-4ea2-bac2-0d482da7229f||Sequence: R016 ve11e/master r/434b28f1; Aug  7 2019 18:53:46 by eja",
  "dcmmeta_affine": [
    [-2.6822092533111572, 0.01638481207191944, -0.06022818386554718, 113.28207397460938],
    [0.013909101486206055, 2.6806135177612305, 0.11122161895036697, -108.11051177978516],
    [-0.06047067791223526, -0.11017849296331406, 2.697036027908325, -58.367530822753906],
    [0.0, 0.0, 0.0, 1.0]
],
  "dcmmeta_reorient_transform": [
    [0.0, -1.0, 0.0, 81.0],
    [1.0, 0.0, 0.0, 0.0],
    [0.0, 0.0, 1.0, 0.0],
    [0.0, 0.0, 0.0, 1.0]
],
  "dcmmeta_shape": [82, 82, 56, 872],
  "dcmmeta_slice_dim": 2,
  "dcmmeta_version": 0.6,
  "global": {
    "const": {
      "AccessionNumber": "A004656",
      "AcquisitionMatrix": [82, 0, 0, 82],
      "AngioFlag": "N",
      "BitsAllocated": 16,
      "BitsStored": 16,
      "BodyPartExamined": "BRAIN",
      "Columns": 656,
      "EchoNumbers": 1,
      "EchoTime": 27.2,
      "EchoTrainLength": 82,
      "FlipAngle": 44.0,
      "HighBit": 15,
      "ImageOrientationPatient": [0.99973252089318, -0.0051843011847, -0.0225390702958, 0.00610706589583, 0.99913775027585, 0.04106652797418],
      "ImagePositionPatient": [-889.10574590541, -874.363361424, -81.558130430857],
      "ImageType": [
        "ORIGINAL",
        "PRIMARY",
        "M",
        "MB",
        "ND",
        "NORM",
        "MOSAIC"
],
      "ImagedNucleus": "1H",
      "ImagingFrequency": 123.259089,
      "InPlanePhaseEncodingDirection": "COL",
      "MRAcquisitionType": "2D",
      "MagneticFieldStrength": 3.0,
      "Manufacturer": "SIEMENS",
      "ManufacturerModelName": "Prisma",
      "Modality": "MR",
      "NumberOfAverages": 1.0,
      "NumberOfPhaseEncodingSteps": 82,
      "PercentPhaseFieldOfView": 100.0,
      "PercentSampling": 100.0,
      "PerformedProcedureStepStartTime": "154150.417000",
      "PhotometricInterpretation": "MONOCHROME2",
      "PixelBandwidth": 3050.0,
      "PixelRepresentation": 0,
      "PixelSpacing": [2.6829268932343, 2.6829268932343],
      "ProtocolName": "func_run-04_task-social_acq-ap-mb8",
      "RepetitionTime": 460.0,
      "Rows": 656,
      "SAR": 0.08787363735756,
      "SamplesPerPixel": 1,
      "ScanOptions": "FS",
      "ScanningSequence": "EP",
      "SequenceName": "epfid2d1_82",
      "SequenceVariant": [
        "SK",
        "SS"
],
      "SeriesDescription": "func_run-04_task-social_acq-ap-mb8",
      "SeriesNumber": 18,
      "SeriesTime": "164240.734000",
      "SliceLocation": -65.283821841189,
      "SliceThickness": 2.7000000476837,
      "SmallestImagePixelValue": 0,
      "SoftwareVersions": "syngo MR E11",
      "SpacingBetweenSlices": 2.7000000718655,
      "SpecificCharacterSet": "ISO_IR 100",
      "StudyID": "1",
      "StudyTime": "154150.364000",
      "TransmitCoilName": "Body",
      "VariableFlipAngleFlag": "N",
      "WindowCenterWidthExplanation": "Algo1"
    },
    "slices": {}
  },
  "time": {
    "samples": {
      "AcquisitionNumber": [1, 2, 3, 4, 5, 6, 7, 8, 9, 10, 11, 12, 13, 14, 15, 16, 17, 18, 19, 20, 21, 22, 23, 24, 25, 26, 27, 28, 29, 30, 31, 32, 33, 34, 35, 36, 37, 38, 39, 40, 41, 42, 43, 44, 45, 46, 47, 48, 49, 50, 51, 52, 53, 54, 55, 56, 57, 58, 59, 60, 61, 62, 63, 64, 65, 66, 67, 68, 69, 70, 71, 72, 73, 74, 75, 76, 77, 78, 79, 80, 81, 82, 83, 84, 85, 86, 87, 88, 89, 90, 91, 92, 93, 94, 95, 96, 97, 98, 99, 100, 101, 102, 103, 104, 105, 106, 107, 108, 109, 110, 111, 112, 113, 114, 115, 116, 117, 118, 119, 120, 121, 122, 123, 124, 125, 126, 127, 128, 129, 130, 131, 132, 133, 134, 135, 136, 137, 138, 139, 140, 141, 142, 143, 144, 145, 146, 147, 148, 149, 150, 151, 152, 153, 154, 155, 156, 157, 158, 159, 160, 161, 162, 163, 164, 165, 166, 167, 168, 169, 170, 171, 172, 173, 174, 175, 176, 177, 178, 179, 180, 181, 182, 183, 184, 185, 186, 187, 188, 189, 190, 191, 192, 193, 194, 195, 196, 197, 198, 199, 200, 201, 202, 203, 204, 205, 206, 207, 208, 209, 210, 211, 212, 213, 214, 215, 216, 217, 218, 219, 220, 221, 222, 223, 224, 225, 226, 227, 228, 229, 230, 231, 232, 233, 234, 235, 236, 237, 238, 239, 240, 241, 242, 243, 244, 245, 246, 247, 248, 249, 250, 251, 252, 253, 254, 255, 256, 257, 258, 259, 260, 261, 262, 263, 264, 265, 266, 267, 268, 269, 270, 271, 272, 273, 274, 275, 276, 277, 278, 279, 280, 281, 282, 283, 284, 285, 286, 287, 288, 289, 290, 291, 292, 293, 294, 295, 296, 297, 298, 299, 300, 301, 302, 303, 304, 305, 306, 307, 308, 309, 310, 311, 312, 313, 314, 315, 316, 317, 318, 319, 320, 321, 322, 323, 324, 325, 326, 327, 328, 329, 330, 331, 332, 333, 334, 335, 336, 337, 338, 339, 340, 341, 342, 343, 344, 345, 346, 347, 348, 349, 350, 351, 352, 353, 354, 355, 356, 357, 358, 359, 360, 361, 362, 363, 364, 365, 366, 367, 368, 369, 370, 371, 372, 373, 374, 375, 376, 377, 378, 379, 380, 381, 382, 383, 384, 385, 386, 387, 388, 389, 390, 391, 392, 393, 394, 395, 396, 397, 398, 399, 400, 401, 402, 403, 404, 405, 406, 407, 408, 409, 410, 411, 412, 413, 414, 415, 416, 417, 418, 419, 420, 421, 422, 423, 424, 425, 426, 427, 428, 429, 430, 431, 432, 433, 434, 435, 436, 437, 438, 439, 440, 441, 442, 443, 444, 445, 446, 447, 448, 449, 450, 451, 452, 453, 454, 455, 456, 457, 458, 459, 460, 461, 462, 463, 464, 465, 466, 467, 468, 469, 470, 471, 472, 473, 474, 475, 476, 477, 478, 479, 480, 481, 482, 483, 484, 485, 486, 487, 488, 489, 490, 491, 492, 493, 494, 495, 496, 497, 498, 499, 500, 501, 502, 503, 504, 505, 506, 507, 508, 509, 510, 511, 512, 513, 514, 515, 516, 517, 518, 519, 520, 521, 522, 523, 524, 525, 526, 527, 528, 529, 530, 531, 532, 533, 534, 535, 536, 537, 538, 539, 540, 541, 542, 543, 544, 545, 546, 547, 548, 549, 550, 551, 552, 553, 554, 555, 556, 557, 558, 559, 560, 561, 562, 563, 564, 565, 566, 567, 568, 569, 570, 571, 572, 573, 574, 575, 576, 577, 578, 579, 580, 581, 582, 583, 584, 585, 586, 587, 588, 589, 590, 591, 592, 593, 594, 595, 596, 597, 598, 599, 600, 601, 602, 603, 604, 605, 606, 607, 608, 609, 610, 611, 612, 613, 614, 615, 616, 617, 618, 619, 620, 621, 622, 623, 624, 625, 626, 627, 628, 629, 630, 631, 632, 633, 634, 635, 636, 637, 638, 639, 640, 641, 642, 643, 644, 645, 646, 647, 648, 649, 650, 651, 652, 653, 654, 655, 656, 657, 658, 659, 660, 661, 662, 663, 664, 665, 666, 667, 668, 669, 670, 671, 672, 673, 674, 675, 676, 677, 678, 679, 680, 681, 682, 683, 684, 685, 686, 687, 688, 689, 690, 691, 692, 693, 694, 695, 696, 697, 698, 699, 700, 701, 702, 703, 704, 705, 706, 707, 708, 709, 710, 711, 712, 713, 714, 715, 716, 717, 718, 719, 720, 721, 722, 723, 724, 725, 726, 727, 728, 729, 730, 731, 732, 733, 734, 735, 736, 737, 738, 739, 740, 741, 742, 743, 744, 745, 746, 747, 748, 749, 750, 751, 752, 753, 754, 755, 756, 757, 758, 759, 760, 761, 762, 763, 764, 765, 766, 767, 768, 769, 770, 771, 772, 773, 774, 775, 776, 777, 778, 779, 780, 781, 782, 783, 784, 785, 786, 787, 788, 789, 790, 791, 792, 793, 794, 795, 796, 797, 798, 799, 800, 801, 802, 803, 804, 805, 806, 807, 808, 809, 810, 811, 812, 813, 814, 815, 816, 817, 818, 819, 820, 821, 822, 823, 824, 825, 826, 827, 828, 829, 830, 831, 832, 833, 834, 835, 836, 837, 838, 839, 840, 841, 842, 843, 844, 845, 846, 847, 848, 849, 850, 851, 852, 853, 854, 855, 856, 857, 858, 859, 860, 861, 862, 863, 864, 865, 866, 867, 868, 869, 870, 871, 872],
      "AcquisitionTime": ["164212.987500", "164213.447500", "164213.907500", "164214.367500", "164214.827500", "164215.287500", "164215.747500", "164216.207500", "164216.667500", "164217.127500", "164217.587500", "164218.047500", "164218.507500", "164218.967500", "164219.427500", "164219.887500", "164220.347500", "164220.807500", "164221.267500", "164221.727500", "164222.187500", "164222.647500", "164223.107500", "164223.567500", "164224.027500", "164224.487500", "164224.947500", "164225.407500", "164225.867500", "164226.327500", "164226.787500", "164227.247500", "164227.707500", "164228.167500", "164228.627500", "164229.087500", "164229.547500", "164230.007500", "164230.467500", "164230.927500", "164231.387500", "164231.847500", "164232.307500", "164232.767500", "164233.227500", "164233.687500", "164234.147500", "164234.607500", "164235.067500", "164235.527500", "164235.987500", "164236.447500", "164236.907500", "164237.367500", "164237.827500", "164238.287500", "164238.747500", "164239.207500", "164239.667500", "164240.127500", "164240.587500", "164241.047500", "164241.507500", "164241.967500", "164242.427500", "164242.887500", "164243.347500", "164243.807500", "164244.267500", "164244.727500", "164245.187500", "164245.647500", "164246.107500", "164246.567500", "164247.027500", "164247.487500", "164247.947500", "164248.407500", "164248.867500", "164249.327500", "164249.787500", "164250.247500", "164250.707500", "164251.167500", "164251.627500", "164252.087500", "164252.547500", "164253.007500", "164253.467500", "164253.927500", "164254.387500", "164254.847500", "164255.307500", "164255.767500", "164256.227500", "164256.687500", "164257.147500", "164257.607500", "164258.067500", "164258.527500", "164258.987500", "164259.447500", "164259.907500", "164300.367500", "164300.827500", "164301.287500", "164301.747500", "164302.207500", "164302.667500", "164303.127500", "164303.587500", "164304.047500", "164304.507500", "164304.967500", "164305.427500", "164305.887500", "164306.347500", "164306.807500", "164307.267500", "164307.727500", "164308.187500", "164308.647500", "164309.107500", "164309.567500", "164310.027500", "164310.487500", "164310.947500", "164311.407500", "164311.867500", "164312.327500", "164312.787500", "164313.247500", "164313.707500", "164314.167500", "164314.627500", "164315.087500", "164315.547500", "164316.007500", "164316.467500", "164316.927500", "164317.387500", "164317.847500", "164318.307500", "164318.767500", "164319.227500", "164319.687500", "164320.147500", "164320.607500", "164321.067500", "164321.527500", "164321.987500", "164322.447500", "164322.907500", "164323.367500", "164323.827500", "164324.287500", "164324.747500", "164325.207500", "164325.667500", "164326.127500", "164326.587500", "164327.047500", "164327.507500", "164327.967500", "164328.427500", "164328.887500", "164329.347500", "164329.807500", "164330.267500", "164330.727500", "164331.187500", "164331.647500", "164332.107500", "164332.567500", "164333.027500", "164333.487500", "164333.947500", "164334.407500", "164334.867500", "164335.327500", "164335.787500", "164336.247500", "164336.707500", "164337.167500", "164337.627500", "164338.087500", "164338.547500", "164339.007500", "164339.467500", "164339.927500", "164340.387500", "164340.847500", "164341.307500", "164341.767500", "164342.227500", "164342.687500", "164343.147500", "164343.607500", "164344.067500", "164344.527500", "164344.987500", "164345.447500", "164345.907500", "164346.367500", "164346.827500", "164347.287500", "164347.747500", "164348.207500", "164348.667500", "164349.127500", "164349.587500", "164350.047500", "164350.507500", "164350.967500", "164351.427500", "164351.887500", "164352.347500", "164352.807500", "164353.267500", "164353.727500", "164354.187500", "164354.647500", "164355.107500", "164355.567500", "164356.027500", "164356.487500", "164356.947500", "164357.407500", "164357.867500", "164358.327500", "164358.787500", "164359.247500", "164359.707500", "164400.167500", "164400.627500", "164401.087500", "164401.547500", "164402.007500", "164402.467500", "164402.927500", "164403.387500", "164403.847500", "164404.307500", "164404.767500", "164405.227500", "164405.687500", "164406.147500", "164406.607500", "164407.067500", "164407.527500", "164407.987500", "164408.447500", "164408.907500", "164409.367500", "164409.827500", "164410.287500", "164410.747500", "164411.207500", "164411.667500", "164412.127500", "164412.587500", "164413.047500", "164413.507500", "164413.967500", "164414.427500", "164414.887500", "164415.347500", "164415.807500", "164416.267500", "164416.727500", "164417.187500", "164417.647500", "164418.107500", "164418.567500", "164419.027500", "164419.487500", "164419.947500", "164420.407500", "164420.867500", "164421.327500", "164421.787500", "164422.247500", "164422.707500", "164423.167500", "164423.627500", "164424.087500", "164424.547500", "164425.007500", "164425.467500", "164425.927500", "164426.387500", "164426.847500", "164427.307500", "164427.767500", "164428.227500", "164428.687500", "164429.147500", "164429.607500", "164430.067500", "164430.527500", "164430.987500", "164431.447500", "164431.907500", "164432.367500", "164432.827500", "164433.287500", "164433.747500", "164434.207500", "164434.667500", "164435.127500", "164435.587500", "164436.047500", "164436.507500", "164436.967500", "164437.427500", "164437.887500", "164438.347500", "164438.807500", "164439.267500", "164439.727500", "164440.187500", "164440.647500", "164441.107500", "164441.567500", "164442.027500", "164442.487500", "164442.947500", "164443.407500", "164443.867500", "164444.327500", "164444.787500", "164445.247500", "164445.707500", "164446.167500", "164446.627500", "164447.087500", "164447.547500", "164448.007500", "164448.467500", "164448.927500", "164449.387500", "164449.847500", "164450.307500", "164450.767500", "164451.227500", "164451.687500", "164452.147500", "164452.607500", "164453.067500", "164453.527500", "164453.987500", "164454.447500", "164454.907500", "164455.367500", "164455.827500", "164456.287500", "164456.747500", "164457.207500", "164457.667500", "164458.127500", "164458.587500", "164459.047500", "164459.507500", "164459.967500", "164500.427500", "164500.887500", "164501.347500", "164501.807500", "164502.267500", "164502.727500", "164503.187500", "164503.647500", "164504.107500", "164504.567500", "164505.027500", "164505.487500", "164505.947500", "164506.407500", "164506.867500", "164507.327500", "164507.787500", "164508.247500", "164508.707500", "164509.167500", "164509.627500", "164510.087500", "164510.547500", "164511.007500", "164511.467500", "164511.927500", "164512.387500", "164512.847500", "164513.307500", "164513.767500", "164514.227500", "164514.687500", "164515.147500", "164515.607500", "164516.067500", "164516.527500", "164516.987500", "164517.447500", "164517.907500", "164518.367500", "164518.827500", "164519.287500", "164519.747500", "164520.207500", "164520.667500", "164521.127500", "164521.587500", "164522.047500", "164522.507500", "164522.967500", "164523.427500", "164523.887500", "164524.347500", "164524.807500", "164525.267500", "164525.727500", "164526.187500", "164526.647500", "164527.107500", "164527.567500", "164528.027500", "164528.487500", "164528.947500", "164529.407500", "164529.867500", "164530.327500", "164530.787500", "164531.247500", "164531.707500", "164532.167500", "164532.627500", "164533.087500", "164533.547500", "164534.007500", "164534.467500", "164534.927500", "164535.387500", "164535.847500", "164536.307500", "164536.767500", "164537.227500", "164537.687500", "164538.147500", "164538.607500", "164539.067500", "164539.527500", "164539.987500", "164540.447500", "164540.907500", "164541.367500", "164541.827500", "164542.287500", "164542.747500", "164543.207500", "164543.667500", "164544.127500", "164544.587500", "164545.047500", "164545.507500", "164545.967500", "164546.427500", "164546.887500", "164547.347500", "164547.807500", "164548.267500", "164548.727500", "164549.187500", "164549.647500", "164550.107500", "164550.567500", "164551.027500", "164551.487500", "164551.947500", "164552.407500", "164552.867500", "164553.327500", "164553.787500", "164554.247500", "164554.707500", "164555.167500", "164555.627500", "164556.087500", "164556.547500", "164557.007500", "164557.467500", "164557.927500", "164558.387500", "164558.847500", "164559.307500", "164559.767500", "164600.227500", "164600.687500", "164601.147500", "164601.607500", "164602.067500", "164602.527500", "164602.987500", "164603.447500", "164603.907500", "164604.367500", "164604.827500", "164605.287500", "164605.747500", "164606.207500", "164606.667500", "164607.127500", "164607.587500", "164608.047500", "164608.507500", "164608.967500", "164609.427500", "164609.887500", "164610.347500", "164610.807500", "164611.267500", "164611.727500", "164612.187500", "164612.647500", "164613.107500", "164613.567500", "164614.027500", "164614.487500", "164614.947500", "164615.407500", "164615.867500", "164616.327500", "164616.787500", "164617.247500", "164617.707500", "164618.167500", "164618.627500", "164619.087500", "164619.547500", "164620.007500", "164620.467500", "164620.927500", "164621.387500", "164621.847500", "164622.307500", "164622.767500", "164623.227500", "164623.687500", "164624.147500", "164624.607500", "164625.067500", "164625.527500", "164625.987500", "164626.447500", "164626.907500", "164627.367500", "164627.827500", "164628.287500", "164628.747500", "164629.207500", "164629.667500", "164630.127500", "164630.587500", "164631.047500", "164631.507500", "164631.967500", "164632.427500", "164632.887500", "164633.347500", "164633.807500", "164634.267500", "164634.727500", "164635.187500", "164635.647500", "164636.107500", "164636.567500", "164637.027500", "164637.487500", "164637.947500", "164638.407500", "164638.867500", "164639.327500", "164639.787500", "164640.247500", "164640.707500", "164641.167500", "164641.627500", "164642.087500", "164642.547500", "164643.007500", "164643.467500", "164643.927500", "164644.387500", "164644.847500", "164645.307500", "164645.767500", "164646.227500", "164646.687500", "164647.147500", "164647.607500", "164648.067500", "164648.527500", "164648.987500", "164649.447500", "164649.907500", "164650.367500", "164650.827500", "164651.287500", "164651.747500", "164652.207500", "164652.667500", "164653.127500", "164653.587500", "164654.047500", "164654.507500", "164654.967500", "164655.427500", "164655.887500", "164656.347500", "164656.807500", "164657.267500", "164657.727500", "164658.187500", "164658.647500", "164659.107500", "164659.567500", "164700.027500", "164700.487500", "164700.947500", "164701.407500", "164701.867500", "164702.327500", "164702.787500", "164703.247500", "164703.707500", "164704.167500", "164704.627500", "164705.087500", "164705.547500", "164706.007500", "164706.467500", "164706.927500", "164707.387500", "164707.847500", "164708.307500", "164708.767500", "164709.227500", "164709.687500", "164710.147500", "164710.607500", "164711.067500", "164711.527500", "164711.987500", "164712.447500", "164712.907500", "164713.367500", "164713.827500", "164714.287500", "164714.747500", "164715.207500", "164715.667500", "164716.127500", "164716.587500", "164717.047500", "164717.507500", "164717.967500", "164718.427500", "164718.887500", "164719.347500", "164719.807500", "164720.267500", "164720.727500", "164721.187500", "164721.647500", "164722.107500", "164722.567500", "164723.027500", "164723.487500", "164723.947500", "164724.407500", "164724.867500", "164725.327500", "164725.787500", "164726.247500", "164726.707500", "164727.167500", "164727.627500", "164728.087500", "164728.547500", "164729.007500", "164729.467500", "164729.927500", "164730.387500", "164730.847500", "164731.307500", "164731.767500", "164732.227500", "164732.687500", "164733.147500", "164733.607500", "164734.067500", "164734.527500", "164734.987500", "164735.447500", "164735.907500", "164736.367500", "164736.827500", "164737.287500", "164737.747500", "164738.207500", "164738.667500", "164739.127500", "164739.587500", "164740.047500", "164740.507500", "164740.967500", "164741.427500", "164741.887500", "164742.347500", "164742.807500", "164743.267500", "164743.727500", "164744.187500", "164744.647500", "164745.107500", "164745.567500", "164746.027500", "164746.487500", "164746.947500", "164747.407500", "164747.867500", "164748.327500", "164748.787500", "164749.247500", "164749.707500", "164750.167500", "164750.627500", "164751.087500", "164751.547500", "164752.007500", "164752.467500", "164752.927500", "164753.387500", "164753.847500", "164754.307500", "164754.767500", "164755.227500", "164755.687500", "164756.147500", "164756.607500", "164757.067500", "164757.527500", "164757.987500", "164758.447500", "164758.907500", "164759.367500", "164759.827500", "164800.287500", "164800.747500", "164801.207500", "164801.667500", "164802.127500", "164802.587500", "164803.047500", "164803.507500", "164803.967500", "164804.427500", "164804.887500", "164805.347500", "164805.807500", "164806.267500", "164806.727500", "164807.187500", "164807.647500", "164808.107500", "164808.567500", "164809.027500", "164809.487500", "164809.947500", "164810.407500", "164810.867500", "164811.327500", "164811.787500", "164812.247500", "164812.707500", "164813.167500", "164813.627500", "164814.087500", "164814.547500", "164815.007500", "164815.467500", "164815.927500", "164816.387500", "164816.847500", "164817.307500", "164817.767500", "164818.227500", "164818.687500", "164819.147500", "164819.607500", "164820.067500", "164820.527500", "164820.987500", "164821.447500", "164821.907500", "164822.367500", "164822.827500", "164823.287500", "164823.747500", "164824.207500", "164824.667500", "164825.127500", "164825.587500", "164826.047500", "164826.507500", "164826.967500", "164827.427500", "164827.887500", "164828.347500", "164828.807500", "164829.267500", "164829.727500", "164830.187500", "164830.647500", "164831.107500", "164831.567500", "164832.027500", "164832.487500", "164832.947500", "164833.407500", "164833.867500", "164834.327500", "164834.787500", "164835.247500", "164835.707500", "164836.167500", "164836.627500", "164837.087500", "164837.547500", "164838.007500", "164838.467500", "164838.927500", "164839.387500", "164839.847500", "164840.307500", "164840.767500", "164841.227500", "164841.687500", "164842.147500", "164842.607500", "164843.067500", "164843.527500", "164843.987500", "164844.447500", "164844.907500", "164845.367500", "164845.827500", "164846.287500", "164846.747500", "164847.207500", "164847.667500", "164848.127500", "164848.587500", "164849.047500", "164849.507500", "164849.967500", "164850.427500", "164850.887500", "164851.347500", "164851.807500", "164852.267500", "164852.727500", "164853.187500", "164853.647500"],
