{
  "AcquisitionMatrixPE": 82,
  "AcquisitionNumber": 1,
  "AcquisitionTime": "16:50:30.050000",
  "BandwidthPerPixelPhaseEncode": 24.888,
  "BaseResolution": 82,
  "BodyPartExamined": "BRAIN",
  "ConsistencyInfo": "N4_VE11E_LATEST_20181129",
  "ConversionSoftware": "dcm2niix",
  "ConversionSoftwareVersion": "v1.0.20201102",
  "DerivedVendorReportedEchoSpacing": 0.00049,
  "DeviceSerialNumber": "66112",
  "DwellTime": 2e-06,
  "EchoTime": 0.0272,
  "EchoTrainLength": 82,
  "EffectiveEchoSpacing": 0.00049,
  "FlipAngle": 44,
  "ImageComments": "Unaliased MB8/PE3",
  "ImageOrientationPatientDICOM": [0.999732, -0.0051843, -0.0225391, 0.00610707, 0.999138, 0.0410665],
  "ImageType": [
    "ORIGINAL",
    "PRIMARY",
    "M",
    "MB",
    "ND",
    "NORM",
    "MOSAIC"
],
  "ImagingFrequency": 123.259,
  "InPlanePhaseEncodingDirectionDICOM": "COL",
  "InstitutionAddress": "Maynard 3,Hanover,NH,US,03755",
  "InstitutionName": "Dartmouth College - PBS",
  "InstitutionalDepartmentName": "Department",
  "MRAcquisitionType": "2D",
  "MagneticFieldStrength": 3,
  "Manufacturer": "Siemens",
  "ManufacturersModelName": "Prisma",
  "Modality": "MR",
  "MultibandAccelerationFactor": 8,
  "PartialFourier": 1,
  "PatientPosition": "HFS",
  "PercentPhaseFOV": 100,
  "PercentSampling": 100,
  "PhaseEncodingDirection": "j-",
  "PhaseEncodingSteps": 82,
  "PhaseResolution": 1,
  "PixelBandwidth": 3050,
  "ProcedureStepDescription": "Wager_Wager^1076_spacetop",
  "ProtocolName": "func_run-05_task-social_acq-ap-mb8",
  "PulseSequenceDetails": "%CustomerSeq%\\cmrr_mbep2d_bold",
  "ReceiveCoilActiveElements": "HEA;HEP",
  "ReceiveCoilName": "Head_32",
  "ReconMatrixPE": 82,
  "RepetitionTime": 0.46,
  "SAR": 0.0878736,
  "ScanOptions": "FS",
  "ScanningSequence": "EP",
  "SequenceName": "epfid2d1_82",
  "SequenceVariant": "SK\\SS",
  "SeriesDescription": "func_run-05_task-social_acq-ap-mb8",
  "SeriesNumber": 20,
  "ShimSetting": [4208, -7751, -7194, 417, -140, 90, 40, 58],
  "SliceThickness": 2.7,
  "SliceTiming": [0, 0.25, 0.0625, 0.3125, 0.125, 0.3775, 0.1875, 0, 0.25, 0.0625, 0.3125, 0.125, 0.3775, 0.1875, 0, 0.25, 0.0625, 0.3125, 0.125, 0.3775, 0.1875, 0, 0.25, 0.0625, 0.3125, 0.125, 0.3775, 0.1875, 0, 0.25, 0.0625, 0.3125, 0.125, 0.3775, 0.1875, 0, 0.25, 0.0625, 0.3125, 0.125, 0.3775, 0.1875, 0, 0.25, 0.0625, 0.3125, 0.125, 0.3775, 0.1875, 0, 0.25, 0.0625, 0.3125, 0.125, 0.3775, 0.1875],
  "SoftwareVersions": "syngo MR E11",
  "SpacingBetweenSlices": 2.7,
  "StationName": "AWP66112",
  "TaskName": "social",
  "TotalReadoutTime": 0.03969,
  "TxRefAmp": 237.137,
  "WipMemBlock": "5a45c087-1f66-465c-a4f0-48d475a30160||Sequence: R016 ve11e/master r/434b28f1; Aug  7 2019 18:53:46 by eja",
  "dcmmeta_affine": [
    [-2.6822092533111572, 0.01638481207191944, -0.06022818386554718, 113.28207397460938],
    [0.013909101486206055, 2.6806135177612305, 0.11122161895036697, -108.11051177978516],
    [-0.06047067791223526, -0.11017849296331406, 2.697036027908325, -58.367530822753906],
    [0.0, 0.0, 0.0, 1.0]
],
  "dcmmeta_reorient_transform": [
    [0.0, -1.0, 0.0, 81.0],
    [1.0, 0.0, 0.0, 0.0],
    [0.0, 0.0, 1.0, 0.0],
    [0.0, 0.0, 0.0, 1.0]
],
  "dcmmeta_shape": [82, 82, 56, 872],
  "dcmmeta_slice_dim": 2,
  "dcmmeta_version": 0.6,
  "global": {
    "const": {
      "AccessionNumber": "A004656",
      "AcquisitionMatrix": [82, 0, 0, 82],
      "AngioFlag": "N",
      "BitsAllocated": 16,
      "BitsStored": 16,
      "BodyPartExamined": "BRAIN",
      "Columns": 656,
      "EchoNumbers": 1,
      "EchoTime": 27.2,
      "EchoTrainLength": 82,
      "FlipAngle": 44.0,
      "HighBit": 15,
      "ImageOrientationPatient": [0.99973252089318, -0.0051843011847, -0.0225390702958, 0.00610706589583, 0.99913775027585, 0.04106652797418],
      "ImagePositionPatient": [-889.10574590541, -874.363361424, -81.558130430857],
      "ImageType": [
        "ORIGINAL",
        "PRIMARY",
        "M",
        "MB",
        "ND",
        "NORM",
        "MOSAIC"
],
      "ImagedNucleus": "1H",
      "ImagingFrequency": 123.259091,
      "InPlanePhaseEncodingDirection": "COL",
      "MRAcquisitionType": "2D",
      "MagneticFieldStrength": 3.0,
      "Manufacturer": "SIEMENS",
      "ManufacturerModelName": "Prisma",
      "Modality": "MR",
      "NumberOfAverages": 1.0,
      "NumberOfPhaseEncodingSteps": 82,
      "PercentPhaseFieldOfView": 100.0,
      "PercentSampling": 100.0,
      "PerformedProcedureStepStartTime": "154150.417000",
      "PhotometricInterpretation": "MONOCHROME2",
      "PixelBandwidth": 3050.0,
      "PixelRepresentation": 0,
      "PixelSpacing": [2.6829268932343, 2.6829268932343],
      "ProtocolName": "func_run-05_task-social_acq-ap-mb8",
      "RepetitionTime": 460.0,
      "Rows": 656,
      "SAR": 0.08787363735756,
      "SamplesPerPixel": 1,
      "ScanOptions": "FS",
      "ScanningSequence": "EP",
      "SequenceName": "epfid2d1_82",
      "SequenceVariant": [
        "SK",
        "SS"
],
      "SeriesDescription": "func_run-05_task-social_acq-ap-mb8",
      "SeriesNumber": 20,
      "SeriesTime": "165040.800000",
      "SliceLocation": -65.283821841189,
      "SliceThickness": 2.7000000476837,
      "SmallestImagePixelValue": 0,
      "SoftwareVersions": "syngo MR E11",
      "SpacingBetweenSlices": 2.7000000718655,
      "SpecificCharacterSet": "ISO_IR 100",
      "StudyID": "1",
      "StudyTime": "154150.364000",
      "TransmitCoilName": "Body",
      "VariableFlipAngleFlag": "N",
      "WindowCenterWidthExplanation": "Algo1"
    },
    "slices": {}
  },
  "time": {
    "samples": {
      "AcquisitionNumber": [1, 2, 3, 4, 5, 6, 7, 8, 9, 10, 11, 12, 13, 14, 15, 16, 17, 18, 19, 20, 21, 22, 23, 24, 25, 26, 27, 28, 29, 30, 31, 32, 33, 34, 35, 36, 37, 38, 39, 40, 41, 42, 43, 44, 45, 46, 47, 48, 49, 50, 51, 52, 53, 54, 55, 56, 57, 58, 59, 60, 61, 62, 63, 64, 65, 66, 67, 68, 69, 70, 71, 72, 73, 74, 75, 76, 77, 78, 79, 80, 81, 82, 83, 84, 85, 86, 87, 88, 89, 90, 91, 92, 93, 94, 95, 96, 97, 98, 99, 100, 101, 102, 103, 104, 105, 106, 107, 108, 109, 110, 111, 112, 113, 114, 115, 116, 117, 118, 119, 120, 121, 122, 123, 124, 125, 126, 127, 128, 129, 130, 131, 132, 133, 134, 135, 136, 137, 138, 139, 140, 141, 142, 143, 144, 145, 146, 147, 148, 149, 150, 151, 152, 153, 154, 155, 156, 157, 158, 159, 160, 161, 162, 163, 164, 165, 166, 167, 168, 169, 170, 171, 172, 173, 174, 175, 176, 177, 178, 179, 180, 181, 182, 183, 184, 185, 186, 187, 188, 189, 190, 191, 192, 193, 194, 195, 196, 197, 198, 199, 200, 201, 202, 203, 204, 205, 206, 207, 208, 209, 210, 211, 212, 213, 214, 215, 216, 217, 218, 219, 220, 221, 222, 223, 224, 225, 226, 227, 228, 229, 230, 231, 232, 233, 234, 235, 236, 237, 238, 239, 240, 241, 242, 243, 244, 245, 246, 247, 248, 249, 250, 251, 252, 253, 254, 255, 256, 257, 258, 259, 260, 261, 262, 263, 264, 265, 266, 267, 268, 269, 270, 271, 272, 273, 274, 275, 276, 277, 278, 279, 280, 281, 282, 283, 284, 285, 286, 287, 288, 289, 290, 291, 292, 293, 294, 295, 296, 297, 298, 299, 300, 301, 302, 303, 304, 305, 306, 307, 308, 309, 310, 311, 312, 313, 314, 315, 316, 317, 318, 319, 320, 321, 322, 323, 324, 325, 326, 327, 328, 329, 330, 331, 332, 333, 334, 335, 336, 337, 338, 339, 340, 341, 342, 343, 344, 345, 346, 347, 348, 349, 350, 351, 352, 353, 354, 355, 356, 357, 358, 359, 360, 361, 362, 363, 364, 365, 366, 367, 368, 369, 370, 371, 372, 373, 374, 375, 376, 377, 378, 379, 380, 381, 382, 383, 384, 385, 386, 387, 388, 389, 390, 391, 392, 393, 394, 395, 396, 397, 398, 399, 400, 401, 402, 403, 404, 405, 406, 407, 408, 409, 410, 411, 412, 413, 414, 415, 416, 417, 418, 419, 420, 421, 422, 423, 424, 425, 426, 427, 428, 429, 430, 431, 432, 433, 434, 435, 436, 437, 438, 439, 440, 441, 442, 443, 444, 445, 446, 447, 448, 449, 450, 451, 452, 453, 454, 455, 456, 457, 458, 459, 460, 461, 462, 463, 464, 465, 466, 467, 468, 469, 470, 471, 472, 473, 474, 475, 476, 477, 478, 479, 480, 481, 482, 483, 484, 485, 486, 487, 488, 489, 490, 491, 492, 493, 494, 495, 496, 497, 498, 499, 500, 501, 502, 503, 504, 505, 506, 507, 508, 509, 510, 511, 512, 513, 514, 515, 516, 517, 518, 519, 520, 521, 522, 523, 524, 525, 526, 527, 528, 529, 530, 531, 532, 533, 534, 535, 536, 537, 538, 539, 540, 541, 542, 543, 544, 545, 546, 547, 548, 549, 550, 551, 552, 553, 554, 555, 556, 557, 558, 559, 560, 561, 562, 563, 564, 565, 566, 567, 568, 569, 570, 571, 572, 573, 574, 575, 576, 577, 578, 579, 580, 581, 582, 583, 584, 585, 586, 587, 588, 589, 590, 591, 592, 593, 594, 595, 596, 597, 598, 599, 600, 601, 602, 603, 604, 605, 606, 607, 608, 609, 610, 611, 612, 613, 614, 615, 616, 617, 618, 619, 620, 621, 622, 623, 624, 625, 626, 627, 628, 629, 630, 631, 632, 633, 634, 635, 636, 637, 638, 639, 640, 641, 642, 643, 644, 645, 646, 647, 648, 649, 650, 651, 652, 653, 654, 655, 656, 657, 658, 659, 660, 661, 662, 663, 664, 665, 666, 667, 668, 669, 670, 671, 672, 673, 674, 675, 676, 677, 678, 679, 680, 681, 682, 683, 684, 685, 686, 687, 688, 689, 690, 691, 692, 693, 694, 695, 696, 697, 698, 699, 700, 701, 702, 703, 704, 705, 706, 707, 708, 709, 710, 711, 712, 713, 714, 715, 716, 717, 718, 719, 720, 721, 722, 723, 724, 725, 726, 727, 728, 729, 730, 731, 732, 733, 734, 735, 736, 737, 738, 739, 740, 741, 742, 743, 744, 745, 746, 747, 748, 749, 750, 751, 752, 753, 754, 755, 756, 757, 758, 759, 760, 761, 762, 763, 764, 765, 766, 767, 768, 769, 770, 771, 772, 773, 774, 775, 776, 777, 778, 779, 780, 781, 782, 783, 784, 785, 786, 787, 788, 789, 790, 791, 792, 793, 794, 795, 796, 797, 798, 799, 800, 801, 802, 803, 804, 805, 806, 807, 808, 809, 810, 811, 812, 813, 814, 815, 816, 817, 818, 819, 820, 821, 822, 823, 824, 825, 826, 827, 828, 829, 830, 831, 832, 833, 834, 835, 836, 837, 838, 839, 840, 841, 842, 843, 844, 845, 846, 847, 848, 849, 850, 851, 852, 853, 854, 855, 856, 857, 858, 859, 860, 861, 862, 863, 864, 865, 866, 867, 868, 869, 870, 871, 872],
      "AcquisitionTime": ["165030.050000", "165030.510000", "165030.970000", "165031.430000", "165031.890000", "165032.350000", "165032.810000", "165033.270000", "165033.730000", "165034.190000", "165034.650000", "165035.110000", "165035.570000", "165036.030000", "165036.490000", "165036.950000", "165037.410000", "165037.870000", "165038.330000", "165038.790000", "165039.250000", "165039.710000", "165040.170000", "165040.630000", "165041.090000", "165041.550000", "165042.010000", "165042.470000", "165042.930000", "165043.390000", "165043.850000", "165044.310000", "165044.770000", "165045.230000", "165045.690000", "165046.150000", "165046.610000", "165047.070000", "165047.530000", "165047.990000", "165048.450000", "165048.910000", "165049.370000", "165049.830000", "165050.290000", "165050.750000", "165051.210000", "165051.670000", "165052.130000", "165052.590000", "165053.050000", "165053.510000", "165053.970000", "165054.430000", "165054.890000", "165055.350000", "165055.810000", "165056.270000", "165056.730000", "165057.190000", "165057.650000", "165058.110000", "165058.570000", "165059.030000", "165059.490000", "165059.950000", "165100.410000", "165100.870000", "165101.330000", "165101.790000", "165102.250000", "165102.710000", "165103.170000", "165103.630000", "165104.090000", "165104.550000", "165105.010000", "165105.470000", "165105.930000", "165106.390000", "165106.850000", "165107.310000", "165107.770000", "165108.230000", "165108.690000", "165109.150000", "165109.610000", "165110.070000", "165110.530000", "165110.990000", "165111.450000", "165111.910000", "165112.370000", "165112.830000", "165113.290000", "165113.750000", "165114.210000", "165114.670000", "165115.130000", "165115.590000", "165116.050000", "165116.510000", "165116.970000", "165117.430000", "165117.890000", "165118.350000", "165118.810000", "165119.270000", "165119.730000", "165120.190000", "165120.650000", "165121.110000", "165121.570000", "165122.030000", "165122.490000", "165122.950000", "165123.410000", "165123.870000", "165124.330000", "165124.790000", "165125.250000", "165125.710000", "165126.170000", "165126.630000", "165127.090000", "165127.550000", "165128.010000", "165128.470000", "165128.930000", "165129.390000", "165129.850000", "165130.310000", "165130.770000", "165131.230000", "165131.690000", "165132.150000", "165132.610000", "165133.070000", "165133.530000", "165133.990000", "165134.450000", "165134.910000", "165135.370000", "165135.830000", "165136.290000", "165136.750000", "165137.210000", "165137.670000", "165138.130000", "165138.590000", "165139.050000", "165139.510000", "165139.970000", "165140.430000", "165140.890000", "165141.350000", "165141.810000", "165142.270000", "165142.730000", "165143.190000", "165143.650000", "165144.110000", "165144.570000", "165145.030000", "165145.490000", "165145.950000", "165146.410000", "165146.870000", "165147.330000", "165147.790000", "165148.250000", "165148.710000", "165149.170000", "165149.630000", "165150.090000", "165150.550000", "165151.010000", "165151.470000", "165151.930000", "165152.390000", "165152.850000", "165153.310000", "165153.770000", "165154.230000", "165154.690000", "165155.150000", "165155.610000", "165156.070000", "165156.530000", "165156.990000", "165157.450000", "165157.910000", "165158.370000", "165158.830000", "165159.290000", "165159.750000", "165200.210000", "165200.670000", "165201.130000", "165201.590000", "165202.050000", "165202.510000", "165202.970000", "165203.430000", "165203.890000", "165204.350000", "165204.810000", "165205.270000", "165205.730000", "165206.190000", "165206.650000", "165207.110000", "165207.570000", "165208.030000", "165208.490000", "165208.950000", "165209.410000", "165209.870000", "165210.330000", "165210.790000", "165211.250000", "165211.710000", "165212.170000", "165212.630000", "165213.090000", "165213.550000", "165214.010000", "165214.470000", "165214.930000", "165215.390000", "165215.850000", "165216.310000", "165216.770000", "165217.230000", "165217.690000", "165218.150000", "165218.610000", "165219.070000", "165219.530000", "165219.990000", "165220.450000", "165220.910000", "165221.370000", "165221.830000", "165222.290000", "165222.750000", "165223.210000", "165223.670000", "165224.130000", "165224.590000", "165225.050000", "165225.510000", "165225.970000", "165226.430000", "165226.890000", "165227.350000", "165227.810000", "165228.270000", "165228.730000", "165229.190000", "165229.650000", "165230.110000", "165230.570000", "165231.030000", "165231.490000", "165231.950000", "165232.410000", "165232.870000", "165233.330000", "165233.790000", "165234.250000", "165234.710000", "165235.170000", "165235.630000", "165236.090000", "165236.550000", "165237.010000", "165237.470000", "165237.930000", "165238.390000", "165238.850000", "165239.310000", "165239.770000", "165240.230000", "165240.690000", "165241.150000", "165241.610000", "165242.070000", "165242.530000", "165242.990000", "165243.450000", "165243.910000", "165244.370000", "165244.830000", "165245.290000", "165245.750000", "165246.210000", "165246.670000", "165247.130000", "165247.590000", "165248.050000", "165248.510000", "165248.970000", "165249.430000", "165249.890000", "165250.350000", "165250.810000", "165251.270000", "165251.730000", "165252.190000", "165252.650000", "165253.110000", "165253.570000", "165254.030000", "165254.490000", "165254.950000", "165255.410000", "165255.870000", "165256.330000", "165256.790000", "165257.250000", "165257.710000", "165258.170000", "165258.630000", "165259.090000", "165259.550000", "165300.010000", "165300.470000", "165300.930000", "165301.390000", "165301.850000", "165302.310000", "165302.770000", "165303.230000", "165303.690000", "165304.150000", "165304.610000", "165305.070000", "165305.530000", "165305.990000", "165306.450000", "165306.910000", "165307.370000", "165307.830000", "165308.290000", "165308.750000", "165309.210000", "165309.670000", "165310.130000", "165310.590000", "165311.050000", "165311.510000", "165311.970000", "165312.430000", "165312.890000", "165313.350000", "165313.810000", "165314.270000", "165314.730000", "165315.190000", "165315.650000", "165316.110000", "165316.570000", "165317.030000", "165317.490000", "165317.950000", "165318.410000", "165318.870000", "165319.330000", "165319.790000", "165320.250000", "165320.710000", "165321.170000", "165321.630000", "165322.090000", "165322.550000", "165323.010000", "165323.470000", "165323.930000", "165324.390000", "165324.850000", "165325.310000", "165325.770000", "165326.230000", "165326.690000", "165327.150000", "165327.610000", "165328.070000", "165328.530000", "165328.990000", "165329.450000", "165329.910000", "165330.370000", "165330.830000", "165331.290000", "165331.750000", "165332.210000", "165332.670000", "165333.130000", "165333.590000", "165334.050000", "165334.510000", "165334.970000", "165335.430000", "165335.890000", "165336.350000", "165336.810000", "165337.270000", "165337.730000", "165338.190000", "165338.650000", "165339.110000", "165339.570000", "165340.030000", "165340.490000", "165340.950000", "165341.410000", "165341.870000", "165342.330000", "165342.790000", "165343.250000", "165343.710000", "165344.170000", "165344.630000", "165345.090000", "165345.550000", "165346.010000", "165346.470000", "165346.930000", "165347.390000", "165347.850000", "165348.310000", "165348.770000", "165349.230000", "165349.690000", "165350.150000", "165350.610000", "165351.070000", "165351.530000", "165351.990000", "165352.450000", "165352.910000", "165353.370000", "165353.830000", "165354.290000", "165354.750000", "165355.210000", "165355.670000", "165356.130000", "165356.590000", "165357.050000", "165357.510000", "165357.970000", "165358.430000", "165358.890000", "165359.350000", "165359.810000", "165400.270000", "165400.730000", "165401.190000", "165401.650000", "165402.110000", "165402.570000", "165403.030000", "165403.490000", "165403.950000", "165404.410000", "165404.870000", "165405.330000", "165405.790000", "165406.250000", "165406.710000", "165407.170000", "165407.630000", "165408.090000", "165408.550000", "165409.010000", "165409.470000", "165409.930000", "165410.390000", "165410.850000", "165411.310000", "165411.770000", "165412.230000", "165412.690000", "165413.150000", "165413.610000", "165414.070000", "165414.530000", "165414.990000", "165415.450000", "165415.910000", "165416.370000", "165416.830000", "165417.290000", "165417.750000", "165418.210000", "165418.670000", "165419.130000", "165419.590000", "165420.050000", "165420.510000", "165420.970000", "165421.430000", "165421.890000", "165422.350000", "165422.810000", "165423.270000", "165423.730000", "165424.190000", "165424.650000", "165425.110000", "165425.570000", "165426.030000", "165426.490000", "165426.950000", "165427.410000", "165427.870000", "165428.330000", "165428.790000", "165429.250000", "165429.710000", "165430.170000", "165430.630000", "165431.090000", "165431.550000", "165432.010000", "165432.470000", "165432.930000", "165433.390000", "165433.850000", "165434.310000", "165434.770000", "165435.230000", "165435.690000", "165436.150000", "165436.610000", "165437.070000", "165437.530000", "165437.990000", "165438.450000", "165438.910000", "165439.370000", "165439.830000", "165440.290000", "165440.750000", "165441.210000", "165441.670000", "165442.130000", "165442.590000", "165443.050000", "165443.510000", "165443.970000", "165444.430000", "165444.890000", "165445.350000", "165445.810000", "165446.270000", "165446.730000", "165447.190000", "165447.650000", "165448.110000", "165448.570000", "165449.030000", "165449.490000", "165449.950000", "165450.410000", "165450.870000", "165451.330000", "165451.790000", "165452.250000", "165452.710000", "165453.170000", "165453.630000", "165454.090000", "165454.550000", "165455.010000", "165455.470000", "165455.930000", "165456.390000", "165456.850000", "165457.310000", "165457.770000", "165458.230000", "165458.690000", "165459.150000", "165459.610000", "165500.070000", "165500.530000", "165500.990000", "165501.450000", "165501.910000", "165502.370000", "165502.830000", "165503.290000", "165503.750000", "165504.210000", "165504.670000", "165505.130000", "165505.590000", "165506.050000", "165506.510000", "165506.970000", "165507.430000", "165507.890000", "165508.350000", "165508.810000", "165509.270000", "165509.730000", "165510.190000", "165510.650000", "165511.110000", "165511.570000", "165512.030000", "165512.490000", "165512.950000", "165513.410000", "165513.870000", "165514.330000", "165514.790000", "165515.250000", "165515.710000", "165516.170000", "165516.630000", "165517.090000", "165517.550000", "165518.010000", "165518.470000", "165518.930000", "165519.390000", "165519.850000", "165520.310000", "165520.770000", "165521.230000", "165521.690000", "165522.150000", "165522.610000", "165523.070000", "165523.530000", "165523.990000", "165524.450000", "165524.910000", "165525.370000", "165525.830000", "165526.290000", "165526.750000", "165527.210000", "165527.670000", "165528.130000", "165528.590000", "165529.050000", "165529.510000", "165529.970000", "165530.430000", "165530.890000", "165531.350000", "165531.810000", "165532.270000", "165532.730000", "165533.190000", "165533.650000", "165534.110000", "165534.570000", "165535.030000", "165535.490000", "165535.950000", "165536.410000", "165536.870000", "165537.330000", "165537.790000", "165538.250000", "165538.710000", "165539.170000", "165539.630000", "165540.090000", "165540.550000", "165541.010000", "165541.470000", "165541.930000", "165542.390000", "165542.850000", "165543.310000", "165543.770000", "165544.230000", "165544.690000", "165545.150000", "165545.610000", "165546.070000", "165546.530000", "165546.990000", "165547.450000", "165547.910000", "165548.370000", "165548.830000", "165549.290000", "165549.750000", "165550.210000", "165550.670000", "165551.130000", "165551.590000", "165552.050000", "165552.510000", "165552.970000", "165553.430000", "165553.890000", "165554.350000", "165554.810000", "165555.270000", "165555.730000", "165556.190000", "165556.650000", "165557.110000", "165557.570000", "165558.030000", "165558.490000", "165558.950000", "165559.410000", "165559.870000", "165600.330000", "165600.790000", "165601.250000", "165601.710000", "165602.170000", "165602.630000", "165603.090000", "165603.550000", "165604.010000", "165604.470000", "165604.930000", "165605.390000", "165605.850000", "165606.310000", "165606.770000", "165607.230000", "165607.690000", "165608.150000", "165608.610000", "165609.070000", "165609.530000", "165609.990000", "165610.450000", "165610.910000", "165611.370000", "165611.830000", "165612.290000", "165612.750000", "165613.210000", "165613.670000", "165614.130000", "165614.590000", "165615.050000", "165615.510000", "165615.970000", "165616.430000", "165616.890000", "165617.350000", "165617.810000", "165618.270000", "165618.730000", "165619.190000", "165619.650000", "165620.110000", "165620.570000", "165621.030000", "165621.490000", "165621.950000", "165622.410000", "165622.870000", "165623.330000", "165623.790000", "165624.250000", "165624.710000", "165625.170000", "165625.630000", "165626.090000", "165626.550000", "165627.010000", "165627.470000", "165627.930000", "165628.390000", "165628.850000", "165629.310000", "165629.770000", "165630.230000", "165630.690000", "165631.150000", "165631.610000", "165632.070000", "165632.530000", "165632.990000", "165633.450000", "165633.910000", "165634.370000", "165634.830000", "165635.290000", "165635.750000", "165636.210000", "165636.670000", "165637.130000", "165637.590000", "165638.050000", "165638.510000", "165638.970000", "165639.430000", "165639.890000", "165640.350000", "165640.810000", "165641.270000", "165641.730000", "165642.190000", "165642.650000", "165643.110000", "165643.570000", "165644.030000", "165644.490000", "165644.950000", "165645.410000", "165645.870000", "165646.330000", "165646.790000", "165647.250000", "165647.710000", "165648.170000", "165648.630000", "165649.090000", "165649.550000", "165650.010000", "165650.470000", "165650.930000", "165651.390000", "165651.850000", "165652.310000", "165652.770000", "165653.230000", "165653.690000", "165654.150000", "165654.610000", "165655.070000", "165655.530000", "165655.990000", "165656.450000", "165656.910000", "165657.370000", "165657.830000", "165658.290000", "165658.750000", "165659.210000", "165659.670000", "165700.130000", "165700.590000", "165701.050000", "165701.510000", "165701.970000", "165702.430000", "165702.890000", "165703.350000", "165703.810000", "165704.270000", "165704.730000", "165705.190000", "165705.650000", "165706.110000", "165706.570000", "165707.030000", "165707.490000", "165707.950000", "165708.410000", "165708.870000", "165709.330000", "165709.790000", "165710.250000", "165710.710000"],
