{
  "AcquisitionMatrixPE": 82,
  "AcquisitionNumber": 1,
  "AcquisitionTime": "21:50:33.695000",
  "BandwidthPerPixelPhaseEncode": 24.888,
  "BaseResolution": 82,
  "BodyPartExamined": "BRAIN",
  "ConsistencyInfo": "N4_VE11E_LATEST_20181129",
  "ConversionSoftware": "dcm2niix",
  "ConversionSoftwareVersion": "v1.0.20201102",
  "DerivedVendorReportedEchoSpacing": 0.00049,
  "DeviceSerialNumber": "66112",
  "DwellTime": 2e-06,
  "EchoTime": 0.0272,
  "EchoTrainLength": 82,
  "EffectiveEchoSpacing": 0.00049,
  "FlipAngle": 44,
  "ImageComments": "Unaliased MB8/PE3",
  "ImageOrientationPatientDICOM": [0.999241, 0.0244847, -0.0303095, -0.0263405, 0.997702, -0.0624274],
  "ImageType": [
    "ORIGINAL",
    "PRIMARY",
    "M",
    "MB",
    "ND",
    "NORM",
    "MOSAIC"
],
  "ImagingFrequency": 123.259,
  "InPlanePhaseEncodingDirectionDICOM": "COL",
  "InstitutionAddress": "Maynard 3,Hanover,NH,US,03755",
  "InstitutionName": "Dartmouth College - PBS",
  "InstitutionalDepartmentName": "Department",
  "MRAcquisitionType": "2D",
  "MagneticFieldStrength": 3,
  "Manufacturer": "Siemens",
  "ManufacturersModelName": "Prisma",
  "Modality": "MR",
  "MultibandAccelerationFactor": 8,
  "PartialFourier": 1,
  "PatientPosition": "HFS",
  "PercentPhaseFOV": 100,
  "PercentSampling": 100,
  "PhaseEncodingDirection": "j-",
  "PhaseEncodingSteps": 82,
  "PhaseResolution": 1,
  "PixelBandwidth": 3050,
  "ProcedureStepDescription": "Wager_Wager^1076_spacetop",
  "ProtocolName": "func_run-04_task-alignvideo_acq-ap-mb8",
  "PulseSequenceDetails": "%CustomerSeq%\\cmrr_mbep2d_bold",
  "ReceiveCoilActiveElements": "HEA;HEP",
  "ReceiveCoilName": "Head_32",
  "ReconMatrixPE": 82,
  "RepetitionTime": 0.46,
  "SAR": 0.0980151,
  "ScanOptions": "FS",
  "ScanningSequence": "EP",
  "SequenceName": "epfid2d1_82",
  "SequenceVariant": "SK\\SS",
  "SeriesDescription": "func_run-04_task-alignvideo_acq-ap-mb8",
  "SeriesNumber": 38,
  "ShimSetting": [4223, -7761, -7250, 95, -146, -149, -132, 60],
  "SliceThickness": 2.7,
  "SliceTiming": [0, 0.2525, 0.0625, 0.315, 0.125, 0.3775, 0.19, 0, 0.2525, 0.0625, 0.315, 0.125, 0.3775, 0.19, 0, 0.2525, 0.0625, 0.315, 0.125, 0.3775, 0.19, 0, 0.2525, 0.0625, 0.315, 0.125, 0.3775, 0.19, 0, 0.2525, 0.0625, 0.315, 0.125, 0.3775, 0.19, 0, 0.2525, 0.0625, 0.315, 0.125, 0.3775, 0.19, 0, 0.2525, 0.0625, 0.315, 0.125, 0.3775, 0.19, 0, 0.2525, 0.0625, 0.315, 0.125, 0.3775, 0.19],
  "SoftwareVersions": "syngo MR E11",
  "SpacingBetweenSlices": 2.7,
  "StationName": "AWP66112",
  "TaskName": "alignvideo",
  "TotalReadoutTime": 0.03969,
  "TxRefAmp": 294.696,
  "WipMemBlock": "8e81f841-d38e-4fa3-a04f-a675c43ad251||Sequence: R016 ve11e/master r/434b28f1; Aug  7 2019 18:53:46 by eja",
  "dcmmeta_affine": [
    [-2.68088960647583, -0.07066969573497772, -0.0775204747915268, 114.82727813720703],
    [-0.0656905248761177, 2.6767611503601074, -0.17058148980140686, -89.91136169433594],
    [-0.08131805062294006, 0.16748806834220886, 2.693490743637085, -106.24281311035156],
    [0.0, 0.0, 0.0, 1.0]
],
  "dcmmeta_reorient_transform": [
    [0.0, -1.0, 0.0, 81.0],
    [1.0, 0.0, 0.0, 0.0],
    [0.0, 0.0, 1.0, 0.0],
    [0.0, 0.0, 0.0, 1.0]
],
  "dcmmeta_shape": [82, 82, 56, 914],
  "dcmmeta_slice_dim": 2,
  "dcmmeta_version": 0.6,
  "global": {
    "const": {
      "AccessionNumber": "A004803",
      "AcquisitionMatrix": [82, 0, 0, 82],
      "AngioFlag": "N",
      "BitsAllocated": 16,
      "BitsStored": 16,
      "BodyPartExamined": "BRAIN",
      "Columns": 656,
      "EchoNumbers": 1,
      "EchoTime": 27.2,
      "EchoTrainLength": 82,
      "FlipAngle": 44.0,
      "HighBit": 15,
      "ImageOrientationPatient": [0.999240631102, 0.02448465045549, -0.0303094547453, -0.026340523022, 0.9977018594031, -0.0624273705239],
      "ImagePositionPatient": [-858.23613685255, -913.98992370434, -21.268918782712],
      "ImageType": [
        "ORIGINAL",
        "PRIMARY",
        "M",
        "MB",
        "ND",
        "NORM",
        "MOSAIC"
],
      "ImagedNucleus": "1H",
      "ImagingFrequency": 123.259102,
      "InPlanePhaseEncodingDirection": "COL",
      "MRAcquisitionType": "2D",
      "MagneticFieldStrength": 3.0,
      "Manufacturer": "SIEMENS",
      "ManufacturerModelName": "Prisma",
      "Modality": "MR",
      "NumberOfAverages": 1.0,
      "NumberOfPhaseEncodingSteps": 82,
      "PercentPhaseFieldOfView": 100.0,
      "PercentSampling": 100.0,
      "PerformedProcedureStepStartTime": "194143.364000",
      "PhotometricInterpretation": "MONOCHROME2",
      "PixelBandwidth": 3050.0,
      "PixelRepresentation": 0,
      "PixelSpacing": [2.6829268932343, 2.6829268932343],
      "ProtocolName": "func_run-04_task-alignvideo_acq-ap-mb8",
      "RepetitionTime": 460.0,
      "Rows": 656,
      "SAR": 0.09801513775153,
      "SamplesPerPixel": 1,
      "ScanOptions": "FS",
      "ScanningSequence": "EP",
      "SequenceName": "epfid2d1_82",
      "SequenceVariant": [
        "SK",
        "SS"
],
      "SeriesDescription": "func_run-04_task-alignvideo_acq-ap-mb8",
      "SeriesNumber": 38,
      "SeriesTime": "215054.245000",
      "SliceLocation": -103.60306602586,
      "SliceThickness": 2.7000000476837,
      "SmallestImagePixelValue": 0,
      "SoftwareVersions": "syngo MR E11",
      "SpacingBetweenSlices": 2.6999999690872,
      "SpecificCharacterSet": "ISO_IR 100",
      "StudyID": "1",
      "StudyTime": "194143.304000",
      "TransmitCoilName": "Body",
      "VariableFlipAngleFlag": "N",
      "WindowCenterWidthExplanation": "Algo1"
    },
    "slices": {}
  },
  "time": {
    "samples": {
      "AcquisitionNumber": [1, 2, 3, 4, 5, 6, 7, 8, 9, 10, 11, 12, 13, 14, 15, 16, 17, 18, 19, 20, 21, 22, 23, 24, 25, 26, 27, 28, 29, 30, 31, 32, 33, 34, 35, 36, 37, 38, 39, 40, 41, 42, 43, 44, 45, 46, 47, 48, 49, 50, 51, 52, 53, 54, 55, 56, 57, 58, 59, 60, 61, 62, 63, 64, 65, 66, 67, 68, 69, 70, 71, 72, 73, 74, 75, 76, 77, 78, 79, 80, 81, 82, 83, 84, 85, 86, 87, 88, 89, 90, 91, 92, 93, 94, 95, 96, 97, 98, 99, 100, 101, 102, 103, 104, 105, 106, 107, 108, 109, 110, 111, 112, 113, 114, 115, 116, 117, 118, 119, 120, 121, 122, 123, 124, 125, 126, 127, 128, 129, 130, 131, 132, 133, 134, 135, 136, 137, 138, 139, 140, 141, 142, 143, 144, 145, 146, 147, 148, 149, 150, 151, 152, 153, 154, 155, 156, 157, 158, 159, 160, 161, 162, 163, 164, 165, 166, 167, 168, 169, 170, 171, 172, 173, 174, 175, 176, 177, 178, 179, 180, 181, 182, 183, 184, 185, 186, 187, 188, 189, 190, 191, 192, 193, 194, 195, 196, 197, 198, 199, 200, 201, 202, 203, 204, 205, 206, 207, 208, 209, 210, 211, 212, 213, 214, 215, 216, 217, 218, 219, 220, 221, 222, 223, 224, 225, 226, 227, 228, 229, 230, 231, 232, 233, 234, 235, 236, 237, 238, 239, 240, 241, 242, 243, 244, 245, 246, 247, 248, 249, 250, 251, 252, 253, 254, 255, 256, 257, 258, 259, 260, 261, 262, 263, 264, 265, 266, 267, 268, 269, 270, 271, 272, 273, 274, 275, 276, 277, 278, 279, 280, 281, 282, 283, 284, 285, 286, 287, 288, 289, 290, 291, 292, 293, 294, 295, 296, 297, 298, 299, 300, 301, 302, 303, 304, 305, 306, 307, 308, 309, 310, 311, 312, 313, 314, 315, 316, 317, 318, 319, 320, 321, 322, 323, 324, 325, 326, 327, 328, 329, 330, 331, 332, 333, 334, 335, 336, 337, 338, 339, 340, 341, 342, 343, 344, 345, 346, 347, 348, 349, 350, 351, 352, 353, 354, 355, 356, 357, 358, 359, 360, 361, 362, 363, 364, 365, 366, 367, 368, 369, 370, 371, 372, 373, 374, 375, 376, 377, 378, 379, 380, 381, 382, 383, 384, 385, 386, 387, 388, 389, 390, 391, 392, 393, 394, 395, 396, 397, 398, 399, 400, 401, 402, 403, 404, 405, 406, 407, 408, 409, 410, 411, 412, 413, 414, 415, 416, 417, 418, 419, 420, 421, 422, 423, 424, 425, 426, 427, 428, 429, 430, 431, 432, 433, 434, 435, 436, 437, 438, 439, 440, 441, 442, 443, 444, 445, 446, 447, 448, 449, 450, 451, 452, 453, 454, 455, 456, 457, 458, 459, 460, 461, 462, 463, 464, 465, 466, 467, 468, 469, 470, 471, 472, 473, 474, 475, 476, 477, 478, 479, 480, 481, 482, 483, 484, 485, 486, 487, 488, 489, 490, 491, 492, 493, 494, 495, 496, 497, 498, 499, 500, 501, 502, 503, 504, 505, 506, 507, 508, 509, 510, 511, 512, 513, 514, 515, 516, 517, 518, 519, 520, 521, 522, 523, 524, 525, 526, 527, 528, 529, 530, 531, 532, 533, 534, 535, 536, 537, 538, 539, 540, 541, 542, 543, 544, 545, 546, 547, 548, 549, 550, 551, 552, 553, 554, 555, 556, 557, 558, 559, 560, 561, 562, 563, 564, 565, 566, 567, 568, 569, 570, 571, 572, 573, 574, 575, 576, 577, 578, 579, 580, 581, 582, 583, 584, 585, 586, 587, 588, 589, 590, 591, 592, 593, 594, 595, 596, 597, 598, 599, 600, 601, 602, 603, 604, 605, 606, 607, 608, 609, 610, 611, 612, 613, 614, 615, 616, 617, 618, 619, 620, 621, 622, 623, 624, 625, 626, 627, 628, 629, 630, 631, 632, 633, 634, 635, 636, 637, 638, 639, 640, 641, 642, 643, 644, 645, 646, 647, 648, 649, 650, 651, 652, 653, 654, 655, 656, 657, 658, 659, 660, 661, 662, 663, 664, 665, 666, 667, 668, 669, 670, 671, 672, 673, 674, 675, 676, 677, 678, 679, 680, 681, 682, 683, 684, 685, 686, 687, 688, 689, 690, 691, 692, 693, 694, 695, 696, 697, 698, 699, 700, 701, 702, 703, 704, 705, 706, 707, 708, 709, 710, 711, 712, 713, 714, 715, 716, 717, 718, 719, 720, 721, 722, 723, 724, 725, 726, 727, 728, 729, 730, 731, 732, 733, 734, 735, 736, 737, 738, 739, 740, 741, 742, 743, 744, 745, 746, 747, 748, 749, 750, 751, 752, 753, 754, 755, 756, 757, 758, 759, 760, 761, 762, 763, 764, 765, 766, 767, 768, 769, 770, 771, 772, 773, 774, 775, 776, 777, 778, 779, 780, 781, 782, 783, 784, 785, 786, 787, 788, 789, 790, 791, 792, 793, 794, 795, 796, 797, 798, 799, 800, 801, 802, 803, 804, 805, 806, 807, 808, 809, 810, 811, 812, 813, 814, 815, 816, 817, 818, 819, 820, 821, 822, 823, 824, 825, 826, 827, 828, 829, 830, 831, 832, 833, 834, 835, 836, 837, 838, 839, 840, 841, 842, 843, 844, 845, 846, 847, 848, 849, 850, 851, 852, 853, 854, 855, 856, 857, 858, 859, 860, 861, 862, 863, 864, 865, 866, 867, 868, 869, 870, 871, 872, 873, 874, 875, 876, 877, 878, 879, 880, 881, 882, 883, 884, 885, 886, 887, 888, 889, 890, 891, 892, 893, 894, 895, 896, 897, 898, 899, 900, 901, 902, 903, 904, 905, 906, 907, 908, 909, 910, 911, 912, 913, 914],
      "AcquisitionTime": ["215033.695000", "215034.155000", "215034.615000", "215035.075000", "215035.535000", "215035.995000", "215036.455000", "215036.915000", "215037.375000", "215037.835000", "215038.295000", "215038.755000", "215039.215000", "215039.675000", "215040.135000", "215040.595000", "215041.055000", "215041.515000", "215041.975000", "215042.435000", "215042.895000", "215043.355000", "215043.815000", "215044.275000", "215044.735000", "215045.195000", "215045.655000", "215046.115000", "215046.575000", "215047.035000", "215047.495000", "215047.955000", "215048.415000", "215048.875000", "215049.335000", "215049.795000", "215050.255000", "215050.715000", "215051.175000", "215051.635000", "215052.095000", "215052.555000", "215053.015000", "215053.475000", "215053.935000", "215054.395000", "215054.855000", "215055.315000", "215055.775000", "215056.235000", "215056.695000", "215057.155000", "215057.615000", "215058.075000", "215058.535000", "215058.995000", "215059.455000", "215059.915000", "215100.375000", "215100.835000", "215101.295000", "215101.755000", "215102.215000", "215102.675000", "215103.135000", "215103.595000", "215104.055000", "215104.515000", "215104.975000", "215105.435000", "215105.895000", "215106.355000", "215106.815000", "215107.275000", "215107.735000", "215108.195000", "215108.655000", "215109.115000", "215109.575000", "215110.035000", "215110.495000", "215110.955000", "215111.415000", "215111.875000", "215112.335000", "215112.795000", "215113.255000", "215113.715000", "215114.175000", "215114.635000", "215115.095000", "215115.555000", "215116.015000", "215116.475000", "215116.935000", "215117.395000", "215117.855000", "215118.315000", "215118.775000", "215119.235000", "215119.695000", "215120.155000", "215120.615000", "215121.075000", "215121.535000", "215121.995000", "215122.455000", "215122.915000", "215123.375000", "215123.835000", "215124.295000", "215124.755000", "215125.215000", "215125.675000", "215126.135000", "215126.595000", "215127.055000", "215127.515000", "215127.975000", "215128.435000", "215128.895000", "215129.355000", "215129.815000", "215130.275000", "215130.735000", "215131.195000", "215131.655000", "215132.115000", "215132.575000", "215133.035000", "215133.495000", "215133.955000", "215134.415000", "215134.875000", "215135.335000", "215135.795000", "215136.255000", "215136.715000", "215137.175000", "215137.635000", "215138.095000", "215138.555000", "215139.015000", "215139.475000", "215139.935000", "215140.395000", "215140.855000", "215141.315000", "215141.775000", "215142.235000", "215142.695000", "215143.155000", "215143.615000", "215144.075000", "215144.535000", "215144.995000", "215145.455000", "215145.915000", "215146.375000", "215146.835000", "215147.295000", "215147.755000", "215148.215000", "215148.675000", "215149.135000", "215149.595000", "215150.055000", "215150.515000", "215150.975000", "215151.435000", "215151.895000", "215152.355000", "215152.815000", "215153.275000", "215153.735000", "215154.195000", "215154.655000", "215155.115000", "215155.575000", "215156.035000", "215156.495000", "215156.955000", "215157.415000", "215157.875000", "215158.335000", "215158.795000", "215159.255000", "215159.715000", "215200.175000", "215200.635000", "215201.095000", "215201.555000", "215202.015000", "215202.475000", "215202.935000", "215203.395000", "215203.855000", "215204.315000", "215204.775000", "215205.235000", "215205.695000", "215206.155000", "215206.615000", "215207.075000", "215207.535000", "215207.995000", "215208.455000", "215208.915000", "215209.375000", "215209.835000", "215210.295000", "215210.755000", "215211.215000", "215211.675000", "215212.135000", "215212.595000", "215213.055000", "215213.515000", "215213.975000", "215214.435000", "215214.895000", "215215.355000", "215215.815000", "215216.275000", "215216.735000", "215217.195000", "215217.655000", "215218.115000", "215218.575000", "215219.035000", "215219.495000", "215219.955000", "215220.415000", "215220.875000", "215221.335000", "215221.795000", "215222.255000", "215222.715000", "215223.175000", "215223.635000", "215224.095000", "215224.555000", "215225.015000", "215225.475000", "215225.935000", "215226.395000", "215226.855000", "215227.315000", "215227.775000", "215228.235000", "215228.695000", "215229.155000", "215229.615000", "215230.075000", "215230.535000", "215230.995000", "215231.455000", "215231.915000", "215232.375000", "215232.835000", "215233.295000", "215233.755000", "215234.215000", "215234.675000", "215235.135000", "215235.595000", "215236.055000", "215236.515000", "215236.975000", "215237.435000", "215237.895000", "215238.355000", "215238.815000", "215239.275000", "215239.735000", "215240.195000", "215240.655000", "215241.115000", "215241.575000", "215242.035000", "215242.495000", "215242.955000", "215243.415000", "215243.875000", "215244.335000", "215244.795000", "215245.255000", "215245.715000", "215246.175000", "215246.635000", "215247.095000", "215247.555000", "215248.015000", "215248.475000", "215248.935000", "215249.395000", "215249.855000", "215250.315000", "215250.775000", "215251.235000", "215251.695000", "215252.155000", "215252.615000", "215253.075000", "215253.535000", "215253.995000", "215254.455000", "215254.915000", "215255.375000", "215255.835000", "215256.295000", "215256.755000", "215257.215000", "215257.675000", "215258.135000", "215258.595000", "215259.055000", "215259.515000", "215259.975000", "215300.435000", "215300.895000", "215301.355000", "215301.815000", "215302.275000", "215302.735000", "215303.195000", "215303.655000", "215304.115000", "215304.575000", "215305.035000", "215305.495000", "215305.955000", "215306.415000", "215306.875000", "215307.335000", "215307.795000", "215308.255000", "215308.715000", "215309.175000", "215309.635000", "215310.095000", "215310.555000", "215311.015000", "215311.475000", "215311.935000", "215312.395000", "215312.855000", "215313.315000", "215313.775000", "215314.235000", "215314.695000", "215315.155000", "215315.615000", "215316.075000", "215316.535000", "215316.995000", "215317.455000", "215317.915000", "215318.375000", "215318.835000", "215319.295000", "215319.755000", "215320.215000", "215320.675000", "215321.135000", "215321.595000", "215322.055000", "215322.515000", "215322.975000", "215323.435000", "215323.895000", "215324.355000", "215324.815000", "215325.275000", "215325.735000", "215326.195000", "215326.655000", "215327.115000", "215327.575000", "215328.035000", "215328.495000", "215328.955000", "215329.415000", "215329.875000", "215330.335000", "215330.795000", "215331.255000", "215331.715000", "215332.175000", "215332.635000", "215333.095000", "215333.555000", "215334.015000", "215334.475000", "215334.935000", "215335.395000", "215335.855000", "215336.315000", "215336.775000", "215337.235000", "215337.695000", "215338.155000", "215338.615000", "215339.075000", "215339.535000", "215339.995000", "215340.455000", "215340.915000", "215341.375000", "215341.835000", "215342.295000", "215342.755000", "215343.215000", "215343.675000", "215344.135000", "215344.595000", "215345.055000", "215345.515000", "215345.975000", "215346.435000", "215346.895000", "215347.355000", "215347.815000", "215348.275000", "215348.735000", "215349.195000", "215349.655000", "215350.115000", "215350.575000", "215351.035000", "215351.495000", "215351.955000", "215352.415000", "215352.875000", "215353.335000", "215353.795000", "215354.255000", "215354.715000", "215355.175000", "215355.635000", "215356.095000", "215356.555000", "215357.015000", "215357.475000", "215357.935000", "215358.395000", "215358.855000", "215359.315000", "215359.775000", "215400.235000", "215400.695000", "215401.155000", "215401.615000", "215402.075000", "215402.535000", "215402.995000", "215403.455000", "215403.915000", "215404.375000", "215404.835000", "215405.295000", "215405.755000", "215406.215000", "215406.675000", "215407.135000", "215407.595000", "215408.055000", "215408.515000", "215408.975000", "215409.435000", "215409.895000", "215410.355000", "215410.815000", "215411.275000", "215411.735000", "215412.195000", "215412.655000", "215413.115000", "215413.575000", "215414.035000", "215414.495000", "215414.955000", "215415.415000", "215415.875000", "215416.335000", "215416.795000", "215417.255000", "215417.715000", "215418.175000", "215418.635000", "215419.095000", "215419.555000", "215420.015000", "215420.475000", "215420.935000", "215421.395000", "215421.855000", "215422.315000", "215422.775000", "215423.235000", "215423.695000", "215424.155000", "215424.615000", "215425.075000", "215425.535000", "215425.995000", "215426.455000", "215426.915000", "215427.375000", "215427.835000", "215428.295000", "215428.755000", "215429.215000", "215429.675000", "215430.135000", "215430.595000", "215431.055000", "215431.515000", "215431.975000", "215432.435000", "215432.895000", "215433.355000", "215433.815000", "215434.275000", "215434.735000", "215435.195000", "215435.655000", "215436.115000", "215436.575000", "215437.035000", "215437.495000", "215437.955000", "215438.415000", "215438.875000", "215439.335000", "215439.795000", "215440.255000", "215440.715000", "215441.175000", "215441.635000", "215442.095000", "215442.555000", "215443.015000", "215443.475000", "215443.935000", "215444.395000", "215444.855000", "215445.315000", "215445.775000", "215446.235000", "215446.695000", "215447.155000", "215447.615000", "215448.075000", "215448.535000", "215448.995000", "215449.455000", "215449.915000", "215450.375000", "215450.835000", "215451.295000", "215451.755000", "215452.215000", "215452.675000", "215453.135000", "215453.595000", "215454.055000", "215454.515000", "215454.975000", "215455.435000", "215455.895000", "215456.355000", "215456.815000", "215457.275000", "215457.735000", "215458.195000", "215458.655000", "215459.115000", "215459.575000", "215500.035000", "215500.495000", "215500.955000", "215501.415000", "215501.875000", "215502.335000", "215502.795000", "215503.255000", "215503.715000", "215504.175000", "215504.635000", "215505.095000", "215505.555000", "215506.015000", "215506.475000", "215506.935000", "215507.395000", "215507.855000", "215508.315000", "215508.775000", "215509.235000", "215509.695000", "215510.155000", "215510.615000", "215511.075000", "215511.535000", "215511.995000", "215512.455000", "215512.915000", "215513.375000", "215513.835000", "215514.295000", "215514.755000", "215515.215000", "215515.675000", "215516.135000", "215516.595000", "215517.055000", "215517.515000", "215517.975000", "215518.435000", "215518.895000", "215519.355000", "215519.815000", "215520.275000", "215520.735000", "215521.195000", "215521.655000", "215522.115000", "215522.575000", "215523.035000", "215523.495000", "215523.955000", "215524.415000", "215524.875000", "215525.335000", "215525.795000", "215526.255000", "215526.715000", "215527.175000", "215527.635000", "215528.095000", "215528.555000", "215529.015000", "215529.475000", "215529.935000", "215530.395000", "215530.855000", "215531.315000", "215531.775000", "215532.235000", "215532.695000", "215533.155000", "215533.615000", "215534.075000", "215534.535000", "215534.995000", "215535.455000", "215535.915000", "215536.375000", "215536.835000", "215537.295000", "215537.755000", "215538.215000", "215538.675000", "215539.135000", "215539.595000", "215540.055000", "215540.515000", "215540.975000", "215541.435000", "215541.895000", "215542.355000", "215542.815000", "215543.275000", "215543.735000", "215544.195000", "215544.655000", "215545.115000", "215545.575000", "215546.035000", "215546.495000", "215546.955000", "215547.415000", "215547.875000", "215548.335000", "215548.795000", "215549.255000", "215549.715000", "215550.175000", "215550.635000", "215551.095000", "215551.555000", "215552.015000", "215552.475000", "215552.935000", "215553.395000", "215553.855000", "215554.315000", "215554.775000", "215555.235000", "215555.695000", "215556.155000", "215556.615000", "215557.075000", "215557.535000", "215557.995000", "215558.455000", "215558.915000", "215559.375000", "215559.835000", "215600.295000", "215600.755000", "215601.215000", "215601.675000", "215602.135000", "215602.595000", "215603.055000", "215603.515000", "215603.975000", "215604.435000", "215604.895000", "215605.355000", "215605.815000", "215606.275000", "215606.735000", "215607.195000", "215607.655000", "215608.115000", "215608.575000", "215609.035000", "215609.495000", "215609.955000", "215610.415000", "215610.875000", "215611.335000", "215611.795000", "215612.255000", "215612.715000", "215613.175000", "215613.635000", "215614.095000", "215614.555000", "215615.015000", "215615.475000", "215615.935000", "215616.395000", "215616.855000", "215617.315000", "215617.775000", "215618.235000", "215618.695000", "215619.155000", "215619.615000", "215620.075000", "215620.535000", "215620.995000", "215621.455000", "215621.915000", "215622.375000", "215622.835000", "215623.295000", "215623.755000", "215624.215000", "215624.675000", "215625.135000", "215625.595000", "215626.055000", "215626.515000", "215626.975000", "215627.435000", "215627.895000", "215628.355000", "215628.815000", "215629.275000", "215629.735000", "215630.195000", "215630.655000", "215631.115000", "215631.575000", "215632.035000", "215632.495000", "215632.955000", "215633.415000", "215633.875000", "215634.335000", "215634.795000", "215635.255000", "215635.715000", "215636.175000", "215636.635000", "215637.095000", "215637.555000", "215638.015000", "215638.475000", "215638.935000", "215639.395000", "215639.855000", "215640.315000", "215640.775000", "215641.235000", "215641.695000", "215642.155000", "215642.615000", "215643.075000", "215643.535000", "215643.995000", "215644.455000", "215644.915000", "215645.375000", "215645.835000", "215646.295000", "215646.755000", "215647.215000", "215647.675000", "215648.135000", "215648.595000", "215649.055000", "215649.515000", "215649.975000", "215650.435000", "215650.895000", "215651.355000", "215651.815000", "215652.275000", "215652.735000", "215653.195000", "215653.655000", "215654.115000", "215654.575000", "215655.035000", "215655.495000", "215655.955000", "215656.415000", "215656.875000", "215657.335000", "215657.795000", "215658.255000", "215658.715000", "215659.175000", "215659.635000", "215700.095000", "215700.555000", "215701.015000", "215701.475000", "215701.935000", "215702.395000", "215702.855000", "215703.315000", "215703.775000", "215704.235000", "215704.695000", "215705.155000", "215705.615000", "215706.075000", "215706.535000", "215706.995000", "215707.455000", "215707.915000", "215708.375000", "215708.835000", "215709.295000", "215709.755000", "215710.215000", "215710.675000", "215711.135000", "215711.595000", "215712.055000", "215712.515000", "215712.975000", "215713.435000", "215713.895000", "215714.355000", "215714.815000", "215715.275000", "215715.735000", "215716.195000", "215716.655000", "215717.115000", "215717.575000", "215718.035000", "215718.495000", "215718.955000", "215719.415000", "215719.875000", "215720.335000", "215720.795000", "215721.255000", "215721.715000", "215722.175000", "215722.635000", "215723.095000", "215723.555000", "215724.015000", "215724.475000", "215724.935000", "215725.395000", "215725.855000", "215726.315000", "215726.775000", "215727.235000", "215727.695000", "215728.155000", "215728.615000", "215729.075000", "215729.535000", "215729.995000", "215730.455000", "215730.915000", "215731.375000", "215731.835000", "215732.295000", "215732.755000", "215733.215000", "215733.675000"],
