{
  "AcquisitionMatrixPE": 82,
  "AcquisitionNumber": 1,
  "AcquisitionTime": "16:21:20.420000",
  "BandwidthPerPixelPhaseEncode": 24.888,
  "BaseResolution": 82,
  "BodyPartExamined": "BRAIN",
  "ConsistencyInfo": "N4_VE11E_LATEST_20181129",
  "ConversionSoftware": "dcm2niix",
  "ConversionSoftwareVersion": "v1.0.20201102",
  "DerivedVendorReportedEchoSpacing": 0.00049,
  "DeviceSerialNumber": "66112",
  "DwellTime": 2e-06,
  "EchoTime": 0.0272,
  "EchoTrainLength": 82,
  "EffectiveEchoSpacing": 0.00049,
  "FlipAngle": 44,
  "ImageComments": "Unaliased MB8/PE3",
  "ImageOrientationPatientDICOM": [0.997864, 0.0438205, 0.0484414, -0.0374621, 0.991429, -0.125159],
  "ImageType": [
    "ORIGINAL",
    "PRIMARY",
    "M",
    "MB",
    "ND",
    "NORM",
    "MOSAIC"
],
  "ImagingFrequency": 123.259,
  "InPlanePhaseEncodingDirectionDICOM": "COL",
  "InstitutionAddress": "Maynard 3,Hanover,NH,US,03755",
  "InstitutionName": "Dartmouth College - PBS",
  "InstitutionalDepartmentName": "Department",
  "MRAcquisitionType": "2D",
  "MagneticFieldStrength": 3,
  "Manufacturer": "Siemens",
  "ManufacturersModelName": "Prisma",
  "Modality": "MR",
  "MultibandAccelerationFactor": 8,
  "PartialFourier": 1,
  "PatientPosition": "HFS",
  "PercentPhaseFOV": 100,
  "PercentSampling": 100,
  "PhaseEncodingDirection": "j-",
  "PhaseEncodingSteps": 82,
  "PhaseResolution": 1,
  "PixelBandwidth": 3050,
  "ProcedureStepDescription": "Wager_Wager^1076_spacetop",
  "ProtocolName": "func_run-01_task-social_acq-ap-mb8",
  "PulseSequenceDetails": "%CustomerSeq%\\cmrr_mbep2d_bold",
  "ReceiveCoilActiveElements": "HEA;HEP",
  "ReceiveCoilName": "Head_32",
  "ReconMatrixPE": 82,
  "RepetitionTime": 0.46,
  "SAR": 0.125183,
  "ScanOptions": "FS",
  "ScanningSequence": "EP",
  "SequenceName": "epfid2d1_82",
  "SequenceVariant": "SK\\SS",
  "SeriesDescription": "func_run-01_task-social_acq-ap-mb8",
  "SeriesNumber": 8,
  "ShimSetting": [4244, -7752, -7229, 4, -164, -105, -47, 53],
  "SliceThickness": 2.7,
  "SliceTiming": [0, 0.2525, 0.0625, 0.315, 0.125, 0.3775, 0.19, 0, 0.2525, 0.0625, 0.315, 0.125, 0.3775, 0.19, 0, 0.2525, 0.0625, 0.315, 0.125, 0.3775, 0.19, 0, 0.2525, 0.0625, 0.315, 0.125, 0.3775, 0.19, 0, 0.2525, 0.0625, 0.315, 0.125, 0.3775, 0.19, 0, 0.2525, 0.0625, 0.315, 0.125, 0.3775, 0.19, 0, 0.2525, 0.0625, 0.315, 0.125, 0.3775, 0.19, 0, 0.2525, 0.0625, 0.315, 0.125, 0.3775, 0.19],
  "SoftwareVersions": "syngo MR E11",
  "SpacingBetweenSlices": 2.7,
  "StationName": "AWP66112",
  "TaskName": "social",
  "TotalReadoutTime": 0.03969,
  "TxRefAmp": 313.619,
  "WipMemBlock": "42a4f990-469a-47fb-9419-32b1b32ee1ff||Sequence: R016 ve11e/master r/434b28f1; Aug  7 2019 18:53:46 by eja",
  "dcmmeta_affine": [
    [-2.677196979522705, -0.10050800442695618, 0.14447888731956482, 112.00318145751953],
    [-0.11756720393896103, 2.6599321365356445, -0.33230727910995483, -83.87351989746094],
    [0.12996463477611542, 0.33579185605049133, 2.67557430267334, -111.34806823730469],
    [0.0, 0.0, 0.0, 1.0]
],
  "dcmmeta_reorient_transform": [
    [0.0, -1.0, 0.0, 81.0],
    [1.0, 0.0, 0.0, 0.0],
    [0.0, 0.0, 1.0, 0.0],
    [0.0, 0.0, 0.0, 1.0]
],
  "dcmmeta_shape": [82, 82, 56, 872],
  "dcmmeta_slice_dim": 2,
  "dcmmeta_version": 0.6,
  "global": {
    "const": {
      "AccessionNumber": "A004340",
      "AcquisitionMatrix": [82, 0, 0, 82],
      "AngioFlag": "N",
      "BitsAllocated": 16,
      "BitsStored": 16,
      "BodyPartExamined": "BRAIN",
      "Columns": 656,
      "EchoNumbers": 1,
      "EchoTime": 27.2,
      "EchoTrainLength": 82,
      "FlipAngle": 44.0,
      "HighBit": 15,
      "ImageOrientationPatient": [0.99786431841268, 0.04382050349829, 0.04844136158228, -0.037462072145, 0.99142920666616, -0.1251587844296],
      "ImagePositionPatient": [-843.37177960145, -928.72327694954, -25.076511133362],
      "ImageType": [
        "ORIGINAL",
        "PRIMARY",
        "M",
        "MB",
        "ND",
        "NORM",
        "MOSAIC"
],
      "ImagedNucleus": "1H",
      "ImagingFrequency": 123.259126,
      "InPlanePhaseEncodingDirection": "COL",
      "MRAcquisitionType": "2D",
      "MagneticFieldStrength": 3.0,
      "Manufacturer": "SIEMENS",
      "ManufacturerModelName": "Prisma",
      "Modality": "MR",
      "NumberOfAverages": 1.0,
      "NumberOfPhaseEncodingSteps": 82,
      "PercentPhaseFieldOfView": 100.0,
      "PercentSampling": 100.0,
      "PerformedProcedureStepStartTime": "160510.737000",
      "PhotometricInterpretation": "MONOCHROME2",
      "PixelBandwidth": 3050.0,
      "PixelRepresentation": 0,
      "PixelSpacing": [2.6829268932343, 2.6829268932343],
      "ProtocolName": "func_run-01_task-social_acq-ap-mb8",
      "RepetitionTime": 460.0,
      "Rows": 656,
      "SAR": 0.12518291324938,
      "SamplesPerPixel": 1,
      "ScanOptions": "FS",
      "ScanningSequence": "EP",
      "SequenceName": "epfid2d1_82",
      "SequenceVariant": [
        "SK",
        "SS"
],
      "SeriesDescription": "func_run-01_task-social_acq-ap-mb8",
      "SeriesNumber": 8,
      "SeriesTime": "162137.572000",
      "SliceLocation": -94.024501607589,
      "SliceThickness": 2.7000000476837,
      "SmallestImagePixelValue": 0,
      "SoftwareVersions": "syngo MR E11",
      "SpacingBetweenSlices": 2.6999999403963,
      "SpecificCharacterSet": "ISO_IR 100",
      "StudyID": "3",
      "StudyTime": "160510.685000",
      "TransmitCoilName": "Body",
      "VariableFlipAngleFlag": "N",
      "WindowCenterWidthExplanation": "Algo1"
    },
    "slices": {}
  },
  "time": {
    "samples": {
      "AcquisitionNumber": [1, 2, 3, 4, 5, 6, 7, 8, 9, 10, 11, 12, 13, 14, 15, 16, 17, 18, 19, 20, 21, 22, 23, 24, 25, 26, 27, 28, 29, 30, 31, 32, 33, 34, 35, 36, 37, 38, 39, 40, 41, 42, 43, 44, 45, 46, 47, 48, 49, 50, 51, 52, 53, 54, 55, 56, 57, 58, 59, 60, 61, 62, 63, 64, 65, 66, 67, 68, 69, 70, 71, 72, 73, 74, 75, 76, 77, 78, 79, 80, 81, 82, 83, 84, 85, 86, 87, 88, 89, 90, 91, 92, 93, 94, 95, 96, 97, 98, 99, 100, 101, 102, 103, 104, 105, 106, 107, 108, 109, 110, 111, 112, 113, 114, 115, 116, 117, 118, 119, 120, 121, 122, 123, 124, 125, 126, 127, 128, 129, 130, 131, 132, 133, 134, 135, 136, 137, 138, 139, 140, 141, 142, 143, 144, 145, 146, 147, 148, 149, 150, 151, 152, 153, 154, 155, 156, 157, 158, 159, 160, 161, 162, 163, 164, 165, 166, 167, 168, 169, 170, 171, 172, 173, 174, 175, 176, 177, 178, 179, 180, 181, 182, 183, 184, 185, 186, 187, 188, 189, 190, 191, 192, 193, 194, 195, 196, 197, 198, 199, 200, 201, 202, 203, 204, 205, 206, 207, 208, 209, 210, 211, 212, 213, 214, 215, 216, 217, 218, 219, 220, 221, 222, 223, 224, 225, 226, 227, 228, 229, 230, 231, 232, 233, 234, 235, 236, 237, 238, 239, 240, 241, 242, 243, 244, 245, 246, 247, 248, 249, 250, 251, 252, 253, 254, 255, 256, 257, 258, 259, 260, 261, 262, 263, 264, 265, 266, 267, 268, 269, 270, 271, 272, 273, 274, 275, 276, 277, 278, 279, 280, 281, 282, 283, 284, 285, 286, 287, 288, 289, 290, 291, 292, 293, 294, 295, 296, 297, 298, 299, 300, 301, 302, 303, 304, 305, 306, 307, 308, 309, 310, 311, 312, 313, 314, 315, 316, 317, 318, 319, 320, 321, 322, 323, 324, 325, 326, 327, 328, 329, 330, 331, 332, 333, 334, 335, 336, 337, 338, 339, 340, 341, 342, 343, 344, 345, 346, 347, 348, 349, 350, 351, 352, 353, 354, 355, 356, 357, 358, 359, 360, 361, 362, 363, 364, 365, 366, 367, 368, 369, 370, 371, 372, 373, 374, 375, 376, 377, 378, 379, 380, 381, 382, 383, 384, 385, 386, 387, 388, 389, 390, 391, 392, 393, 394, 395, 396, 397, 398, 399, 400, 401, 402, 403, 404, 405, 406, 407, 408, 409, 410, 411, 412, 413, 414, 415, 416, 417, 418, 419, 420, 421, 422, 423, 424, 425, 426, 427, 428, 429, 430, 431, 432, 433, 434, 435, 436, 437, 438, 439, 440, 441, 442, 443, 444, 445, 446, 447, 448, 449, 450, 451, 452, 453, 454, 455, 456, 457, 458, 459, 460, 461, 462, 463, 464, 465, 466, 467, 468, 469, 470, 471, 472, 473, 474, 475, 476, 477, 478, 479, 480, 481, 482, 483, 484, 485, 486, 487, 488, 489, 490, 491, 492, 493, 494, 495, 496, 497, 498, 499, 500, 501, 502, 503, 504, 505, 506, 507, 508, 509, 510, 511, 512, 513, 514, 515, 516, 517, 518, 519, 520, 521, 522, 523, 524, 525, 526, 527, 528, 529, 530, 531, 532, 533, 534, 535, 536, 537, 538, 539, 540, 541, 542, 543, 544, 545, 546, 547, 548, 549, 550, 551, 552, 553, 554, 555, 556, 557, 558, 559, 560, 561, 562, 563, 564, 565, 566, 567, 568, 569, 570, 571, 572, 573, 574, 575, 576, 577, 578, 579, 580, 581, 582, 583, 584, 585, 586, 587, 588, 589, 590, 591, 592, 593, 594, 595, 596, 597, 598, 599, 600, 601, 602, 603, 604, 605, 606, 607, 608, 609, 610, 611, 612, 613, 614, 615, 616, 617, 618, 619, 620, 621, 622, 623, 624, 625, 626, 627, 628, 629, 630, 631, 632, 633, 634, 635, 636, 637, 638, 639, 640, 641, 642, 643, 644, 645, 646, 647, 648, 649, 650, 651, 652, 653, 654, 655, 656, 657, 658, 659, 660, 661, 662, 663, 664, 665, 666, 667, 668, 669, 670, 671, 672, 673, 674, 675, 676, 677, 678, 679, 680, 681, 682, 683, 684, 685, 686, 687, 688, 689, 690, 691, 692, 693, 694, 695, 696, 697, 698, 699, 700, 701, 702, 703, 704, 705, 706, 707, 708, 709, 710, 711, 712, 713, 714, 715, 716, 717, 718, 719, 720, 721, 722, 723, 724, 725, 726, 727, 728, 729, 730, 731, 732, 733, 734, 735, 736, 737, 738, 739, 740, 741, 742, 743, 744, 745, 746, 747, 748, 749, 750, 751, 752, 753, 754, 755, 756, 757, 758, 759, 760, 761, 762, 763, 764, 765, 766, 767, 768, 769, 770, 771, 772, 773, 774, 775, 776, 777, 778, 779, 780, 781, 782, 783, 784, 785, 786, 787, 788, 789, 790, 791, 792, 793, 794, 795, 796, 797, 798, 799, 800, 801, 802, 803, 804, 805, 806, 807, 808, 809, 810, 811, 812, 813, 814, 815, 816, 817, 818, 819, 820, 821, 822, 823, 824, 825, 826, 827, 828, 829, 830, 831, 832, 833, 834, 835, 836, 837, 838, 839, 840, 841, 842, 843, 844, 845, 846, 847, 848, 849, 850, 851, 852, 853, 854, 855, 856, 857, 858, 859, 860, 861, 862, 863, 864, 865, 866, 867, 868, 869, 870, 871, 872],
      "AcquisitionTime": ["162120.420000", "162120.880000", "162121.340000", "162121.800000", "162122.260000", "162122.720000", "162123.180000", "162123.640000", "162124.100000", "162124.560000", "162125.020000", "162125.480000", "162125.940000", "162126.400000", "162126.860000", "162127.320000", "162127.780000", "162128.240000", "162128.700000", "162129.160000", "162129.620000", "162130.080000", "162130.540000", "162131.000000", "162131.460000", "162131.920000", "162132.380000", "162132.840000", "162133.300000", "162133.760000", "162134.220000", "162134.680000", "162135.140000", "162135.600000", "162136.060000", "162136.520000", "162136.980000", "162137.440000", "162137.900000", "162138.360000", "162138.820000", "162139.280000", "162139.740000", "162140.200000", "162140.660000", "162141.120000", "162141.580000", "162142.040000", "162142.500000", "162142.960000", "162143.420000", "162143.880000", "162144.340000", "162144.800000", "162145.260000", "162145.720000", "162146.180000", "162146.640000", "162147.100000", "162147.560000", "162148.020000", "162148.480000", "162148.940000", "162149.400000", "162149.860000", "162150.320000", "162150.780000", "162151.240000", "162151.700000", "162152.160000", "162152.620000", "162153.080000", "162153.540000", "162154.000000", "162154.460000", "162154.920000", "162155.380000", "162155.840000", "162156.300000", "162156.760000", "162157.220000", "162157.680000", "162158.140000", "162158.600000", "162159.060000", "162159.520000", "162159.980000", "162200.440000", "162200.900000", "162201.360000", "162201.820000", "162202.280000", "162202.740000", "162203.200000", "162203.660000", "162204.120000", "162204.580000", "162205.040000", "162205.500000", "162205.960000", "162206.420000", "162206.880000", "162207.340000", "162207.800000", "162208.260000", "162208.720000", "162209.180000", "162209.640000", "162210.100000", "162210.560000", "162211.020000", "162211.480000", "162211.940000", "162212.400000", "162212.860000", "162213.320000", "162213.780000", "162214.240000", "162214.700000", "162215.160000", "162215.620000", "162216.080000", "162216.540000", "162217.000000", "162217.460000", "162217.920000", "162218.380000", "162218.840000", "162219.300000", "162219.760000", "162220.220000", "162220.680000", "162221.140000", "162221.600000", "162222.060000", "162222.520000", "162222.980000", "162223.440000", "162223.900000", "162224.360000", "162224.820000", "162225.280000", "162225.740000", "162226.200000", "162226.660000", "162227.120000", "162227.580000", "162228.040000", "162228.500000", "162228.960000", "162229.420000", "162229.880000", "162230.340000", "162230.800000", "162231.260000", "162231.720000", "162232.180000", "162232.640000", "162233.100000", "162233.560000", "162234.020000", "162234.480000", "162234.940000", "162235.400000", "162235.860000", "162236.320000", "162236.780000", "162237.240000", "162237.700000", "162238.160000", "162238.620000", "162239.080000", "162239.540000", "162240.000000", "162240.460000", "162240.920000", "162241.380000", "162241.840000", "162242.300000", "162242.760000", "162243.220000", "162243.680000", "162244.140000", "162244.600000", "162245.060000", "162245.520000", "162245.980000", "162246.440000", "162246.900000", "162247.360000", "162247.820000", "162248.280000", "162248.740000", "162249.200000", "162249.660000", "162250.120000", "162250.580000", "162251.040000", "162251.500000", "162251.960000", "162252.420000", "162252.880000", "162253.340000", "162253.800000", "162254.260000", "162254.720000", "162255.180000", "162255.640000", "162256.100000", "162256.560000", "162257.020000", "162257.480000", "162257.940000", "162258.400000", "162258.860000", "162259.320000", "162259.780000", "162300.240000", "162300.700000", "162301.160000", "162301.620000", "162302.080000", "162302.540000", "162303.000000", "162303.460000", "162303.920000", "162304.380000", "162304.840000", "162305.300000", "162305.760000", "162306.220000", "162306.680000", "162307.140000", "162307.600000", "162308.060000", "162308.520000", "162308.980000", "162309.440000", "162309.900000", "162310.360000", "162310.820000", "162311.280000", "162311.740000", "162312.200000", "162312.660000", "162313.120000", "162313.580000", "162314.040000", "162314.500000", "162314.960000", "162315.420000", "162315.880000", "162316.340000", "162316.800000", "162317.260000", "162317.720000", "162318.180000", "162318.640000", "162319.100000", "162319.560000", "162320.020000", "162320.480000", "162320.940000", "162321.400000", "162321.860000", "162322.320000", "162322.780000", "162323.240000", "162323.700000", "162324.160000", "162324.620000", "162325.080000", "162325.540000", "162326.000000", "162326.460000", "162326.920000", "162327.380000", "162327.840000", "162328.300000", "162328.760000", "162329.220000", "162329.680000", "162330.140000", "162330.600000", "162331.060000", "162331.520000", "162331.980000", "162332.440000", "162332.900000", "162333.360000", "162333.820000", "162334.280000", "162334.740000", "162335.200000", "162335.660000", "162336.120000", "162336.580000", "162337.040000", "162337.500000", "162337.960000", "162338.420000", "162338.880000", "162339.340000", "162339.800000", "162340.260000", "162340.720000", "162341.180000", "162341.640000", "162342.100000", "162342.560000", "162343.020000", "162343.480000", "162343.940000", "162344.400000", "162344.860000", "162345.320000", "162345.780000", "162346.240000", "162346.700000", "162347.160000", "162347.620000", "162348.080000", "162348.540000", "162349.000000", "162349.460000", "162349.920000", "162350.380000", "162350.840000", "162351.300000", "162351.760000", "162352.220000", "162352.680000", "162353.140000", "162353.600000", "162354.060000", "162354.520000", "162354.980000", "162355.440000", "162355.900000", "162356.360000", "162356.820000", "162357.280000", "162357.740000", "162358.200000", "162358.660000", "162359.120000", "162359.580000", "162400.040000", "162400.500000", "162400.960000", "162401.420000", "162401.880000", "162402.340000", "162402.800000", "162403.260000", "162403.720000", "162404.180000", "162404.640000", "162405.100000", "162405.560000", "162406.020000", "162406.480000", "162406.940000", "162407.400000", "162407.860000", "162408.320000", "162408.780000", "162409.240000", "162409.700000", "162410.160000", "162410.620000", "162411.080000", "162411.540000", "162412.000000", "162412.460000", "162412.920000", "162413.380000", "162413.840000", "162414.300000", "162414.760000", "162415.220000", "162415.680000", "162416.140000", "162416.600000", "162417.060000", "162417.520000", "162417.980000", "162418.440000", "162418.900000", "162419.360000", "162419.820000", "162420.280000", "162420.740000", "162421.200000", "162421.660000", "162422.120000", "162422.580000", "162423.040000", "162423.500000", "162423.960000", "162424.420000", "162424.880000", "162425.340000", "162425.800000", "162426.260000", "162426.720000", "162427.180000", "162427.640000", "162428.100000", "162428.560000", "162429.020000", "162429.480000", "162429.940000", "162430.400000", "162430.860000", "162431.320000", "162431.780000", "162432.240000", "162432.700000", "162433.160000", "162433.620000", "162434.080000", "162434.540000", "162435.000000", "162435.460000", "162435.920000", "162436.380000", "162436.840000", "162437.300000", "162437.760000", "162438.220000", "162438.680000", "162439.140000", "162439.600000", "162440.060000", "162440.520000", "162440.980000", "162441.440000", "162441.900000", "162442.360000", "162442.820000", "162443.280000", "162443.740000", "162444.200000", "162444.660000", "162445.120000", "162445.580000", "162446.040000", "162446.500000", "162446.960000", "162447.420000", "162447.880000", "162448.340000", "162448.800000", "162449.260000", "162449.720000", "162450.180000", "162450.640000", "162451.100000", "162451.560000", "162452.020000", "162452.480000", "162452.940000", "162453.400000", "162453.860000", "162454.320000", "162454.780000", "162455.240000", "162455.700000", "162456.160000", "162456.620000", "162457.080000", "162457.540000", "162458.000000", "162458.460000", "162458.920000", "162459.380000", "162459.840000", "162500.300000", "162500.760000", "162501.220000", "162501.680000", "162502.140000", "162502.600000", "162503.060000", "162503.520000", "162503.980000", "162504.440000", "162504.900000", "162505.360000", "162505.820000", "162506.280000", "162506.740000", "162507.200000", "162507.660000", "162508.120000", "162508.580000", "162509.040000", "162509.500000", "162509.960000", "162510.420000", "162510.880000", "162511.340000", "162511.800000", "162512.260000", "162512.720000", "162513.180000", "162513.640000", "162514.100000", "162514.560000", "162515.020000", "162515.480000", "162515.940000", "162516.400000", "162516.860000", "162517.320000", "162517.780000", "162518.240000", "162518.700000", "162519.160000", "162519.620000", "162520.080000", "162520.540000", "162521.000000", "162521.460000", "162521.920000", "162522.380000", "162522.840000", "162523.300000", "162523.760000", "162524.220000", "162524.680000", "162525.140000", "162525.600000", "162526.060000", "162526.520000", "162526.980000", "162527.440000", "162527.900000", "162528.360000", "162528.820000", "162529.280000", "162529.740000", "162530.200000", "162530.660000", "162531.120000", "162531.580000", "162532.040000", "162532.500000", "162532.960000", "162533.420000", "162533.880000", "162534.340000", "162534.800000", "162535.260000", "162535.720000", "162536.180000", "162536.640000", "162537.100000", "162537.560000", "162538.020000", "162538.480000", "162538.940000", "162539.400000", "162539.860000", "162540.320000", "162540.780000", "162541.240000", "162541.700000", "162542.160000", "162542.620000", "162543.080000", "162543.540000", "162544.000000", "162544.460000", "162544.920000", "162545.380000", "162545.840000", "162546.300000", "162546.760000", "162547.220000", "162547.680000", "162548.140000", "162548.600000", "162549.060000", "162549.520000", "162549.980000", "162550.440000", "162550.900000", "162551.360000", "162551.820000", "162552.280000", "162552.740000", "162553.200000", "162553.660000", "162554.120000", "162554.580000", "162555.040000", "162555.500000", "162555.960000", "162556.420000", "162556.880000", "162557.340000", "162557.800000", "162558.260000", "162558.720000", "162559.180000", "162559.640000", "162600.100000", "162600.560000", "162601.020000", "162601.480000", "162601.940000", "162602.400000", "162602.860000", "162603.320000", "162603.780000", "162604.240000", "162604.700000", "162605.160000", "162605.620000", "162606.080000", "162606.540000", "162607.000000", "162607.460000", "162607.920000", "162608.380000", "162608.840000", "162609.300000", "162609.760000", "162610.220000", "162610.680000", "162611.140000", "162611.600000", "162612.060000", "162612.520000", "162612.980000", "162613.440000", "162613.900000", "162614.360000", "162614.820000", "162615.280000", "162615.740000", "162616.200000", "162616.660000", "162617.120000", "162617.580000", "162618.040000", "162618.500000", "162618.960000", "162619.420000", "162619.880000", "162620.340000", "162620.800000", "162621.260000", "162621.720000", "162622.180000", "162622.640000", "162623.100000", "162623.560000", "162624.020000", "162624.480000", "162624.940000", "162625.400000", "162625.860000", "162626.320000", "162626.780000", "162627.240000", "162627.700000", "162628.160000", "162628.620000", "162629.080000", "162629.540000", "162630.000000", "162630.460000", "162630.920000", "162631.380000", "162631.840000", "162632.300000", "162632.760000", "162633.220000", "162633.680000", "162634.140000", "162634.600000", "162635.060000", "162635.520000", "162635.980000", "162636.440000", "162636.900000", "162637.360000", "162637.820000", "162638.280000", "162638.740000", "162639.200000", "162639.660000", "162640.120000", "162640.580000", "162641.040000", "162641.500000", "162641.960000", "162642.420000", "162642.880000", "162643.340000", "162643.800000", "162644.260000", "162644.720000", "162645.180000", "162645.640000", "162646.100000", "162646.560000", "162647.020000", "162647.480000", "162647.940000", "162648.400000", "162648.860000", "162649.320000", "162649.780000", "162650.240000", "162650.700000", "162651.160000", "162651.620000", "162652.080000", "162652.540000", "162653.000000", "162653.460000", "162653.920000", "162654.380000", "162654.840000", "162655.300000", "162655.760000", "162656.220000", "162656.680000", "162657.140000", "162657.600000", "162658.060000", "162658.520000", "162658.980000", "162659.440000", "162659.900000", "162700.360000", "162700.820000", "162701.280000", "162701.740000", "162702.200000", "162702.660000", "162703.120000", "162703.580000", "162704.040000", "162704.500000", "162704.960000", "162705.420000", "162705.880000", "162706.340000", "162706.800000", "162707.260000", "162707.720000", "162708.180000", "162708.640000", "162709.100000", "162709.560000", "162710.020000", "162710.480000", "162710.940000", "162711.400000", "162711.860000", "162712.320000", "162712.780000", "162713.240000", "162713.700000", "162714.160000", "162714.620000", "162715.080000", "162715.540000", "162716.000000", "162716.460000", "162716.920000", "162717.380000", "162717.840000", "162718.300000", "162718.760000", "162719.220000", "162719.680000", "162720.140000", "162720.600000", "162721.060000", "162721.520000", "162721.980000", "162722.440000", "162722.900000", "162723.360000", "162723.820000", "162724.280000", "162724.740000", "162725.200000", "162725.660000", "162726.120000", "162726.580000", "162727.040000", "162727.500000", "162727.960000", "162728.420000", "162728.880000", "162729.340000", "162729.800000", "162730.260000", "162730.720000", "162731.180000", "162731.640000", "162732.100000", "162732.560000", "162733.020000", "162733.480000", "162733.940000", "162734.400000", "162734.860000", "162735.320000", "162735.780000", "162736.240000", "162736.700000", "162737.160000", "162737.620000", "162738.080000", "162738.540000", "162739.000000", "162739.460000", "162739.920000", "162740.380000", "162740.840000", "162741.300000", "162741.760000", "162742.220000", "162742.680000", "162743.140000", "162743.600000", "162744.060000", "162744.520000", "162744.980000", "162745.440000", "162745.900000", "162746.360000", "162746.820000", "162747.280000", "162747.740000", "162748.200000", "162748.660000", "162749.120000", "162749.580000", "162750.040000", "162750.500000", "162750.960000", "162751.420000", "162751.880000", "162752.340000", "162752.800000", "162753.260000", "162753.720000", "162754.180000", "162754.640000", "162755.100000", "162755.560000", "162756.020000", "162756.480000", "162756.940000", "162757.400000", "162757.860000", "162758.320000", "162758.780000", "162759.240000", "162759.700000", "162800.160000", "162800.620000", "162801.080000"],
