{
  "AcquisitionMatrixPE": 140,
  "AcquisitionNumber": 1,
  "AcquisitionTime": "13:11:12.095000",
  "BandwidthPerPixelPhaseEncode": 10.352,
  "BaseResolution": 140,
  "BodyPartExamined": "BRAIN",
  "ConsistencyInfo": "N4_VE11C_LATEST_20160120",
  "ConversionSoftware": "dcm2niix",
  "ConversionSoftwareVersion": "v1.0.20201102",
  "DerivedVendorReportedEchoSpacing": 0.000689998,
  "DeviceSerialNumber": "66112",
  "DiffusionScheme": "Monopolar",
  "DwellTime": 2.1e-06,
  "EchoTime": 0.0884,
  "EchoTrainLength": 105,
  "EffectiveEchoSpacing": 0.000689998,
  "FlipAngle": 90,
  "ImageComments": "Unaliased MB3/PE3 SENSE1",
  "ImageOrientationPatientDICOM": [0.999696, 0.0227741, 0.00949447, -0.02321, 0.998546, 0.0486525],
  "ImageType": [
    "ORIGINAL",
    "PRIMARY",
    "DIFFUSION",
    "NONE",
    "MB",
    "ND",
    "MOSAIC"
],
  "ImagingFrequency": 123.252,
  "InPlanePhaseEncodingDirectionDICOM": "COL",
  "InstitutionAddress": "Maynard 3,Hanover,NH,US,03755",
  "InstitutionName": "Dartmouth College - PBS",
  "InstitutionalDepartmentName": "Department",
  "MRAcquisitionType": "2D",
  "MagneticFieldStrength": 3,
  "Manufacturer": "Siemens",
  "ManufacturersModelName": "Prisma",
  "Modality": "MR",
  "MultibandAccelerationFactor": 3,
  "PartialFourier": 0.75,
  "PatientPosition": "HFS",
  "PercentPhaseFOV": 100,
  "PercentSampling": 100,
  "PhaseEncodingDirection": "j-",
  "PhaseEncodingSteps": 105,
  "PhaseResolution": 1,
  "PixelBandwidth": 1700,
  "ProcedureStepDescription": "Wager_Wager^1076_spacetop",
  "ProtocolName": "dwi_acq-96dir-6b0-mb",
  "PulseSequenceDetails": "%CustomerSeq%\\cmrr_mbep2d_diff",
  "ReceiveCoilActiveElements": "HEA;HEP",
  "ReceiveCoilName": "Head_32",
  "ReconMatrixPE": 140,
  "RepetitionTime": 4.11,
  "SAR": 0.292108,
  "ScanOptions": "PFP\\FS",
  "ScanningSequence": "EP",
  "SequenceName": "ep_b5#1",
  "SequenceVariant": "SK\\SS",
  "SeriesDescription": "dwi_acq-96dir-6b0-mb",
  "SeriesNumber": 8,
  "ShimSetting": [4152, -7752, -7177, 713, -27, -147, 33, 58],
  "SliceThickness": 1.7,
  "SliceTiming": [0, 2.12, 0.15, 2.2725, 0.3025, 2.4225, 0.455, 2.575, 0.605, 2.725, 0.7575, 2.8775, 0.9075, 3.03, 1.06, 3.18, 1.2125, 3.3325, 1.3625, 3.4825, 1.515, 3.635, 1.665, 3.7875, 1.8175, 3.9375, 1.97, 0, 2.12, 0.15, 2.2725, 0.3025, 2.4225, 0.455, 2.575, 0.605, 2.725, 0.7575, 2.8775, 0.9075, 3.03, 1.06, 3.18, 1.2125, 3.3325, 1.3625, 3.4825, 1.515, 3.635, 1.665, 3.7875, 1.8175, 3.9375, 1.97, 0, 2.12, 0.15, 2.2725, 0.3025, 2.4225, 0.455, 2.575, 0.605, 2.725, 0.7575, 2.8775, 0.9075, 3.03, 1.06, 3.18, 1.2125, 3.3325, 1.3625, 3.4825, 1.515, 3.635, 1.665, 3.7875, 1.8175, 3.9375, 1.97],
  "SoftwareVersions": "syngo MR E11",
  "SpacingBetweenSlices": 1.7,
  "StationName": "AWP66112",
  "TotalReadoutTime": 0.0959097,
  "TxRefAmp": 249.268,
  "WipMemBlock": "2ddf2a50-94b4-485a-b08d-135721f417d3||Sequence: R016 ve11c/master r/e634e98; Dec 19 2017 11:11:25 by eja",
  "dcmmeta_affine": [
    [-1.7137638330459595, -0.039788540452718735, 0.014233498834073544, 124.27303314208984],
    [-0.03904131054878235, 1.711793303489685, 0.08305872976779938, -88.47112274169922],
    [0.016276231035590172, -0.08340431749820709, 1.6979100704193115, -26.698293685913086],
    [0.0, 0.0, 0.0, 1.0]
],
  "dcmmeta_reorient_transform": [
    [0.0, -1.0, 0.0, 139.0],
    [1.0, 0.0, 0.0, 0.0],
    [0.0, 0.0, 1.0, 0.0],
    [0.0, 0.0, 0.0, 1.0]
],
  "dcmmeta_shape": [140, 140, 81, 103],
  "dcmmeta_slice_dim": 2,
  "dcmmeta_version": 0.6,
  "global": {
    "const": {
      "AccessionNumber": "A003734",
      "AcquisitionMatrix": [140, 0, 0, 140],
      "AngioFlag": "N",
      "BitsAllocated": 16,
      "BitsStored": 16,
      "BodyPartExamined": "BRAIN",
      "Columns": 1260,
      "EchoNumbers": 1,
      "EchoTime": 88.4,
      "EchoTrainLength": 105,
      "FlipAngle": 90.0,
      "HighBit": 15,
      "ImageOrientationPatient": [0.99969555141967, 0.02277409810067, 0.00949446825374, -0.023209981924, 0.99854605755117, 0.04865251985367],
      "ImagePositionPatient": [-1056.168581945, -1129.9354985287, -94.112603904727],
      "ImageType": [
        "ORIGINAL",
        "PRIMARY",
        "DIFFUSION",
        "NONE",
        "MB",
        "ND",
        "MOSAIC"
],
      "ImagedNucleus": "1H",
      "ImagingFrequency": 123.252098,
      "InPlanePhaseEncodingDirection": "COL",
      "MRAcquisitionType": "2D",
      "MagneticFieldStrength": 3.0,
      "Manufacturer": "SIEMENS",
      "ManufacturerModelName": "Prisma",
      "Modality": "MR",
      "NumberOfAverages": 1.0,
      "NumberOfPhaseEncodingSteps": 105,
      "PercentPhaseFieldOfView": 100.0,
      "PercentSampling": 100.0,
      "PerformedProcedureStepStartTime": "113657.376000",
      "PhotometricInterpretation": "MONOCHROME2",
      "PixelBandwidth": 1700.0,
      "PixelRepresentation": 0,
      "PixelSpacing": [1.7142857313156, 1.7142857313156],
      "ProtocolName": "dwi_acq-96dir-6b0-mb",
      "RepetitionTime": 4110.0,
      "Rows": 1260,
      "SAR": 0.29210801051831,
      "SamplesPerPixel": 1,
      "ScanOptions": [
        "PFP",
        "FS"
],
      "ScanningSequence": "EP",
      "SequenceVariant": [
        "SK",
        "SS"
],
      "SeriesDescription": "dwi_acq-96dir-6b0-mb",
      "SeriesNumber": 8,
      "SeriesTime": "131240.036000",
      "SliceLocation": -29.94750686435,
      "SliceThickness": 1.7000000476837,
      "SmallestImagePixelValue": 0,
      "SoftwareVersions": "syngo MR E11",
      "SpacingBetweenSlices": 1.7000000090537,
      "SpecificCharacterSet": "ISO_IR 100",
      "StudyID": "1",
      "StudyTime": "113657.305000",
      "TransmitCoilName": "Body",
      "VariableFlipAngleFlag": "N",
      "WindowCenterWidthExplanation": "Algo1",
      "dBdt": 0.0},
    "slices": {}
  },
  "time": {
    "samples": {
      "AcquisitionNumber": [1, 2, 3, 4, 5, 6, 7, 8, 9, 10, 11, 12, 13, 14, 15, 16, 17, 18, 19, 20, 21, 22, 23, 24, 25, 26, 27, 28, 29, 30, 31, 32, 33, 34, 35, 36, 37, 38, 39, 40, 41, 42, 43, 44, 45, 46, 47, 48, 49, 50, 51, 52, 53, 54, 55, 56, 57, 58, 59, 60, 61, 62, 63, 64, 65, 66, 67, 68, 69, 70, 71, 72, 73, 74, 75, 76, 77, 78, 79, 80, 81, 82, 83, 84, 85, 86, 87, 88, 89, 90, 91, 92, 93, 94, 95, 96, 97, 98, 99, 100, 101, 102, 103],
      "AcquisitionTime": ["131112.095000", "131116.205000", "131120.315000", "131124.425000", "131128.535000", "131132.645000", "131136.755000", "131140.865000", "131144.975000", "131149.085000", "131153.195000", "131157.305000", "131201.415000", "131205.525000", "131209.635000", "131213.745000", "131217.855000", "131221.965000", "131226.075000", "131230.185000", "131234.295000", "131238.405000", "131242.515000", "131246.625000", "131250.735000", "131254.845000", "131258.955000", "131303.065000", "131307.175000", "131311.285000", "131315.395000", "131319.505000", "131323.615000", "131327.725000", "131331.835000", "131335.945000", "131340.055000", "131344.165000", "131348.275000", "131352.385000", "131356.495000", "131400.605000", "131404.715000", "131408.825000", "131412.935000", "131417.045000", "131421.155000", "131425.265000", "131429.375000", "131433.485000", "131437.595000", "131441.705000", "131445.815000", "131449.925000", "131454.035000", "131458.145000", "131502.255000", "131506.365000", "131510.475000", "131514.585000", "131518.695000", "131522.805000", "131526.915000", "131531.025000", "131535.135000", "131539.245000", "131543.355000", "131547.465000", "131551.575000", "131555.685000", "131559.795000", "131603.905000", "131608.015000", "131612.125000", "131616.235000", "131620.345000", "131624.455000", "131628.565000", "131632.675000", "131636.785000", "131640.895000", "131645.005000", "131649.115000", "131653.225000", "131657.335000", "131701.445000", "131705.555000", "131709.665000", "131713.775000", "131717.885000", "131721.995000", "131726.105000", "131730.215000", "131734.325000", "131738.435000", "131742.545000", "131746.655000", "131750.765000", "131754.875000", "131758.985000", "131803.095000", "131807.205000", "131811.315000"],
      "ContentTime": ["131240.040000", "131240.044000", "131240.048000", "131240.051000", "131240.055000", "131240.058000", "131240.062000", "131240.065000", "131240.076000", "131240.079000", "131240.083000", "131240.086000", "131240.089000", "131240.093000", "131240.101000", "131240.105000", "131240.108000", "131240.111000", "131240.115000", "131240.118000", "131240.122000", "131400.022000", "131400.026000", "131400.030000", "131400.033000", "131400.036000", "131400.040000", "131400.043000", "131400.046000", "131400.050000", "131400.053000", "131400.057000", "131400.060000", "131400.064000", "131400.067000", "131400.070000", "131400.074000", "131400.077000", "131400.080000", "131400.084000", "131520.022000", "131520.026000", "131520.029000", "131520.033000", "131520.036000", "131520.040000", "131520.043000", "131520.047000", "131520.050000", "131520.060000", "131520.064000", "131520.067000", "131520.071000", "131520.074000", "131520.077000", "131520.081000", "131520.084000", "131520.088000", "131520.091000", "131520.095000", "131700.022000", "131700.026000", "131700.029000", "131700.033000", "131700.036000", "131700.040000", "131700.043000", "131700.047000", "131700.050000", "131700.053000", "131700.057000", "131700.060000", "131700.064000", "131700.067000", "131700.071000", "131700.074000", "131700.077000", "131700.081000", "131700.084000", "131700.088000", "131700.091000", "131700.094000", "131700.098000", "131700.101000", "131815.983000", "131815.987000", "131815.991000", "131815.996000", "131816.001000", "131816.004000", "131816.008000", "131816.012000", "131816.017000", "131816.026000", "131816.030000", "131816.035000", "131816.039000", "131816.045000", "131816.051000", "131816.054000", "131816.058000", "131816.062000", "131816.067000"],
      "InstanceCreationTime": ["131240.040000", "131240.044000", "131240.048000", "131240.051000", "131240.055000", "131240.058000", "131240.062000", "131240.065000", "131240.076000", "131240.079000", "131240.083000", "131240.086000", "131240.089000", "131240.093000", "131240.101000", "131240.105000", "131240.108000", "131240.111000", "131240.115000", "131240.118000", "131240.122000", "131400.022000", "131400.026000", "131400.030000", "131400.033000", "131400.036000", "131400.040000", "131400.043000", "131400.046000", "131400.050000", "131400.053000", "131400.057000", "131400.060000", "131400.064000", "131400.067000", "131400.070000", "131400.074000", "131400.077000", "131400.080000", "131400.084000", "131520.022000", "131520.026000", "131520.029000", "131520.033000", "131520.036000", "131520.040000", "131520.043000", "131520.047000", "131520.050000", "131520.060000", "131520.064000", "131520.067000", "131520.071000", "131520.074000", "131520.077000", "131520.081000", "131520.084000", "131520.088000", "131520.091000", "131520.095000", "131700.022000", "131700.026000", "131700.029000", "131700.033000", "131700.036000", "131700.040000", "131700.043000", "131700.047000", "131700.050000", "131700.053000", "131700.057000", "131700.060000", "131700.064000", "131700.067000", "131700.071000", "131700.074000", "131700.077000", "131700.081000", "131700.084000", "131700.088000", "131700.091000", "131700.094000", "131700.098000", "131700.101000", "131815.983000", "131815.987000", "131815.991000", "131815.996000", "131816.001000", "131816.004000", "131816.008000", "131816.012000", "131816.017000", "131816.026000", "131816.030000", "131816.035000", "131816.039000", "131816.045000", "131816.051000", "131816.054000", "131816.058000", "131816.062000", "131816.067000"],
      "InstanceNumber": [1, 2, 3, 4, 5, 6, 7, 8, 9, 10, 11, 12, 13, 14, 15, 16, 17, 18, 19, 20, 21, 22, 23, 24, 25, 26, 27, 28, 29, 30, 31, 32, 33, 34, 35, 36, 37, 38, 39, 40, 41, 42, 43, 44, 45, 46, 47, 48, 49, 50, 51, 52, 53, 54, 55, 56, 57, 58, 59, 60, 61, 62, 63, 64, 65, 66, 67, 68, 69, 70, 71, 72, 73, 74, 75, 76, 77, 78, 79, 80, 81, 82, 83, 84, 85, 86, 87, 88, 89, 90, 91, 92, 93, 94, 95, 96, 97, 98, 99, 100, 101, 102, 103],
      "LargestImagePixelValue": [65535, 65535, 50851, 52437, 51981, 50725, 53413, 50786, 65535, 30163, 33717, 34165, 33421, 33050, 32563, 33348, 33407, 29519, 30283, 27015, 28019, 25965, 29198, 26846, 65535, 15649, 19070, 14491, 14682, 15918, 14833, 14082, 14980, 13711, 14383, 16211, 14365, 13338, 13985, 13117, 65535, 10576, 10348, 12034, 11774, 10693, 11301, 11809, 10169, 10756, 10292, 11586, 10233, 12148, 9504, 10138, 11545, 10758, 11996, 13550, 9983, 13428, 10994, 11167, 10471, 11123, 11182, 11056, 10780, 10339, 10037, 10654, 10797, 65535, 10877, 10939, 10291, 9596, 9787, 11391, 10163, 12179, 10275, 10137, 9730, 11652, 10505, 11680, 13164, 12039, 13420, 9555, 12729, 10262, 12714, 12007, 11434, 11266, 11971, 10408, 11517, 11183, 65535],
      "SequenceName": [
 "ep_b5#1",
 "ep_b5#1",
 "ep_b500#2",
 "ep_b495#3",
 "ep_b500#4",
 "ep_b505#5",
 "ep_b495#6",
 "ep_b500#7",
 "ep_b5#8",
 "ep_b1000#9",
 "ep_b1005#10",
 "ep_b995#11",
 "ep_b1005#12",
 "ep_b995#13",
 "ep_b995#14",
 "ep_b1005#15",
 "ep_b1000#16",
 "ep_b1005#17",
 "ep_b995#18",
 "ep_b1000#19",
 "ep_b995#20",
 "ep_b1000#21",
 "ep_b1005#22",
 "ep_b1005#23",
 "ep_b5#24",
 "ep_b2000#25",
 "ep_b1995#26",
 "ep_b1990#27",
 "ep_b1995#28",
 "ep_b2005#29",
 "ep_b2010#30",
 "ep_b2000#31",
 "ep_b2010#32",
 "ep_b2000#33",
 "ep_b1995#34",
 "ep_b1995#35",
 "ep_b2005#36",
 "ep_b2000#37",
 "ep_b2005#38",
 "ep_b1995#39",
 "ep_b5#40",
 "ep_b3000#41",
 "ep_b3005#42",
 "ep_b3010#43",
 "ep_b3010#44",
 "ep_b3000#45",
 "ep_b3000#46",
 "ep_b2990#47",
 "ep_b3005#48",
 "ep_b3000#49",
 "ep_b2990#50",
 "ep_b2990#51",
 "ep_b2995#52",
 "ep_b2995#53",
 "ep_b3010#54",
 "ep_b3000#55",
 "ep_b2995#56",
 "ep_b2995#57",
 "ep_b2990#58",
 "ep_b2990#59",
 "ep_b3000#60",
 "ep_b2990#61",
 "ep_b2990#62",
 "ep_b2995#63",
 "ep_b3000#64",
 "ep_b3010#65",
 "ep_b3000#66",
 "ep_b3005#67",
 "ep_b3010#68",
 "ep_b3005#69",
 "ep_b3005#70",
 "ep_b3005#71",
 "ep_b2990#72",
 "ep_b5#73",
 "ep_b3010#74",
 "ep_b3000#75",
 "ep_b3005#76",
 "ep_b3000#77",
 "ep_b2990#78",
 "ep_b3005#79",
 "ep_b2995#80",
 "ep_b3010#81",
 "ep_b3005#82",
 "ep_b3005#83",
 "ep_b3000#84",
 "ep_b3000#85",
 "ep_b3010#86",
 "ep_b3010#87",
 "ep_b2990#88",
 "ep_b3010#89",
 "ep_b2995#90",
 "ep_b2995#91",
 "ep_b2990#92",
 "ep_b2995#93",
 "ep_b3005#94",
 "ep_b3005#95",
 "ep_b2995#96",
 "ep_b3000#97",
 "ep_b2990#98",
 "ep_b3000#99",
 "ep_b2995#100",
 "ep_b2995#101",
 "ep_b5#102"
],
      "WindowCenter": [10639.0, 10642.0, 7405.0, 7428.0, 7392.0, 7304.0, 7447.0, 7399.0, 10645.0, 5542.0, 5470.0, 5528.0, 5449.0, 5501.0, 5526.0, 5476.0, 5504.0, 5413.0, 5510.0, 5438.0, 5504.0, 5409.0, 5460.0, 5441.0, 10619.0, 3552.0, 3558.0, 3455.0, 3543.0, 3497.0, 3461.0, 3475.0, 3436.0, 3477.0, 3539.0, 3563.0, 3438.0, 3436.0, 3485.0, 3426.0, 10601.0, 2519.0, 2407.0, 2539.0, 2519.0, 2493.0, 2511.0, 2552.0, 2406.0, 2487.0, 2451.0, 2512.0, 2490.0, 2576.0, 2473.0, 2456.0, 2557.0, 2470.0, 2565.0, 2571.0, 2464.0, 2575.0, 2556.0, 2529.0, 2505.0, 2540.0, 2490.0, 2500.0, 2506.0, 2490.0, 2480.0, 2528.0, 2525.0, 10581.0, 2483.0, 2472.0, 2405.0, 2444.0, 2426.0, 2469.0, 2451.0, 2482.0, 2491.0, 2455.0, 2469.0, 2540.0, 2408.0, 2455.0, 2550.0, 2493.0, 2596.0, 2414.0, 2523.0, 2501.0, 2537.0, 2560.0, 2568.0, 2483.0, 2543.0, 2446.0, 2541.0, 2546.0, 10618.0],
      "WindowWidth": [24407.0, 24430.0, 15771.0, 15821.0, 15729.0, 15592.0, 15848.0, 15767.0, 24435.0, 11964.0, 11853.0, 11941.0, 11826.0, 11939.0, 11961.0, 11846.0, 11902.0, 11711.0, 11850.0, 11728.0, 11854.0, 11697.0, 11770.0, 11721.0, 24273.0, 8070.0, 8077.0, 7898.0, 8039.0, 7951.0, 7880.0, 7928.0, 7855.0, 7941.0, 8035.0, 8079.0, 7858.0, 7857.0, 7925.0, 7843.0, 24237.0, 6110.0, 5840.0, 6082.0, 6021.0, 6026.0, 6035.0, 6101.0, 5834.0, 6028.0, 5922.0, 6020.0, 6043.0, 6189.0, 5991.0, 5960.0, 6176.0, 5952.0, 6125.0, 6117.0, 5956.0, 6142.0, 6123.0, 6082.0, 6043.0, 6083.0, 6008.0, 6022.0, 6038.0, 6041.0, 6034.0, 6071.0, 6045.0, 24164.0, 5958.0, 5962.0, 5827.0, 5939.0, 5880.0, 5949.0, 5934.0, 5967.0, 6006.0, 5949.0, 6018.0, 6135.0, 5843.0, 5916.0, 6099.0, 5977.0, 6211.0, 5867.0, 6047.0, 6058.0, 6085.0, 6153.0, 6151.0, 5979.0, 6095.0, 5910.0, 6135.0, 6120.0, 24310.0]
    },
    "slices": {}
  }
}