{
  "AcquisitionMatrixPE": 82,
  "AcquisitionNumber": 1,
  "AcquisitionTime": "13:24:58.497500",
  "BandwidthPerPixelPhaseEncode": 24.888,
  "BaseResolution": 82,
  "BodyPartExamined": "BRAIN",
  "ConsistencyInfo": "N4_VE11C_LATEST_20160120",
  "ConversionSoftware": "dcm2niix",
  "ConversionSoftwareVersion": "v1.0.20201102",
  "DerivedVendorReportedEchoSpacing": 0.00049,
  "DeviceSerialNumber": "66112",
  "DwellTime": 2e-06,
  "EchoTime": 0.0272,
  "EchoTrainLength": 82,
  "EffectiveEchoSpacing": 0.00049,
  "FlipAngle": 44,
  "ImageComments": "Unaliased MB8/PE3",
  "ImageOrientationPatientDICOM": [0.997718, 0.0306988, 0.0601336, -0.0367591, 0.994062, 0.102418],
  "ImageType": [
    "ORIGINAL",
    "PRIMARY",
    "M",
    "MB",
    "ND",
    "NORM",
    "MOSAIC"
],
  "ImagingFrequency": 123.252,
  "InPlanePhaseEncodingDirectionDICOM": "COL",
  "InstitutionAddress": "Maynard 3,Hanover,NH,US,03755",
  "InstitutionName": "Dartmouth College - PBS",
  "InstitutionalDepartmentName": "Department",
  "MRAcquisitionType": "2D",
  "MagneticFieldStrength": 3,
  "Manufacturer": "Siemens",
  "ManufacturersModelName": "Prisma",
  "Modality": "MR",
  "MultibandAccelerationFactor": 8,
  "PartialFourier": 1,
  "PatientPosition": "HFS",
  "PercentPhaseFOV": 100,
  "PercentSampling": 100,
  "PhaseEncodingDirection": "j-",
  "PhaseEncodingSteps": 82,
  "PhaseResolution": 1,
  "PixelBandwidth": 3050,
  "ProcedureStepDescription": "Wager_Wager^1076_spacetop",
  "ProtocolName": "func_run-01_task-alignvideo_acq-ap-mb8",
  "PulseSequenceDetails": "%CustomerSeq%\\cmrr_mbep2d_bold",
  "ReceiveCoilActiveElements": "HEA;HEP",
  "ReceiveCoilName": "Head_32",
  "ReconMatrixPE": 82,
  "RepetitionTime": 0.46,
  "SAR": 0.0908769,
  "ScanOptions": "FS",
  "ScanningSequence": "EP",
  "SequenceName": "epfid2d1_82",
  "SequenceVariant": "SK\\SS",
  "SeriesDescription": "func_run-01_task-alignvideo_acq-ap-mb8",
  "SeriesNumber": 28,
  "ShimSetting": [4149, -7764, -7256, 549, -114, -260, 92, 74],
  "SliceThickness": 2.7,
  "SliceTiming": [0, 0.25, 0.0625, 0.315, 0.125, 0.3775, 0.1875, 0, 0.25, 0.0625, 0.315, 0.125, 0.3775, 0.1875, 0, 0.25, 0.0625, 0.315, 0.125, 0.3775, 0.1875, 0, 0.25, 0.0625, 0.315, 0.125, 0.3775, 0.1875, 0, 0.25, 0.0625, 0.315, 0.125, 0.3775, 0.1875, 0, 0.25, 0.0625, 0.315, 0.125, 0.3775, 0.1875, 0, 0.25, 0.0625, 0.315, 0.125, 0.3775, 0.1875, 0, 0.25, 0.0625, 0.315, 0.125, 0.3775, 0.1875],
  "SoftwareVersions": "syngo MR E11",
  "SpacingBetweenSlices": 2.7,
  "StationName": "AWP66112",
  "TaskName": "alignvideo",
  "TotalReadoutTime": 0.03969,
  "TxRefAmp": 250.931,
  "WipMemBlock": "74f225c2-330b-4d53-9057-660a2ce3f2bd||Sequence: R016 ve11c/master r/e634e98; Dec 19 2017 11:00:25 by eja",
  "dcmmeta_affine": [
    [-2.676804780960083, -0.0986219197511673, 0.15290755033493042, 113.46288299560547],
    [-0.08236251026391983, 2.6669957637786865, 0.28186464309692383, -92.3812484741211],
    [0.16133400797843933, -0.274778813123703, 2.6808900833129883, -66.68197631835938],
    [0.0, 0.0, 0.0, 1.0]
],
  "dcmmeta_reorient_transform": [
    [0.0, -1.0, 0.0, 81.0],
    [1.0, 0.0, 0.0, 0.0],
    [0.0, 0.0, 1.0, 0.0],
    [0.0, 0.0, 0.0, 1.0]
],
  "dcmmeta_shape": [82, 82, 56, 839],
  "dcmmeta_slice_dim": 2,
  "dcmmeta_version": 0.6,
  "global": {
    "const": {
      "AccessionNumber": "A003556",
      "AcquisitionMatrix": [82, 0, 0, 82],
      "AngioFlag": "N",
      "BitsAllocated": 16,
      "BitsStored": 16,
      "BodyPartExamined": "BRAIN",
      "Columns": 656,
      "EchoNumbers": 1,
      "EchoTime": 27.2,
      "EchoTrainLength": 82,
      "FlipAngle": 44.0,
      "HighBit": 15,
      "ImageOrientationPatient": [0.99771816602803, 0.03069875196177, 0.06013358301024, -0.0367590776695, 0.99406207813146, 0.10241755235243],
      "ImagePositionPatient": [-845.41302548086, -912.71127534816, -214.10343606233],
      "ImageType": [
        "ORIGINAL",
        "PRIMARY",
        "M",
        "MB",
        "ND",
        "NORM",
        "MOSAIC"
],
      "ImagedNucleus": "1H",
      "ImagingFrequency": 123.252163,
      "InPlanePhaseEncodingDirection": "COL",
      "MRAcquisitionType": "2D",
      "MagneticFieldStrength": 3.0,
      "Manufacturer": "SIEMENS",
      "ManufacturerModelName": "Prisma",
      "Modality": "MR",
      "NumberOfAverages": 1.0,
      "NumberOfPhaseEncodingSteps": 82,
      "PercentPhaseFieldOfView": 100.0,
      "PercentSampling": 100.0,
      "PerformedProcedureStepStartTime": "115651.810000",
      "PhotometricInterpretation": "MONOCHROME2",
      "PixelBandwidth": 3050.0,
      "PixelRepresentation": 0,
      "PixelSpacing": [2.6829268932343, 2.6829268932343],
      "ProtocolName": "func_run-01_task-alignvideo_acq-ap-mb8",
      "RepetitionTime": 460.0,
      "Rows": 656,
      "SAR": 0.0908769146659,
      "SamplesPerPixel": 1,
      "ScanOptions": "FS",
      "ScanningSequence": "EP",
      "SequenceName": "epfid2d1_82",
      "SequenceVariant": [
        "SK",
        "SS"
],
      "SeriesDescription": "func_run-01_task-alignvideo_acq-ap-mb8",
      "SeriesNumber": 28,
      "SeriesTime": "132514.165000",
      "SliceLocation": -69.428415711952,
      "SliceThickness": 2.7000000476837,
      "SmallestImagePixelValue": 0,
      "SoftwareVersions": "syngo MR E11",
      "SpacingBetweenSlices": 2.7000000914362,
      "SpecificCharacterSet": "ISO_IR 100",
      "StudyID": "1",
      "StudyTime": "115651.746000",
      "TransmitCoilName": "Body",
      "VariableFlipAngleFlag": "N",
      "WindowCenterWidthExplanation": "Algo1",
      "dBdt": 0.0},
    "slices": {}
  },
  "time": {
    "samples": {
      "AcquisitionNumber": [1, 2, 3, 4, 5, 6, 7, 8, 9, 10, 11, 12, 13, 14, 15, 16, 17, 18, 19, 20, 21, 22, 23, 24, 25, 26, 27, 28, 29, 30, 31, 32, 33, 34, 35, 36, 37, 38, 39, 40, 41, 42, 43, 44, 45, 46, 47, 48, 49, 50, 51, 52, 53, 54, 55, 56, 57, 58, 59, 60, 61, 62, 63, 64, 65, 66, 67, 68, 69, 70, 71, 72, 73, 74, 75, 76, 77, 78, 79, 80, 81, 82, 83, 84, 85, 86, 87, 88, 89, 90, 91, 92, 93, 94, 95, 96, 97, 98, 99, 100, 101, 102, 103, 104, 105, 106, 107, 108, 109, 110, 111, 112, 113, 114, 115, 116, 117, 118, 119, 120, 121, 122, 123, 124, 125, 126, 127, 128, 129, 130, 131, 132, 133, 134, 135, 136, 137, 138, 139, 140, 141, 142, 143, 144, 145, 146, 147, 148, 149, 150, 151, 152, 153, 154, 155, 156, 157, 158, 159, 160, 161, 162, 163, 164, 165, 166, 167, 168, 169, 170, 171, 172, 173, 174, 175, 176, 177, 178, 179, 180, 181, 182, 183, 184, 185, 186, 187, 188, 189, 190, 191, 192, 193, 194, 195, 196, 197, 198, 199, 200, 201, 202, 203, 204, 205, 206, 207, 208, 209, 210, 211, 212, 213, 214, 215, 216, 217, 218, 219, 220, 221, 222, 223, 224, 225, 226, 227, 228, 229, 230, 231, 232, 233, 234, 235, 236, 237, 238, 239, 240, 241, 242, 243, 244, 245, 246, 247, 248, 249, 250, 251, 252, 253, 254, 255, 256, 257, 258, 259, 260, 261, 262, 263, 264, 265, 266, 267, 268, 269, 270, 271, 272, 273, 274, 275, 276, 277, 278, 279, 280, 281, 282, 283, 284, 285, 286, 287, 288, 289, 290, 291, 292, 293, 294, 295, 296, 297, 298, 299, 300, 301, 302, 303, 304, 305, 306, 307, 308, 309, 310, 311, 312, 313, 314, 315, 316, 317, 318, 319, 320, 321, 322, 323, 324, 325, 326, 327, 328, 329, 330, 331, 332, 333, 334, 335, 336, 337, 338, 339, 340, 341, 342, 343, 344, 345, 346, 347, 348, 349, 350, 351, 352, 353, 354, 355, 356, 357, 358, 359, 360, 361, 362, 363, 364, 365, 366, 367, 368, 369, 370, 371, 372, 373, 374, 375, 376, 377, 378, 379, 380, 381, 382, 383, 384, 385, 386, 387, 388, 389, 390, 391, 392, 393, 394, 395, 396, 397, 398, 399, 400, 401, 402, 403, 404, 405, 406, 407, 408, 409, 410, 411, 412, 413, 414, 415, 416, 417, 418, 419, 420, 421, 422, 423, 424, 425, 426, 427, 428, 429, 430, 431, 432, 433, 434, 435, 436, 437, 438, 439, 440, 441, 442, 443, 444, 445, 446, 447, 448, 449, 450, 451, 452, 453, 454, 455, 456, 457, 458, 459, 460, 461, 462, 463, 464, 465, 466, 467, 468, 469, 470, 471, 472, 473, 474, 475, 476, 477, 478, 479, 480, 481, 482, 483, 484, 485, 486, 487, 488, 489, 490, 491, 492, 493, 494, 495, 496, 497, 498, 499, 500, 501, 502, 503, 504, 505, 506, 507, 508, 509, 510, 511, 512, 513, 514, 515, 516, 517, 518, 519, 520, 521, 522, 523, 524, 525, 526, 527, 528, 529, 530, 531, 532, 533, 534, 535, 536, 537, 538, 539, 540, 541, 542, 543, 544, 545, 546, 547, 548, 549, 550, 551, 552, 553, 554, 555, 556, 557, 558, 559, 560, 561, 562, 563, 564, 565, 566, 567, 568, 569, 570, 571, 572, 573, 574, 575, 576, 577, 578, 579, 580, 581, 582, 583, 584, 585, 586, 587, 588, 589, 590, 591, 592, 593, 594, 595, 596, 597, 598, 599, 600, 601, 602, 603, 604, 605, 606, 607, 608, 609, 610, 611, 612, 613, 614, 615, 616, 617, 618, 619, 620, 621, 622, 623, 624, 625, 626, 627, 628, 629, 630, 631, 632, 633, 634, 635, 636, 637, 638, 639, 640, 641, 642, 643, 644, 645, 646, 647, 648, 649, 650, 651, 652, 653, 654, 655, 656, 657, 658, 659, 660, 661, 662, 663, 664, 665, 666, 667, 668, 669, 670, 671, 672, 673, 674, 675, 676, 677, 678, 679, 680, 681, 682, 683, 684, 685, 686, 687, 688, 689, 690, 691, 692, 693, 694, 695, 696, 697, 698, 699, 700, 701, 702, 703, 704, 705, 706, 707, 708, 709, 710, 711, 712, 713, 714, 715, 716, 717, 718, 719, 720, 721, 722, 723, 724, 725, 726, 727, 728, 729, 730, 731, 732, 733, 734, 735, 736, 737, 738, 739, 740, 741, 742, 743, 744, 745, 746, 747, 748, 749, 750, 751, 752, 753, 754, 755, 756, 757, 758, 759, 760, 761, 762, 763, 764, 765, 766, 767, 768, 769, 770, 771, 772, 773, 774, 775, 776, 777, 778, 779, 780, 781, 782, 783, 784, 785, 786, 787, 788, 789, 790, 791, 792, 793, 794, 795, 796, 797, 798, 799, 800, 801, 802, 803, 804, 805, 806, 807, 808, 809, 810, 811, 812, 813, 814, 815, 816, 817, 818, 819, 820, 821, 822, 823, 824, 825, 826, 827, 828, 829, 830, 831, 832, 833, 834, 835, 836, 837, 838, 839],
      "AcquisitionTime": ["132458.497500", "132458.957500", "132459.417500", "132459.877500", "132500.337500", "132500.797500", "132501.257500", "132501.717500", "132502.177500", "132502.637500", "132503.097500", "132503.557500", "132504.017500", "132504.477500", "132504.937500", "132505.397500", "132505.857500", "132506.317500", "132506.777500", "132507.237500", "132507.697500", "132508.157500", "132508.617500", "132509.077500", "132509.537500", "132509.997500", "132510.457500", "132510.917500", "132511.377500", "132511.837500", "132512.297500", "132512.757500", "132513.217500", "132513.677500", "132514.137500", "132514.597500", "132515.057500", "132515.517500", "132515.977500", "132516.437500", "132516.897500", "132517.357500", "132517.817500", "132518.277500", "132518.737500", "132519.197500", "132519.657500", "132520.117500", "132520.577500", "132521.037500", "132521.497500", "132521.957500", "132522.417500", "132522.877500", "132523.337500", "132523.797500", "132524.257500", "132524.717500", "132525.177500", "132525.637500", "132526.097500", "132526.557500", "132527.017500", "132527.477500", "132527.937500", "132528.397500", "132528.857500", "132529.317500", "132529.777500", "132530.237500", "132530.697500", "132531.157500", "132531.617500", "132532.077500", "132532.537500", "132532.997500", "132533.457500", "132533.917500", "132534.377500", "132534.837500", "132535.297500", "132535.757500", "132536.217500", "132536.677500", "132537.137500", "132537.597500", "132538.057500", "132538.517500", "132538.977500", "132539.437500", "132539.897500", "132540.357500", "132540.817500", "132541.277500", "132541.737500", "132542.197500", "132542.657500", "132543.117500", "132543.577500", "132544.037500", "132544.497500", "132544.957500", "132545.417500", "132545.877500", "132546.337500", "132546.797500", "132547.257500", "132547.717500", "132548.177500", "132548.637500", "132549.097500", "132549.557500", "132550.017500", "132550.477500", "132550.937500", "132551.397500", "132551.857500", "132552.317500", "132552.777500", "132553.237500", "132553.697500", "132554.157500", "132554.617500", "132555.077500", "132555.537500", "132555.997500", "132556.457500", "132556.917500", "132557.377500", "132557.837500", "132558.297500", "132558.757500", "132559.217500", "132559.677500", "132600.137500", "132600.597500", "132601.057500", "132601.517500", "132601.977500", "132602.437500", "132602.897500", "132603.357500", "132603.817500", "132604.277500", "132604.737500", "132605.197500", "132605.657500", "132606.117500", "132606.577500", "132607.037500", "132607.497500", "132607.957500", "132608.417500", "132608.877500", "132609.337500", "132609.797500", "132610.257500", "132610.717500", "132611.177500", "132611.637500", "132612.097500", "132612.557500", "132613.017500", "132613.477500", "132613.937500", "132614.397500", "132614.857500", "132615.317500", "132615.777500", "132616.237500", "132616.697500", "132617.157500", "132617.617500", "132618.077500", "132618.537500", "132618.997500", "132619.457500", "132619.917500", "132620.377500", "132620.837500", "132621.297500", "132621.757500", "132622.217500", "132622.677500", "132623.137500", "132623.597500", "132624.057500", "132624.517500", "132624.977500", "132625.437500", "132625.897500", "132626.357500", "132626.817500", "132627.277500", "132627.737500", "132628.197500", "132628.657500", "132629.117500", "132629.577500", "132630.037500", "132630.497500", "132630.957500", "132631.417500", "132631.877500", "132632.337500", "132632.797500", "132633.257500", "132633.717500", "132634.177500", "132634.637500", "132635.097500", "132635.557500", "132636.017500", "132636.477500", "132636.937500", "132637.397500", "132637.857500", "132638.317500", "132638.777500", "132639.237500", "132639.697500", "132640.157500", "132640.617500", "132641.077500", "132641.537500", "132641.997500", "132642.457500", "132642.917500", "132643.377500", "132643.837500", "132644.297500", "132644.757500", "132645.217500", "132645.677500", "132646.137500", "132646.597500", "132647.057500", "132647.517500", "132647.977500", "132648.437500", "132648.897500", "132649.357500", "132649.817500", "132650.277500", "132650.737500", "132651.197500", "132651.657500", "132652.117500", "132652.577500", "132653.037500", "132653.497500", "132653.957500", "132654.417500", "132654.877500", "132655.337500", "132655.797500", "132656.257500", "132656.717500", "132657.177500", "132657.637500", "132658.097500", "132658.557500", "132659.017500", "132659.477500", "132659.937500", "132700.397500", "132700.857500", "132701.317500", "132701.777500", "132702.237500", "132702.697500", "132703.157500", "132703.617500", "132704.077500", "132704.537500", "132704.997500", "132705.457500", "132705.917500", "132706.377500", "132706.837500", "132707.297500", "132707.757500", "132708.217500", "132708.677500", "132709.137500", "132709.597500", "132710.057500", "132710.517500", "132710.977500", "132711.437500", "132711.897500", "132712.357500", "132712.817500", "132713.277500", "132713.737500", "132714.197500", "132714.657500", "132715.117500", "132715.577500", "132716.037500", "132716.497500", "132716.957500", "132717.417500", "132717.877500", "132718.337500", "132718.797500", "132719.257500", "132719.717500", "132720.177500", "132720.637500", "132721.097500", "132721.557500", "132722.017500", "132722.477500", "132722.937500", "132723.397500", "132723.857500", "132724.317500", "132724.777500", "132725.237500", "132725.697500", "132726.157500", "132726.617500", "132727.077500", "132727.537500", "132727.997500", "132728.457500", "132728.917500", "132729.377500", "132729.837500", "132730.297500", "132730.757500", "132731.217500", "132731.677500", "132732.137500", "132732.597500", "132733.057500", "132733.517500", "132733.977500", "132734.437500", "132734.897500", "132735.357500", "132735.817500", "132736.277500", "132736.737500", "132737.197500", "132737.657500", "132738.117500", "132738.577500", "132739.037500", "132739.497500", "132739.957500", "132740.417500", "132740.877500", "132741.337500", "132741.797500", "132742.257500", "132742.717500", "132743.177500", "132743.637500", "132744.097500", "132744.557500", "132745.017500", "132745.477500", "132745.937500", "132746.397500", "132746.857500", "132747.317500", "132747.777500", "132748.237500", "132748.697500", "132749.157500", "132749.617500", "132750.077500", "132750.537500", "132750.997500", "132751.457500", "132751.917500", "132752.377500", "132752.837500", "132753.297500", "132753.757500", "132754.217500", "132754.677500", "132755.137500", "132755.597500", "132756.057500", "132756.517500", "132756.977500", "132757.437500", "132757.897500", "132758.357500", "132758.817500", "132759.277500", "132759.737500", "132800.197500", "132800.657500", "132801.117500", "132801.577500", "132802.037500", "132802.497500", "132802.957500", "132803.417500", "132803.877500", "132804.337500", "132804.797500", "132805.257500", "132805.717500", "132806.177500", "132806.637500", "132807.097500", "132807.557500", "132808.017500", "132808.477500", "132808.937500", "132809.397500", "132809.857500", "132810.317500", "132810.777500", "132811.237500", "132811.697500", "132812.157500", "132812.617500", "132813.077500", "132813.537500", "132813.997500", "132814.457500", "132814.917500", "132815.377500", "132815.837500", "132816.297500", "132816.757500", "132817.217500", "132817.677500", "132818.137500", "132818.597500", "132819.057500", "132819.517500", "132819.977500", "132820.437500", "132820.897500", "132821.357500", "132821.817500", "132822.277500", "132822.737500", "132823.197500", "132823.657500", "132824.117500", "132824.577500", "132825.037500", "132825.497500", "132825.957500", "132826.417500", "132826.877500", "132827.337500", "132827.797500", "132828.257500", "132828.717500", "132829.177500", "132829.637500", "132830.097500", "132830.557500", "132831.017500", "132831.477500", "132831.937500", "132832.397500", "132832.857500", "132833.317500", "132833.777500", "132834.237500", "132834.697500", "132835.157500", "132835.617500", "132836.077500", "132836.537500", "132836.997500", "132837.457500", "132837.917500", "132838.377500", "132838.837500", "132839.297500", "132839.757500", "132840.217500", "132840.677500", "132841.137500", "132841.597500", "132842.057500", "132842.517500", "132842.977500", "132843.437500", "132843.897500", "132844.357500", "132844.817500", "132845.277500", "132845.737500", "132846.197500", "132846.657500", "132847.117500", "132847.577500", "132848.037500", "132848.497500", "132848.957500", "132849.417500", "132849.877500", "132850.337500", "132850.797500", "132851.257500", "132851.717500", "132852.177500", "132852.637500", "132853.097500", "132853.557500", "132854.017500", "132854.477500", "132854.937500", "132855.397500", "132855.857500", "132856.317500", "132856.777500", "132857.237500", "132857.697500", "132858.157500", "132858.617500", "132859.077500", "132859.537500", "132859.997500", "132900.457500", "132900.917500", "132901.377500", "132901.837500", "132902.297500", "132902.757500", "132903.217500", "132903.677500", "132904.137500", "132904.597500", "132905.057500", "132905.517500", "132905.977500", "132906.437500", "132906.897500", "132907.357500", "132907.817500", "132908.277500", "132908.737500", "132909.197500", "132909.657500", "132910.117500", "132910.577500", "132911.037500", "132911.497500", "132911.957500", "132912.417500", "132912.877500", "132913.337500", "132913.797500", "132914.257500", "132914.717500", "132915.177500", "132915.637500", "132916.097500", "132916.557500", "132917.017500", "132917.477500", "132917.937500", "132918.397500", "132918.857500", "132919.317500", "132919.777500", "132920.237500", "132920.697500", "132921.157500", "132921.617500", "132922.077500", "132922.537500", "132922.997500", "132923.457500", "132923.917500", "132924.377500", "132924.837500", "132925.297500", "132925.757500", "132926.217500", "132926.677500", "132927.137500", "132927.597500", "132928.057500", "132928.517500", "132928.977500", "132929.437500", "132929.897500", "132930.357500", "132930.817500", "132931.277500", "132931.737500", "132932.197500", "132932.657500", "132933.117500", "132933.577500", "132934.037500", "132934.497500", "132934.957500", "132935.417500", "132935.877500", "132936.337500", "132936.797500", "132937.257500", "132937.717500", "132938.177500", "132938.637500", "132939.097500", "132939.557500", "132940.017500", "132940.477500", "132940.937500", "132941.397500", "132941.857500", "132942.317500", "132942.777500", "132943.237500", "132943.697500", "132944.157500", "132944.617500", "132945.077500", "132945.537500", "132945.997500", "132946.457500", "132946.917500", "132947.377500", "132947.837500", "132948.297500", "132948.757500", "132949.217500", "132949.677500", "132950.137500", "132950.597500", "132951.057500", "132951.517500", "132951.977500", "132952.437500", "132952.897500", "132953.357500", "132953.817500", "132954.277500", "132954.737500", "132955.197500", "132955.657500", "132956.117500", "132956.577500", "132957.037500", "132957.497500", "132957.957500", "132958.417500", "132958.877500", "132959.337500", "132959.797500", "133000.257500", "133000.717500", "133001.177500", "133001.637500", "133002.097500", "133002.557500", "133003.017500", "133003.477500", "133003.937500", "133004.397500", "133004.857500", "133005.317500", "133005.777500", "133006.237500", "133006.697500", "133007.157500", "133007.617500", "133008.077500", "133008.537500", "133008.997500", "133009.457500", "133009.917500", "133010.377500", "133010.837500", "133011.297500", "133011.757500", "133012.217500", "133012.677500", "133013.137500", "133013.597500", "133014.057500", "133014.517500", "133014.977500", "133015.437500", "133015.897500", "133016.357500", "133016.817500", "133017.277500", "133017.737500", "133018.197500", "133018.657500", "133019.117500", "133019.577500", "133020.037500", "133020.497500", "133020.957500", "133021.417500", "133021.877500", "133022.337500", "133022.797500", "133023.257500", "133023.717500", "133024.177500", "133024.637500", "133025.097500", "133025.557500", "133026.017500", "133026.477500", "133026.937500", "133027.397500", "133027.857500", "133028.317500", "133028.777500", "133029.237500", "133029.697500", "133030.157500", "133030.617500", "133031.077500", "133031.537500", "133031.997500", "133032.457500", "133032.917500", "133033.377500", "133033.837500", "133034.297500", "133034.757500", "133035.217500", "133035.677500", "133036.137500", "133036.597500", "133037.057500", "133037.517500", "133037.977500", "133038.437500", "133038.897500", "133039.357500", "133039.817500", "133040.277500", "133040.737500", "133041.197500", "133041.657500", "133042.117500", "133042.577500", "133043.037500", "133043.497500", "133043.957500", "133044.417500", "133044.877500", "133045.337500", "133045.797500", "133046.257500", "133046.717500", "133047.177500", "133047.637500", "133048.097500", "133048.557500", "133049.017500", "133049.477500", "133049.937500", "133050.397500", "133050.857500", "133051.317500", "133051.777500", "133052.237500", "133052.697500", "133053.157500", "133053.617500", "133054.077500", "133054.537500", "133054.997500", "133055.457500", "133055.917500", "133056.377500", "133056.837500", "133057.297500", "133057.757500", "133058.217500", "133058.677500", "133059.137500", "133059.597500", "133100.057500", "133100.517500", "133100.977500", "133101.437500", "133101.897500", "133102.357500", "133102.817500", "133103.277500", "133103.737500", "133104.197500", "133104.657500", "133105.117500", "133105.577500", "133106.037500", "133106.497500", "133106.957500", "133107.417500", "133107.877500", "133108.337500", "133108.797500", "133109.257500", "133109.717500", "133110.177500", "133110.637500", "133111.097500", "133111.557500", "133112.017500", "133112.477500", "133112.937500", "133113.397500", "133113.857500", "133114.317500", "133114.777500", "133115.237500", "133115.697500", "133116.157500", "133116.617500", "133117.077500", "133117.537500", "133117.997500", "133118.457500", "133118.917500", "133119.377500", "133119.837500", "133120.297500", "133120.757500", "133121.217500", "133121.677500", "133122.137500", "133122.597500", "133123.057500", "133123.517500", "133123.977500"],
