{
  "AcquisitionMatrixPE": 82,
  "AcquisitionNumber": 1,
  "AcquisitionTime": "13:15:44.042500",
  "BandwidthPerPixelPhaseEncode": 24.888,
  "BaseResolution": 82,
  "BodyPartExamined": "BRAIN",
  "ConsistencyInfo": "N4_VE11C_LATEST_20160120",
  "ConversionSoftware": "dcm2niix",
  "ConversionSoftwareVersion": "v1.0.20201102",
  "DerivedVendorReportedEchoSpacing": 0.00049,
  "DeviceSerialNumber": "66112",
  "DwellTime": 2e-06,
  "EchoTime": 0.0272,
  "EchoTrainLength": 82,
  "EffectiveEchoSpacing": 0.00049,
  "FlipAngle": 44,
  "ImageComments": "Unaliased MB8/PE3",
  "ImageOrientationPatientDICOM": [0.998759, -0.00450417, 0.0495964, -0.000697288, 0.994539, 0.104362],
  "ImageType": [
    "ORIGINAL",
    "PRIMARY",
    "M",
    "MB",
    "ND",
    "NORM",
    "MOSAIC"
],
  "ImagingFrequency": 123.252,
  "InPlanePhaseEncodingDirectionDICOM": "COL",
  "InstitutionAddress": "Maynard 3,Hanover,NH,US,03755",
  "InstitutionName": "Dartmouth College - PBS",
  "InstitutionalDepartmentName": "Department",
  "MRAcquisitionType": "2D",
  "MagneticFieldStrength": 3,
  "Manufacturer": "Siemens",
  "ManufacturersModelName": "Prisma",
  "Modality": "MR",
  "MultibandAccelerationFactor": 8,
  "PartialFourier": 1,
  "PatientPosition": "HFS",
  "PercentPhaseFOV": 100,
  "PercentSampling": 100,
  "PhaseEncodingDirection": "j-",
  "PhaseEncodingSteps": 82,
  "PhaseResolution": 1,
  "PixelBandwidth": 3050,
  "ProcedureStepDescription": "Wager_Wager^1076_spacetop",
  "ProtocolName": "func_run-03_task-faces_acq-ap-mb8",
  "PulseSequenceDetails": "%CustomerSeq%\\cmrr_mbep2d_bold",
  "ReceiveCoilActiveElements": "HEA;HEP",
  "ReceiveCoilName": "Head_32",
  "ReconMatrixPE": 82,
  "RepetitionTime": 0.46,
  "SAR": 0.090925,
  "ScanOptions": "FS",
  "ScanningSequence": "EP",
  "SequenceName": "epfid2d1_82",
  "SequenceVariant": "SK\\SS",
  "SeriesDescription": "func_run-03_task-faces_acq-ap-mb8",
  "SeriesNumber": 20,
  "ShimSetting": [4149, -7764, -7256, 549, -116, -257, 92, 75],
  "SliceThickness": 2.7,
  "SliceTiming": [0, 0.2525, 0.065, 0.315, 0.1275, 0.3775, 0.19, 0, 0.2525, 0.065, 0.315, 0.1275, 0.3775, 0.19, 0, 0.2525, 0.065, 0.315, 0.1275, 0.3775, 0.19, 0, 0.2525, 0.065, 0.315, 0.1275, 0.3775, 0.19, 0, 0.2525, 0.065, 0.315, 0.1275, 0.3775, 0.19, 0, 0.2525, 0.065, 0.315, 0.1275, 0.3775, 0.19, 0, 0.2525, 0.065, 0.315, 0.1275, 0.3775, 0.19, 0, 0.2525, 0.065, 0.315, 0.1275, 0.3775, 0.19],
  "SoftwareVersions": "syngo MR E11",
  "SpacingBetweenSlices": 2.7,
  "StationName": "AWP66112",
  "TaskName": "faces",
  "TotalReadoutTime": 0.03969,
  "TxRefAmp": 250.931,
  "WipMemBlock": "034fb95a-c419-469e-afe2-87058ca8d023||Sequence: R016 ve11c/master r/e634e98; Dec 19 2017 11:00:25 by eja",
  "dcmmeta_affine": [
    [-2.679597854614258, -0.001870771637186408, 0.13444821536540985, 110.52700805664062],
    [0.01208436768501997, 2.6682755947113037, 0.28152215480804443, -95.46971893310547],
    [0.13306353986263275, -0.2799966335296631, 2.681915044784546, -64.48974609375],
    [0.0, 0.0, 0.0, 1.0]
],
  "dcmmeta_reorient_transform": [
    [0.0, -1.0, 0.0, 81.0],
    [1.0, 0.0, 0.0, 0.0],
    [0.0, 0.0, 1.0, 0.0],
    [0.0, 0.0, 0.0, 1.0]
],
  "dcmmeta_shape": [82, 82, 56, 914],
  "dcmmeta_slice_dim": 2,
  "dcmmeta_version": 0.6,
  "global": {
    "const": {
      "AccessionNumber": "A003556",
      "AcquisitionMatrix": [82, 0, 0, 82],
      "AngioFlag": "N",
      "BitsAllocated": 16,
      "BitsStored": 16,
      "BodyPartExamined": "BRAIN",
      "Columns": 656,
      "EchoNumbers": 1,
      "EchoTime": 27.2,
      "EchoTrainLength": 82,
      "FlipAngle": 44.0,
      "HighBit": 15,
      "ImageOrientationPatient": [0.99875918453402, -0.0045041734702, 0.04959640844142, -0.0006972876102, 0.99453909342749, 0.10436237556907],
      "ImagePositionPatient": [-878.88315697018, -882.98752046818, -205.71774194847],
      "ImageType": [
        "ORIGINAL",
        "PRIMARY",
        "M",
        "MB",
        "ND",
        "NORM",
        "MOSAIC"
],
      "ImagedNucleus": "1H",
      "ImagingFrequency": 123.252165,
      "InPlanePhaseEncodingDirection": "COL",
      "MRAcquisitionType": "2D",
      "MagneticFieldStrength": 3.0,
      "Manufacturer": "SIEMENS",
      "ManufacturerModelName": "Prisma",
      "Modality": "MR",
      "NumberOfAverages": 1.0,
      "NumberOfPhaseEncodingSteps": 82,
      "PercentPhaseFieldOfView": 100.0,
      "PercentSampling": 100.0,
      "PerformedProcedureStepStartTime": "115651.810000",
      "PhotometricInterpretation": "MONOCHROME2",
      "PixelBandwidth": 3050.0,
      "PixelRepresentation": 0,
      "PixelSpacing": [2.6829268932343, 2.6829268932343],
      "ProtocolName": "func_run-03_task-faces_acq-ap-mb8",
      "RepetitionTime": 460.0,
      "Rows": 656,
      "SAR": 0.09092502581023,
      "SamplesPerPixel": 1,
      "ScanOptions": "FS",
      "ScanningSequence": "EP",
      "SequenceName": "epfid2d1_82",
      "SequenceVariant": [
        "SK",
        "SS"
],
      "SeriesDescription": "func_run-03_task-faces_acq-ap-mb8",
      "SeriesNumber": 20,
      "SeriesTime": "131554.393000",
      "SliceLocation": -68.508413663662,
      "SliceThickness": 2.7000000476837,
      "SmallestImagePixelValue": 0,
      "SoftwareVersions": "syngo MR E11",
      "SpacingBetweenSlices": 2.6999999779908,
      "SpecificCharacterSet": "ISO_IR 100",
      "StudyID": "1",
      "StudyTime": "115651.746000",
      "TransmitCoilName": "Body",
      "VariableFlipAngleFlag": "N",
      "WindowCenterWidthExplanation": "Algo1",
      "dBdt": 0.0},
    "slices": {}
  },
  "time": {
    "samples": {
      "AcquisitionNumber": [1, 2, 3, 4, 5, 6, 7, 8, 9, 10, 11, 12, 13, 14, 15, 16, 17, 18, 19, 20, 21, 22, 23, 24, 25, 26, 27, 28, 29, 30, 31, 32, 33, 34, 35, 36, 37, 38, 39, 40, 41, 42, 43, 44, 45, 46, 47, 48, 49, 50, 51, 52, 53, 54, 55, 56, 57, 58, 59, 60, 61, 62, 63, 64, 65, 66, 67, 68, 69, 70, 71, 72, 73, 74, 75, 76, 77, 78, 79, 80, 81, 82, 83, 84, 85, 86, 87, 88, 89, 90, 91, 92, 93, 94, 95, 96, 97, 98, 99, 100, 101, 102, 103, 104, 105, 106, 107, 108, 109, 110, 111, 112, 113, 114, 115, 116, 117, 118, 119, 120, 121, 122, 123, 124, 125, 126, 127, 128, 129, 130, 131, 132, 133, 134, 135, 136, 137, 138, 139, 140, 141, 142, 143, 144, 145, 146, 147, 148, 149, 150, 151, 152, 153, 154, 155, 156, 157, 158, 159, 160, 161, 162, 163, 164, 165, 166, 167, 168, 169, 170, 171, 172, 173, 174, 175, 176, 177, 178, 179, 180, 181, 182, 183, 184, 185, 186, 187, 188, 189, 190, 191, 192, 193, 194, 195, 196, 197, 198, 199, 200, 201, 202, 203, 204, 205, 206, 207, 208, 209, 210, 211, 212, 213, 214, 215, 216, 217, 218, 219, 220, 221, 222, 223, 224, 225, 226, 227, 228, 229, 230, 231, 232, 233, 234, 235, 236, 237, 238, 239, 240, 241, 242, 243, 244, 245, 246, 247, 248, 249, 250, 251, 252, 253, 254, 255, 256, 257, 258, 259, 260, 261, 262, 263, 264, 265, 266, 267, 268, 269, 270, 271, 272, 273, 274, 275, 276, 277, 278, 279, 280, 281, 282, 283, 284, 285, 286, 287, 288, 289, 290, 291, 292, 293, 294, 295, 296, 297, 298, 299, 300, 301, 302, 303, 304, 305, 306, 307, 308, 309, 310, 311, 312, 313, 314, 315, 316, 317, 318, 319, 320, 321, 322, 323, 324, 325, 326, 327, 328, 329, 330, 331, 332, 333, 334, 335, 336, 337, 338, 339, 340, 341, 342, 343, 344, 345, 346, 347, 348, 349, 350, 351, 352, 353, 354, 355, 356, 357, 358, 359, 360, 361, 362, 363, 364, 365, 366, 367, 368, 369, 370, 371, 372, 373, 374, 375, 376, 377, 378, 379, 380, 381, 382, 383, 384, 385, 386, 387, 388, 389, 390, 391, 392, 393, 394, 395, 396, 397, 398, 399, 400, 401, 402, 403, 404, 405, 406, 407, 408, 409, 410, 411, 412, 413, 414, 415, 416, 417, 418, 419, 420, 421, 422, 423, 424, 425, 426, 427, 428, 429, 430, 431, 432, 433, 434, 435, 436, 437, 438, 439, 440, 441, 442, 443, 444, 445, 446, 447, 448, 449, 450, 451, 452, 453, 454, 455, 456, 457, 458, 459, 460, 461, 462, 463, 464, 465, 466, 467, 468, 469, 470, 471, 472, 473, 474, 475, 476, 477, 478, 479, 480, 481, 482, 483, 484, 485, 486, 487, 488, 489, 490, 491, 492, 493, 494, 495, 496, 497, 498, 499, 500, 501, 502, 503, 504, 505, 506, 507, 508, 509, 510, 511, 512, 513, 514, 515, 516, 517, 518, 519, 520, 521, 522, 523, 524, 525, 526, 527, 528, 529, 530, 531, 532, 533, 534, 535, 536, 537, 538, 539, 540, 541, 542, 543, 544, 545, 546, 547, 548, 549, 550, 551, 552, 553, 554, 555, 556, 557, 558, 559, 560, 561, 562, 563, 564, 565, 566, 567, 568, 569, 570, 571, 572, 573, 574, 575, 576, 577, 578, 579, 580, 581, 582, 583, 584, 585, 586, 587, 588, 589, 590, 591, 592, 593, 594, 595, 596, 597, 598, 599, 600, 601, 602, 603, 604, 605, 606, 607, 608, 609, 610, 611, 612, 613, 614, 615, 616, 617, 618, 619, 620, 621, 622, 623, 624, 625, 626, 627, 628, 629, 630, 631, 632, 633, 634, 635, 636, 637, 638, 639, 640, 641, 642, 643, 644, 645, 646, 647, 648, 649, 650, 651, 652, 653, 654, 655, 656, 657, 658, 659, 660, 661, 662, 663, 664, 665, 666, 667, 668, 669, 670, 671, 672, 673, 674, 675, 676, 677, 678, 679, 680, 681, 682, 683, 684, 685, 686, 687, 688, 689, 690, 691, 692, 693, 694, 695, 696, 697, 698, 699, 700, 701, 702, 703, 704, 705, 706, 707, 708, 709, 710, 711, 712, 713, 714, 715, 716, 717, 718, 719, 720, 721, 722, 723, 724, 725, 726, 727, 728, 729, 730, 731, 732, 733, 734, 735, 736, 737, 738, 739, 740, 741, 742, 743, 744, 745, 746, 747, 748, 749, 750, 751, 752, 753, 754, 755, 756, 757, 758, 759, 760, 761, 762, 763, 764, 765, 766, 767, 768, 769, 770, 771, 772, 773, 774, 775, 776, 777, 778, 779, 780, 781, 782, 783, 784, 785, 786, 787, 788, 789, 790, 791, 792, 793, 794, 795, 796, 797, 798, 799, 800, 801, 802, 803, 804, 805, 806, 807, 808, 809, 810, 811, 812, 813, 814, 815, 816, 817, 818, 819, 820, 821, 822, 823, 824, 825, 826, 827, 828, 829, 830, 831, 832, 833, 834, 835, 836, 837, 838, 839, 840, 841, 842, 843, 844, 845, 846, 847, 848, 849, 850, 851, 852, 853, 854, 855, 856, 857, 858, 859, 860, 861, 862, 863, 864, 865, 866, 867, 868, 869, 870, 871, 872, 873, 874, 875, 876, 877, 878, 879, 880, 881, 882, 883, 884, 885, 886, 887, 888, 889, 890, 891, 892, 893, 894, 895, 896, 897, 898, 899, 900, 901, 902, 903, 904, 905, 906, 907, 908, 909, 910, 911, 912, 913, 914],
      "AcquisitionTime": ["131544.042500", "131544.502500", "131544.962500", "131545.422500", "131545.882500", "131546.342500", "131546.802500", "131547.262500", "131547.722500", "131548.182500", "131548.642500", "131549.102500", "131549.562500", "131550.022500", "131550.482500", "131550.942500", "131551.402500", "131551.862500", "131552.322500", "131552.782500", "131553.242500", "131553.702500", "131554.162500", "131554.622500", "131555.082500", "131555.542500", "131556.002500", "131556.462500", "131556.922500", "131557.382500", "131557.842500", "131558.302500", "131558.762500", "131559.222500", "131559.682500", "131600.142500", "131600.602500", "131601.062500", "131601.522500", "131601.982500", "131602.442500", "131602.902500", "131603.362500", "131603.822500", "131604.282500", "131604.742500", "131605.202500", "131605.662500", "131606.122500", "131606.582500", "131607.042500", "131607.502500", "131607.962500", "131608.422500", "131608.882500", "131609.342500", "131609.802500", "131610.262500", "131610.722500", "131611.182500", "131611.642500", "131612.102500", "131612.562500", "131613.022500", "131613.482500", "131613.942500", "131614.402500", "131614.862500", "131615.322500", "131615.782500", "131616.242500", "131616.702500", "131617.162500", "131617.622500", "131618.082500", "131618.542500", "131619.002500", "131619.462500", "131619.922500", "131620.382500", "131620.842500", "131621.302500", "131621.762500", "131622.222500", "131622.682500", "131623.142500", "131623.602500", "131624.062500", "131624.522500", "131624.982500", "131625.442500", "131625.902500", "131626.362500", "131626.822500", "131627.282500", "131627.742500", "131628.202500", "131628.662500", "131629.122500", "131629.582500", "131630.042500", "131630.502500", "131630.962500", "131631.422500", "131631.882500", "131632.342500", "131632.802500", "131633.262500", "131633.722500", "131634.182500", "131634.642500", "131635.102500", "131635.562500", "131636.022500", "131636.482500", "131636.942500", "131637.402500", "131637.862500", "131638.322500", "131638.782500", "131639.242500", "131639.702500", "131640.162500", "131640.622500", "131641.082500", "131641.542500", "131642.002500", "131642.462500", "131642.922500", "131643.382500", "131643.842500", "131644.302500", "131644.762500", "131645.222500", "131645.682500", "131646.142500", "131646.602500", "131647.062500", "131647.522500", "131647.982500", "131648.442500", "131648.902500", "131649.362500", "131649.822500", "131650.282500", "131650.742500", "131651.202500", "131651.662500", "131652.122500", "131652.582500", "131653.042500", "131653.502500", "131653.962500", "131654.422500", "131654.882500", "131655.342500", "131655.802500", "131656.262500", "131656.722500", "131657.182500", "131657.642500", "131658.102500", "131658.562500", "131659.022500", "131659.482500", "131659.942500", "131700.402500", "131700.862500", "131701.322500", "131701.782500", "131702.242500", "131702.702500", "131703.162500", "131703.622500", "131704.082500", "131704.542500", "131705.002500", "131705.462500", "131705.922500", "131706.382500", "131706.842500", "131707.302500", "131707.762500", "131708.222500", "131708.682500", "131709.142500", "131709.602500", "131710.062500", "131710.522500", "131710.982500", "131711.442500", "131711.902500", "131712.362500", "131712.822500", "131713.282500", "131713.742500", "131714.202500", "131714.662500", "131715.122500", "131715.582500", "131716.042500", "131716.502500", "131716.962500", "131717.422500", "131717.882500", "131718.342500", "131718.802500", "131719.262500", "131719.722500", "131720.182500", "131720.642500", "131721.102500", "131721.562500", "131722.022500", "131722.482500", "131722.942500", "131723.402500", "131723.862500", "131724.322500", "131724.782500", "131725.242500", "131725.702500", "131726.162500", "131726.622500", "131727.082500", "131727.542500", "131728.002500", "131728.462500", "131728.922500", "131729.382500", "131729.842500", "131730.302500", "131730.762500", "131731.222500", "131731.682500", "131732.142500", "131732.602500", "131733.062500", "131733.522500", "131733.982500", "131734.442500", "131734.902500", "131735.362500", "131735.822500", "131736.282500", "131736.742500", "131737.202500", "131737.662500", "131738.122500", "131738.582500", "131739.042500", "131739.502500", "131739.962500", "131740.422500", "131740.882500", "131741.342500", "131741.802500", "131742.262500", "131742.722500", "131743.182500", "131743.642500", "131744.102500", "131744.562500", "131745.022500", "131745.482500", "131745.942500", "131746.402500", "131746.862500", "131747.322500", "131747.782500", "131748.242500", "131748.702500", "131749.162500", "131749.622500", "131750.082500", "131750.542500", "131751.002500", "131751.462500", "131751.922500", "131752.382500", "131752.842500", "131753.302500", "131753.762500", "131754.222500", "131754.682500", "131755.142500", "131755.602500", "131756.062500", "131756.522500", "131756.982500", "131757.442500", "131757.902500", "131758.362500", "131758.822500", "131759.282500", "131759.742500", "131800.202500", "131800.662500", "131801.122500", "131801.582500", "131802.042500", "131802.502500", "131802.962500", "131803.422500", "131803.882500", "131804.342500", "131804.802500", "131805.262500", "131805.722500", "131806.182500", "131806.642500", "131807.102500", "131807.562500", "131808.022500", "131808.482500", "131808.942500", "131809.402500", "131809.862500", "131810.322500", "131810.782500", "131811.242500", "131811.702500", "131812.162500", "131812.622500", "131813.082500", "131813.542500", "131814.002500", "131814.462500", "131814.922500", "131815.382500", "131815.842500", "131816.302500", "131816.762500", "131817.222500", "131817.682500", "131818.142500", "131818.602500", "131819.062500", "131819.522500", "131819.982500", "131820.442500", "131820.902500", "131821.362500", "131821.822500", "131822.282500", "131822.742500", "131823.202500", "131823.662500", "131824.122500", "131824.582500", "131825.042500", "131825.502500", "131825.962500", "131826.422500", "131826.882500", "131827.342500", "131827.802500", "131828.262500", "131828.722500", "131829.182500", "131829.642500", "131830.102500", "131830.562500", "131831.022500", "131831.482500", "131831.942500", "131832.402500", "131832.862500", "131833.322500", "131833.782500", "131834.242500", "131834.702500", "131835.162500", "131835.622500", "131836.082500", "131836.542500", "131837.002500", "131837.462500", "131837.922500", "131838.382500", "131838.842500", "131839.302500", "131839.762500", "131840.222500", "131840.682500", "131841.142500", "131841.602500", "131842.062500", "131842.522500", "131842.982500", "131843.442500", "131843.902500", "131844.362500", "131844.822500", "131845.282500", "131845.742500", "131846.202500", "131846.662500", "131847.122500", "131847.582500", "131848.042500", "131848.502500", "131848.962500", "131849.422500", "131849.882500", "131850.342500", "131850.802500", "131851.262500", "131851.722500", "131852.182500", "131852.642500", "131853.102500", "131853.562500", "131854.022500", "131854.482500", "131854.942500", "131855.402500", "131855.862500", "131856.322500", "131856.782500", "131857.242500", "131857.702500", "131858.162500", "131858.622500", "131859.082500", "131859.542500", "131900.002500", "131900.462500", "131900.922500", "131901.382500", "131901.842500", "131902.302500", "131902.762500", "131903.222500", "131903.682500", "131904.142500", "131904.602500", "131905.062500", "131905.522500", "131905.982500", "131906.442500", "131906.902500", "131907.362500", "131907.822500", "131908.282500", "131908.742500", "131909.202500", "131909.662500", "131910.122500", "131910.582500", "131911.042500", "131911.502500", "131911.962500", "131912.422500", "131912.882500", "131913.342500", "131913.802500", "131914.262500", "131914.722500", "131915.182500", "131915.642500", "131916.102500", "131916.562500", "131917.022500", "131917.482500", "131917.942500", "131918.402500", "131918.862500", "131919.322500", "131919.782500", "131920.242500", "131920.702500", "131921.162500", "131921.622500", "131922.082500", "131922.542500", "131923.002500", "131923.462500", "131923.922500", "131924.382500", "131924.842500", "131925.302500", "131925.762500", "131926.222500", "131926.682500", "131927.142500", "131927.602500", "131928.062500", "131928.522500", "131928.982500", "131929.442500", "131929.902500", "131930.362500", "131930.822500", "131931.282500", "131931.742500", "131932.202500", "131932.662500", "131933.122500", "131933.582500", "131934.042500", "131934.502500", "131934.962500", "131935.422500", "131935.882500", "131936.342500", "131936.802500", "131937.262500", "131937.722500", "131938.182500", "131938.642500", "131939.102500", "131939.562500", "131940.022500", "131940.482500", "131940.942500", "131941.402500", "131941.862500", "131942.322500", "131942.782500", "131943.242500", "131943.702500", "131944.162500", "131944.622500", "131945.082500", "131945.542500", "131946.002500", "131946.462500", "131946.922500", "131947.382500", "131947.842500", "131948.302500", "131948.762500", "131949.222500", "131949.682500", "131950.142500", "131950.602500", "131951.062500", "131951.522500", "131951.982500", "131952.442500", "131952.902500", "131953.362500", "131953.822500", "131954.282500", "131954.742500", "131955.202500", "131955.662500", "131956.122500", "131956.582500", "131957.042500", "131957.502500", "131957.962500", "131958.422500", "131958.882500", "131959.342500", "131959.802500", "132000.262500", "132000.722500", "132001.182500", "132001.642500", "132002.102500", "132002.562500", "132003.022500", "132003.482500", "132003.942500", "132004.402500", "132004.862500", "132005.322500", "132005.782500", "132006.242500", "132006.702500", "132007.162500", "132007.622500", "132008.082500", "132008.542500", "132009.002500", "132009.462500", "132009.922500", "132010.382500", "132010.842500", "132011.302500", "132011.762500", "132012.222500", "132012.682500", "132013.142500", "132013.602500", "132014.062500", "132014.522500", "132014.982500", "132015.442500", "132015.902500", "132016.362500", "132016.822500", "132017.282500", "132017.742500", "132018.202500", "132018.662500", "132019.122500", "132019.582500", "132020.042500", "132020.502500", "132020.962500", "132021.422500", "132021.882500", "132022.342500", "132022.802500", "132023.262500", "132023.722500", "132024.182500", "132024.642500", "132025.102500", "132025.562500", "132026.022500", "132026.482500", "132026.942500", "132027.402500", "132027.862500", "132028.322500", "132028.782500", "132029.242500", "132029.702500", "132030.162500", "132030.622500", "132031.082500", "132031.542500", "132032.002500", "132032.462500", "132032.922500", "132033.382500", "132033.842500", "132034.302500", "132034.762500", "132035.222500", "132035.682500", "132036.142500", "132036.602500", "132037.062500", "132037.522500", "132037.982500", "132038.442500", "132038.902500", "132039.362500", "132039.822500", "132040.282500", "132040.742500", "132041.202500", "132041.662500", "132042.122500", "132042.582500", "132043.042500", "132043.502500", "132043.962500", "132044.422500", "132044.882500", "132045.342500", "132045.802500", "132046.262500", "132046.722500", "132047.182500", "132047.642500", "132048.102500", "132048.562500", "132049.022500", "132049.482500", "132049.942500", "132050.402500", "132050.862500", "132051.322500", "132051.782500", "132052.242500", "132052.702500", "132053.162500", "132053.622500", "132054.082500", "132054.542500", "132055.002500", "132055.462500", "132055.922500", "132056.382500", "132056.842500", "132057.302500", "132057.762500", "132058.222500", "132058.682500", "132059.142500", "132059.602500", "132100.062500", "132100.522500", "132100.982500", "132101.442500", "132101.902500", "132102.362500", "132102.822500", "132103.282500", "132103.742500", "132104.202500", "132104.662500", "132105.122500", "132105.582500", "132106.042500", "132106.502500", "132106.962500", "132107.422500", "132107.882500", "132108.342500", "132108.802500", "132109.262500", "132109.722500", "132110.182500", "132110.642500", "132111.102500", "132111.562500", "132112.022500", "132112.482500", "132112.942500", "132113.402500", "132113.862500", "132114.322500", "132114.782500", "132115.242500", "132115.702500", "132116.162500", "132116.622500", "132117.082500", "132117.542500", "132118.002500", "132118.462500", "132118.922500", "132119.382500", "132119.842500", "132120.302500", "132120.762500", "132121.222500", "132121.682500", "132122.142500", "132122.602500", "132123.062500", "132123.522500", "132123.982500", "132124.442500", "132124.902500", "132125.362500", "132125.822500", "132126.282500", "132126.742500", "132127.202500", "132127.662500", "132128.122500", "132128.582500", "132129.042500", "132129.502500", "132129.962500", "132130.422500", "132130.882500", "132131.342500", "132131.802500", "132132.262500", "132132.722500", "132133.182500", "132133.642500", "132134.102500", "132134.562500", "132135.022500", "132135.482500", "132135.942500", "132136.402500", "132136.862500", "132137.322500", "132137.782500", "132138.242500", "132138.702500", "132139.162500", "132139.622500", "132140.082500", "132140.542500", "132141.002500", "132141.462500", "132141.922500", "132142.382500", "132142.842500", "132143.302500", "132143.762500", "132144.222500", "132144.682500", "132145.142500", "132145.602500", "132146.062500", "132146.522500", "132146.982500", "132147.442500", "132147.902500", "132148.362500", "132148.822500", "132149.282500", "132149.742500", "132150.202500", "132150.662500", "132151.122500", "132151.582500", "132152.042500", "132152.502500", "132152.962500", "132153.422500", "132153.882500", "132154.342500", "132154.802500", "132155.262500", "132155.722500", "132156.182500", "132156.642500", "132157.102500", "132157.562500", "132158.022500", "132158.482500", "132158.942500", "132159.402500", "132159.862500", "132200.322500", "132200.782500", "132201.242500", "132201.702500", "132202.162500", "132202.622500", "132203.082500", "132203.542500", "132204.002500", "132204.462500", "132204.922500", "132205.382500", "132205.842500", "132206.302500", "132206.762500", "132207.222500", "132207.682500", "132208.142500", "132208.602500", "132209.062500", "132209.522500", "132209.982500", "132210.442500", "132210.902500", "132211.362500", "132211.822500", "132212.282500", "132212.742500", "132213.202500", "132213.662500", "132214.122500", "132214.582500", "132215.042500", "132215.502500", "132215.962500", "132216.422500", "132216.882500", "132217.342500", "132217.802500", "132218.262500", "132218.722500", "132219.182500", "132219.642500", "132220.102500", "132220.562500", "132221.022500", "132221.482500", "132221.942500", "132222.402500", "132222.862500", "132223.322500", "132223.782500", "132224.242500", "132224.702500", "132225.162500", "132225.622500", "132226.082500", "132226.542500", "132227.002500", "132227.462500", "132227.922500", "132228.382500", "132228.842500", "132229.302500", "132229.762500", "132230.222500", "132230.682500", "132231.142500", "132231.602500", "132232.062500", "132232.522500", "132232.982500", "132233.442500", "132233.902500", "132234.362500", "132234.822500", "132235.282500", "132235.742500", "132236.202500", "132236.662500", "132237.122500", "132237.582500", "132238.042500", "132238.502500", "132238.962500", "132239.422500", "132239.882500", "132240.342500", "132240.802500", "132241.262500", "132241.722500", "132242.182500", "132242.642500", "132243.102500", "132243.562500", "132244.022500"],
