{
  "AcquisitionMatrixPE": 140,
  "AcquisitionNumber": 1,
  "AcquisitionTime": "16:40:55.995000",
  "BandwidthPerPixelPhaseEncode": 10.352,
  "BaseResolution": 140,
  "BodyPartExamined": "BRAIN",
  "ConsistencyInfo": "N4_VE11E_LATEST_20181129",
  "ConversionSoftware": "dcm2niix",
  "ConversionSoftwareVersion": "v1.0.20201102",
  "DerivedVendorReportedEchoSpacing": 0.000689998,
  "DeviceSerialNumber": "66112",
  "DiffusionScheme": "Monopolar",
  "DwellTime": 2.1e-06,
  "EchoTime": 0.088,
  "EchoTrainLength": 105,
  "EffectiveEchoSpacing": 0.000689998,
  "FlipAngle": 90,
  "ImageComments": "Unaliased MB3/PE3",
  "ImageOrientationPatientDICOM": [0.996524, -0.0408865, -0.0725831, 0.0585063, 0.963731, 0.260382],
  "ImageType": [
    "ORIGINAL",
    "PRIMARY",
    "DIFFUSION",
    "NONE",
    "MB",
    "ND"
],
  "ImagingFrequency": 123.259,
  "InPlanePhaseEncodingDirectionDICOM": "COL",
  "InstitutionAddress": "Maynard 3,Hanover,NH,US,03755",
  "InstitutionName": "Dartmouth College - PBS",
  "InstitutionalDepartmentName": "Department",
  "IntendedFor": [
    "ses-01/dwi/sub-0104_ses-01_acq-96dirX6b0Xmb_dwi.nii.gz"
],
  "MRAcquisitionType": "2D",
  "MagneticFieldStrength": 3,
  "Manufacturer": "Siemens",
  "ManufacturersModelName": "Prisma",
  "Modality": "MR",
  "MultibandAccelerationFactor": 3,
  "PartialFourier": 0.75,
  "PatientPosition": "HFS",
  "PercentPhaseFOV": 100,
  "PercentSampling": 100,
  "PhaseEncodingDirection": "j-",
  "PhaseEncodingSteps": 105,
  "PhaseResolution": 1,
  "PixelBandwidth": 1700,
  "ProcedureStepDescription": "Wager_Wager^1076_spacetop",
  "ProtocolName": "dwi_acq-discorr-AP",
  "PulseSequenceDetails": "%CustomerSeq%\\cmrr_mbep2d_diff",
  "ReceiveCoilActiveElements": "HEA;HEP",
  "ReceiveCoilName": "Head_32",
  "ReconMatrixPE": 140,
  "RepetitionTime": 4.1,
  "SAR": 0.187445,
  "ScanOptions": "PFP\\FS",
  "ScanningSequence": "EP",
  "SequenceName": "ep_b0",
  "SequenceVariant": "SK\\SS",
  "SeriesDescription": "dwi_acq-discorr-AP",
  "SeriesNumber": 7,
  "ShimSetting": [4205, -7799, -7205, 343, -114, -119, -7, 125],
  "SliceThickness": 1.7,
  "SliceTiming": [0, 2.10938, 0.14062, 2.26562, 0.29688, 2.40625, 0.45312, 2.5625, 0.59375, 2.71875, 0.75, 2.85938, 0.90625, 3.01562, 1.04688, 3.17188, 1.20312, 3.3125, 1.35938, 3.46875, 1.5, 3.625, 1.65625, 3.76562, 1.8125, 3.92188, 1.95312, 0, 2.10938, 0.14062, 2.26562, 0.29688, 2.40625, 0.45312, 2.5625, 0.59375, 2.71875, 0.75, 2.85938, 0.90625, 3.01562, 1.04688, 3.17188, 1.20312, 3.3125, 1.35938, 3.46875, 1.5, 3.625, 1.65625, 3.76562, 1.8125, 3.92188, 1.95312, 0, 2.10938, 0.14062, 2.26562, 0.29688, 2.40625, 0.45312, 2.5625, 0.59375, 2.71875, 0.75, 2.85938, 0.90625, 3.01562, 1.04688, 3.17188, 1.20312, 3.3125, 1.35938, 3.46875, 1.5, 3.625, 1.65625, 3.76562, 1.8125, 3.92188, 1.95312],
  "SoftwareVersions": "syngo MR E11",
  "SpacingBetweenSlices": 1.7,
  "StationName": "AWP66112",
  "TotalReadoutTime": 0.0959097,
  "TxRefAmp": 266.038,
  "WipMemBlock": "72c326bd-d978-4c45-9094-c0ea5630e3be||Sequence: R016 ve11e/master r/434b28f1; Aug  7 2019 19:06:17 by eja",
  "dcmmeta_affine": [
    [-1.708326816558838, 0.1002965047955513, -0.10081768035888672, 120.57337188720703],
    [0.0700911283493042, 1.6521110534667969, 0.4483299255371094, -113.99291229248047],
    [-0.1244281753897667, -0.4463690519332886, 1.63671875, -13.077547073364258],
    [0.0, 0.0, 0.0, 1.0]
],
  "dcmmeta_reorient_transform": [
    [0.0, -1.0, 0.0, 139.0],
    [1.0, 0.0, 0.0, 0.0],
    [0.0, 0.0, -1.0, 80.0],
    [0.0, 0.0, 0.0, 1.0]
],
  "dcmmeta_shape": [140, 140, 81],
  "dcmmeta_slice_dim": 2,
  "dcmmeta_version": 0.6,
  "global": {
    "const": {
      "AccessionNumber": "A004367",
      "AcquisitionMatrix": [140, 0, 0, 140],
      "AcquisitionNumber": 1,
      "AngioFlag": "N",
      "BitsAllocated": 16,
      "BitsStored": 16,
      "BodyPartExamined": "BRAIN",
      "Columns": 140,
      "EchoNumbers": 1,
      "EchoTime": 88.0,
      "EchoTrainLength": 105,
      "FlipAngle": 90.0,
      "HighBit": 15,
      "ImageOrientationPatient": [0.99652395279376, -0.0408864900895, -0.0725831002126, 0.05850629420039, 0.96373142565074, 0.26038193630152],
      "ImageType": [
        "ORIGINAL",
        "PRIMARY",
        "DIFFUSION",
        "NONE",
        "MB",
        "ND"
],
      "ImagedNucleus": "1H",
      "ImagingFrequency": 123.259069,
      "InPlanePhaseEncodingDirection": "COL",
      "MRAcquisitionType": "2D",
      "MagneticFieldStrength": 3.0,
      "Manufacturer": "SIEMENS",
      "ManufacturerModelName": "Prisma",
      "Modality": "MR",
      "NumberOfAverages": 1.0,
      "NumberOfPhaseEncodingSteps": 105,
      "PercentPhaseFieldOfView": 100.0,
      "PercentSampling": 100.0,
      "PerformedProcedureStepStartTime": "162534.667000",
      "PhotometricInterpretation": "MONOCHROME2",
      "PixelBandwidth": 1700.0,
      "PixelRepresentation": 0,
      "PixelSpacing": [1.7142857313156, 1.7142857313156],
      "ProtocolName": "dwi_acq-discorr-AP",
      "RepetitionTime": 4100.0,
      "Rows": 140,
      "SAR": 0.18744520566082,
      "SamplesPerPixel": 1,
      "ScanOptions": [
        "PFP",
        "FS"
],
      "ScanningSequence": "EP",
      "SequenceName": "ep_b0",
      "SequenceVariant": [
        "SK",
        "SS"
],
      "SeriesDescription": "dwi_acq-discorr-AP",
      "SeriesNumber": 7,
      "SeriesTime": "164100.911000",
      "SliceThickness": 1.7000000476837,
      "SmallestImagePixelValue": 0,
      "SoftwareVersions": "syngo MR E11",
      "SpacingBetweenSlices": 1.7,
      "SpecificCharacterSet": "ISO_IR 100",
      "StudyID": "1",
      "StudyTime": "162534.600000",
      "TransmitCoilName": "Body",
      "VariableFlipAngleFlag": "N",
      "WindowCenterWidthExplanation": "Algo1"
    },
    "slices": {
      "AcquisitionTime": ["164055.995000", "164058.110000", "164056.145000", "164058.260000", "164056.297500", "164058.412500", "164056.447500", "164058.562500", "164056.597500", "164058.715000", "164056.750000", "164058.865000", "164056.900000", "164059.017500", "164057.052500", "164059.167500", "164057.202500", "164059.317500", "164057.355000", "164059.470000", "164057.505000", "164059.620000", "164057.657500", "164059.772500", "164057.807500", "164059.922500", "164057.957500", "164055.995000", "164058.110000", "164056.145000", "164058.260000", "164056.297500", "164058.412500", "164056.447500", "164058.562500", "164056.597500", "164058.715000", "164056.750000", "164058.865000", "164056.900000", "164059.017500", "164057.052500", "164059.167500", "164057.202500", "164059.317500", "164057.355000", "164059.470000", "164057.505000", "164059.620000", "164057.657500", "164059.772500", "164057.807500", "164059.922500", "164057.957500", "164055.995000", "164058.110000", "164056.145000", "164058.260000", "164056.297500", "164058.412500", "164056.447500", "164058.562500", "164056.597500", "164058.715000", "164056.750000", "164058.865000", "164056.900000", "164059.017500", "164057.052500", "164059.167500", "164057.202500", "164059.317500", "164057.355000", "164059.470000", "164057.505000", "164059.620000", "164057.657500", "164059.772500", "164057.807500", "164059.922500", "164057.957500"],
      "ContentTime": ["164100.914000", "164101.023000", "164100.921000", "164101.030000", "164100.927000", "164101.037000", "164100.933000", "164101.043000", "164100.939000", "164101.050000", "164100.945000", "164101.057000", "164100.952000", "164101.064000", "164100.964000", "164101.070000", "164100.970000", "164101.076000", "164100.976000", "164101.083000", "164100.982000", "164101.089000", "164100.996000", "164101.096000", "164101.003000", "164101.102000", "164101.016000", "164100.917000", "164101.025000", "164100.923000", "164101.032000", "164100.929000", "164101.039000", "164100.935000", "164101.046000", "164100.941000", "164101.052000", "164100.948000", "164101.060000", "164100.954000", "164101.066000", "164100.966000", "164101.072000", "164100.972000", "164101.078000", "164100.978000", "164101.085000", "164100.984000", "164101.091000", "164100.998000", "164101.098000", "164101.012000", "164101.108000", "164101.018000", "164100.919000", "164101.028000", "164100.925000", "164101.034000", "164100.931000", "164101.041000", "164100.937000", "164101.048000", "164100.943000", "164101.055000", "164100.950000", "164101.062000", "164100.956000", "164101.068000", "164100.968000", "164101.074000", "164100.974000", "164101.080000", "164100.980000", "164101.087000", "164100.994000", "164101.094000", "164101.001000", "164101.100000", "164101.014000", "164101.112000", "164101.021000"],
      "CsaImage.GSWDDataType": [
        "predicted",
        "predicted",
        "predicted",
        "predicted",
        "predicted",
        "predicted",
        "predicted",
        "predicted",
        "predicted",
        "predicted",
        "predicted",
        "predicted",
        "predicted",
        "predicted",
        "predicted",
        "predicted",
        "predicted",
        "predicted",
        "predicted",
        "predicted",
        "predicted",
        "predicted",
        "predicted",
        "measured",
        "predicted",
        "measured",
        "predicted",
        "predicted",
        "predicted",
        "predicted",
        "predicted",
        "predicted",
        "predicted",
        "predicted",
        "predicted",
        "predicted",
        "predicted",
        "predicted",
        "predicted",
        "predicted",
        "predicted",
        "predicted",
        "predicted",
        "predicted",
        "predicted",
        "predicted",
        "predicted",
        "predicted",
        "predicted",
        "predicted",
        "measured",
        "predicted",
        "measured",
        "predicted",
        "predicted",
        "predicted",
        "predicted",
        "predicted",
        "predicted",
        "predicted",
        "predicted",
        "predicted",
        "predicted",
        "predicted",
        "predicted",
        "predicted",
        "predicted",
        "predicted",
        "predicted",
        "predicted",
        "predicted",
        "predicted",
        "predicted",
        "predicted",
        "predicted",
        "predicted",
        "predicted",
        "measured",
        "predicted",
        "measured",
        "predicted"
],
      "CsaImage.ICE_Dims": [
        "X_1_1_1_1_1_1_1_1_1_1_1_125",
        "X_1_1_1_1_1_1_42_1_1_2_1_125",
        "X_1_1_1_1_1_1_2_1_1_3_1_125",
        "X_1_1_1_1_1_1_43_1_1_4_1_125",
        "X_1_1_1_1_1_1_3_1_1_5_1_125",
        "X_1_1_1_1_1_1_44_1_1_6_1_125",
        "X_1_1_1_1_1_1_4_1_1_7_1_125",
        "X_1_1_1_1_1_1_45_1_1_8_1_125",
        "X_1_1_1_1_1_1_5_1_1_9_1_125",
        "X_1_1_1_1_1_1_46_1_1_10_1_125",
        "X_1_1_1_1_1_1_6_1_1_11_1_125",
        "X_1_1_1_1_1_1_47_1_1_12_1_125",
        "X_1_1_1_1_1_1_7_1_1_13_1_125",
        "X_1_1_1_1_1_1_48_1_1_14_1_125",
        "X_1_1_1_1_1_1_8_1_1_15_1_125",
        "X_1_1_1_1_1_1_49_1_1_16_1_125",
        "X_1_1_1_1_1_1_9_1_1_17_1_125",
        "X_1_1_1_1_1_1_50_1_1_18_1_125",
        "X_1_1_1_1_1_1_10_1_1_19_1_125",
        "X_1_1_1_1_1_1_51_1_1_20_1_125",
        "X_1_1_1_1_1_1_11_1_1_21_1_125",
        "X_1_1_1_1_1_1_52_1_1_22_1_125",
        "X_1_1_1_1_1_1_12_1_1_23_1_125",
        "X_1_1_1_1_1_1_53_1_1_24_1_125",
        "X_1_1_1_1_1_1_13_1_1_25_1_125",
        "X_1_1_1_1_1_1_54_1_1_26_1_125",
        "X_1_1_1_1_1_1_14_1_1_27_1_125",
        "X_1_1_1_1_1_1_55_1_1_28_1_125",
        "X_1_1_1_1_1_1_15_1_1_29_1_125",
        "X_1_1_1_1_1_1_56_1_1_30_1_125",
        "X_1_1_1_1_1_1_16_1_1_31_1_125",
        "X_1_1_1_1_1_1_57_1_1_32_1_125",
        "X_1_1_1_1_1_1_17_1_1_33_1_125",
        "X_1_1_1_1_1_1_58_1_1_34_1_125",
        "X_1_1_1_1_1_1_18_1_1_35_1_125",
        "X_1_1_1_1_1_1_59_1_1_36_1_125",
        "X_1_1_1_1_1_1_19_1_1_37_1_125",
        "X_1_1_1_1_1_1_60_1_1_38_1_125",
        "X_1_1_1_1_1_1_20_1_1_39_1_125",
        "X_1_1_1_1_1_1_61_1_1_40_1_125",
        "X_1_1_1_1_1_1_21_1_1_41_1_125",
        "X_1_1_1_1_1_1_62_1_1_42_1_125",
        "X_1_1_1_1_1_1_22_1_1_43_1_125",
        "X_1_1_1_1_1_1_63_1_1_44_1_125",
        "X_1_1_1_1_1_1_23_1_1_45_1_125",
        "X_1_1_1_1_1_1_64_1_1_46_1_125",
        "X_1_1_1_1_1_1_24_1_1_47_1_125",
        "X_1_1_1_1_1_1_65_1_1_48_1_125",
        "X_1_1_1_1_1_1_25_1_1_49_1_125",
        "X_1_1_1_1_1_1_66_1_1_50_1_125",
        "X_1_1_1_1_1_1_26_1_1_51_1_125",
        "X_1_1_1_1_1_1_67_1_1_52_1_125",
        "X_1_1_1_1_1_1_27_1_1_53_1_125",
        "X_1_1_1_1_1_1_68_1_1_54_1_125",
        "X_1_1_1_1_1_1_28_1_1_55_1_125",
        "X_1_1_1_1_1_1_69_1_1_56_1_125",
        "X_1_1_1_1_1_1_29_1_1_57_1_125",
        "X_1_1_1_1_1_1_70_1_1_58_1_125",
        "X_1_1_1_1_1_1_30_1_1_59_1_125",
        "X_1_1_1_1_1_1_71_1_1_60_1_125",
        "X_1_1_1_1_1_1_31_1_1_61_1_125",
        "X_1_1_1_1_1_1_72_1_1_62_1_125",
        "X_1_1_1_1_1_1_32_1_1_63_1_125",
        "X_1_1_1_1_1_1_73_1_1_64_1_125",
        "X_1_1_1_1_1_1_33_1_1_65_1_125",
        "X_1_1_1_1_1_1_74_1_1_66_1_125",
        "X_1_1_1_1_1_1_34_1_1_67_1_125",
        "X_1_1_1_1_1_1_75_1_1_68_1_125",
        "X_1_1_1_1_1_1_35_1_1_69_1_125",
        "X_1_1_1_1_1_1_76_1_1_70_1_125",
        "X_1_1_1_1_1_1_36_1_1_71_1_125",
        "X_1_1_1_1_1_1_77_1_1_72_1_125",
        "X_1_1_1_1_1_1_37_1_1_73_1_125",
        "X_1_1_1_1_1_1_78_1_1_74_1_125",
        "X_1_1_1_1_1_1_38_1_1_75_1_125",
        "X_1_1_1_1_1_1_79_1_1_76_1_125",
        "X_1_1_1_1_1_1_39_1_1_77_1_125",
        "X_1_1_1_1_1_1_80_1_1_78_1_125",
        "X_1_1_1_1_1_1_40_1_1_79_1_125",
        "X_1_1_1_1_1_1_81_1_1_80_1_125",
        "X_1_1_1_1_1_1_41_1_1_81_1_125"
],
      "CsaImage.ProtocolSliceNumber": [0, 1, 2, 3, 4, 5, 6, 7, 8, 9, 10, 11, 12, 13, 14, 15, 16, 17, 18, 19, 20, 21, 22, 23, 24, 25, 26, 27, 28, 29, 30, 31, 32, 33, 34, 35, 36, 37, 38, 39, 40, 41, 42, 43, 44, 45, 46, 47, 48, 49, 50, 51, 52, 53, 54, 55, 56, 57, 58, 59, 60, 61, 62, 63, 64, 65, 66, 67, 68, 69, 70, 71, 72, 73, 74, 75, 76, 77, 78, 79, 80],
      "CsaImage.RFSWDDataType": [
        "predicted",
        "predicted",
        "predicted",
        "predicted",
        "predicted",
        "predicted",
        "predicted",
        "predicted",
        "predicted",
        "predicted",
        "predicted",
        "predicted",
        "predicted",
        "predicted",
        "predicted",
        "predicted",
        "predicted",
        "predicted",
        "predicted",
        "predicted",
        "predicted",
        "predicted",
        "predicted",
        "measured",
        "predicted",
        "measured",
        "predicted",
        "predicted",
        "predicted",
        "predicted",
        "predicted",
        "predicted",
        "predicted",
        "predicted",
        "predicted",
        "predicted",
        "predicted",
        "predicted",
        "predicted",
        "predicted",
        "predicted",
        "predicted",
        "predicted",
        "predicted",
        "predicted",
        "predicted",
        "predicted",
        "predicted",
        "predicted",
        "predicted",
        "measured",
        "predicted",
        "measured",
        "predicted",
        "predicted",
        "predicted",
        "predicted",
        "predicted",
        "predicted",
        "predicted",
        "predicted",
        "predicted",
        "predicted",
        "predicted",
        "predicted",
        "predicted",
        "predicted",
        "predicted",
        "predicted",
        "predicted",
        "predicted",
        "predicted",
        "predicted",
        "predicted",
        "predicted",
        "predicted",
        "predicted",
        "measured",
        "predicted",
        "measured",
        "predicted"
],
      "CsaImage.SlicePosition_PCS": [
        [-134.51458251, -115.65053109, -75.12254955],
        [-134.41376483, -116.09886102, -73.48583461],
        [-134.31294715, -116.54719047, -71.84911968],
        [-134.21212947, -116.99552039, -70.21240474],
        [-134.11131179, -117.44385032, -68.57568981],
        [-134.01049411, -117.89218024, -66.93897487],
        [-133.90967643, -118.34050969, -65.30225994],
        [-133.80885875, -118.78883962, -63.665545],
        [-133.70804107, -119.23716954, -62.02883007],
        [-133.60722339, -119.68549947, -60.39211132],
        [-133.50640571, -120.13382939, -58.75539638],
        [-133.40558803, -120.58215932, -57.11868145],
        [-133.30477035, -121.03048925, -55.48196651],
        [-133.20395267, -121.47881822, -53.84525348],
        [-133.10313499, -121.92714814, -52.20853855],
        [-133.00231731, -122.37547807, -50.57182361],
        [-132.90149963, -122.82380799, -48.93510868],
        [-132.80068195, -123.27213792, -47.29839184],
        [-132.69986426, -123.72046785, -45.6616769],
        [-132.59904658, -124.16879777, -44.02496196],
        [-132.4982289, -124.6171277, -42.38824703],
        [-132.39741122, -125.06545667, -40.75153209],
        [-132.29659354, -125.51378659, -39.11481716],
        [-132.19577586, -125.96211652, -37.47810222],
        [-132.09495818, -126.41044645, -35.84138729],
        [-131.9941405, -126.85877542, -34.20467235],
        [-131.89332282, -127.30710534, -32.56795742],
        [-131.79250514, -127.75543527, -30.93124248],
        [-131.69168746, -128.20376519, -29.29452707],
        [-131.59086978, -128.65209512, -27.65781213],
        [-131.4900521, -129.10042504, -26.02109696],
        [-131.38923442, -129.54875497, -24.38438191],
        [-131.28841674, -129.9970849, -22.74766688],
        [-131.18759906, -130.44541482, -21.1109518],
        [-131.08678138, -130.89374475, -19.47423674],
        [-130.9859637, -131.34207467, -17.83752157],
        [-130.88514602, -131.7904046, -16.20080663],
        [-130.78432834, -132.23873452, -14.5640917],
        [-130.68351066, -132.68706445, -12.92737629],
        [-130.58269298, -133.13539437, -11.29066135],
        [-130.4818753, -133.5837243, -9.65394642],
        [-130.38105762, -134.03205232, -8.01723148],
        [-130.28023994, -134.48038224, -6.38051655],
        [-130.17942226, -134.92871217, -4.74380161],
        [-130.07860458, -135.37704209, -3.10708667],
        [-129.9777869, -135.82537202, -1.47037174],
        [-129.87696921, -136.27370195, 0.1663432],
        [-129.77615153, -136.72203187, 1.80305813],
        [-129.67533385, -137.1703618, 3.43977497],
        [-129.57451617, -137.61869172, 5.07648991],
        [-129.47369849, -138.06702165, 6.71320484],
        [-129.37288081, -138.51535157, 8.34991978],
        [-129.27206313, -138.9636815, 9.98663472],
        [-129.17124545, -139.41201142, 11.62334965],
        [-129.07042777, -139.86034135, 13.26006459],
        [-128.96961009, -140.30867128, 14.89677952],
        [-128.86879241, -140.7570012, 16.53349446],
        [-128.76797473, -141.20533113, 18.17020939],
        [-128.66715705, -141.65365915, 19.80692433],
        [-128.56633937, -142.10198907, 21.44363926],
        [-128.46552169, -142.550319, 23.0803542],
        [-128.36470401, -142.99864892, 24.71706913],
        [-128.26388633, -143.44697885, 26.35378407],
        [-128.16306865, -143.89530877, 27.990499],
        [-128.06225097, -144.3436387, 29.62721394],
        [-127.96143329, -144.79196862, 31.26392887],
        [-127.86061561, -145.24029855, 32.90064381],
        [-127.75979793, -145.68862847, 34.53735874],
        [-127.65898025, -146.1369584, 36.17407368],
        [-127.55816257, -146.58528833, 37.81078862],
        [-127.45734489, -147.03361825, 39.44750355],
        [-127.35652721, -147.48194818, 41.08421849],
        [-127.25570953, -147.9302781, 42.72093724],
        [-127.15489185, -148.37860803, 44.35764836],
        [-127.05407414, -148.82693795, 45.99436711],
        [-126.95325645, -149.27526788, 47.63107823],
        [-126.85243877, -149.7235978, 49.26779698],
        [-126.75162109, -150.17192773, 50.9045081],
        [-126.65080342, -150.62025766, 52.54122685],
        [-126.54998574, -151.06858758, 54.17793797],
        [-126.44916805, -151.51691751, 55.81465672]
],
      "CsaImage.TimeAfterStart": [16.4, 18.5175, 16.5525, 18.6675, 16.7025, 18.82, 16.855, 18.97, 17.005, 19.12, 17.1575, 19.2725, 17.3075, 19.4225, 17.46, 19.575, 17.61, 19.725, 17.76, 19.8775, 17.9125, 20.0275, 18.0625, 20.18, 18.215, 20.33, 18.365, 16.4, 18.5175, 16.5525, 18.6675, 16.7025, 18.82, 16.855, 18.97, 17.005, 19.12, 17.1575, 19.2725, 17.3075, 19.4225, 17.46, 19.575, 17.61, 19.725, 17.76, 19.8775, 17.9125, 20.0275, 18.0625, 20.18, 18.215, 20.33, 18.365, 16.4, 18.5175, 16.5525, 18.6675, 16.7025, 18.82, 16.855, 18.97, 17.005, 19.12, 17.1575, 19.2725, 17.3075, 19.4225, 17.46, 19.575, 17.61, 19.725, 17.76, 19.8775, 17.9125, 20.0275, 18.0625, 20.18, 18.215, 20.33, 18.365],
      "ImagePositionPatient": [
        [-134.51458251137, -115.6505310933, -75.122549549911],
        [-134.41376483101, -116.09886101884, -73.485834614608],
        [-134.31294715065, -116.54719046754, -71.849119679305],
        [-134.2121294703, -116.99552039307, -70.212404744003],
        [-134.11131178994, -117.44385031861, -68.5756898087],
        [-134.01049410958, -117.89218024415, -66.938974873397],
        [-133.90967642922, -118.34050969285, -65.302259938094],
        [-133.80885874886, -118.78883961839, -63.665545002792],
        [-133.7080410685, -119.23716954392, -62.028830067489],
        [-133.60722338814, -119.68549946946, -60.392111317489],
        [-133.50640570778, -120.133829395, -58.755396382186],
        [-133.40558802742, -120.58215932053, -57.118681446883],
        [-133.30477034707, -121.03048924607, -55.481966511581],
        [-133.20395266671, -121.47881821793, -53.845253483627],
        [-133.10313498635, -121.92714814347, -52.208538548324],
        [-133.00231730599, -122.37547806901, -50.571823613021],
        [-132.90149962563, -122.82380799455, -48.935108677718],
        [-132.80068194527, -123.27213792008, -47.298391835067],
        [-132.69986426491, -123.72046784562, -45.661676899764],
        [-132.59904658455, -124.16879777116, -44.024961964462],
        [-132.49822890419, -124.61712769669, -42.388247029159],
        [-132.39741122384, -125.06545666856, -40.751532093856],
        [-132.29659354348, -125.51378659409, -39.114817158553],
        [-132.19577586312, -125.96211651963, -37.478102223251],
        [-132.09495818276, -126.41044644517, -35.841387287948],
        [-131.9941405024, -126.85877541703, -34.204672352645],
        [-131.89332282204, -127.30710534257, -32.567957417342],
        [-131.79250514168, -127.7554352681, -30.93124248204],
        [-131.69168746132, -128.20376519364, -29.2945270699],
        [-131.59086978096, -128.65209511918, -27.657812134597],
        [-131.49005210061, -129.10042504472, -26.021096960876],
        [-131.38923442025, -129.54875497025, -24.384381906364],
        [-131.28841673989, -129.99708489579, -22.747666881654],
        [-131.18759905953, -130.44541482133, -21.11095179734],
        [-131.08678137917, -130.89374474686, -19.474236742828],
        [-130.98596369881, -131.3420746724, -17.837521569106],
        [-130.88514601845, -131.79040459794, -16.200806633804],
        [-130.78432833809, -132.23873452348, -14.564091698501],
        [-130.68351065773, -132.68706444901, -12.927376286361],
        [-130.58269297738, -133.13539437455, -11.290661351058],
        [-130.48187529702, -133.58372430009, -9.6539464157555],
        [-130.38105761666, -134.03205231828, -8.0172314804528],
        [-130.2802399363, -134.48038224381, -6.38051654515],
        [-130.17942225594, -134.92871216935, -4.7438016098473],
        [-130.07860457558, -135.37704209489, -3.1070866745446],
        [-129.97778689522, -135.82537202042, -1.4703717392418],
        [-129.87696921486, -136.27370194596, 0.16634319606089],
        [-129.7761515345, -136.7220318715, 1.8030581313636],
        [-129.67533385415, -137.17036179704, 3.439774974015],
        [-129.57451617379, -137.61869172257, 5.0764899093177],
        [-129.47369849343, -138.06702164811, 6.7132048446205],
        [-129.37288081307, -138.51535157365, 8.3499197799232],
        [-129.27206313271, -138.96368149918, 9.9866347152259],
        [-129.17124545235, -139.41201142472, 11.623349650529],
        [-129.07042777199, -139.86034135026, 13.260064585831],
        [-128.96961009163, -140.3086712758, 14.896779521134],
        [-128.86879241127, -140.75700120133, 16.533494456437],
        [-128.76797473092, -141.20533112687, 18.17020939174],
        [-128.66715705056, -141.65365914506, 19.806924327042],
        [-128.5663393702, -142.10198907059, 21.443639262345],
        [-128.46552168984, -142.55031899613, 23.080354197648],
        [-128.36470400948, -142.99864892167, 24.717069132951],
        [-128.26388632912, -143.44697884721, 26.353784068253],
        [-128.16306864876, -143.89530877274, 27.990499003556],
        [-128.0622509684, -144.34363869828, 29.627213938859],
        [-127.96143328804, -144.79196862382, 31.263928874161],
        [-127.86061560769, -145.24029854935, 32.900643809464],
        [-127.75979792733, -145.68862847489, 34.537358744767],
        [-127.65898024697, -146.13695840043, 36.17407368007],
        [-127.55816256661, -146.58528832597, 37.810788615372],
        [-127.45734488625, -147.0336182515, 39.447503550675],
        [-127.35652720589, -147.48194817704, 41.084218485978],
        [-127.25570952553, -147.93027810258, 42.720937235978],
        [-127.15489184517, -148.37860802811, 44.357648356583],
        [-127.05407413501, -148.82693795365, 45.994367106583],
        [-126.95325645465, -149.27526787919, 47.631078227189],
        [-126.85243877429, -149.72359780473, 49.267796977189],
        [-126.75162109394, -150.17192773026, 50.904508097794],
        [-126.6508034173, -150.6202576558, 52.541226847794],
        [-126.54998573694, -151.06858758134, 54.1779379684],
        [-126.44916805286, -151.51691750687, 55.8146567184]
],
      "InstanceCreationTime": ["164100.914000", "164101.023000", "164100.921000", "164101.030000", "164100.927000", "164101.037000", "164100.933000", "164101.043000", "164100.939000", "164101.050000", "164100.945000", "164101.057000", "164100.952000", "164101.064000", "164100.964000", "164101.070000", "164100.970000", "164101.076000", "164100.976000", "164101.083000", "164100.982000", "164101.089000", "164100.996000", "164101.096000", "164101.003000", "164101.102000", "164101.016000", "164100.917000", "164101.025000", "164100.923000", "164101.032000", "164100.929000", "164101.039000", "164100.935000", "164101.046000", "164100.941000", "164101.052000", "164100.948000", "164101.060000", "164100.954000", "164101.066000", "164100.966000", "164101.072000", "164100.972000", "164101.078000", "164100.978000", "164101.085000", "164100.984000", "164101.091000", "164100.998000", "164101.098000", "164101.012000", "164101.108000", "164101.018000", "164100.919000", "164101.028000", "164100.925000", "164101.034000", "164100.931000", "164101.041000", "164100.937000", "164101.048000", "164100.943000", "164101.055000", "164100.950000", "164101.062000", "164100.956000", "164101.068000", "164100.968000", "164101.074000", "164100.974000", "164101.080000", "164100.980000", "164101.087000", "164100.994000", "164101.094000", "164101.001000", "164101.100000", "164101.014000", "164101.112000", "164101.021000"],
      "InstanceNumber": [1, 2, 3, 4, 5, 6, 7, 8, 9, 10, 11, 12, 13, 14, 15, 16, 17, 18, 19, 20, 21, 22, 23, 24, 25, 26, 27, 28, 29, 30, 31, 32, 33, 34, 35, 36, 37, 38, 39, 40, 41, 42, 43, 44, 45, 46, 47, 48, 49, 50, 51, 52, 53, 54, 55, 56, 57, 58, 59, 60, 61, 62, 63, 64, 65, 66, 67, 68, 69, 70, 71, 72, 73, 74, 75, 76, 77, 78, 79, 80, 81],
      "LargestImagePixelValue": [25706, 22781, 22692, 19332, 23155, 25896, 44422, 52763, 50208, 42089, 32803, 40788, 38450, 44359, 56245, 50402, 54363, 46469, 43697, 59535, 64392, 59514, 52969, 56398, 56335, 42212, 34418, 27345, 31470, 38363, 39002, 39955, 37623, 47047, 44203, 37747, 33139, 29522, 32948, 37071, 36004, 38308, 38810, 37841, 41915, 42821, 38112, 38243, 36281, 45857, 40494, 42219, 43938, 49699, 40108, 39632, 35592, 36021, 47363, 53506, 45869, 45013, 44595, 60070, 53679, 58863, 50717, 49903, 50956, 42104, 47863, 60720, 63288, 58533, 59936, 62685, 24501, 8291, 10234, 8658, 9763],
      "SliceLocation": [-49.803574730806, -48.103574817204, -46.403575029355, -44.703575115752, -43.00357520215, -41.303575288547, -39.603575500698, -37.903575587096, -36.203575673493, -34.503572087201, -32.803572173599, -31.103572259997, -29.403572346394, -27.703574520643, -26.003574607041, -24.303574693438, -22.603574779836, -20.903573029889, -19.203573116286, -17.503573202684, -15.803573289082, -14.103573626985, -12.403573713383, -10.703573799781, -9.0035738861783, -7.3035742240822, -5.6035743104798, -3.9035743968775, -2.2035740241889, -0.5035741105865, 1.196426032559, 2.8964260609329, 4.5964260606139, 6.2964261176807, 7.9964261460546, 9.6964262892001, 11.396426202802, 13.096426116405, 14.796426489093, 16.496426402696, 18.196426316298, 19.896425726888, 21.59642564049, 23.296425554093, 24.996425467695, 26.696425381298, 28.3964252949, 30.096425208502, 31.79642695845, 33.496426872052, 35.196426785654, 36.896426699257, 38.596426612859, 40.296426526461, 41.996426440064, 43.696426353666, 45.396426267268, 47.096426180871, 48.796425591461, 50.496425505063, 52.196425418665, 53.896425332268, 55.59642524587, 57.296425159473, 58.996425073075, 60.696424986677, 62.39642490028, 64.096424813882, 65.796424727484, 67.496424641087, 69.196424554689, 70.896424468292, 72.596428054584, 74.296424295496, 75.996427883556, 77.696424124468, 79.39642771076, 81.096423951673, 82.796427537744, 84.496423778657, 86.19642736517],
