{
  "AcquisitionMatrixPE": 140,
  "AcquisitionNumber": 1,
  "AcquisitionTime": "09:03:3.235000",
  "BandwidthPerPixelPhaseEncode": 10.352,
  "BaseResolution": 140,
  "BodyPartExamined": "BRAIN",
  "ConsistencyInfo": "N4_VE11E_LATEST_20181129",
  "ConversionSoftware": "dcm2niix",
  "ConversionSoftwareVersion": "v1.0.20201102",
  "DerivedVendorReportedEchoSpacing": 0.000689998,
  "DeviceSerialNumber": "66112",
  "DiffusionScheme": "Monopolar",
  "DwellTime": 2.1e-06,
  "EchoTime": 0.088,
  "EchoTrainLength": 105,
  "EffectiveEchoSpacing": 0.000689998,
  "FlipAngle": 90,
  "ImageComments": "Unaliased MB3/PE3",
  "ImageOrientationPatientDICOM": [0.997457, 0.0640468, -0.031279, -0.056465, 0.977838, 0.201603],
  "ImageType": [
    "ORIGINAL",
    "PRIMARY",
    "DIFFUSION",
    "NONE",
    "MB",
    "ND"
],
  "ImagingFrequency": 123.252,
  "InPlanePhaseEncodingDirectionDICOM": "COL",
  "InstitutionAddress": "Maynard 3,Hanover,NH,US,03755",
  "InstitutionName": "Dartmouth College - PBS",
  "InstitutionalDepartmentName": "Department",
  "IntendedFor": [
    "ses-01/dwi/sub-0062_ses-01_acq-96dirX6b0Xmb_dwi.nii.gz"
],
  "MRAcquisitionType": "2D",
  "MagneticFieldStrength": 3,
  "Manufacturer": "Siemens",
  "ManufacturersModelName": "Prisma",
  "Modality": "MR",
  "MultibandAccelerationFactor": 3,
  "PartialFourier": 0.75,
  "PatientPosition": "HFS",
  "PercentPhaseFOV": 100,
  "PercentSampling": 100,
  "PhaseEncodingDirection": "j",
  "PhaseEncodingSteps": 105,
  "PhaseResolution": 1,
  "PixelBandwidth": 1700,
  "ProcedureStepDescription": "Wager_Wager^1076_spacetop",
  "ProtocolName": "dwi_acq-discorr-PA",
  "PulseSequenceDetails": "%CustomerSeq%\\cmrr_mbep2d_diff",
  "ReceiveCoilActiveElements": "HEA;HEP",
  "ReceiveCoilName": "Head_32",
  "ReconMatrixPE": 140,
  "RepetitionTime": 4.1,
  "SAR": 0.150312,
  "ScanOptions": "PFP\\FS",
  "ScanningSequence": "EP",
  "SequenceName": "ep_b0",
  "SequenceVariant": "SK\\SS",
  "SeriesDescription": "dwi_acq-discorr-PA",
  "SeriesNumber": 6,
  "ShimSetting": [4142, -7736, -7313, 454, -47, -67, 23, 65],
  "SliceThickness": 1.7,
  "SliceTiming": [0, 2.11719, 0.15625, 2.26562, 0.30469, 2.42188, 0.45312, 2.57031, 0.60938, 2.71875, 0.75781, 2.875, 0.90625, 3.02344, 1.05469, 3.17188, 1.21094, 3.32812, 1.35938, 3.47656, 1.51562, 3.625, 1.66406, 3.78125, 1.8125, 3.92969, 1.96875, 0, 2.11719, 0.15625, 2.26562, 0.30469, 2.42188, 0.45312, 2.57031, 0.60938, 2.71875, 0.75781, 2.875, 0.90625, 3.02344, 1.05469, 3.17188, 1.21094, 3.32812, 1.35938, 3.47656, 1.51562, 3.625, 1.66406, 3.78125, 1.8125, 3.92969, 1.96875, 0, 2.11719, 0.15625, 2.26562, 0.30469, 2.42188, 0.45312, 2.57031, 0.60938, 2.71875, 0.75781, 2.875, 0.90625, 3.02344, 1.05469, 3.17188, 1.21094, 3.32812, 1.35938, 3.47656, 1.51562, 3.625, 1.66406, 3.78125, 1.8125, 3.92969, 1.96875],
  "SoftwareVersions": "syngo MR E11",
  "SpacingBetweenSlices": 1.7,
  "StationName": "AWP66112",
  "TotalReadoutTime": 0.0959097,
  "TxRefAmp": 257.392,
  "WipMemBlock": "08a21dbc-c9a0-4fcc-b4da-86466c107b8d||Sequence: R016 ve11e/master r/434b28f1; Aug  7 2019 19:06:17 by eja",
  "dcmmeta_affine": [
    [-1.7099255323410034, -0.09679720550775528, -0.07394647598266602, 129.77908325195312],
    [-0.10979445278644562, 1.6762943267822266, 0.3388481140136719, -93.59471130371094],
    [-0.05362119525671005, -0.3456058204174042, 1.66424560546875, -15.934626579284668],
    [0.0, 0.0, 0.0, 1.0]
],
  "dcmmeta_reorient_transform": [
    [0.0, -1.0, 0.0, 139.0],
    [1.0, 0.0, 0.0, 0.0],
    [0.0, 0.0, -1.0, 80.0],
    [0.0, 0.0, 0.0, 1.0]
],
  "dcmmeta_shape": [140, 140, 81],
  "dcmmeta_slice_dim": 2,
  "dcmmeta_version": 0.6,
  "global": {
    "const": {
      "AccessionNumber": "A003930",
      "AcquisitionMatrix": [140, 0, 0, 140],
      "AcquisitionNumber": 1,
      "AngioFlag": "N",
      "BitsAllocated": 16,
      "BitsStored": 16,
      "BodyPartExamined": "BRAIN",
      "Columns": 140,
      "EchoNumbers": 1,
      "EchoTime": 88.0,
      "EchoTrainLength": 105,
      "FlipAngle": 90.0,
      "HighBit": 15,
      "ImageOrientationPatient": [0.99745658269057, 0.06404676366472, -0.0312790298976, -0.0564650351343, 0.97783831589708, 0.20160339226024],
      "ImageType": [
        "ORIGINAL",
        "PRIMARY",
        "DIFFUSION",
        "NONE",
        "MB",
        "ND"
],
      "ImagedNucleus": "1H",
      "ImagingFrequency": 123.252174,
      "InPlanePhaseEncodingDirection": "COL",
      "MRAcquisitionType": "2D",
      "MagneticFieldStrength": 3.0,
      "Manufacturer": "SIEMENS",
      "ManufacturerModelName": "Prisma",
      "Modality": "MR",
      "NumberOfAverages": 1.0,
      "NumberOfPhaseEncodingSteps": 105,
      "PercentPhaseFieldOfView": 100.0,
      "PercentSampling": 100.0,
      "PerformedProcedureStepStartTime": "084529.773000",
      "PhotometricInterpretation": "MONOCHROME2",
      "PixelBandwidth": 1700.0,
      "PixelRepresentation": 0,
      "PixelSpacing": [1.7142857313156, 1.7142857313156],
      "ProtocolName": "dwi_acq-discorr-PA",
      "RepetitionTime": 4100.0,
      "Rows": 140,
      "SAR": 0.15031195671869,
      "SamplesPerPixel": 1,
      "ScanOptions": [
        "PFP",
        "FS"
],
      "ScanningSequence": "EP",
      "SequenceName": "ep_b0",
      "SequenceVariant": [
        "SK",
        "SS"
],
      "SeriesDescription": "dwi_acq-discorr-PA",
      "SeriesNumber": 6,
      "SeriesTime": "090308.301000",
      "SliceThickness": 1.7000000476837,
      "SmallestImagePixelValue": 0,
      "SoftwareVersions": "syngo MR E11",
      "SpacingBetweenSlices": 1.7,
      "SpecificCharacterSet": "ISO_IR 100",
      "StudyID": "1",
      "StudyTime": "084529.622000",
      "TransmitCoilName": "Body",
      "VariableFlipAngleFlag": "N",
      "WindowCenterWidthExplanation": "Algo1"
    },
    "slices": {
      "AcquisitionTime": ["090303.235000", "090305.352500", "090303.387500", "090305.502500", "090303.537500", "090305.652500", "090303.690000", "090305.805000", "090303.840000", "090305.955000", "090303.992500", "090306.107500", "090304.142500", "090306.257500", "090304.292500", "090306.410000", "090304.445000", "090306.560000", "090304.595000", "090306.712500", "090304.747500", "090306.862500", "090304.897500", "090307.012500", "090305.050000", "090307.165000", "090305.200000", "090303.235000", "090305.352500", "090303.387500", "090305.502500", "090303.537500", "090305.652500", "090303.690000", "090305.805000", "090303.840000", "090305.955000", "090303.992500", "090306.107500", "090304.142500", "090306.257500", "090304.292500", "090306.410000", "090304.445000", "090306.560000", "090304.595000", "090306.712500", "090304.747500", "090306.862500", "090304.897500", "090307.012500", "090305.050000", "090307.165000", "090305.200000", "090303.235000", "090305.352500", "090303.387500", "090305.502500", "090303.537500", "090305.652500", "090303.690000", "090305.805000", "090303.840000", "090305.955000", "090303.992500", "090306.107500", "090304.142500", "090306.257500", "090304.292500", "090306.410000", "090304.445000", "090306.560000", "090304.595000", "090306.712500", "090304.747500", "090306.862500", "090304.897500", "090307.012500", "090305.050000", "090307.165000", "090305.200000"],
      "ContentTime": ["090308.304000", "090308.402000", "090308.311000", "090308.417000", "090308.317000", "090308.424000", "090308.324000", "090308.430000", "090308.330000", "090308.436000", "090308.336000", "090308.443000", "090308.342000", "090308.449000", "090308.348000", "090308.455000", "090308.354000", "090308.462000", "090308.370000", "090308.468000", "090308.377000", "090308.475000", "090308.383000", "090308.482000", "090308.390000", "090308.489000", "090308.396000", "090308.307000", "090308.404000", "090308.313000", "090308.419000", "090308.319000", "090308.426000", "090308.326000", "090308.432000", "090308.332000", "090308.438000", "090308.338000", "090308.445000", "090308.344000", "090308.451000", "090308.350000", "090308.458000", "090308.366000", "090308.464000", "090308.372000", "090308.471000", "090308.379000", "090308.477000", "090308.386000", "090308.484000", "090308.392000", "090308.491000", "090308.398000", "090308.309000", "090308.415000", "090308.315000", "090308.421000", "090308.322000", "090308.428000", "090308.328000", "090308.434000", "090308.334000", "090308.440000", "090308.340000", "090308.447000", "090308.346000", "090308.453000", "090308.352000", "090308.460000", "090308.368000", "090308.466000", "090308.375000", "090308.473000", "090308.381000", "090308.480000", "090308.388000", "090308.486000", "090308.394000", "090308.493000", "090308.400000"],
      "CsaImage.GSWDDataType": [
        "predicted",
        "predicted",
        "predicted",
        "predicted",
        "predicted",
        "predicted",
        "predicted",
        "predicted",
        "predicted",
        "predicted",
        "predicted",
        "predicted",
        "predicted",
        "predicted",
        "predicted",
        "predicted",
        "predicted",
        "predicted",
        "predicted",
        "predicted",
        "predicted",
        "predicted",
        "predicted",
        "measured",
        "predicted",
        "measured",
        "predicted",
        "predicted",
        "predicted",
        "predicted",
        "predicted",
        "predicted",
        "predicted",
        "predicted",
        "predicted",
        "predicted",
        "predicted",
        "predicted",
        "predicted",
        "predicted",
        "predicted",
        "predicted",
        "predicted",
        "predicted",
        "predicted",
        "predicted",
        "predicted",
        "predicted",
        "predicted",
        "predicted",
        "measured",
        "predicted",
        "measured",
        "predicted",
        "predicted",
        "predicted",
        "predicted",
        "predicted",
        "predicted",
        "predicted",
        "predicted",
        "predicted",
        "predicted",
        "predicted",
        "predicted",
        "predicted",
        "predicted",
        "predicted",
        "predicted",
        "predicted",
        "predicted",
        "predicted",
        "predicted",
        "predicted",
        "predicted",
        "predicted",
        "predicted",
        "measured",
        "predicted",
        "measured",
        "predicted"
],
      "CsaImage.ICE_Dims": [
        "X_1_1_1_1_1_1_1_1_1_1_1_23",
        "X_1_1_1_1_1_1_42_1_1_2_1_23",
        "X_1_1_1_1_1_1_2_1_1_3_1_23",
        "X_1_1_1_1_1_1_43_1_1_4_1_23",
        "X_1_1_1_1_1_1_3_1_1_5_1_23",
        "X_1_1_1_1_1_1_44_1_1_6_1_23",
        "X_1_1_1_1_1_1_4_1_1_7_1_23",
        "X_1_1_1_1_1_1_45_1_1_8_1_23",
        "X_1_1_1_1_1_1_5_1_1_9_1_23",
        "X_1_1_1_1_1_1_46_1_1_10_1_23",
        "X_1_1_1_1_1_1_6_1_1_11_1_23",
        "X_1_1_1_1_1_1_47_1_1_12_1_23",
        "X_1_1_1_1_1_1_7_1_1_13_1_23",
        "X_1_1_1_1_1_1_48_1_1_14_1_23",
        "X_1_1_1_1_1_1_8_1_1_15_1_23",
        "X_1_1_1_1_1_1_49_1_1_16_1_23",
        "X_1_1_1_1_1_1_9_1_1_17_1_23",
        "X_1_1_1_1_1_1_50_1_1_18_1_23",
        "X_1_1_1_1_1_1_10_1_1_19_1_23",
        "X_1_1_1_1_1_1_51_1_1_20_1_23",
        "X_1_1_1_1_1_1_11_1_1_21_1_23",
        "X_1_1_1_1_1_1_52_1_1_22_1_23",
        "X_1_1_1_1_1_1_12_1_1_23_1_23",
        "X_1_1_1_1_1_1_53_1_1_24_1_23",
        "X_1_1_1_1_1_1_13_1_1_25_1_23",
        "X_1_1_1_1_1_1_54_1_1_26_1_23",
        "X_1_1_1_1_1_1_14_1_1_27_1_23",
        "X_1_1_1_1_1_1_55_1_1_28_1_23",
        "X_1_1_1_1_1_1_15_1_1_29_1_23",
        "X_1_1_1_1_1_1_56_1_1_30_1_23",
        "X_1_1_1_1_1_1_16_1_1_31_1_23",
        "X_1_1_1_1_1_1_57_1_1_32_1_23",
        "X_1_1_1_1_1_1_17_1_1_33_1_23",
        "X_1_1_1_1_1_1_58_1_1_34_1_23",
        "X_1_1_1_1_1_1_18_1_1_35_1_23",
        "X_1_1_1_1_1_1_59_1_1_36_1_23",
        "X_1_1_1_1_1_1_19_1_1_37_1_23",
        "X_1_1_1_1_1_1_60_1_1_38_1_23",
        "X_1_1_1_1_1_1_20_1_1_39_1_23",
        "X_1_1_1_1_1_1_61_1_1_40_1_23",
        "X_1_1_1_1_1_1_21_1_1_41_1_23",
        "X_1_1_1_1_1_1_62_1_1_42_1_23",
        "X_1_1_1_1_1_1_22_1_1_43_1_23",
        "X_1_1_1_1_1_1_63_1_1_44_1_23",
        "X_1_1_1_1_1_1_23_1_1_45_1_23",
        "X_1_1_1_1_1_1_64_1_1_46_1_23",
        "X_1_1_1_1_1_1_24_1_1_47_1_23",
        "X_1_1_1_1_1_1_65_1_1_48_1_23",
        "X_1_1_1_1_1_1_25_1_1_49_1_23",
        "X_1_1_1_1_1_1_66_1_1_50_1_23",
        "X_1_1_1_1_1_1_26_1_1_51_1_23",
        "X_1_1_1_1_1_1_67_1_1_52_1_23",
        "X_1_1_1_1_1_1_27_1_1_53_1_23",
        "X_1_1_1_1_1_1_68_1_1_54_1_23",
        "X_1_1_1_1_1_1_28_1_1_55_1_23",
        "X_1_1_1_1_1_1_69_1_1_56_1_23",
        "X_1_1_1_1_1_1_29_1_1_57_1_23",
        "X_1_1_1_1_1_1_70_1_1_58_1_23",
        "X_1_1_1_1_1_1_30_1_1_59_1_23",
        "X_1_1_1_1_1_1_71_1_1_60_1_23",
        "X_1_1_1_1_1_1_31_1_1_61_1_23",
        "X_1_1_1_1_1_1_72_1_1_62_1_23",
        "X_1_1_1_1_1_1_32_1_1_63_1_23",
        "X_1_1_1_1_1_1_73_1_1_64_1_23",
        "X_1_1_1_1_1_1_33_1_1_65_1_23",
        "X_1_1_1_1_1_1_74_1_1_66_1_23",
        "X_1_1_1_1_1_1_34_1_1_67_1_23",
        "X_1_1_1_1_1_1_75_1_1_68_1_23",
        "X_1_1_1_1_1_1_35_1_1_69_1_23",
        "X_1_1_1_1_1_1_76_1_1_70_1_23",
        "X_1_1_1_1_1_1_36_1_1_71_1_23",
        "X_1_1_1_1_1_1_77_1_1_72_1_23",
        "X_1_1_1_1_1_1_37_1_1_73_1_23",
        "X_1_1_1_1_1_1_78_1_1_74_1_23",
        "X_1_1_1_1_1_1_38_1_1_75_1_23",
        "X_1_1_1_1_1_1_79_1_1_76_1_23",
        "X_1_1_1_1_1_1_39_1_1_77_1_23",
        "X_1_1_1_1_1_1_80_1_1_78_1_23",
        "X_1_1_1_1_1_1_40_1_1_79_1_23",
        "X_1_1_1_1_1_1_81_1_1_80_1_23",
        "X_1_1_1_1_1_1_41_1_1_81_1_23"
],
      "CsaImage.ProtocolSliceNumber": [0, 1, 2, 3, 4, 5, 6, 7, 8, 9, 10, 11, 12, 13, 14, 15, 16, 17, 18, 19, 20, 21, 22, 23, 24, 25, 26, 27, 28, 29, 30, 31, 32, 33, 34, 35, 36, 37, 38, 39, 40, 41, 42, 43, 44, 45, 46, 47, 48, 49, 50, 51, 52, 53, 54, 55, 56, 57, 58, 59, 60, 61, 62, 63, 64, 65, 66, 67, 68, 69, 70, 71, 72, 73, 74, 75, 76, 77, 78, 79, 80],
      "CsaImage.RFSWDDataType": [
        "predicted",
        "predicted",
        "predicted",
        "predicted",
        "predicted",
        "predicted",
        "predicted",
        "predicted",
        "predicted",
        "predicted",
        "predicted",
        "predicted",
        "predicted",
        "predicted",
        "predicted",
        "predicted",
        "predicted",
        "predicted",
        "predicted",
        "predicted",
        "predicted",
        "predicted",
        "predicted",
        "measured",
        "predicted",
        "measured",
        "predicted",
        "predicted",
        "predicted",
        "predicted",
        "predicted",
        "predicted",
        "predicted",
        "predicted",
        "predicted",
        "predicted",
        "predicted",
        "predicted",
        "predicted",
        "predicted",
        "predicted",
        "predicted",
        "predicted",
        "predicted",
        "predicted",
        "predicted",
        "predicted",
        "predicted",
        "predicted",
        "predicted",
        "measured",
        "predicted",
        "measured",
        "predicted",
        "predicted",
        "predicted",
        "predicted",
        "predicted",
        "predicted",
        "predicted",
        "predicted",
        "predicted",
        "predicted",
        "predicted",
        "predicted",
        "predicted",
        "predicted",
        "predicted",
        "predicted",
        "predicted",
        "predicted",
        "predicted",
        "predicted",
        "predicted",
        "predicted",
        "predicted",
        "predicted",
        "measured",
        "predicted",
        "measured",
        "predicted"
],
      "CsaImage.SlicePosition_PCS": [
        [-116.32427099, -139.40991593, -63.97379002],
        [-116.25032452, -139.74876786, -62.30954823],
        [-116.17637804, -140.08761883, -60.64530262],
        [-116.10243181, -140.42647076, -58.98105702],
        [-116.02848533, -140.76532174, -57.31681141],
        [-115.95453885, -141.10417366, -55.65256581],
        [-115.88059262, -141.44302559, -53.9883202],
        [-115.80664614, -141.78187752, -52.3240765],
        [-115.7326999, -142.12072754, -50.6598309],
        [-115.65875343, -142.45957947, -48.9955872],
        [-115.58480695, -142.7984314, -47.33134159],
        [-115.51086071, -143.13728333, -45.66709599],
        [-115.43691424, -143.47613526, -44.00285038],
        [-115.362968, -143.81498719, -42.33860669],
        [-115.28902152, -144.15383721, -40.67436108],
        [-115.21507505, -144.49268914, -39.01011547],
        [-115.14112881, -144.83154107, -37.34587178],
        [-115.06718233, -145.17039299, -35.68162617],
        [-114.99323586, -145.50924492, -34.01738057],
        [-114.91928962, -145.84809494, -32.35313591],
        [-114.84534314, -146.18694687, -30.68889126],
        [-114.77139679, -146.5257988, -29.02464566],
        [-114.69745043, -146.86465073, -27.360401],
        [-114.62350407, -147.20350266, -25.69615588],
        [-114.5495576, -147.54235268, -24.03191075],
        [-114.47561124, -147.88120461, -22.36766574],
        [-114.40166488, -148.22005654, -20.7034207],
        [-114.32771853, -148.55890847, -19.03917572],
        [-114.25377205, -148.8977604, -17.37493071],
        [-114.17982569, -149.23661042, -15.71068558],
        [-114.10587934, -149.57546235, -14.04644045],
        [-114.03193298, -149.91431427, -12.38219532],
        [-113.95798651, -150.2531662, -10.71795067],
        [-113.88404015, -150.59201813, -9.05370507],
        [-113.81009379, -150.93087006, -7.38946041],
        [-113.73614738, -151.26972008, -5.72521576],
        [-113.66220102, -151.60857201, -4.06097111],
        [-113.5882546, -151.94742394, -2.39672551],
        [-113.51430825, -152.28627587, -0.7324799],
        [-113.44036183, -152.6251278, 0.93176571],
        [-113.36641547, -152.96397782, 2.5960094],
        [-113.29246909, -153.30282975, 4.26025501],
        [-113.2185227, -153.64168168, 5.92450061],
        [-113.14457631, -153.9805336, 7.58874431],
        [-113.07062993, -154.31938553, 9.25298992],
        [-112.99668354, -154.65823555, 10.91723552],
        [-112.92273715, -154.99708748, 12.58148113],
        [-112.84879077, -155.33593941, 14.24572673],
        [-112.77484438, -155.67479134, 15.90996853],
        [-112.70089799, -156.01364327, 17.57421413],
        [-112.62695161, -156.3524952, 19.23845974],
        [-112.55300522, -156.69134522, 20.90270534],
        [-112.47905883, -157.03019715, 22.56695095],
        [-112.40511248, -157.36904908, 24.23119655],
        [-112.33116606, -157.70790101, 25.89544216],
        [-112.2572197, -158.04675293, 27.55968395],
        [-112.18327329, -158.38560486, 29.22392955],
        [-112.10932693, -158.72445679, 30.88817516],
        [-112.03538051, -159.06330872, 32.55242077],
        [-111.96143416, -159.40215683, 34.21666637],
        [-111.8874878, -159.74100876, 35.88091198],
        [-111.81354132, -160.07986069, 37.54515377],
        [-111.73959497, -160.41871262, 39.20939937],
        [-111.66564861, -160.75756455, 40.87364498],
        [-111.59170225, -161.09641648, 42.53789058],
        [-111.51775578, -161.43526841, 44.20213619],
        [-111.44380942, -161.77412034, 45.86638179],
        [-111.36986306, -162.11297226, 47.5306274],
        [-111.29591671, -162.45182419, 49.19487301],
        [-111.22197023, -162.79067231, 50.85911861],
        [-111.14802387, -163.12952424, 52.52336422],
        [-111.07407752, -163.46837616, 54.18760219],
        [-111.00013116, -163.80722809, 55.8518478],
        [-110.92618469, -164.14608002, 57.5160934],
        [-110.85223845, -164.48493195, 59.18033901],
        [-110.77829197, -164.82378388, 60.84458461],
        [-110.7043455, -165.16263581, 62.50883022],
        [-110.63039926, -165.50148774, 64.17307583],
        [-110.55645278, -165.84033967, 65.83732143],
        [-110.48250654, -166.17919159, 67.50156704],
        [-110.40856007, -166.51803971, 69.16581264]
],
      "CsaImage.TimeAfterStart": [16.4, 18.515, 16.5525, 18.6675, 16.7025, 18.8175, 16.8525, 18.97, 17.005, 19.12, 17.155, 19.2725, 17.3075, 19.4225, 17.4575, 19.5725, 17.61, 19.725, 17.76, 19.875, 17.9125, 20.0275, 18.0625, 20.1775, 18.2125, 20.33, 18.365, 16.4, 18.515, 16.5525, 18.6675, 16.7025, 18.8175, 16.8525, 18.97, 17.005, 19.12, 17.155, 19.2725, 17.3075, 19.4225, 17.4575, 19.5725, 17.61, 19.725, 17.76, 19.875, 17.9125, 20.0275, 18.0625, 20.1775, 18.2125, 20.33, 18.365, 16.4, 18.515, 16.5525, 18.6675, 16.7025, 18.8175, 16.8525, 18.97, 17.005, 19.12, 17.155, 19.2725, 17.3075, 19.4225, 17.4575, 19.5725, 17.61, 19.725, 17.76, 19.875, 17.9125, 20.0275, 18.0625, 20.1775, 18.2125, 20.33, 18.365],
      "ImagePositionPatient": [
        [-116.32427099483, -139.4099159286, -63.973790019566],
        [-116.25032451885, -139.74876785731, -62.309548228794],
        [-116.17637804287, -140.08761883235, -60.645302623326],
        [-116.1024318053, -140.42647076106, -58.981057017857],
        [-116.02848532932, -140.7653217361, -57.316811412388],
        [-115.95453885334, -141.10417366481, -55.652565806919],
        [-115.88059261577, -141.44302559352, -53.988320201451],
        [-115.80664613979, -141.78187752223, -52.324076503331],
        [-115.73269990223, -142.12072754359, -50.659830897862],
        [-115.65875342624, -142.4595794723, -48.995587199742],
        [-115.58480695026, -142.79843140101, -47.331341594273],
        [-115.5108607127, -143.13728332972, -45.667095988804],
        [-115.43691423672, -143.47613525843, -44.002850383335],
        [-115.36296799915, -143.81498718715, -42.338606685215],
        [-115.28902152317, -144.15383720851, -40.674361079747],
        [-115.21507504719, -144.49268913722, -39.010115474278],
        [-115.14112880962, -144.83154106593, -37.345871776158],
        [-115.06718233364, -145.17039299464, -35.681626170689],
        [-114.99323585766, -145.50924492335, -34.01738056522],
        [-114.91928962009, -145.84809494471, -32.353135913426],
        [-114.84534314411, -146.18694687342, -30.688891261631],
        [-114.77139678734, -146.52579880214, -29.024645656163],
        [-114.69745043056, -146.86465073085, -27.360401004368],
        [-114.62350407379, -147.20350265956, -25.696155875737],
        [-114.54955759781, -147.54235268092, -24.031910747105],
        [-114.47561124103, -147.88120460963, -22.367665737683],
        [-114.40166488426, -148.22005653834, -20.703420698458],
        [-114.32771852749, -148.55890846705, -19.039175718838],
        [-114.2537720515, -148.89776039576, -17.374930709416],
        [-114.17982569473, -149.23661041713, -15.710685580784],
        [-114.10587933796, -149.57546234584, -14.046440452153],
        [-114.03193298118, -149.91431427455, -12.382195323521],
        [-113.9579865052, -150.25316620326, -10.717950671727],
        [-113.88404014843, -150.59201813197, -9.0537050662578],
        [-113.81009379165, -150.93087006068, -7.3894604144633],
        [-113.73614737528, -151.26972008204, -5.7252157626689],
        [-113.6622010185, -151.60857201075, -4.0609711108745],
        [-113.58825460213, -151.94742393946, -2.3967255054057],
        [-113.51430824535, -152.28627586818, -0.732479899937],
        [-113.44036182897, -152.62512779689, 0.93176570553178],
        [-113.3664154722, -152.96397781825, 2.5960094036519],
        [-113.29246908562, -153.30282974696, 4.2602550091206],
        [-113.21852269905, -153.64168167567, 5.9245006145894],
        [-113.14457631247, -153.98053360438, 7.5887443127095],
        [-113.0706299259, -154.31938553309, 9.2529899181783],
        [-112.99668353932, -154.65823555445, 10.917235523647],
        [-112.92273715484, -154.99708748317, 12.581481129116],
        [-112.84879076617, -155.33593941188, 14.245726734585],
        [-112.77484437959, -155.67479134059, 15.909968525356],
        [-112.70089799302, -156.0136432693, 17.574214130825],
        [-112.62695160644, -156.35249519801, 19.238459736294],
        [-112.55300521987, -156.69134521937, 20.902705341762],
        [-112.47905883329, -157.03019714808, 22.566950947231],
        [-112.40511247652, -157.36904907679, 24.2311965527],
        [-112.33116606014, -157.7079010055, 25.895442158169],
        [-112.25721970337, -158.04675293422, 27.55968394894],
        [-112.18327328699, -158.38560486293, 29.223929554409],
        [-112.10932693022, -158.72445679164, 30.888175159877],
        [-112.03538051384, -159.06330872035, 32.552420765346],
        [-111.96143415706, -159.40215683436, 34.216666370815],
        [-111.88748780029, -159.74100876307, 35.880911976284],
        [-111.81354132431, -160.07986069178, 37.545153767055],
        [-111.73959496753, -160.41871262049, 39.209399372524],
        [-111.66564861076, -160.75756454921, 40.873644977993],
        [-111.59170225399, -161.09641647792, 42.537890583461],
        [-111.51775577801, -161.43526840663, 44.20213618893],
        [-111.44380942123, -161.77412033534, 45.866381794399],
        [-111.36986306446, -162.11297226405, 47.530627399868],
        [-111.29591670769, -162.45182419276, 49.194873005336],
        [-111.2219702317, -162.79067230677, 50.859118610805],
        [-111.14802387493, -163.12952423548, 52.523364216274],
        [-111.07407751816, -163.4683761642, 54.187602192348],
        [-111.00013116138, -163.80722809291, 55.851847797817],
        [-110.9261846854, -164.14608002162, 57.516093403286],
        [-110.85223844784, -164.48493195033, 59.180339008754],
        [-110.77829197185, -164.82378387904, 60.844584614223],
        [-110.70434549587, -165.16263580775, 62.508830219692],
        [-110.63039925831, -165.50148773646, 64.173075825161],
        [-110.55645278232, -165.84033966517, 65.837321430629],
        [-110.48250654476, -166.17919159388, 67.501567036098],
        [-110.40856006878, -166.5180397079, 69.165812641567]
],
      "InstanceCreationTime": ["090308.304000", "090308.402000", "090308.311000", "090308.417000", "090308.317000", "090308.424000", "090308.324000", "090308.430000", "090308.330000", "090308.436000", "090308.336000", "090308.443000", "090308.342000", "090308.449000", "090308.348000", "090308.455000", "090308.354000", "090308.462000", "090308.370000", "090308.468000", "090308.377000", "090308.475000", "090308.383000", "090308.482000", "090308.390000", "090308.489000", "090308.396000", "090308.307000", "090308.404000", "090308.313000", "090308.419000", "090308.319000", "090308.426000", "090308.326000", "090308.432000", "090308.332000", "090308.438000", "090308.338000", "090308.445000", "090308.344000", "090308.451000", "090308.350000", "090308.458000", "090308.366000", "090308.464000", "090308.372000", "090308.471000", "090308.379000", "090308.477000", "090308.386000", "090308.484000", "090308.392000", "090308.491000", "090308.398000", "090308.309000", "090308.415000", "090308.315000", "090308.421000", "090308.322000", "090308.428000", "090308.328000", "090308.434000", "090308.334000", "090308.440000", "090308.340000", "090308.447000", "090308.346000", "090308.453000", "090308.352000", "090308.460000", "090308.368000", "090308.466000", "090308.375000", "090308.473000", "090308.381000", "090308.480000", "090308.388000", "090308.486000", "090308.394000", "090308.493000", "090308.400000"],
      "InstanceNumber": [1, 2, 3, 4, 5, 6, 7, 8, 9, 10, 11, 12, 13, 14, 15, 16, 17, 18, 19, 20, 21, 22, 23, 24, 25, 26, 27, 28, 29, 30, 31, 32, 33, 34, 35, 36, 37, 38, 39, 40, 41, 42, 43, 44, 45, 46, 47, 48, 49, 50, 51, 52, 53, 54, 55, 56, 57, 58, 59, 60, 61, 62, 63, 64, 65, 66, 67, 68, 69, 70, 71, 72, 73, 74, 75, 76, 77, 78, 79, 80, 81],
      "LargestImagePixelValue": [38354, 42799, 42447, 48904, 50859, 35383, 44822, 58546, 40243, 32035, 33594, 33529, 46477, 52853, 49533, 65535, 65535, 65535, 65535, 65535, 65535, 65535, 51830, 39648, 45308, 59157, 60005, 49550, 43535, 62537, 49983, 46239, 53642, 47820, 44696, 65535, 65535, 54647, 43129, 37319, 39963, 36258, 38129, 46259, 49368, 60922, 52477, 46008, 59951, 65535, 65535, 65535, 57123, 59330, 48852, 45135, 60395, 61117, 56716, 54970, 65535, 65535, 59883, 64744, 60792, 44825, 54087, 65535, 61501, 59009, 57083, 22359, 20794, 20399, 17413, 11203, 9245, 9012, 1466, 1111, 1260],
      "SliceLocation": [-39.900324950085, -38.200328053308, -36.500327612157, -34.800326991285, -33.100326550134, -31.400325918892, -29.700325298021, -28.000326534011, -26.300326293321, -24.600327529312, -22.90032689807, -21.200326277198, -19.500325645956, -17.800326892317, -16.100326641257, -14.400326010015, -12.700327256376, -11.000326625134, -9.3003259938918, -7.600326686818, -5.9003269891923, -4.2003263631356, -2.5003266706952, -0.8003265114467, 0.89967327280598, 2.5996733153525, 4.2996733870745, 5.9996734004455, 7.6996734481773, 9.3996732272446, 11.099673386493, 12.799673545742, 14.499673243367, 16.199673869424, 17.899673561865, 19.599672876716, 21.299672569157, 22.999673197806, 24.699673823863, 26.399674452512, 28.099672831155, 29.799673458508, 31.499674085861, 33.199672845981, 34.899673473334, 36.599673720506, 38.299674347768, 39.999674975212, 41.6996718681, 43.399672495453, 45.099673122806, 46.799673369978, 48.499673997331, 50.199674623388, 51.899675252037, 53.599672143629, 55.299672772278, 56.999673398335, 58.699674026984, 60.399673892678, 62.099674518735, 63.799671415512, 65.499672041568, 67.199672667625, 68.899673293682, 70.599673924924, 72.29967455098, 73.999675177037, 75.699675803094, 77.399675673973, 79.09967630003, 80.799669457156, 82.499670083213, 84.199670714455, 85.899671335326, 87.599671966568, 89.29967259781, 90.999673218682, 92.699673849924, 94.399674470795, 96.099674341675],
