{
  "AcquisitionMatrixPE": 82,
  "AcquisitionNumber": 1,
  "AcquisitionTime": "09:54:11.680000",
  "BandwidthPerPixelPhaseEncode": 24.888,
  "BaseResolution": 82,
  "BodyPartExamined": "BRAIN",
  "ConsistencyInfo": "N4_VE11C_LATEST_20160120",
  "ConversionSoftware": "dcm2niix",
  "ConversionSoftwareVersion": "v1.0.20201102",
  "DerivedVendorReportedEchoSpacing": 0.00049,
  "DeviceSerialNumber": "66112",
  "DwellTime": 2e-06,
  "EchoTime": 0.0272,
  "EchoTrainLength": 82,
  "EffectiveEchoSpacing": 0.00049,
  "FlipAngle": 44,
  "ImageComments": "Unaliased MB8/PE3",
  "ImageOrientationPatientDICOM": [0.997332, 0.0280842, 0.0673761, -0.0351761, 0.993691, 0.106496],
  "ImageType": [
    "ORIGINAL",
    "PRIMARY",
    "M",
    "MB",
    "ND",
    "NORM",
    "MOSAIC"
],
  "ImagingFrequency": 123.252,
  "InPlanePhaseEncodingDirectionDICOM": "COL",
  "InstitutionAddress": "Maynard 3,Hanover,NH,US,03755",
  "InstitutionName": "Dartmouth College - PBS",
  "InstitutionalDepartmentName": "Department",
  "MRAcquisitionType": "2D",
  "MagneticFieldStrength": 3,
  "Manufacturer": "Siemens",
  "ManufacturersModelName": "Prisma",
  "Modality": "MR",
  "MultibandAccelerationFactor": 8,
  "PartialFourier": 1,
  "PatientPosition": "HFS",
  "PercentPhaseFOV": 100,
  "PercentSampling": 100,
  "PhaseEncodingDirection": "j-",
  "PhaseEncodingSteps": 82,
  "PhaseResolution": 1,
  "PixelBandwidth": 3050,
  "ProcedureStepDescription": "Wager_Wager^1076_spacetop",
  "ProtocolName": "func_run-02_task-social_acq-ap-mb8",
  "PulseSequenceDetails": "%CustomerSeq%\\cmrr_mbep2d_bold",
  "ReceiveCoilActiveElements": "HEA;HEP",
  "ReceiveCoilName": "Head_32",
  "ReconMatrixPE": 82,
  "RepetitionTime": 0.46,
  "SAR": 0.100624,
  "ScanOptions": "FS",
  "ScanningSequence": "EP",
  "SequenceName": "epfid2d1_82",
  "SequenceVariant": "SK\\SS",
  "SeriesDescription": "func_run-02_task-social_acq-ap-mb8",
  "SeriesNumber": 14,
  "ShimSetting": [4175, -7734, -7263, 602, 9, -100, 17, 31],
  "SliceThickness": 2.7,
  "SliceTiming": [0, 0.2525, 0.0625, 0.315, 0.125, 0.3775, 0.1875, 0, 0.2525, 0.0625, 0.315, 0.125, 0.3775, 0.1875, 0, 0.2525, 0.0625, 0.315, 0.125, 0.3775, 0.1875, 0, 0.2525, 0.0625, 0.315, 0.125, 0.3775, 0.1875, 0, 0.2525, 0.0625, 0.315, 0.125, 0.3775, 0.1875, 0, 0.2525, 0.0625, 0.315, 0.125, 0.3775, 0.1875, 0, 0.2525, 0.0625, 0.315, 0.125, 0.3775, 0.1875, 0, 0.2525, 0.0625, 0.315, 0.125, 0.3775, 0.1875],
  "SoftwareVersions": "syngo MR E11",
  "SpacingBetweenSlices": 2.7,
  "StationName": "AWP66112",
  "TaskName": "social",
  "TotalReadoutTime": 0.03969,
  "TxRefAmp": 268.764,
  "WipMemBlock": "33ba76e9-ccab-49b6-a6b1-c5115a8fb10e||Sequence: R016 ve11c/master r/e634e98; Dec 19 2017 11:00:25 by eja",
  "dcmmeta_affine": [
    [-2.675769567489624, -0.09437492489814758, 0.1726924031972885, 111.96189880371094],
    [-0.07534785568714142, 2.6659996509552, 0.293170303106308, -89.41337585449219],
    [0.18076510727405548, -0.2857200503349304, 2.6784751415252686, -46.80150604248047],
    [0.0, 0.0, 0.0, 1.0]
],
  "dcmmeta_reorient_transform": [
    [0.0, -1.0, 0.0, 81.0],
    [1.0, 0.0, 0.0, 0.0],
    [0.0, 0.0, 1.0, 0.0],
    [0.0, 0.0, 0.0, 1.0]
],
  "dcmmeta_shape": [82, 82, 56, 429],
  "dcmmeta_slice_dim": 2,
  "dcmmeta_version": 0.6,
  "global": {
    "const": {
      "AccessionNumber": "A003733",
      "AcquisitionMatrix": [82, 0, 0, 82],
      "AngioFlag": "N",
      "BitsAllocated": 16,
      "BitsStored": 16,
      "BodyPartExamined": "BRAIN",
      "Columns": 656,
      "EchoNumbers": 1,
      "EchoTime": 27.2,
      "EchoTrainLength": 82,
      "FlipAngle": 44.0,
      "HighBit": 15,
      "ImageOrientationPatient": [0.99733231209868, 0.02808419890765, 0.06737608637795, -0.035176108185, 0.99369075509401, 0.10649565556235],
      "ImagePositionPatient": [-845.17782476083, -913.29932818052, -203.82607576442],
      "ImageType": [
        "ORIGINAL",
        "PRIMARY",
        "M",
        "MB",
        "ND",
        "NORM",
        "MOSAIC"
],
      "ImagedNucleus": "1H",
      "ImagingFrequency": 123.25215,
      "InPlanePhaseEncodingDirection": "COL",
      "MRAcquisitionType": "2D",
      "MagneticFieldStrength": 3.0,
      "Manufacturer": "SIEMENS",
      "ManufacturerModelName": "Prisma",
      "Modality": "MR",
      "NumberOfAverages": 1.0,
      "NumberOfPhaseEncodingSteps": 82,
      "PercentPhaseFieldOfView": 100.0,
      "PercentSampling": 100.0,
      "PerformedProcedureStepStartTime": "090819.556000",
      "PhotometricInterpretation": "MONOCHROME2",
      "PixelBandwidth": 3050.0,
      "PixelRepresentation": 0,
      "PixelSpacing": [2.6829268932343, 2.6829268932343],
      "ProtocolName": "func_run-02_task-social_acq-ap-mb8",
      "RepetitionTime": 460.0,
      "Rows": 656,
      "SAR": 0.10062436891553,
      "SamplesPerPixel": 1,
      "ScanOptions": "FS",
      "ScanningSequence": "EP",
      "SequenceName": "epfid2d1_82",
      "SequenceVariant": [
        "SK",
        "SS"
],
      "SeriesDescription": "func_run-02_task-social_acq-ap-mb8",
      "SeriesNumber": 14,
      "SeriesTime": "095419.915000",
      "SliceLocation": -48.975941766053,
      "SliceThickness": 2.7000000476837,
      "SmallestImagePixelValue": 0,
      "SoftwareVersions": "syngo MR E11",
      "SpacingBetweenSlices": 2.7000000825663,
      "SpecificCharacterSet": "ISO_IR 100",
      "StudyID": "2",
      "StudyTime": "090819.488000",
      "TransmitCoilName": "Body",
      "VariableFlipAngleFlag": "N",
      "WindowCenterWidthExplanation": "Algo1",
      "dBdt": 0.0},
    "slices": {}
  },
  "time": {
    "samples": {
      "AcquisitionNumber": [1, 2, 3, 4, 5, 6, 7, 8, 9, 10, 11, 12, 13, 14, 15, 16, 17, 18, 19, 20, 21, 22, 23, 24, 25, 26, 27, 28, 29, 30, 31, 32, 33, 34, 35, 36, 37, 38, 39, 40, 41, 42, 43, 44, 45, 46, 47, 48, 49, 50, 51, 52, 53, 54, 55, 56, 57, 58, 59, 60, 61, 62, 63, 64, 65, 66, 67, 68, 69, 70, 71, 72, 73, 74, 75, 76, 77, 78, 79, 80, 81, 82, 83, 84, 85, 86, 87, 88, 89, 90, 91, 92, 93, 94, 95, 96, 97, 98, 99, 100, 101, 102, 103, 104, 105, 106, 107, 108, 109, 110, 111, 112, 113, 114, 115, 116, 117, 118, 119, 120, 121, 122, 123, 124, 125, 126, 127, 128, 129, 130, 131, 132, 133, 134, 135, 136, 137, 138, 139, 140, 141, 142, 143, 144, 145, 146, 147, 148, 149, 150, 151, 152, 153, 154, 155, 156, 157, 158, 159, 160, 161, 162, 163, 164, 165, 166, 167, 168, 169, 170, 171, 172, 173, 174, 175, 176, 177, 178, 179, 180, 181, 182, 183, 184, 185, 186, 187, 188, 189, 190, 191, 192, 193, 194, 195, 196, 197, 198, 199, 200, 201, 202, 203, 204, 205, 206, 207, 208, 209, 210, 211, 212, 213, 214, 215, 216, 217, 218, 219, 220, 221, 222, 223, 224, 225, 226, 227, 228, 229, 230, 231, 232, 233, 234, 235, 236, 237, 238, 239, 240, 241, 242, 243, 244, 245, 246, 247, 248, 249, 250, 251, 252, 253, 254, 255, 256, 257, 258, 259, 260, 261, 262, 263, 264, 265, 266, 267, 268, 269, 270, 271, 272, 273, 274, 275, 276, 277, 278, 279, 280, 281, 282, 283, 284, 285, 286, 287, 288, 289, 290, 291, 292, 293, 294, 295, 296, 297, 298, 299, 300, 301, 302, 303, 304, 305, 306, 307, 308, 309, 310, 311, 312, 313, 314, 315, 316, 317, 318, 319, 320, 321, 322, 323, 324, 325, 326, 327, 328, 329, 330, 331, 332, 333, 334, 335, 336, 337, 338, 339, 340, 341, 342, 343, 344, 345, 346, 347, 348, 349, 350, 351, 352, 353, 354, 355, 356, 357, 358, 359, 360, 361, 362, 363, 364, 365, 366, 367, 368, 369, 370, 371, 372, 373, 374, 375, 376, 377, 378, 379, 380, 381, 382, 383, 384, 385, 386, 387, 388, 389, 390, 391, 392, 393, 394, 395, 396, 397, 398, 399, 400, 401, 402, 403, 404, 405, 406, 407, 408, 409, 410, 411, 412, 413, 414, 415, 416, 417, 418, 419, 420, 421, 422, 423, 424, 425, 426, 427, 428, 429],
      "AcquisitionTime": ["095411.680000", "095412.140000", "095412.600000", "095413.060000", "095413.520000", "095413.980000", "095414.440000", "095414.900000", "095415.360000", "095415.820000", "095416.280000", "095416.740000", "095417.200000", "095417.660000", "095418.120000", "095418.580000", "095419.040000", "095419.500000", "095419.960000", "095420.420000", "095420.880000", "095421.340000", "095421.800000", "095422.260000", "095422.720000", "095423.180000", "095423.640000", "095424.100000", "095424.560000", "095425.020000", "095425.480000", "095425.940000", "095426.400000", "095426.860000", "095427.320000", "095427.780000", "095428.240000", "095428.700000", "095429.160000", "095429.620000", "095430.080000", "095430.540000", "095431.000000", "095431.460000", "095431.920000", "095432.380000", "095432.840000", "095433.300000", "095433.760000", "095434.220000", "095434.680000", "095435.140000", "095435.600000", "095436.060000", "095436.520000", "095436.980000", "095437.440000", "095437.900000", "095438.360000", "095438.820000", "095439.280000", "095439.740000", "095440.200000", "095440.660000", "095441.120000", "095441.580000", "095442.040000", "095442.500000", "095442.960000", "095443.420000", "095443.880000", "095444.340000", "095444.800000", "095445.260000", "095445.720000", "095446.180000", "095446.640000", "095447.100000", "095447.560000", "095448.020000", "095448.480000", "095448.940000", "095449.400000", "095449.860000", "095450.320000", "095450.780000", "095451.240000", "095451.700000", "095452.160000", "095452.620000", "095453.080000", "095453.540000", "095454.000000", "095454.460000", "095454.920000", "095455.380000", "095455.840000", "095456.300000", "095456.760000", "095457.220000", "095457.680000", "095458.140000", "095458.600000", "095459.060000", "095459.520000", "095459.980000", "095500.440000", "095500.900000", "095501.360000", "095501.820000", "095502.280000", "095502.740000", "095503.200000", "095503.660000", "095504.120000", "095504.580000", "095505.040000", "095505.500000", "095505.960000", "095506.420000", "095506.880000", "095507.340000", "095507.800000", "095508.260000", "095508.720000", "095509.180000", "095509.640000", "095510.100000", "095510.560000", "095511.020000", "095511.480000", "095511.940000", "095512.400000", "095512.860000", "095513.320000", "095513.780000", "095514.240000", "095514.700000", "095515.160000", "095515.620000", "095516.080000", "095516.540000", "095517.000000", "095517.460000", "095517.920000", "095518.380000", "095518.840000", "095519.300000", "095519.760000", "095520.220000", "095520.680000", "095521.140000", "095521.600000", "095522.060000", "095522.520000", "095522.980000", "095523.440000", "095523.900000", "095524.360000", "095524.820000", "095525.280000", "095525.740000", "095526.200000", "095526.660000", "095527.120000", "095527.580000", "095528.040000", "095528.500000", "095528.960000", "095529.420000", "095529.880000", "095530.340000", "095530.800000", "095531.260000", "095531.720000", "095532.180000", "095532.640000", "095533.100000", "095533.560000", "095534.020000", "095534.480000", "095534.940000", "095535.400000", "095535.860000", "095536.320000", "095536.780000", "095537.240000", "095537.700000", "095538.160000", "095538.620000", "095539.080000", "095539.540000", "095540.000000", "095540.460000", "095540.920000", "095541.380000", "095541.840000", "095542.300000", "095542.760000", "095543.220000", "095543.680000", "095544.140000", "095544.600000", "095545.060000", "095545.520000", "095545.980000", "095546.440000", "095546.900000", "095547.360000", "095547.820000", "095548.280000", "095548.740000", "095549.200000", "095549.660000", "095550.120000", "095550.580000", "095551.040000", "095551.500000", "095551.960000", "095552.420000", "095552.880000", "095553.340000", "095553.800000", "095554.260000", "095554.720000", "095555.180000", "095555.640000", "095556.100000", "095556.560000", "095557.020000", "095557.480000", "095557.940000", "095558.400000", "095558.860000", "095559.320000", "095559.780000", "095600.240000", "095600.700000", "095601.160000", "095601.620000", "095602.080000", "095602.540000", "095603.000000", "095603.460000", "095603.920000", "095604.380000", "095604.840000", "095605.300000", "095605.760000", "095606.220000", "095606.680000", "095607.140000", "095607.600000", "095608.060000", "095608.520000", "095608.980000", "095609.440000", "095609.900000", "095610.360000", "095610.820000", "095611.280000", "095611.740000", "095612.200000", "095612.660000", "095613.120000", "095613.580000", "095614.040000", "095614.500000", "095614.960000", "095615.420000", "095615.880000", "095616.340000", "095616.800000", "095617.260000", "095617.720000", "095618.180000", "095618.640000", "095619.100000", "095619.560000", "095620.020000", "095620.480000", "095620.940000", "095621.400000", "095621.860000", "095622.320000", "095622.780000", "095623.240000", "095623.700000", "095624.160000", "095624.620000", "095625.080000", "095625.540000", "095626.000000", "095626.460000", "095626.920000", "095627.380000", "095627.840000", "095628.300000", "095628.760000", "095629.220000", "095629.680000", "095630.140000", "095630.600000", "095631.060000", "095631.520000", "095631.980000", "095632.440000", "095632.900000", "095633.360000", "095633.820000", "095634.280000", "095634.740000", "095635.200000", "095635.660000", "095636.120000", "095636.580000", "095637.040000", "095637.500000", "095637.960000", "095638.420000", "095638.880000", "095639.340000", "095639.800000", "095640.260000", "095640.720000", "095641.180000", "095641.640000", "095642.100000", "095642.560000", "095643.020000", "095643.480000", "095643.940000", "095644.400000", "095644.860000", "095645.320000", "095645.780000", "095646.240000", "095646.700000", "095647.160000", "095647.620000", "095648.080000", "095648.540000", "095649.000000", "095649.460000", "095649.920000", "095650.380000", "095650.840000", "095651.300000", "095651.760000", "095652.220000", "095652.680000", "095653.140000", "095653.600000", "095654.060000", "095654.520000", "095654.980000", "095655.440000", "095655.900000", "095656.360000", "095656.820000", "095657.280000", "095657.740000", "095658.200000", "095658.660000", "095659.120000", "095659.580000", "095700.040000", "095700.500000", "095700.960000", "095701.420000", "095701.880000", "095702.340000", "095702.800000", "095703.260000", "095703.720000", "095704.180000", "095704.640000", "095705.100000", "095705.560000", "095706.020000", "095706.480000", "095706.940000", "095707.400000", "095707.860000", "095708.320000", "095708.780000", "095709.240000", "095709.700000", "095710.160000", "095710.620000", "095711.080000", "095711.540000", "095712.000000", "095712.460000", "095712.920000", "095713.380000", "095713.840000", "095714.300000", "095714.760000", "095715.220000", "095715.680000", "095716.140000", "095716.600000", "095717.060000", "095717.520000", "095717.980000", "095718.440000", "095718.900000", "095719.360000", "095719.820000", "095720.280000", "095720.740000", "095721.200000", "095721.660000", "095722.120000", "095722.580000", "095723.040000", "095723.500000", "095723.960000", "095724.420000", "095724.880000", "095725.340000", "095725.800000", "095726.260000", "095726.720000", "095727.180000", "095727.640000", "095728.100000", "095728.560000"],
      "ContentTime": ["095419.917000", "095419.921000", "095419.924000", "095419.926000", "095419.929000", "095419.932000", "095419.935000", "095419.938000", "095419.941000", "095419.944000", "095419.947000", "095419.950000", "095419.952000", "095419.955000", "095419.958000", "095419.961000", "095419.964000", "095439.878000", "095439.881000", "095439.884000", "095439.887000", "095439.890000", "095439.893000", "095439.895000", "095439.898000", "095439.901000", "095439.905000", "095439.908000", "095439.911000", "095439.914000", "095439.917000", "095439.920000", "095439.923000", "095439.926000", "095439.928000", "095439.931000", "095439.934000", "095439.937000", "095439.940000", "095439.943000", "095439.946000", "095439.949000", "095439.952000", "095439.955000", "095439.958000", "095439.961000", "095439.964000", "095439.967000", "095439.970000", "095439.973000", "095439.976000", "095439.979000", "095439.984000", "095439.988000", "095440.004000", "095440.007000", "095440.010000", "095440.013000", "095440.016000", "095440.019000", "095459.878000", "095459.881000", "095459.884000", "095459.887000", "095459.889000", "095459.892000", "095459.895000", "095459.898000", "095459.901000", "095459.904000", "095459.907000", "095459.910000", "095459.912000", "095459.915000", "095459.918000", "095459.921000", "095459.924000", "095459.927000", "095459.930000", "095459.932000", "095459.935000", "095459.938000", "095459.941000", "095459.944000", "095459.947000", "095459.950000", "095459.953000", "095459.956000", "095459.959000", "095459.961000", "095459.964000", "095459.967000", "095459.970000", "095459.973000", "095459.976000", "095459.979000", "095459.982000", "095459.984000", "095459.987000", "095459.990000", "095459.993000", "095459.996000", "095500.000000", "095500.003000", "095519.878000", "095519.881000", "095519.884000", "095519.887000", "095519.890000", "095519.892000", "095519.895000", "095519.898000", "095519.901000", "095519.904000", "095519.907000", "095519.910000", "095519.913000", "095519.916000", "095519.919000", "095519.921000", "095519.924000", "095519.927000", "095519.930000", "095519.933000", "095519.936000", "095519.939000", "095519.942000", "095519.945000", "095519.948000", "095519.950000", "095519.953000", "095519.956000", "095519.959000", "095519.962000", "095519.965000", "095519.968000", "095519.971000", "095519.974000", "095519.976000", "095519.981000", "095519.986000", "095519.989000", "095519.992000", "095519.995000", "095519.998000", "095520.002000", "095520.004000", "095539.878000", "095539.881000", "095539.884000", "095539.887000", "095539.890000", "095539.893000", "095539.896000", "095539.899000", "095539.902000", "095539.904000", "095539.907000", "095539.910000", "095539.913000", "095539.916000", "095539.919000", "095539.922000", "095539.925000", "095539.928000", "095539.931000", "095539.933000", "095539.936000", "095539.939000", "095539.942000", "095539.945000", "095539.948000", "095539.951000", "095539.954000", "095539.957000", "095539.960000", "095539.963000", "095539.966000", "095539.968000", "095539.971000", "095539.974000", "095539.977000", "095539.980000", "095539.983000", "095539.986000", "095539.989000", "095539.992000", "095539.995000", "095539.998000", "095540.001000", "095540.004000", "095559.878000", "095559.881000", "095559.884000", "095559.887000", "095559.890000", "095559.893000", "095559.903000", "095559.906000", "095559.909000", "095559.912000", "095559.915000", "095559.918000", "095559.920000", "095559.923000", "095559.926000", "095559.929000", "095559.932000", "095559.946000", "095559.949000", "095559.952000", "095559.955000", "095559.958000", "095559.960000", "095559.963000", "095559.966000", "095559.969000", "095559.972000", "095559.975000", "095559.978000", "095559.981000", "095559.984000", "095559.987000", "095559.989000", "095559.992000", "095559.995000", "095600.000000", "095600.003000", "095600.005000", "095600.008000", "095600.014000", "095600.018000", "095600.021000", "095600.024000", "095619.877000", "095619.880000", "095619.883000", "095619.886000", "095619.889000", "095619.892000", "095619.895000", "095619.898000", "095619.901000", "095619.903000", "095619.906000", "095619.909000", "095619.912000", "095619.915000", "095619.918000", "095619.921000", "095619.924000", "095619.927000", "095619.930000", "095619.933000", "095619.936000", "095619.938000", "095619.941000", "095619.944000", "095619.947000", "095619.950000", "095619.953000", "095619.956000", "095619.959000", "095619.962000", "095619.965000", "095619.967000", "095619.970000", "095619.973000", "095619.976000", "095619.979000", "095619.982000", "095619.985000", "095619.988000", "095619.991000", "095619.994000", "095619.996000", "095620.002000", "095620.005000", "095639.878000", "095639.881000", "095639.884000", "095639.887000", "095639.890000", "095639.893000", "095639.896000", "095639.899000", "095639.902000", "095639.904000", "095639.907000", "095639.910000", "095639.913000", "095639.916000", "095639.919000", "095639.922000", "095639.925000", "095639.928000", "095639.931000", "095639.934000", "095639.937000", "095639.940000", "095639.942000", "095639.945000", "095639.948000", "095639.951000", "095639.954000", "095639.957000", "095639.960000", "095639.963000", "095639.966000", "095639.969000", "095639.972000", "095639.975000", "095639.977000", "095639.980000", "095639.983000", "095639.986000", "095639.989000", "095639.992000", "095639.995000", "095639.998000", "095640.001000", "095659.878000", "095659.881000", "095659.884000", "095659.887000", "095659.890000", "095659.893000", "095659.896000", "095659.899000", "095659.901000", "095659.904000", "095659.907000", "095659.910000", "095659.913000", "095659.916000", "095659.919000", "095659.922000", "095659.925000", "095659.928000", "095659.931000", "095659.934000", "095659.937000", "095659.940000", "095659.942000", "095659.945000", "095659.948000", "095659.951000", "095659.954000", "095659.957000", "095659.960000", "095659.963000", "095659.966000", "095659.969000", "095659.972000", "095659.975000", "095659.978000", "095659.980000", "095659.983000", "095659.986000", "095659.989000", "095659.992000", "095659.995000", "095659.998000", "095700.002000", "095700.005000", "095719.878000", "095719.881000", "095719.884000", "095719.887000", "095719.890000", "095719.893000", "095719.896000", "095719.899000", "095719.902000", "095719.905000", "095719.907000", "095719.910000", "095719.913000", "095719.916000", "095719.919000", "095719.922000", "095719.925000", "095719.928000", "095719.931000", "095719.934000", "095719.937000", "095719.940000", "095719.943000", "095719.945000", "095719.948000", "095719.951000", "095719.954000", "095719.957000", "095719.960000", "095719.963000", "095719.966000", "095719.989000", "095719.992000", "095719.995000", "095719.998000", "095720.002000", "095720.005000", "095720.008000", "095720.011000", "095720.014000", "095720.017000", "095720.020000", "095720.022000", "095729.489000", "095729.493000", "095729.496000", "095729.499000", "095729.503000", "095729.506000", "095729.510000", "095729.515000", "095729.519000", "095729.522000", "095729.526000", "095729.529000", "095729.532000", "095729.535000", "095729.538000", "095729.541000", "095729.544000", "095729.547000", "095729.550000", "095729.553000", "095729.556000"],
      "InstanceCreationTime": ["095419.917000", "095419.921000", "095419.924000", "095419.926000", "095419.929000", "095419.932000", "095419.935000", "095419.938000", "095419.941000", "095419.944000", "095419.947000", "095419.950000", "095419.952000", "095419.955000", "095419.958000", "095419.961000", "095419.964000", "095439.878000", "095439.881000", "095439.884000", "095439.887000", "095439.890000", "095439.893000", "095439.895000", "095439.898000", "095439.901000", "095439.905000", "095439.908000", "095439.911000", "095439.914000", "095439.917000", "095439.920000", "095439.923000", "095439.926000", "095439.928000", "095439.931000", "095439.934000", "095439.937000", "095439.940000", "095439.943000", "095439.946000", "095439.949000", "095439.952000", "095439.955000", "095439.958000", "095439.961000", "095439.964000", "095439.967000", "095439.970000", "095439.973000", "095439.976000", "095439.979000", "095439.984000", "095439.988000", "095440.004000", "095440.007000", "095440.010000", "095440.013000", "095440.016000", "095440.019000", "095459.878000", "095459.881000", "095459.884000", "095459.887000", "095459.889000", "095459.892000", "095459.895000", "095459.898000", "095459.901000", "095459.904000", "095459.907000", "095459.910000", "095459.912000", "095459.915000", "095459.918000", "095459.921000", "095459.924000", "095459.927000", "095459.930000", "095459.932000", "095459.935000", "095459.938000", "095459.941000", "095459.944000", "095459.947000", "095459.950000", "095459.953000", "095459.956000", "095459.959000", "095459.961000", "095459.964000", "095459.967000", "095459.970000", "095459.973000", "095459.976000", "095459.979000", "095459.982000", "095459.984000", "095459.987000", "095459.990000", "095459.993000", "095459.996000", "095500.000000", "095500.003000", "095519.878000", "095519.881000", "095519.884000", "095519.887000", "095519.890000", "095519.892000", "095519.895000", "095519.898000", "095519.901000", "095519.904000", "095519.907000", "095519.910000", "095519.913000", "095519.916000", "095519.919000", "095519.921000", "095519.924000", "095519.927000", "095519.930000", "095519.933000", "095519.936000", "095519.939000", "095519.942000", "095519.945000", "095519.948000", "095519.950000", "095519.953000", "095519.956000", "095519.959000", "095519.962000", "095519.965000", "095519.968000", "095519.971000", "095519.974000", "095519.976000", "095519.981000", "095519.986000", "095519.989000", "095519.992000", "095519.995000", "095519.998000", "095520.002000", "095520.004000", "095539.878000", "095539.881000", "095539.884000", "095539.887000", "095539.890000", "095539.893000", "095539.896000", "095539.899000", "095539.902000", "095539.904000", "095539.907000", "095539.910000", "095539.913000", "095539.916000", "095539.919000", "095539.922000", "095539.925000", "095539.928000", "095539.931000", "095539.933000", "095539.936000", "095539.939000", "095539.942000", "095539.945000", "095539.948000", "095539.951000", "095539.954000", "095539.957000", "095539.960000", "095539.963000", "095539.966000", "095539.968000", "095539.971000", "095539.974000", "095539.977000", "095539.980000", "095539.983000", "095539.986000", "095539.989000", "095539.992000", "095539.995000", "095539.998000", "095540.001000", "095540.004000", "095559.878000", "095559.881000", "095559.884000", "095559.887000", "095559.890000", "095559.893000", "095559.903000", "095559.906000", "095559.909000", "095559.912000", "095559.915000", "095559.918000", "095559.920000", "095559.923000", "095559.926000", "095559.929000", "095559.932000", "095559.946000", "095559.949000", "095559.952000", "095559.955000", "095559.958000", "095559.960000", "095559.963000", "095559.966000", "095559.969000", "095559.972000", "095559.975000", "095559.978000", "095559.981000", "095559.984000", "095559.987000", "095559.989000", "095559.992000", "095559.995000", "095600.000000", "095600.003000", "095600.005000", "095600.008000", "095600.014000", "095600.018000", "095600.021000", "095600.024000", "095619.877000", "095619.880000", "095619.883000", "095619.886000", "095619.889000", "095619.892000", "095619.895000", "095619.898000", "095619.901000", "095619.903000", "095619.906000", "095619.909000", "095619.912000", "095619.915000", "095619.918000", "095619.921000", "095619.924000", "095619.927000", "095619.930000", "095619.933000", "095619.936000", "095619.938000", "095619.941000", "095619.944000", "095619.947000", "095619.950000", "095619.953000", "095619.956000", "095619.959000", "095619.962000", "095619.965000", "095619.967000", "095619.970000", "095619.973000", "095619.976000", "095619.979000", "095619.982000", "095619.985000", "095619.988000", "095619.991000", "095619.994000", "095619.996000", "095620.002000", "095620.005000", "095639.878000", "095639.881000", "095639.884000", "095639.887000", "095639.890000", "095639.893000", "095639.896000", "095639.899000", "095639.902000", "095639.904000", "095639.907000", "095639.910000", "095639.913000", "095639.916000", "095639.919000", "095639.922000", "095639.925000", "095639.928000", "095639.931000", "095639.934000", "095639.937000", "095639.940000", "095639.942000", "095639.945000", "095639.948000", "095639.951000", "095639.954000", "095639.957000", "095639.960000", "095639.963000", "095639.966000", "095639.969000", "095639.972000", "095639.975000", "095639.977000", "095639.980000", "095639.983000", "095639.986000", "095639.989000", "095639.992000", "095639.995000", "095639.998000", "095640.001000", "095659.878000", "095659.881000", "095659.884000", "095659.887000", "095659.890000", "095659.893000", "095659.896000", "095659.899000", "095659.901000", "095659.904000", "095659.907000", "095659.910000", "095659.913000", "095659.916000", "095659.919000", "095659.922000", "095659.925000", "095659.928000", "095659.931000", "095659.934000", "095659.937000", "095659.940000", "095659.942000", "095659.945000", "095659.948000", "095659.951000", "095659.954000", "095659.957000", "095659.960000", "095659.963000", "095659.966000", "095659.969000", "095659.972000", "095659.975000", "095659.978000", "095659.980000", "095659.983000", "095659.986000", "095659.989000", "095659.992000", "095659.995000", "095659.998000", "095700.002000", "095700.005000", "095719.878000", "095719.881000", "095719.884000", "095719.887000", "095719.890000", "095719.893000", "095719.896000", "095719.899000", "095719.902000", "095719.905000", "095719.907000", "095719.910000", "095719.913000", "095719.916000", "095719.919000", "095719.922000", "095719.925000", "095719.928000", "095719.931000", "095719.934000", "095719.937000", "095719.940000", "095719.943000", "095719.945000", "095719.948000", "095719.951000", "095719.954000", "095719.957000", "095719.960000", "095719.963000", "095719.966000", "095719.989000", "095719.992000", "095719.995000", "095719.998000", "095720.002000", "095720.005000", "095720.008000", "095720.011000", "095720.014000", "095720.017000", "095720.020000", "095720.022000", "095729.489000", "095729.493000", "095729.496000", "095729.499000", "095729.503000", "095729.506000", "095729.510000", "095729.515000", "095729.519000", "095729.522000", "095729.526000", "095729.529000", "095729.532000", "095729.535000", "095729.538000", "095729.541000", "095729.544000", "095729.547000", "095729.550000", "095729.553000", "095729.556000"],
