{
  "AcquisitionMatrixPE": 82,
  "AcquisitionNumber": 1,
  "AcquisitionTime": "20:12:54.622500",
  "BandwidthPerPixelPhaseEncode": 24.888,
  "BaseResolution": 82,
  "BodyPartExamined": "BRAIN",
  "ConsistencyInfo": "N4_VE11E_LATEST_20181129",
  "ConversionSoftware": "dcm2niix",
  "ConversionSoftwareVersion": "v1.0.20201102",
  "DerivedVendorReportedEchoSpacing": 0.00049,
  "DeviceSerialNumber": "66112",
  "DwellTime": 2e-06,
  "EchoTime": 0.0272,
  "EchoTrainLength": 82,
  "EffectiveEchoSpacing": 0.00049,
  "FlipAngle": 44,
  "ImageComments": "Unaliased MB8/PE3",
  "ImageOrientationPatientDICOM": [0.998857, 0.0266399, 0.0396747, -0.0354045, 0.970142, 0.239938],
  "ImageType": [
    "ORIGINAL",
    "PRIMARY",
    "M",
    "MB",
    "ND",
    "NORM",
    "MOSAIC"
],
  "ImagingFrequency": 123.252,
  "InPlanePhaseEncodingDirectionDICOM": "COL",
  "InstitutionAddress": "Maynard 3,Hanover,NH,US,03755",
  "InstitutionName": "Dartmouth College - PBS",
  "InstitutionalDepartmentName": "Department",
  "MRAcquisitionType": "2D",
  "MagneticFieldStrength": 3,
  "Manufacturer": "Siemens",
  "ManufacturersModelName": "Prisma",
  "Modality": "MR",
  "MultibandAccelerationFactor": 8,
  "PartialFourier": 1,
  "PatientPosition": "HFS",
  "PercentPhaseFOV": 100,
  "PercentSampling": 100,
  "PhaseEncodingDirection": "j-",
  "PhaseEncodingSteps": 82,
  "PhaseResolution": 1,
  "PixelBandwidth": 3050,
  "ProcedureStepDescription": "Wager_Wager^1076_spacetop",
  "ProtocolName": "func_run-03_task-alignvideo_acq-ap-mb8",
  "PulseSequenceDetails": "%CustomerSeq%\\cmrr_mbep2d_bold",
  "ReceiveCoilActiveElements": "HEA;HEP",
  "ReceiveCoilName": "Head_32",
  "ReconMatrixPE": 82,
  "RepetitionTime": 0.46,
  "SAR": 0.093862,
  "ScanOptions": "FS",
  "ScanningSequence": "EP",
  "SequenceName": "epfid2d1_82",
  "SequenceVariant": "SK\\SS",
  "SeriesDescription": "func_run-03_task-alignvideo_acq-ap-mb8",
  "SeriesNumber": 32,
  "ShimSetting": [4160, -7791, -7234, 635, -57, -267, 68, 86],
  "SliceThickness": 2.7,
  "SliceTiming": [0, 0.25, 0.0625, 0.315, 0.125, 0.3775, 0.1875, 0, 0.25, 0.0625, 0.315, 0.125, 0.3775, 0.1875, 0, 0.25, 0.0625, 0.315, 0.125, 0.3775, 0.1875, 0, 0.25, 0.0625, 0.315, 0.125, 0.3775, 0.1875, 0, 0.25, 0.0625, 0.315, 0.125, 0.3775, 0.1875, 0, 0.25, 0.0625, 0.315, 0.125, 0.3775, 0.1875, 0, 0.25, 0.0625, 0.315, 0.125, 0.3775, 0.1875, 0, 0.25, 0.0625, 0.315, 0.125, 0.3775, 0.1875],
  "SoftwareVersions": "syngo MR E11",
  "SpacingBetweenSlices": 2.7,
  "StationName": "AWP66112",
  "TaskName": "alignvideo",
  "TotalReadoutTime": 0.03969,
  "TxRefAmp": 235.456,
  "WipMemBlock": "6bc2bcdf-bde5-4173-bd6b-f0bcba9e59fe||Sequence: R016 ve11e/master r/434b28f1; Aug  7 2019 18:53:46 by eja",
  "dcmmeta_affine": [
    [-2.679861545562744, -0.09498759359121323, 0.08666499704122543, 116.31340789794922],
    [-0.07147303223609924, 2.602820873260498, 0.6508855819702148, -109.4145736694336],
    [0.10644426941871643, -0.643736720085144, 2.6189382076263428, -29.656173706054688],
    [0.0, 0.0, 0.0, 1.0]
],
  "dcmmeta_reorient_transform": [
    [0.0, -1.0, 0.0, 81.0],
    [1.0, 0.0, 0.0, 0.0],
    [0.0, 0.0, 1.0, 0.0],
    [0.0, 0.0, 0.0, 1.0]
],
  "dcmmeta_shape": [82, 82, 56, 1065],
  "dcmmeta_slice_dim": 2,
  "dcmmeta_version": 0.6,
  "global": {
    "const": {
      "AccessionNumber": "A004054",
      "AcquisitionMatrix": [82, 0, 0, 82],
      "AngioFlag": "N",
      "BitsAllocated": 16,
      "BitsStored": 16,
      "BodyPartExamined": "BRAIN",
      "Columns": 656,
      "EchoNumbers": 1,
      "EchoTime": 27.2,
      "EchoTrainLength": 82,
      "FlipAngle": 44.0,
      "HighBit": 15,
      "ImageOrientationPatient": [0.99885746373235, 0.02663994741758, 0.03967468144496, -0.035404464622, 0.97014234628473, 0.23993822502886],
      "ImagePositionPatient": [-850.47824087308, -868.93631122805, -297.10079117578],
      "ImageType": [
        "ORIGINAL",
        "PRIMARY",
        "M",
        "MB",
        "ND",
        "NORM",
        "MOSAIC"
],
      "ImagedNucleus": "1H",
      "ImagingFrequency": 123.252179,
      "InPlanePhaseEncodingDirection": "COL",
      "MRAcquisitionType": "2D",
      "MagneticFieldStrength": 3.0,
      "Manufacturer": "SIEMENS",
      "ManufacturerModelName": "Prisma",
      "Modality": "MR",
      "NumberOfAverages": 1.0,
      "NumberOfPhaseEncodingSteps": 82,
      "PercentPhaseFieldOfView": 100.0,
      "PercentSampling": 100.0,
      "PerformedProcedureStepStartTime": "182105.699000",
      "PhotometricInterpretation": "MONOCHROME2",
      "PixelBandwidth": 3050.0,
      "PixelRepresentation": 0,
      "PixelSpacing": [2.6829268932343, 2.6829268932343],
      "ProtocolName": "func_run-03_task-alignvideo_acq-ap-mb8",
      "RepetitionTime": 460.0,
      "Rows": 656,
      "SAR": 0.0938620262328,
      "SamplesPerPixel": 1,
      "ScanOptions": "FS",
      "ScanningSequence": "EP",
      "SequenceName": "epfid2d1_82",
      "SequenceVariant": [
        "SK",
        "SS"
],
      "SeriesDescription": "func_run-03_task-alignvideo_acq-ap-mb8",
      "SeriesNumber": 32,
      "SeriesTime": "201317.772000",
      "SliceLocation": -51.40879890908,
      "SliceThickness": 2.7000000476837,
      "SmallestImagePixelValue": 0,
      "SoftwareVersions": "syngo MR E11",
      "SpacingBetweenSlices": 2.6999999344694,
      "SpecificCharacterSet": "ISO_IR 100",
      "StudyID": "3",
      "StudyTime": "182105.624000",
      "TransmitCoilName": "Body",
      "VariableFlipAngleFlag": "N",
      "WindowCenterWidthExplanation": "Algo1"
    },
    "slices": {}
  },
  "time": {
    "samples": {
      "AcquisitionNumber": [1, 2, 3, 4, 5, 6, 7, 8, 9, 10, 11, 12, 13, 14, 15, 16, 17, 18, 19, 20, 21, 22, 23, 24, 25, 26, 27, 28, 29, 30, 31, 32, 33, 34, 35, 36, 37, 38, 39, 40, 41, 42, 43, 44, 45, 46, 47, 48, 49, 50, 51, 52, 53, 54, 55, 56, 57, 58, 59, 60, 61, 62, 63, 64, 65, 66, 67, 68, 69, 70, 71, 72, 73, 74, 75, 76, 77, 78, 79, 80, 81, 82, 83, 84, 85, 86, 87, 88, 89, 90, 91, 92, 93, 94, 95, 96, 97, 98, 99, 100, 101, 102, 103, 104, 105, 106, 107, 108, 109, 110, 111, 112, 113, 114, 115, 116, 117, 118, 119, 120, 121, 122, 123, 124, 125, 126, 127, 128, 129, 130, 131, 132, 133, 134, 135, 136, 137, 138, 139, 140, 141, 142, 143, 144, 145, 146, 147, 148, 149, 150, 151, 152, 153, 154, 155, 156, 157, 158, 159, 160, 161, 162, 163, 164, 165, 166, 167, 168, 169, 170, 171, 172, 173, 174, 175, 176, 177, 178, 179, 180, 181, 182, 183, 184, 185, 186, 187, 188, 189, 190, 191, 192, 193, 194, 195, 196, 197, 198, 199, 200, 201, 202, 203, 204, 205, 206, 207, 208, 209, 210, 211, 212, 213, 214, 215, 216, 217, 218, 219, 220, 221, 222, 223, 224, 225, 226, 227, 228, 229, 230, 231, 232, 233, 234, 235, 236, 237, 238, 239, 240, 241, 242, 243, 244, 245, 246, 247, 248, 249, 250, 251, 252, 253, 254, 255, 256, 257, 258, 259, 260, 261, 262, 263, 264, 265, 266, 267, 268, 269, 270, 271, 272, 273, 274, 275, 276, 277, 278, 279, 280, 281, 282, 283, 284, 285, 286, 287, 288, 289, 290, 291, 292, 293, 294, 295, 296, 297, 298, 299, 300, 301, 302, 303, 304, 305, 306, 307, 308, 309, 310, 311, 312, 313, 314, 315, 316, 317, 318, 319, 320, 321, 322, 323, 324, 325, 326, 327, 328, 329, 330, 331, 332, 333, 334, 335, 336, 337, 338, 339, 340, 341, 342, 343, 344, 345, 346, 347, 348, 349, 350, 351, 352, 353, 354, 355, 356, 357, 358, 359, 360, 361, 362, 363, 364, 365, 366, 367, 368, 369, 370, 371, 372, 373, 374, 375, 376, 377, 378, 379, 380, 381, 382, 383, 384, 385, 386, 387, 388, 389, 390, 391, 392, 393, 394, 395, 396, 397, 398, 399, 400, 401, 402, 403, 404, 405, 406, 407, 408, 409, 410, 411, 412, 413, 414, 415, 416, 417, 418, 419, 420, 421, 422, 423, 424, 425, 426, 427, 428, 429, 430, 431, 432, 433, 434, 435, 436, 437, 438, 439, 440, 441, 442, 443, 444, 445, 446, 447, 448, 449, 450, 451, 452, 453, 454, 455, 456, 457, 458, 459, 460, 461, 462, 463, 464, 465, 466, 467, 468, 469, 470, 471, 472, 473, 474, 475, 476, 477, 478, 479, 480, 481, 482, 483, 484, 485, 486, 487, 488, 489, 490, 491, 492, 493, 494, 495, 496, 497, 498, 499, 500, 501, 502, 503, 504, 505, 506, 507, 508, 509, 510, 511, 512, 513, 514, 515, 516, 517, 518, 519, 520, 521, 522, 523, 524, 525, 526, 527, 528, 529, 530, 531, 532, 533, 534, 535, 536, 537, 538, 539, 540, 541, 542, 543, 544, 545, 546, 547, 548, 549, 550, 551, 552, 553, 554, 555, 556, 557, 558, 559, 560, 561, 562, 563, 564, 565, 566, 567, 568, 569, 570, 571, 572, 573, 574, 575, 576, 577, 578, 579, 580, 581, 582, 583, 584, 585, 586, 587, 588, 589, 590, 591, 592, 593, 594, 595, 596, 597, 598, 599, 600, 601, 602, 603, 604, 605, 606, 607, 608, 609, 610, 611, 612, 613, 614, 615, 616, 617, 618, 619, 620, 621, 622, 623, 624, 625, 626, 627, 628, 629, 630, 631, 632, 633, 634, 635, 636, 637, 638, 639, 640, 641, 642, 643, 644, 645, 646, 647, 648, 649, 650, 651, 652, 653, 654, 655, 656, 657, 658, 659, 660, 661, 662, 663, 664, 665, 666, 667, 668, 669, 670, 671, 672, 673, 674, 675, 676, 677, 678, 679, 680, 681, 682, 683, 684, 685, 686, 687, 688, 689, 690, 691, 692, 693, 694, 695, 696, 697, 698, 699, 700, 701, 702, 703, 704, 705, 706, 707, 708, 709, 710, 711, 712, 713, 714, 715, 716, 717, 718, 719, 720, 721, 722, 723, 724, 725, 726, 727, 728, 729, 730, 731, 732, 733, 734, 735, 736, 737, 738, 739, 740, 741, 742, 743, 744, 745, 746, 747, 748, 749, 750, 751, 752, 753, 754, 755, 756, 757, 758, 759, 760, 761, 762, 763, 764, 765, 766, 767, 768, 769, 770, 771, 772, 773, 774, 775, 776, 777, 778, 779, 780, 781, 782, 783, 784, 785, 786, 787, 788, 789, 790, 791, 792, 793, 794, 795, 796, 797, 798, 799, 800, 801, 802, 803, 804, 805, 806, 807, 808, 809, 810, 811, 812, 813, 814, 815, 816, 817, 818, 819, 820, 821, 822, 823, 824, 825, 826, 827, 828, 829, 830, 831, 832, 833, 834, 835, 836, 837, 838, 839, 840, 841, 842, 843, 844, 845, 846, 847, 848, 849, 850, 851, 852, 853, 854, 855, 856, 857, 858, 859, 860, 861, 862, 863, 864, 865, 866, 867, 868, 869, 870, 871, 872, 873, 874, 875, 876, 877, 878, 879, 880, 881, 882, 883, 884, 885, 886, 887, 888, 889, 890, 891, 892, 893, 894, 895, 896, 897, 898, 899, 900, 901, 902, 903, 904, 905, 906, 907, 908, 909, 910, 911, 912, 913, 914, 915, 916, 917, 918, 919, 920, 921, 922, 923, 924, 925, 926, 927, 928, 929, 930, 931, 932, 933, 934, 935, 936, 937, 938, 939, 940, 941, 942, 943, 944, 945, 946, 947, 948, 949, 950, 951, 952, 953, 954, 955, 956, 957, 958, 959, 960, 961, 962, 963, 964, 965, 966, 967, 968, 969, 970, 971, 972, 973, 974, 975, 976, 977, 978, 979, 980, 981, 982, 983, 984, 985, 986, 987, 988, 989, 990, 991, 992, 993, 994, 995, 996, 997, 998, 999, 1000, 1001, 1002, 1003, 1004, 1005, 1006, 1007, 1008, 1009, 1010, 1011, 1012, 1013, 1014, 1015, 1016, 1017, 1018, 1019, 1020, 1021, 1022, 1023, 1024, 1025, 1026, 1027, 1028, 1029, 1030, 1031, 1032, 1033, 1034, 1035, 1036, 1037, 1038, 1039, 1040, 1041, 1042, 1043, 1044, 1045, 1046, 1047, 1048, 1049, 1050, 1051, 1052, 1053, 1054, 1055, 1056, 1057, 1058, 1059, 1060, 1061, 1062, 1063, 1064, 1065],
      "AcquisitionTime": ["201254.622500", "201255.082500", "201255.542500", "201256.002500", "201256.462500", "201256.922500", "201257.382500", "201257.842500", "201258.302500", "201258.762500", "201259.222500", "201259.682500", "201300.142500", "201300.602500", "201301.062500", "201301.522500", "201301.982500", "201302.442500", "201302.902500", "201303.362500", "201303.822500", "201304.282500", "201304.742500", "201305.202500", "201305.662500", "201306.122500", "201306.582500", "201307.042500", "201307.502500", "201307.962500", "201308.422500", "201308.882500", "201309.342500", "201309.802500", "201310.262500", "201310.722500", "201311.182500", "201311.642500", "201312.102500", "201312.562500", "201313.022500", "201313.482500", "201313.942500", "201314.402500", "201314.862500", "201315.322500", "201315.782500", "201316.242500", "201316.702500", "201317.162500", "201317.622500", "201318.082500", "201318.542500", "201319.002500", "201319.462500", "201319.922500", "201320.382500", "201320.842500", "201321.302500", "201321.762500", "201322.222500", "201322.682500", "201323.142500", "201323.602500", "201324.062500", "201324.522500", "201324.982500", "201325.442500", "201325.902500", "201326.362500", "201326.822500", "201327.282500", "201327.742500", "201328.202500", "201328.662500", "201329.122500", "201329.582500", "201330.042500", "201330.502500", "201330.962500", "201331.422500", "201331.882500", "201332.342500", "201332.802500", "201333.262500", "201333.722500", "201334.182500", "201334.642500", "201335.102500", "201335.562500", "201336.022500", "201336.482500", "201336.942500", "201337.402500", "201337.862500", "201338.322500", "201338.782500", "201339.242500", "201339.702500", "201340.162500", "201340.622500", "201341.082500", "201341.542500", "201342.002500", "201342.462500", "201342.922500", "201343.382500", "201343.842500", "201344.302500", "201344.762500", "201345.222500", "201345.682500", "201346.142500", "201346.602500", "201347.062500", "201347.522500", "201347.982500", "201348.442500", "201348.902500", "201349.362500", "201349.822500", "201350.282500", "201350.742500", "201351.202500", "201351.662500", "201352.122500", "201352.582500", "201353.042500", "201353.502500", "201353.962500", "201354.422500", "201354.882500", "201355.342500", "201355.802500", "201356.262500", "201356.722500", "201357.182500", "201357.642500", "201358.102500", "201358.562500", "201359.022500", "201359.482500", "201359.942500", "201400.402500", "201400.862500", "201401.322500", "201401.782500", "201402.242500", "201402.702500", "201403.162500", "201403.622500", "201404.082500", "201404.542500", "201405.002500", "201405.462500", "201405.922500", "201406.382500", "201406.842500", "201407.302500", "201407.762500", "201408.222500", "201408.682500", "201409.142500", "201409.602500", "201410.062500", "201410.522500", "201410.982500", "201411.442500", "201411.902500", "201412.362500", "201412.822500", "201413.282500", "201413.742500", "201414.202500", "201414.662500", "201415.122500", "201415.582500", "201416.042500", "201416.502500", "201416.962500", "201417.422500", "201417.882500", "201418.342500", "201418.802500", "201419.262500", "201419.722500", "201420.182500", "201420.642500", "201421.102500", "201421.562500", "201422.022500", "201422.482500", "201422.942500", "201423.402500", "201423.862500", "201424.322500", "201424.782500", "201425.242500", "201425.702500", "201426.162500", "201426.622500", "201427.082500", "201427.542500", "201428.002500", "201428.462500", "201428.922500", "201429.382500", "201429.842500", "201430.302500", "201430.762500", "201431.222500", "201431.682500", "201432.142500", "201432.602500", "201433.062500", "201433.522500", "201433.982500", "201434.442500", "201434.902500", "201435.362500", "201435.822500", "201436.282500", "201436.742500", "201437.202500", "201437.662500", "201438.122500", "201438.582500", "201439.042500", "201439.502500", "201439.962500", "201440.422500", "201440.882500", "201441.342500", "201441.802500", "201442.262500", "201442.722500", "201443.182500", "201443.642500", "201444.102500", "201444.562500", "201445.022500", "201445.482500", "201445.942500", "201446.402500", "201446.862500", "201447.322500", "201447.782500", "201448.242500", "201448.702500", "201449.162500", "201449.622500", "201450.082500", "201450.542500", "201451.002500", "201451.462500", "201451.922500", "201452.382500", "201452.842500", "201453.302500", "201453.762500", "201454.222500", "201454.682500", "201455.142500", "201455.602500", "201456.062500", "201456.522500", "201456.982500", "201457.442500", "201457.902500", "201458.362500", "201458.822500", "201459.282500", "201459.742500", "201500.202500", "201500.662500", "201501.122500", "201501.582500", "201502.042500", "201502.502500", "201502.962500", "201503.422500", "201503.882500", "201504.342500", "201504.802500", "201505.262500", "201505.722500", "201506.182500", "201506.642500", "201507.102500", "201507.562500", "201508.022500", "201508.482500", "201508.942500", "201509.402500", "201509.862500", "201510.322500", "201510.782500", "201511.242500", "201511.702500", "201512.162500", "201512.622500", "201513.082500", "201513.542500", "201514.002500", "201514.462500", "201514.922500", "201515.382500", "201515.842500", "201516.302500", "201516.762500", "201517.222500", "201517.682500", "201518.142500", "201518.602500", "201519.062500", "201519.522500", "201519.982500", "201520.442500", "201520.902500", "201521.362500", "201521.822500", "201522.282500", "201522.742500", "201523.202500", "201523.662500", "201524.122500", "201524.582500", "201525.042500", "201525.502500", "201525.962500", "201526.422500", "201526.882500", "201527.342500", "201527.802500", "201528.262500", "201528.722500", "201529.182500", "201529.642500", "201530.102500", "201530.562500", "201531.022500", "201531.482500", "201531.942500", "201532.402500", "201532.862500", "201533.322500", "201533.782500", "201534.242500", "201534.702500", "201535.162500", "201535.622500", "201536.082500", "201536.542500", "201537.002500", "201537.462500", "201537.922500", "201538.382500", "201538.842500", "201539.302500", "201539.762500", "201540.222500", "201540.682500", "201541.142500", "201541.602500", "201542.062500", "201542.522500", "201542.982500", "201543.442500", "201543.902500", "201544.362500", "201544.822500", "201545.282500", "201545.742500", "201546.202500", "201546.662500", "201547.122500", "201547.582500", "201548.042500", "201548.502500", "201548.962500", "201549.422500", "201549.882500", "201550.342500", "201550.802500", "201551.262500", "201551.722500", "201552.182500", "201552.642500", "201553.102500", "201553.562500", "201554.022500", "201554.482500", "201554.942500", "201555.402500", "201555.862500", "201556.322500", "201556.782500", "201557.242500", "201557.702500", "201558.162500", "201558.622500", "201559.082500", "201559.542500", "201600.002500", "201600.462500", "201600.922500", "201601.382500", "201601.842500", "201602.302500", "201602.762500", "201603.222500", "201603.682500", "201604.142500", "201604.602500", "201605.062500", "201605.522500", "201605.982500", "201606.442500", "201606.902500", "201607.362500", "201607.822500", "201608.282500", "201608.742500", "201609.202500", "201609.662500", "201610.122500", "201610.582500", "201611.042500", "201611.502500", "201611.962500", "201612.422500", "201612.882500", "201613.342500", "201613.802500", "201614.262500", "201614.722500", "201615.182500", "201615.642500", "201616.102500", "201616.562500", "201617.022500", "201617.482500", "201617.942500", "201618.402500", "201618.862500", "201619.322500", "201619.782500", "201620.242500", "201620.702500", "201621.162500", "201621.622500", "201622.082500", "201622.542500", "201623.002500", "201623.462500", "201623.922500", "201624.382500", "201624.842500", "201625.302500", "201625.762500", "201626.222500", "201626.682500", "201627.142500", "201627.602500", "201628.062500", "201628.522500", "201628.982500", "201629.442500", "201629.902500", "201630.362500", "201630.822500", "201631.282500", "201631.742500", "201632.202500", "201632.662500", "201633.122500", "201633.582500", "201634.042500", "201634.502500", "201634.962500", "201635.422500", "201635.882500", "201636.342500", "201636.802500", "201637.262500", "201637.722500", "201638.182500", "201638.642500", "201639.102500", "201639.562500", "201640.022500", "201640.482500", "201640.942500", "201641.402500", "201641.862500", "201642.322500", "201642.782500", "201643.242500", "201643.702500", "201644.162500", "201644.622500", "201645.082500", "201645.542500", "201646.002500", "201646.462500", "201646.922500", "201647.382500", "201647.842500", "201648.302500", "201648.762500", "201649.222500", "201649.682500", "201650.142500", "201650.602500", "201651.062500", "201651.522500", "201651.982500", "201652.442500", "201652.902500", "201653.362500", "201653.822500", "201654.282500", "201654.742500", "201655.202500", "201655.662500", "201656.122500", "201656.582500", "201657.042500", "201657.502500", "201657.962500", "201658.422500", "201658.882500", "201659.342500", "201659.802500", "201700.262500", "201700.722500", "201701.182500", "201701.642500", "201702.102500", "201702.562500", "201703.022500", "201703.482500", "201703.942500", "201704.402500", "201704.862500", "201705.322500", "201705.782500", "201706.242500", "201706.702500", "201707.162500", "201707.622500", "201708.082500", "201708.542500", "201709.002500", "201709.462500", "201709.922500", "201710.382500", "201710.842500", "201711.302500", "201711.762500", "201712.222500", "201712.682500", "201713.142500", "201713.602500", "201714.062500", "201714.522500", "201714.982500", "201715.442500", "201715.902500", "201716.362500", "201716.822500", "201717.282500", "201717.742500", "201718.202500", "201718.662500", "201719.122500", "201719.582500", "201720.042500", "201720.502500", "201720.962500", "201721.422500", "201721.882500", "201722.342500", "201722.802500", "201723.262500", "201723.722500", "201724.182500", "201724.642500", "201725.102500", "201725.562500", "201726.022500", "201726.482500", "201726.942500", "201727.402500", "201727.862500", "201728.322500", "201728.782500", "201729.242500", "201729.702500", "201730.162500", "201730.622500", "201731.082500", "201731.542500", "201732.002500", "201732.462500", "201732.922500", "201733.382500", "201733.842500", "201734.302500", "201734.762500", "201735.222500", "201735.682500", "201736.142500", "201736.602500", "201737.062500", "201737.522500", "201737.982500", "201738.442500", "201738.902500", "201739.362500", "201739.822500", "201740.282500", "201740.742500", "201741.202500", "201741.662500", "201742.122500", "201742.582500", "201743.042500", "201743.502500", "201743.962500", "201744.422500", "201744.882500", "201745.342500", "201745.802500", "201746.262500", "201746.722500", "201747.182500", "201747.642500", "201748.102500", "201748.562500", "201749.022500", "201749.482500", "201749.942500", "201750.402500", "201750.862500", "201751.322500", "201751.782500", "201752.242500", "201752.702500", "201753.162500", "201753.622500", "201754.082500", "201754.542500", "201755.002500", "201755.462500", "201755.922500", "201756.382500", "201756.842500", "201757.302500", "201757.762500", "201758.222500", "201758.682500", "201759.142500", "201759.602500", "201800.062500", "201800.522500", "201800.982500", "201801.442500", "201801.902500", "201802.362500", "201802.822500", "201803.282500", "201803.742500", "201804.202500", "201804.662500", "201805.122500", "201805.582500", "201806.042500", "201806.502500", "201806.962500", "201807.422500", "201807.882500", "201808.342500", "201808.802500", "201809.262500", "201809.722500", "201810.182500", "201810.642500", "201811.102500", "201811.562500", "201812.022500", "201812.482500", "201812.942500", "201813.402500", "201813.862500", "201814.322500", "201814.782500", "201815.242500", "201815.702500", "201816.162500", "201816.622500", "201817.082500", "201817.542500", "201818.002500", "201818.462500", "201818.922500", "201819.382500", "201819.842500", "201820.302500", "201820.762500", "201821.222500", "201821.682500", "201822.142500", "201822.602500", "201823.062500", "201823.522500", "201823.982500", "201824.442500", "201824.902500", "201825.362500", "201825.822500", "201826.282500", "201826.742500", "201827.202500", "201827.662500", "201828.122500", "201828.582500", "201829.042500", "201829.502500", "201829.962500", "201830.422500", "201830.882500", "201831.342500", "201831.802500", "201832.262500", "201832.722500", "201833.182500", "201833.642500", "201834.102500", "201834.562500", "201835.022500", "201835.482500", "201835.942500", "201836.402500", "201836.862500", "201837.322500", "201837.782500", "201838.242500", "201838.702500", "201839.162500", "201839.622500", "201840.082500", "201840.542500", "201841.002500", "201841.462500", "201841.922500", "201842.382500", "201842.842500", "201843.302500", "201843.762500", "201844.222500", "201844.682500", "201845.142500", "201845.602500", "201846.062500", "201846.522500", "201846.982500", "201847.442500", "201847.902500", "201848.362500", "201848.822500", "201849.282500", "201849.742500", "201850.202500", "201850.662500", "201851.122500", "201851.582500", "201852.042500", "201852.502500", "201852.962500", "201853.422500", "201853.882500", "201854.342500", "201854.802500", "201855.262500", "201855.722500", "201856.182500", "201856.642500", "201857.102500", "201857.562500", "201858.022500", "201858.482500", "201858.942500", "201859.402500", "201859.862500", "201900.322500", "201900.782500", "201901.242500", "201901.702500", "201902.162500", "201902.622500", "201903.082500", "201903.542500", "201904.002500", "201904.462500", "201904.922500", "201905.382500", "201905.842500", "201906.302500", "201906.762500", "201907.222500", "201907.682500", "201908.142500", "201908.602500", "201909.062500", "201909.522500", "201909.982500", "201910.442500", "201910.902500", "201911.362500", "201911.822500", "201912.282500", "201912.742500", "201913.202500", "201913.662500", "201914.122500", "201914.582500", "201915.042500", "201915.502500", "201915.962500", "201916.422500", "201916.882500", "201917.342500", "201917.802500", "201918.262500", "201918.722500", "201919.182500", "201919.642500", "201920.102500", "201920.562500", "201921.022500", "201921.482500", "201921.942500", "201922.402500", "201922.862500", "201923.322500", "201923.782500", "201924.242500", "201924.702500", "201925.162500", "201925.622500", "201926.082500", "201926.542500", "201927.002500", "201927.462500", "201927.922500", "201928.382500", "201928.842500", "201929.302500", "201929.762500", "201930.222500", "201930.682500", "201931.142500", "201931.602500", "201932.062500", "201932.522500", "201932.982500", "201933.442500", "201933.902500", "201934.362500", "201934.822500", "201935.282500", "201935.742500", "201936.202500", "201936.662500", "201937.122500", "201937.582500", "201938.042500", "201938.502500", "201938.962500", "201939.422500", "201939.882500", "201940.342500", "201940.802500", "201941.262500", "201941.722500", "201942.182500", "201942.642500", "201943.102500", "201943.562500", "201944.022500", "201944.482500", "201944.942500", "201945.402500", "201945.862500", "201946.322500", "201946.782500", "201947.242500", "201947.702500", "201948.162500", "201948.622500", "201949.082500", "201949.542500", "201950.002500", "201950.462500", "201950.922500", "201951.382500", "201951.842500", "201952.302500", "201952.762500", "201953.222500", "201953.682500", "201954.142500", "201954.602500", "201955.062500", "201955.522500", "201955.982500", "201956.442500", "201956.902500", "201957.362500", "201957.822500", "201958.282500", "201958.742500", "201959.202500", "201959.662500", "202000.122500", "202000.582500", "202001.042500", "202001.502500", "202001.962500", "202002.422500", "202002.882500", "202003.342500", "202003.802500", "202004.262500", "202004.722500", "202005.182500", "202005.642500", "202006.102500", "202006.562500", "202007.022500", "202007.482500", "202007.942500", "202008.402500", "202008.862500", "202009.322500", "202009.782500", "202010.242500", "202010.702500", "202011.162500", "202011.622500", "202012.082500", "202012.542500", "202013.002500", "202013.462500", "202013.922500", "202014.382500", "202014.842500", "202015.302500", "202015.762500", "202016.222500", "202016.682500", "202017.142500", "202017.602500", "202018.062500", "202018.522500", "202018.982500", "202019.442500", "202019.902500", "202020.362500", "202020.822500", "202021.282500", "202021.742500", "202022.202500", "202022.662500", "202023.122500", "202023.582500", "202024.042500", "202024.502500", "202024.962500", "202025.422500", "202025.882500", "202026.342500", "202026.802500", "202027.262500", "202027.722500", "202028.182500", "202028.642500", "202029.102500", "202029.562500", "202030.022500", "202030.482500", "202030.942500", "202031.402500", "202031.862500", "202032.322500", "202032.782500", "202033.242500", "202033.702500", "202034.162500", "202034.622500", "202035.082500", "202035.542500", "202036.002500", "202036.462500", "202036.922500", "202037.382500", "202037.842500", "202038.302500", "202038.762500", "202039.222500", "202039.682500", "202040.142500", "202040.602500", "202041.062500", "202041.522500", "202041.982500", "202042.442500", "202042.902500", "202043.362500", "202043.822500", "202044.282500", "202044.742500", "202045.202500", "202045.662500", "202046.122500", "202046.582500", "202047.042500", "202047.502500", "202047.962500", "202048.422500", "202048.882500", "202049.342500", "202049.802500", "202050.262500", "202050.722500", "202051.182500", "202051.642500", "202052.102500", "202052.562500", "202053.022500", "202053.482500", "202053.942500", "202054.402500", "202054.862500", "202055.322500", "202055.782500", "202056.242500", "202056.702500", "202057.162500", "202057.622500", "202058.082500", "202058.542500", "202059.002500", "202059.462500", "202059.922500", "202100.382500", "202100.842500", "202101.302500", "202101.762500", "202102.222500", "202102.682500", "202103.142500", "202103.602500", "202104.062500"],
