{
  "AcquisitionMatrixPE": 82,
  "AcquisitionNumber": 1,
  "AcquisitionTime": "19:12:55.072500",
  "BandwidthPerPixelPhaseEncode": 24.888,
  "BaseResolution": 82,
  "BodyPartExamined": "BRAIN",
  "ConsistencyInfo": "N4_VE11E_LATEST_20181129",
  "ConversionSoftware": "dcm2niix",
  "ConversionSoftwareVersion": "v1.0.20201102",
  "DerivedVendorReportedEchoSpacing": 0.00049,
  "DeviceSerialNumber": "66112",
  "DwellTime": 2e-06,
  "EchoTime": 0.0272,
  "EchoTrainLength": 82,
  "EffectiveEchoSpacing": 0.00049,
  "FlipAngle": 44,
  "ImageComments": "Unaliased MB8/PE3",
  "ImageOrientationPatientDICOM": [0.998995, 0.00472661, 0.0445807, -0.0137751, 0.978682, 0.204918],
  "ImageType": [
    "ORIGINAL",
    "PRIMARY",
    "M",
    "MB",
    "ND",
    "NORM",
    "MOSAIC"
],
  "ImagingFrequency": 123.252,
  "InPlanePhaseEncodingDirectionDICOM": "COL",
  "InstitutionAddress": "Maynard 3,Hanover,NH,US,03755",
  "InstitutionName": "Dartmouth College - PBS",
  "InstitutionalDepartmentName": "Department",
  "MRAcquisitionType": "2D",
  "MagneticFieldStrength": 3,
  "Manufacturer": "Siemens",
  "ManufacturersModelName": "Prisma",
  "Modality": "MR",
  "MultibandAccelerationFactor": 8,
  "PartialFourier": 1,
  "PatientPosition": "HFS",
  "PercentPhaseFOV": 100,
  "PercentSampling": 100,
  "PhaseEncodingDirection": "j-",
  "PhaseEncodingSteps": 82,
  "PhaseResolution": 1,
  "PixelBandwidth": 3050,
  "ProcedureStepDescription": "Wager_Wager^1076_spacetop",
  "ProtocolName": "func_run-04_task-social_acq-ap-mb8",
  "PulseSequenceDetails": "%CustomerSeq%\\cmrr_mbep2d_bold",
  "ReceiveCoilActiveElements": "HEA;HEP",
  "ReceiveCoilName": "Head_32",
  "ReconMatrixPE": 82,
  "RepetitionTime": 0.46,
  "SAR": 0.0937563,
  "ScanOptions": "FS",
  "ScanningSequence": "EP",
  "SequenceName": "epfid2d1_82",
  "SequenceVariant": "SK\\SS",
  "SeriesDescription": "func_run-04_task-social_acq-ap-mb8",
  "SeriesNumber": 14,
  "ShimSetting": [4160, -7789, -7230, 645, -57, -254, 69, 86],
  "SliceThickness": 2.7,
  "SliceTiming": [0, 0.25, 0.0625, 0.315, 0.125, 0.3775, 0.1875, 0, 0.25, 0.0625, 0.315, 0.125, 0.3775, 0.1875, 0, 0.25, 0.0625, 0.315, 0.125, 0.3775, 0.1875, 0, 0.25, 0.0625, 0.315, 0.125, 0.3775, 0.1875, 0, 0.25, 0.0625, 0.315, 0.125, 0.3775, 0.1875, 0, 0.25, 0.0625, 0.315, 0.125, 0.3775, 0.1875, 0, 0.25, 0.0625, 0.315, 0.125, 0.3775, 0.1875, 0, 0.25, 0.0625, 0.315, 0.125, 0.3775, 0.1875],
  "SoftwareVersions": "syngo MR E11",
  "SpacingBetweenSlices": 2.7,
  "StationName": "AWP66112",
  "TaskName": "social",
  "TotalReadoutTime": 0.03969,
  "TxRefAmp": 235.456,
  "WipMemBlock": "784e864e-3b2d-47dd-8a77-401bcd4620e5||Sequence: R016 ve11e/master r/434b28f1; Aug  7 2019 18:53:46 by eja",
  "dcmmeta_affine": [
    [-2.680229425430298, -0.03695761039853096, 0.11518687009811401, 112.1882095336914],
    [-0.012681144289672375, 2.625732660293579, 0.5543814301490784, -108.82860565185547],
    [0.1196068674325943, -0.5497810244560242, 2.639960765838623, -32.2681884765625],
    [0.0, 0.0, 0.0, 1.0]
],
  "dcmmeta_reorient_transform": [
    [0.0, -1.0, 0.0, 81.0],
    [1.0, 0.0, 0.0, 0.0],
    [0.0, 0.0, 1.0, 0.0],
    [0.0, 0.0, 0.0, 1.0]
],
  "dcmmeta_shape": [82, 82, 56, 872],
  "dcmmeta_slice_dim": 2,
  "dcmmeta_version": 0.6,
  "global": {
    "const": {
      "AccessionNumber": "A004054",
      "AcquisitionMatrix": [82, 0, 0, 82],
      "AngioFlag": "N",
      "BitsAllocated": 16,
      "BitsStored": 16,
      "BodyPartExamined": "BRAIN",
      "Columns": 656,
      "EchoNumbers": 1,
      "EchoTime": 27.2,
      "EchoTrainLength": 82,
      "FlipAngle": 44.0,
      "HighBit": 15,
      "ImageOrientationPatient": [0.99899460301503, 0.00472660818468, 0.04458073936035, -0.0137751095814, 0.97868212467218, 0.20491838668888],
      "ImagePositionPatient": [-867.81366948448, -861.08047546712, -268.91478501666],
      "ImageType": [
        "ORIGINAL",
        "PRIMARY",
        "M",
        "MB",
        "ND",
        "NORM",
        "MOSAIC"
],
      "ImagedNucleus": "1H",
      "ImagingFrequency": 123.25216,
      "InPlanePhaseEncodingDirection": "COL",
      "MRAcquisitionType": "2D",
      "MagneticFieldStrength": 3.0,
      "Manufacturer": "SIEMENS",
      "ManufacturerModelName": "Prisma",
      "Modality": "MR",
      "NumberOfAverages": 1.0,
      "NumberOfPhaseEncodingSteps": 82,
      "PercentPhaseFieldOfView": 100.0,
      "PercentSampling": 100.0,
      "PerformedProcedureStepStartTime": "182105.699000",
      "PhotometricInterpretation": "MONOCHROME2",
      "PixelBandwidth": 3050.0,
      "PixelRepresentation": 0,
      "PixelSpacing": [2.6829268932343, 2.6829268932343],
      "ProtocolName": "func_run-04_task-social_acq-ap-mb8",
      "RepetitionTime": 460.0,
      "Rows": 656,
      "SAR": 0.09375626448961,
      "SamplesPerPixel": 1,
      "ScanOptions": "FS",
      "ScanningSequence": "EP",
      "SequenceName": "epfid2d1_82",
      "SequenceVariant": [
        "SK",
        "SS"
],
      "SeriesDescription": "func_run-04_task-social_acq-ap-mb8",
      "SeriesNumber": 14,
      "SeriesTime": "191317.805000",
      "SliceLocation": -49.109891325402,
      "SliceThickness": 2.7000000476837,
      "SmallestImagePixelValue": 0,
      "SoftwareVersions": "syngo MR E11",
      "SpacingBetweenSlices": 2.699999932369,
      "SpecificCharacterSet": "ISO_IR 100",
      "StudyID": "3",
      "StudyTime": "182105.624000",
      "TransmitCoilName": "Body",
      "VariableFlipAngleFlag": "N",
      "WindowCenterWidthExplanation": "Algo1"
    },
    "slices": {}
  },
  "time": {
    "samples": {
      "AcquisitionNumber": [1, 2, 3, 4, 5, 6, 7, 8, 9, 10, 11, 12, 13, 14, 15, 16, 17, 18, 19, 20, 21, 22, 23, 24, 25, 26, 27, 28, 29, 30, 31, 32, 33, 34, 35, 36, 37, 38, 39, 40, 41, 42, 43, 44, 45, 46, 47, 48, 49, 50, 51, 52, 53, 54, 55, 56, 57, 58, 59, 60, 61, 62, 63, 64, 65, 66, 67, 68, 69, 70, 71, 72, 73, 74, 75, 76, 77, 78, 79, 80, 81, 82, 83, 84, 85, 86, 87, 88, 89, 90, 91, 92, 93, 94, 95, 96, 97, 98, 99, 100, 101, 102, 103, 104, 105, 106, 107, 108, 109, 110, 111, 112, 113, 114, 115, 116, 117, 118, 119, 120, 121, 122, 123, 124, 125, 126, 127, 128, 129, 130, 131, 132, 133, 134, 135, 136, 137, 138, 139, 140, 141, 142, 143, 144, 145, 146, 147, 148, 149, 150, 151, 152, 153, 154, 155, 156, 157, 158, 159, 160, 161, 162, 163, 164, 165, 166, 167, 168, 169, 170, 171, 172, 173, 174, 175, 176, 177, 178, 179, 180, 181, 182, 183, 184, 185, 186, 187, 188, 189, 190, 191, 192, 193, 194, 195, 196, 197, 198, 199, 200, 201, 202, 203, 204, 205, 206, 207, 208, 209, 210, 211, 212, 213, 214, 215, 216, 217, 218, 219, 220, 221, 222, 223, 224, 225, 226, 227, 228, 229, 230, 231, 232, 233, 234, 235, 236, 237, 238, 239, 240, 241, 242, 243, 244, 245, 246, 247, 248, 249, 250, 251, 252, 253, 254, 255, 256, 257, 258, 259, 260, 261, 262, 263, 264, 265, 266, 267, 268, 269, 270, 271, 272, 273, 274, 275, 276, 277, 278, 279, 280, 281, 282, 283, 284, 285, 286, 287, 288, 289, 290, 291, 292, 293, 294, 295, 296, 297, 298, 299, 300, 301, 302, 303, 304, 305, 306, 307, 308, 309, 310, 311, 312, 313, 314, 315, 316, 317, 318, 319, 320, 321, 322, 323, 324, 325, 326, 327, 328, 329, 330, 331, 332, 333, 334, 335, 336, 337, 338, 339, 340, 341, 342, 343, 344, 345, 346, 347, 348, 349, 350, 351, 352, 353, 354, 355, 356, 357, 358, 359, 360, 361, 362, 363, 364, 365, 366, 367, 368, 369, 370, 371, 372, 373, 374, 375, 376, 377, 378, 379, 380, 381, 382, 383, 384, 385, 386, 387, 388, 389, 390, 391, 392, 393, 394, 395, 396, 397, 398, 399, 400, 401, 402, 403, 404, 405, 406, 407, 408, 409, 410, 411, 412, 413, 414, 415, 416, 417, 418, 419, 420, 421, 422, 423, 424, 425, 426, 427, 428, 429, 430, 431, 432, 433, 434, 435, 436, 437, 438, 439, 440, 441, 442, 443, 444, 445, 446, 447, 448, 449, 450, 451, 452, 453, 454, 455, 456, 457, 458, 459, 460, 461, 462, 463, 464, 465, 466, 467, 468, 469, 470, 471, 472, 473, 474, 475, 476, 477, 478, 479, 480, 481, 482, 483, 484, 485, 486, 487, 488, 489, 490, 491, 492, 493, 494, 495, 496, 497, 498, 499, 500, 501, 502, 503, 504, 505, 506, 507, 508, 509, 510, 511, 512, 513, 514, 515, 516, 517, 518, 519, 520, 521, 522, 523, 524, 525, 526, 527, 528, 529, 530, 531, 532, 533, 534, 535, 536, 537, 538, 539, 540, 541, 542, 543, 544, 545, 546, 547, 548, 549, 550, 551, 552, 553, 554, 555, 556, 557, 558, 559, 560, 561, 562, 563, 564, 565, 566, 567, 568, 569, 570, 571, 572, 573, 574, 575, 576, 577, 578, 579, 580, 581, 582, 583, 584, 585, 586, 587, 588, 589, 590, 591, 592, 593, 594, 595, 596, 597, 598, 599, 600, 601, 602, 603, 604, 605, 606, 607, 608, 609, 610, 611, 612, 613, 614, 615, 616, 617, 618, 619, 620, 621, 622, 623, 624, 625, 626, 627, 628, 629, 630, 631, 632, 633, 634, 635, 636, 637, 638, 639, 640, 641, 642, 643, 644, 645, 646, 647, 648, 649, 650, 651, 652, 653, 654, 655, 656, 657, 658, 659, 660, 661, 662, 663, 664, 665, 666, 667, 668, 669, 670, 671, 672, 673, 674, 675, 676, 677, 678, 679, 680, 681, 682, 683, 684, 685, 686, 687, 688, 689, 690, 691, 692, 693, 694, 695, 696, 697, 698, 699, 700, 701, 702, 703, 704, 705, 706, 707, 708, 709, 710, 711, 712, 713, 714, 715, 716, 717, 718, 719, 720, 721, 722, 723, 724, 725, 726, 727, 728, 729, 730, 731, 732, 733, 734, 735, 736, 737, 738, 739, 740, 741, 742, 743, 744, 745, 746, 747, 748, 749, 750, 751, 752, 753, 754, 755, 756, 757, 758, 759, 760, 761, 762, 763, 764, 765, 766, 767, 768, 769, 770, 771, 772, 773, 774, 775, 776, 777, 778, 779, 780, 781, 782, 783, 784, 785, 786, 787, 788, 789, 790, 791, 792, 793, 794, 795, 796, 797, 798, 799, 800, 801, 802, 803, 804, 805, 806, 807, 808, 809, 810, 811, 812, 813, 814, 815, 816, 817, 818, 819, 820, 821, 822, 823, 824, 825, 826, 827, 828, 829, 830, 831, 832, 833, 834, 835, 836, 837, 838, 839, 840, 841, 842, 843, 844, 845, 846, 847, 848, 849, 850, 851, 852, 853, 854, 855, 856, 857, 858, 859, 860, 861, 862, 863, 864, 865, 866, 867, 868, 869, 870, 871, 872],
      "AcquisitionTime": ["191255.072500", "191255.532500", "191255.992500", "191256.452500", "191256.912500", "191257.372500", "191257.832500", "191258.292500", "191258.752500", "191259.212500", "191259.672500", "191300.132500", "191300.592500", "191301.052500", "191301.512500", "191301.972500", "191302.432500", "191302.892500", "191303.352500", "191303.812500", "191304.272500", "191304.732500", "191305.192500", "191305.652500", "191306.112500", "191306.572500", "191307.032500", "191307.492500", "191307.952500", "191308.412500", "191308.872500", "191309.332500", "191309.792500", "191310.252500", "191310.712500", "191311.172500", "191311.632500", "191312.092500", "191312.552500", "191313.012500", "191313.472500", "191313.932500", "191314.392500", "191314.852500", "191315.312500", "191315.772500", "191316.232500", "191316.692500", "191317.152500", "191317.612500", "191318.072500", "191318.532500", "191318.992500", "191319.452500", "191319.912500", "191320.372500", "191320.832500", "191321.292500", "191321.752500", "191322.212500", "191322.672500", "191323.132500", "191323.592500", "191324.052500", "191324.512500", "191324.972500", "191325.432500", "191325.892500", "191326.352500", "191326.812500", "191327.272500", "191327.732500", "191328.192500", "191328.652500", "191329.112500", "191329.572500", "191330.032500", "191330.492500", "191330.952500", "191331.412500", "191331.872500", "191332.332500", "191332.792500", "191333.252500", "191333.712500", "191334.172500", "191334.632500", "191335.092500", "191335.552500", "191336.012500", "191336.472500", "191336.932500", "191337.392500", "191337.852500", "191338.312500", "191338.772500", "191339.232500", "191339.692500", "191340.152500", "191340.612500", "191341.072500", "191341.532500", "191341.992500", "191342.452500", "191342.912500", "191343.372500", "191343.832500", "191344.292500", "191344.752500", "191345.212500", "191345.672500", "191346.132500", "191346.592500", "191347.052500", "191347.512500", "191347.972500", "191348.432500", "191348.892500", "191349.352500", "191349.812500", "191350.272500", "191350.732500", "191351.192500", "191351.652500", "191352.112500", "191352.572500", "191353.032500", "191353.492500", "191353.952500", "191354.412500", "191354.872500", "191355.332500", "191355.792500", "191356.252500", "191356.712500", "191357.172500", "191357.632500", "191358.092500", "191358.552500", "191359.012500", "191359.472500", "191359.932500", "191400.392500", "191400.852500", "191401.312500", "191401.772500", "191402.232500", "191402.692500", "191403.152500", "191403.612500", "191404.072500", "191404.532500", "191404.992500", "191405.452500", "191405.912500", "191406.372500", "191406.832500", "191407.292500", "191407.752500", "191408.212500", "191408.672500", "191409.132500", "191409.592500", "191410.052500", "191410.512500", "191410.972500", "191411.432500", "191411.892500", "191412.352500", "191412.812500", "191413.272500", "191413.732500", "191414.192500", "191414.652500", "191415.112500", "191415.572500", "191416.032500", "191416.492500", "191416.952500", "191417.412500", "191417.872500", "191418.332500", "191418.792500", "191419.252500", "191419.712500", "191420.172500", "191420.632500", "191421.092500", "191421.552500", "191422.012500", "191422.472500", "191422.932500", "191423.392500", "191423.852500", "191424.312500", "191424.772500", "191425.232500", "191425.692500", "191426.152500", "191426.612500", "191427.072500", "191427.532500", "191427.992500", "191428.452500", "191428.912500", "191429.372500", "191429.832500", "191430.292500", "191430.752500", "191431.212500", "191431.672500", "191432.132500", "191432.592500", "191433.052500", "191433.512500", "191433.972500", "191434.432500", "191434.892500", "191435.352500", "191435.812500", "191436.272500", "191436.732500", "191437.192500", "191437.652500", "191438.112500", "191438.572500", "191439.032500", "191439.492500", "191439.952500", "191440.412500", "191440.872500", "191441.332500", "191441.792500", "191442.252500", "191442.712500", "191443.172500", "191443.632500", "191444.092500", "191444.552500", "191445.012500", "191445.472500", "191445.932500", "191446.392500", "191446.852500", "191447.312500", "191447.772500", "191448.232500", "191448.692500", "191449.152500", "191449.612500", "191450.072500", "191450.532500", "191450.992500", "191451.452500", "191451.912500", "191452.372500", "191452.832500", "191453.292500", "191453.752500", "191454.212500", "191454.672500", "191455.132500", "191455.592500", "191456.052500", "191456.512500", "191456.972500", "191457.432500", "191457.892500", "191458.352500", "191458.812500", "191459.272500", "191459.732500", "191500.192500", "191500.652500", "191501.112500", "191501.572500", "191502.032500", "191502.492500", "191502.952500", "191503.412500", "191503.872500", "191504.332500", "191504.792500", "191505.252500", "191505.712500", "191506.172500", "191506.632500", "191507.092500", "191507.552500", "191508.012500", "191508.472500", "191508.932500", "191509.392500", "191509.852500", "191510.312500", "191510.772500", "191511.232500", "191511.692500", "191512.152500", "191512.612500", "191513.072500", "191513.532500", "191513.992500", "191514.452500", "191514.912500", "191515.372500", "191515.832500", "191516.292500", "191516.752500", "191517.212500", "191517.672500", "191518.132500", "191518.592500", "191519.052500", "191519.512500", "191519.972500", "191520.432500", "191520.892500", "191521.352500", "191521.812500", "191522.272500", "191522.732500", "191523.192500", "191523.652500", "191524.112500", "191524.572500", "191525.032500", "191525.492500", "191525.952500", "191526.412500", "191526.872500", "191527.332500", "191527.792500", "191528.252500", "191528.712500", "191529.172500", "191529.632500", "191530.092500", "191530.552500", "191531.012500", "191531.472500", "191531.932500", "191532.392500", "191532.852500", "191533.312500", "191533.772500", "191534.232500", "191534.692500", "191535.152500", "191535.612500", "191536.072500", "191536.532500", "191536.992500", "191537.452500", "191537.912500", "191538.372500", "191538.832500", "191539.292500", "191539.752500", "191540.212500", "191540.672500", "191541.132500", "191541.592500", "191542.052500", "191542.512500", "191542.972500", "191543.432500", "191543.892500", "191544.352500", "191544.812500", "191545.272500", "191545.732500", "191546.192500", "191546.652500", "191547.112500", "191547.572500", "191548.032500", "191548.492500", "191548.952500", "191549.412500", "191549.872500", "191550.332500", "191550.792500", "191551.252500", "191551.712500", "191552.172500", "191552.632500", "191553.092500", "191553.552500", "191554.012500", "191554.472500", "191554.932500", "191555.392500", "191555.852500", "191556.312500", "191556.772500", "191557.232500", "191557.692500", "191558.152500", "191558.612500", "191559.072500", "191559.532500", "191559.992500", "191600.452500", "191600.912500", "191601.372500", "191601.832500", "191602.292500", "191602.752500", "191603.212500", "191603.672500", "191604.132500", "191604.592500", "191605.052500", "191605.512500", "191605.972500", "191606.432500", "191606.892500", "191607.352500", "191607.812500", "191608.272500", "191608.732500", "191609.192500", "191609.652500", "191610.112500", "191610.572500", "191611.032500", "191611.492500", "191611.952500", "191612.412500", "191612.872500", "191613.332500", "191613.792500", "191614.252500", "191614.712500", "191615.172500", "191615.632500", "191616.092500", "191616.552500", "191617.012500", "191617.472500", "191617.932500", "191618.392500", "191618.852500", "191619.312500", "191619.772500", "191620.232500", "191620.692500", "191621.152500", "191621.612500", "191622.072500", "191622.532500", "191622.992500", "191623.452500", "191623.912500", "191624.372500", "191624.832500", "191625.292500", "191625.752500", "191626.212500", "191626.672500", "191627.132500", "191627.592500", "191628.052500", "191628.512500", "191628.972500", "191629.432500", "191629.892500", "191630.352500", "191630.812500", "191631.272500", "191631.732500", "191632.192500", "191632.652500", "191633.112500", "191633.572500", "191634.032500", "191634.492500", "191634.952500", "191635.412500", "191635.872500", "191636.332500", "191636.792500", "191637.252500", "191637.712500", "191638.172500", "191638.632500", "191639.092500", "191639.552500", "191640.012500", "191640.472500", "191640.932500", "191641.392500", "191641.852500", "191642.312500", "191642.772500", "191643.232500", "191643.692500", "191644.152500", "191644.612500", "191645.072500", "191645.532500", "191645.992500", "191646.452500", "191646.912500", "191647.372500", "191647.832500", "191648.292500", "191648.752500", "191649.212500", "191649.672500", "191650.132500", "191650.592500", "191651.052500", "191651.512500", "191651.972500", "191652.432500", "191652.892500", "191653.352500", "191653.812500", "191654.272500", "191654.732500", "191655.192500", "191655.652500", "191656.112500", "191656.572500", "191657.032500", "191657.492500", "191657.952500", "191658.412500", "191658.872500", "191659.332500", "191659.792500", "191700.252500", "191700.712500", "191701.172500", "191701.632500", "191702.092500", "191702.552500", "191703.012500", "191703.472500", "191703.932500", "191704.392500", "191704.852500", "191705.312500", "191705.772500", "191706.232500", "191706.692500", "191707.152500", "191707.612500", "191708.072500", "191708.532500", "191708.992500", "191709.452500", "191709.912500", "191710.372500", "191710.832500", "191711.292500", "191711.752500", "191712.212500", "191712.672500", "191713.132500", "191713.592500", "191714.052500", "191714.512500", "191714.972500", "191715.432500", "191715.892500", "191716.352500", "191716.812500", "191717.272500", "191717.732500", "191718.192500", "191718.652500", "191719.112500", "191719.572500", "191720.032500", "191720.492500", "191720.952500", "191721.412500", "191721.872500", "191722.332500", "191722.792500", "191723.252500", "191723.712500", "191724.172500", "191724.632500", "191725.092500", "191725.552500", "191726.012500", "191726.472500", "191726.932500", "191727.392500", "191727.852500", "191728.312500", "191728.772500", "191729.232500", "191729.692500", "191730.152500", "191730.612500", "191731.072500", "191731.532500", "191731.992500", "191732.452500", "191732.912500", "191733.372500", "191733.832500", "191734.292500", "191734.752500", "191735.212500", "191735.672500", "191736.132500", "191736.592500", "191737.052500", "191737.512500", "191737.972500", "191738.432500", "191738.892500", "191739.352500", "191739.812500", "191740.272500", "191740.732500", "191741.192500", "191741.652500", "191742.112500", "191742.572500", "191743.032500", "191743.492500", "191743.952500", "191744.412500", "191744.872500", "191745.332500", "191745.792500", "191746.252500", "191746.712500", "191747.172500", "191747.632500", "191748.092500", "191748.552500", "191749.012500", "191749.472500", "191749.932500", "191750.392500", "191750.852500", "191751.312500", "191751.772500", "191752.232500", "191752.692500", "191753.152500", "191753.612500", "191754.072500", "191754.532500", "191754.992500", "191755.452500", "191755.912500", "191756.372500", "191756.832500", "191757.292500", "191757.752500", "191758.212500", "191758.672500", "191759.132500", "191759.592500", "191800.052500", "191800.512500", "191800.972500", "191801.432500", "191801.892500", "191802.352500", "191802.812500", "191803.272500", "191803.732500", "191804.192500", "191804.652500", "191805.112500", "191805.572500", "191806.032500", "191806.492500", "191806.952500", "191807.412500", "191807.872500", "191808.332500", "191808.792500", "191809.252500", "191809.712500", "191810.172500", "191810.632500", "191811.092500", "191811.552500", "191812.012500", "191812.472500", "191812.932500", "191813.392500", "191813.852500", "191814.312500", "191814.772500", "191815.232500", "191815.692500", "191816.152500", "191816.612500", "191817.072500", "191817.532500", "191817.992500", "191818.452500", "191818.912500", "191819.372500", "191819.832500", "191820.292500", "191820.752500", "191821.212500", "191821.672500", "191822.132500", "191822.592500", "191823.052500", "191823.512500", "191823.972500", "191824.432500", "191824.892500", "191825.352500", "191825.812500", "191826.272500", "191826.732500", "191827.192500", "191827.652500", "191828.112500", "191828.572500", "191829.032500", "191829.492500", "191829.952500", "191830.412500", "191830.872500", "191831.332500", "191831.792500", "191832.252500", "191832.712500", "191833.172500", "191833.632500", "191834.092500", "191834.552500", "191835.012500", "191835.472500", "191835.932500", "191836.392500", "191836.852500", "191837.312500", "191837.772500", "191838.232500", "191838.692500", "191839.152500", "191839.612500", "191840.072500", "191840.532500", "191840.992500", "191841.452500", "191841.912500", "191842.372500", "191842.832500", "191843.292500", "191843.752500", "191844.212500", "191844.672500", "191845.132500", "191845.592500", "191846.052500", "191846.512500", "191846.972500", "191847.432500", "191847.892500", "191848.352500", "191848.812500", "191849.272500", "191849.732500", "191850.192500", "191850.652500", "191851.112500", "191851.572500", "191852.032500", "191852.492500", "191852.952500", "191853.412500", "191853.872500", "191854.332500", "191854.792500", "191855.252500", "191855.712500", "191856.172500", "191856.632500", "191857.092500", "191857.552500", "191858.012500", "191858.472500", "191858.932500", "191859.392500", "191859.852500", "191900.312500", "191900.772500", "191901.232500", "191901.692500", "191902.152500", "191902.612500", "191903.072500", "191903.532500", "191903.992500", "191904.452500", "191904.912500", "191905.372500", "191905.832500", "191906.292500", "191906.752500", "191907.212500", "191907.672500", "191908.132500", "191908.592500", "191909.052500", "191909.512500", "191909.972500", "191910.432500", "191910.892500", "191911.352500", "191911.812500", "191912.272500", "191912.732500", "191913.192500", "191913.652500", "191914.112500", "191914.572500", "191915.032500", "191915.492500", "191915.952500", "191916.412500", "191916.872500", "191917.332500", "191917.792500", "191918.252500", "191918.712500", "191919.172500", "191919.632500", "191920.092500", "191920.552500", "191921.012500", "191921.472500", "191921.932500", "191922.392500", "191922.852500", "191923.312500", "191923.772500", "191924.232500", "191924.692500", "191925.152500", "191925.612500", "191926.072500", "191926.532500", "191926.992500", "191927.452500", "191927.912500", "191928.372500", "191928.832500", "191929.292500", "191929.752500", "191930.212500", "191930.672500", "191931.132500", "191931.592500", "191932.052500", "191932.512500", "191932.972500", "191933.432500", "191933.892500", "191934.352500", "191934.812500", "191935.272500", "191935.732500"],
