{
  "AcquisitionMatrixPE": 82,
  "AcquisitionNumber": 1,
  "AcquisitionTime": "17:11:14.892500",
  "BandwidthPerPixelPhaseEncode": 24.888,
  "BaseResolution": 82,
  "BodyPartExamined": "BRAIN",
  "ConsistencyInfo": "N4_VE11C_LATEST_20160120",
  "ConversionSoftware": "dcm2niix",
  "ConversionSoftwareVersion": "v1.0.20201102",
  "DerivedVendorReportedEchoSpacing": 0.00049,
  "DeviceSerialNumber": "66112",
  "DwellTime": 2e-06,
  "EchoTime": 0.0272,
  "EchoTrainLength": 82,
  "EffectiveEchoSpacing": 0.00049,
  "FlipAngle": 44,
  "ImageComments": "Unaliased MB8/PE3",
  "ImageOrientationPatientDICOM": [0.998954, 0.00268722, 0.0456377, -0.0104614, 0.98522, 0.170977],
  "ImageType": [
    "ORIGINAL",
    "PRIMARY",
    "M",
    "MB",
    "ND",
    "NORM",
    "MOSAIC"
],
  "ImagingFrequency": 123.252,
  "InPlanePhaseEncodingDirectionDICOM": "COL",
  "InstitutionAddress": "Maynard 3,Hanover,NH,US,03755",
  "InstitutionName": "Dartmouth College - PBS",
  "InstitutionalDepartmentName": "Department",
  "MRAcquisitionType": "2D",
  "MagneticFieldStrength": 3,
  "Manufacturer": "Siemens",
  "ManufacturersModelName": "Prisma",
  "Modality": "MR",
  "MultibandAccelerationFactor": 8,
  "PartialFourier": 1,
  "PatientPosition": "HFS",
  "PercentPhaseFOV": 100,
  "PercentSampling": 100,
  "PhaseEncodingDirection": "j-",
  "PhaseEncodingSteps": 82,
  "PhaseResolution": 1,
  "PixelBandwidth": 3050,
  "ProcedureStepDescription": "Wager_Wager^1076_spacetop",
  "ProtocolName": "func_run-01_task-narratives_acq-ap-mb8",
  "PulseSequenceDetails": "%CustomerSeq%\\cmrr_mbep2d_bold",
  "ReceiveCoilActiveElements": "HEA;HEP",
  "ReceiveCoilName": "Head_32",
  "ReconMatrixPE": 82,
  "RepetitionTime": 0.46,
  "SAR": 0.0455582,
  "ScanOptions": "FS",
  "ScanningSequence": "EP",
  "SequenceName": "epfid2d1_82",
  "SequenceVariant": "SK\\SS",
  "SeriesDescription": "func_run-01_task-narratives_acq-ap-mb8",
  "SeriesNumber": 36,
  "ShimSetting": [4140, -7638, -7539, 307, -11, -398, -11, 18],
  "SliceThickness": 2.7,
  "SliceTiming": [0, 0.25, 0.0625, 0.3125, 0.125, 0.3775, 0.1875, 0, 0.25, 0.0625, 0.3125, 0.125, 0.3775, 0.1875, 0, 0.25, 0.0625, 0.3125, 0.125, 0.3775, 0.1875, 0, 0.25, 0.0625, 0.3125, 0.125, 0.3775, 0.1875, 0, 0.25, 0.0625, 0.3125, 0.125, 0.3775, 0.1875, 0, 0.25, 0.0625, 0.3125, 0.125, 0.3775, 0.1875, 0, 0.25, 0.0625, 0.3125, 0.125, 0.3775, 0.1875, 0, 0.25, 0.0625, 0.3125, 0.125, 0.3775, 0.1875],
  "SoftwareVersions": "syngo MR E11",
  "SpacingBetweenSlices": 2.7,
  "StationName": "AWP66112",
  "TaskName": "narratives",
  "TotalReadoutTime": 0.03969,
  "TxRefAmp": 236.801,
  "WipMemBlock": "bf0326f7-7c6e-40a2-9db6-0d10425769d8||Sequence: R016 ve11c/master r/e634e98; Dec 19 2017 11:00:25 by eja",
  "dcmmeta_affine": [
    [-2.680121660232544, -0.028067218139767647, 0.12015999108552933, 109.26372528076172],
    [-0.007209617178887129, 2.6432721614837646, 0.46244311332702637, -105.91155242919922],
    [0.12244260311126709, -0.45871761441230774, 2.6573874950408936, -49.01698303222656],
    [0.0, 0.0, 0.0, 1.0]
],
  "dcmmeta_reorient_transform": [
    [0.0, -1.0, 0.0, 81.0],
    [1.0, 0.0, 0.0, 0.0],
    [0.0, 0.0, 1.0, 0.0],
    [0.0, 0.0, 0.0, 1.0]
],
  "dcmmeta_shape": [82, 82, 56, 967],
  "dcmmeta_slice_dim": 2,
  "dcmmeta_version": 0.6,
  "global": {
    "const": {
      "AccessionNumber": "A003535",
      "AcquisitionMatrix": [82, 0, 0, 82],
      "AngioFlag": "N",
      "BitsAllocated": 16,
      "BitsStored": 16,
      "BodyPartExamined": "BRAIN",
      "Columns": 656,
      "EchoNumbers": 1,
      "EchoTime": 27.2,
      "EchoTrainLength": 82,
      "FlipAngle": 44.0,
      "HighBit": 15,
      "ImageOrientationPatient": [0.99895444313757, 0.00268722094789, 0.04563769691049, -0.0104614171408, 0.98521955628193, 0.17097656175934],
      "ImagePositionPatient": [-868.12992585865, -868.88171687472, -252.96609126722],
      "ImageType": [
        "ORIGINAL",
        "PRIMARY",
        "M",
        "MB",
        "ND",
        "NORM",
        "MOSAIC"
],
      "ImagedNucleus": "1H",
      "ImagingFrequency": 123.252356,
      "InPlanePhaseEncodingDirection": "COL",
      "MRAcquisitionType": "2D",
      "MagneticFieldStrength": 3.0,
      "Manufacturer": "SIEMENS",
      "ManufacturerModelName": "Prisma",
      "Modality": "MR",
      "NumberOfAverages": 1.0,
      "NumberOfPhaseEncodingSteps": 82,
      "PercentPhaseFieldOfView": 100.0,
      "PercentSampling": 100.0,
      "PerformedProcedureStepStartTime": "144428.811000",
      "PhotometricInterpretation": "MONOCHROME2",
      "PixelBandwidth": 3050.0,
      "PixelRepresentation": 0,
      "PixelSpacing": [2.6829268932343, 2.6829268932343],
      "ProtocolName": "func_run-01_task-narratives_acq-ap-mb8",
      "RepetitionTime": 460.0,
      "Rows": 656,
      "SAR": 0.04555824127087,
      "SamplesPerPixel": 1,
      "ScanOptions": "FS",
      "ScanningSequence": "EP",
      "SequenceName": "epfid2d1_82",
      "SequenceVariant": [
        "SK",
        "SS"
],
      "SeriesDescription": "func_run-01_task-narratives_acq-ap-mb8",
      "SeriesNumber": 36,
      "SeriesTime": "171123.363000",
      "SliceLocation": -61.520760149093,
      "SliceThickness": 2.7000000476837,
      "SmallestImagePixelValue": 0,
      "SoftwareVersions": "syngo MR E11",
      "SpacingBetweenSlices": 2.6999999748409,
      "SpecificCharacterSet": "ISO_IR 100",
      "StudyID": "1",
      "StudyTime": "144428.752000",
      "TransmitCoilName": "Body",
      "VariableFlipAngleFlag": "N",
      "WindowCenterWidthExplanation": "Algo1",
      "dBdt": 0.0},
    "slices": {}
  },
  "time": {
    "samples": {
      "AcquisitionNumber": [1, 2, 3, 4, 5, 6, 7, 8, 9, 10, 11, 12, 13, 14, 15, 16, 17, 18, 19, 20, 21, 22, 23, 24, 25, 26, 27, 28, 29, 30, 31, 32, 33, 34, 35, 36, 37, 38, 39, 40, 41, 42, 43, 44, 45, 46, 47, 48, 49, 50, 51, 52, 53, 54, 55, 56, 57, 58, 59, 60, 61, 62, 63, 64, 65, 66, 67, 68, 69, 70, 71, 72, 73, 74, 75, 76, 77, 78, 79, 80, 81, 82, 83, 84, 85, 86, 87, 88, 89, 90, 91, 92, 93, 94, 95, 96, 97, 98, 99, 100, 101, 102, 103, 104, 105, 106, 107, 108, 109, 110, 111, 112, 113, 114, 115, 116, 117, 118, 119, 120, 121, 122, 123, 124, 125, 126, 127, 128, 129, 130, 131, 132, 133, 134, 135, 136, 137, 138, 139, 140, 141, 142, 143, 144, 145, 146, 147, 148, 149, 150, 151, 152, 153, 154, 155, 156, 157, 158, 159, 160, 161, 162, 163, 164, 165, 166, 167, 168, 169, 170, 171, 172, 173, 174, 175, 176, 177, 178, 179, 180, 181, 182, 183, 184, 185, 186, 187, 188, 189, 190, 191, 192, 193, 194, 195, 196, 197, 198, 199, 200, 201, 202, 203, 204, 205, 206, 207, 208, 209, 210, 211, 212, 213, 214, 215, 216, 217, 218, 219, 220, 221, 222, 223, 224, 225, 226, 227, 228, 229, 230, 231, 232, 233, 234, 235, 236, 237, 238, 239, 240, 241, 242, 243, 244, 245, 246, 247, 248, 249, 250, 251, 252, 253, 254, 255, 256, 257, 258, 259, 260, 261, 262, 263, 264, 265, 266, 267, 268, 269, 270, 271, 272, 273, 274, 275, 276, 277, 278, 279, 280, 281, 282, 283, 284, 285, 286, 287, 288, 289, 290, 291, 292, 293, 294, 295, 296, 297, 298, 299, 300, 301, 302, 303, 304, 305, 306, 307, 308, 309, 310, 311, 312, 313, 314, 315, 316, 317, 318, 319, 320, 321, 322, 323, 324, 325, 326, 327, 328, 329, 330, 331, 332, 333, 334, 335, 336, 337, 338, 339, 340, 341, 342, 343, 344, 345, 346, 347, 348, 349, 350, 351, 352, 353, 354, 355, 356, 357, 358, 359, 360, 361, 362, 363, 364, 365, 366, 367, 368, 369, 370, 371, 372, 373, 374, 375, 376, 377, 378, 379, 380, 381, 382, 383, 384, 385, 386, 387, 388, 389, 390, 391, 392, 393, 394, 395, 396, 397, 398, 399, 400, 401, 402, 403, 404, 405, 406, 407, 408, 409, 410, 411, 412, 413, 414, 415, 416, 417, 418, 419, 420, 421, 422, 423, 424, 425, 426, 427, 428, 429, 430, 431, 432, 433, 434, 435, 436, 437, 438, 439, 440, 441, 442, 443, 444, 445, 446, 447, 448, 449, 450, 451, 452, 453, 454, 455, 456, 457, 458, 459, 460, 461, 462, 463, 464, 465, 466, 467, 468, 469, 470, 471, 472, 473, 474, 475, 476, 477, 478, 479, 480, 481, 482, 483, 484, 485, 486, 487, 488, 489, 490, 491, 492, 493, 494, 495, 496, 497, 498, 499, 500, 501, 502, 503, 504, 505, 506, 507, 508, 509, 510, 511, 512, 513, 514, 515, 516, 517, 518, 519, 520, 521, 522, 523, 524, 525, 526, 527, 528, 529, 530, 531, 532, 533, 534, 535, 536, 537, 538, 539, 540, 541, 542, 543, 544, 545, 546, 547, 548, 549, 550, 551, 552, 553, 554, 555, 556, 557, 558, 559, 560, 561, 562, 563, 564, 565, 566, 567, 568, 569, 570, 571, 572, 573, 574, 575, 576, 577, 578, 579, 580, 581, 582, 583, 584, 585, 586, 587, 588, 589, 590, 591, 592, 593, 594, 595, 596, 597, 598, 599, 600, 601, 602, 603, 604, 605, 606, 607, 608, 609, 610, 611, 612, 613, 614, 615, 616, 617, 618, 619, 620, 621, 622, 623, 624, 625, 626, 627, 628, 629, 630, 631, 632, 633, 634, 635, 636, 637, 638, 639, 640, 641, 642, 643, 644, 645, 646, 647, 648, 649, 650, 651, 652, 653, 654, 655, 656, 657, 658, 659, 660, 661, 662, 663, 664, 665, 666, 667, 668, 669, 670, 671, 672, 673, 674, 675, 676, 677, 678, 679, 680, 681, 682, 683, 684, 685, 686, 687, 688, 689, 690, 691, 692, 693, 694, 695, 696, 697, 698, 699, 700, 701, 702, 703, 704, 705, 706, 707, 708, 709, 710, 711, 712, 713, 714, 715, 716, 717, 718, 719, 720, 721, 722, 723, 724, 725, 726, 727, 728, 729, 730, 731, 732, 733, 734, 735, 736, 737, 738, 739, 740, 741, 742, 743, 744, 745, 746, 747, 748, 749, 750, 751, 752, 753, 754, 755, 756, 757, 758, 759, 760, 761, 762, 763, 764, 765, 766, 767, 768, 769, 770, 771, 772, 773, 774, 775, 776, 777, 778, 779, 780, 781, 782, 783, 784, 785, 786, 787, 788, 789, 790, 791, 792, 793, 794, 795, 796, 797, 798, 799, 800, 801, 802, 803, 804, 805, 806, 807, 808, 809, 810, 811, 812, 813, 814, 815, 816, 817, 818, 819, 820, 821, 822, 823, 824, 825, 826, 827, 828, 829, 830, 831, 832, 833, 834, 835, 836, 837, 838, 839, 840, 841, 842, 843, 844, 845, 846, 847, 848, 849, 850, 851, 852, 853, 854, 855, 856, 857, 858, 859, 860, 861, 862, 863, 864, 865, 866, 867, 868, 869, 870, 871, 872, 873, 874, 875, 876, 877, 878, 879, 880, 881, 882, 883, 884, 885, 886, 887, 888, 889, 890, 891, 892, 893, 894, 895, 896, 897, 898, 899, 900, 901, 902, 903, 904, 905, 906, 907, 908, 909, 910, 911, 912, 913, 914, 915, 916, 917, 918, 919, 920, 921, 922, 923, 924, 925, 926, 927, 928, 929, 930, 931, 932, 933, 934, 935, 936, 937, 938, 939, 940, 941, 942, 943, 944, 945, 946, 947, 948, 949, 950, 951, 952, 953, 954, 955, 956, 957, 958, 959, 960, 961, 962, 963, 964, 965, 966, 967],
      "AcquisitionTime": ["171114.892500", "171115.352500", "171115.812500", "171116.272500", "171116.732500", "171117.192500", "171117.652500", "171118.112500", "171118.572500", "171119.032500", "171119.492500", "171119.952500", "171120.412500", "171120.872500", "171121.332500", "171121.792500", "171122.252500", "171122.712500", "171123.172500", "171123.632500", "171124.092500", "171124.552500", "171125.012500", "171125.472500", "171125.932500", "171126.392500", "171126.852500", "171127.312500", "171127.772500", "171128.232500", "171128.692500", "171129.152500", "171129.612500", "171130.072500", "171130.532500", "171130.992500", "171131.452500", "171131.912500", "171132.372500", "171132.832500", "171133.292500", "171133.752500", "171134.212500", "171134.672500", "171135.132500", "171135.592500", "171136.052500", "171136.512500", "171136.972500", "171137.432500", "171137.892500", "171138.352500", "171138.812500", "171139.272500", "171139.732500", "171140.192500", "171140.652500", "171141.112500", "171141.572500", "171142.032500", "171142.492500", "171142.952500", "171143.412500", "171143.872500", "171144.332500", "171144.792500", "171145.252500", "171145.712500", "171146.172500", "171146.632500", "171147.092500", "171147.552500", "171148.012500", "171148.472500", "171148.932500", "171149.392500", "171149.852500", "171150.312500", "171150.772500", "171151.232500", "171151.692500", "171152.152500", "171152.612500", "171153.072500", "171153.532500", "171153.992500", "171154.452500", "171154.912500", "171155.372500", "171155.832500", "171156.292500", "171156.752500", "171157.212500", "171157.672500", "171158.132500", "171158.592500", "171159.052500", "171159.512500", "171159.972500", "171200.432500", "171200.892500", "171201.352500", "171201.812500", "171202.272500", "171202.732500", "171203.192500", "171203.652500", "171204.112500", "171204.572500", "171205.032500", "171205.492500", "171205.952500", "171206.412500", "171206.872500", "171207.332500", "171207.792500", "171208.252500", "171208.712500", "171209.172500", "171209.632500", "171210.092500", "171210.552500", "171211.012500", "171211.472500", "171211.932500", "171212.392500", "171212.852500", "171213.312500", "171213.772500", "171214.232500", "171214.692500", "171215.152500", "171215.612500", "171216.072500", "171216.532500", "171216.992500", "171217.452500", "171217.912500", "171218.372500", "171218.832500", "171219.292500", "171219.752500", "171220.212500", "171220.672500", "171221.132500", "171221.592500", "171222.052500", "171222.512500", "171222.972500", "171223.432500", "171223.892500", "171224.352500", "171224.812500", "171225.272500", "171225.732500", "171226.192500", "171226.652500", "171227.112500", "171227.572500", "171228.032500", "171228.492500", "171228.952500", "171229.412500", "171229.872500", "171230.332500", "171230.792500", "171231.252500", "171231.712500", "171232.172500", "171232.632500", "171233.092500", "171233.552500", "171234.012500", "171234.472500", "171234.932500", "171235.392500", "171235.852500", "171236.312500", "171236.772500", "171237.232500", "171237.692500", "171238.152500", "171238.612500", "171239.072500", "171239.532500", "171239.992500", "171240.452500", "171240.912500", "171241.372500", "171241.832500", "171242.292500", "171242.752500", "171243.212500", "171243.672500", "171244.132500", "171244.592500", "171245.052500", "171245.512500", "171245.972500", "171246.432500", "171246.892500", "171247.352500", "171247.812500", "171248.272500", "171248.732500", "171249.192500", "171249.652500", "171250.112500", "171250.572500", "171251.032500", "171251.492500", "171251.952500", "171252.412500", "171252.872500", "171253.332500", "171253.792500", "171254.252500", "171254.712500", "171255.172500", "171255.632500", "171256.092500", "171256.552500", "171257.012500", "171257.472500", "171257.932500", "171258.392500", "171258.852500", "171259.312500", "171259.772500", "171300.232500", "171300.692500", "171301.152500", "171301.612500", "171302.072500", "171302.532500", "171302.992500", "171303.452500", "171303.912500", "171304.372500", "171304.832500", "171305.292500", "171305.752500", "171306.212500", "171306.672500", "171307.132500", "171307.592500", "171308.052500", "171308.512500", "171308.972500", "171309.432500", "171309.892500", "171310.352500", "171310.812500", "171311.272500", "171311.732500", "171312.192500", "171312.652500", "171313.112500", "171313.572500", "171314.032500", "171314.492500", "171314.952500", "171315.412500", "171315.872500", "171316.332500", "171316.792500", "171317.252500", "171317.712500", "171318.172500", "171318.632500", "171319.092500", "171319.552500", "171320.012500", "171320.472500", "171320.932500", "171321.392500", "171321.852500", "171322.312500", "171322.772500", "171323.232500", "171323.692500", "171324.152500", "171324.612500", "171325.072500", "171325.532500", "171325.992500", "171326.452500", "171326.912500", "171327.372500", "171327.832500", "171328.292500", "171328.752500", "171329.212500", "171329.672500", "171330.132500", "171330.592500", "171331.052500", "171331.512500", "171331.972500", "171332.432500", "171332.892500", "171333.352500", "171333.812500", "171334.272500", "171334.732500", "171335.192500", "171335.652500", "171336.112500", "171336.572500", "171337.032500", "171337.492500", "171337.952500", "171338.412500", "171338.872500", "171339.332500", "171339.792500", "171340.252500", "171340.712500", "171341.172500", "171341.632500", "171342.092500", "171342.552500", "171343.012500", "171343.472500", "171343.932500", "171344.392500", "171344.852500", "171345.312500", "171345.772500", "171346.232500", "171346.692500", "171347.152500", "171347.612500", "171348.072500", "171348.532500", "171348.992500", "171349.452500", "171349.912500", "171350.372500", "171350.832500", "171351.292500", "171351.752500", "171352.212500", "171352.672500", "171353.132500", "171353.592500", "171354.052500", "171354.512500", "171354.972500", "171355.432500", "171355.892500", "171356.352500", "171356.812500", "171357.272500", "171357.732500", "171358.192500", "171358.652500", "171359.112500", "171359.572500", "171400.032500", "171400.492500", "171400.952500", "171401.412500", "171401.872500", "171402.332500", "171402.792500", "171403.252500", "171403.712500", "171404.172500", "171404.632500", "171405.092500", "171405.552500", "171406.012500", "171406.472500", "171406.932500", "171407.392500", "171407.852500", "171408.312500", "171408.772500", "171409.232500", "171409.692500", "171410.152500", "171410.612500", "171411.072500", "171411.532500", "171411.992500", "171412.452500", "171412.912500", "171413.372500", "171413.832500", "171414.292500", "171414.752500", "171415.212500", "171415.672500", "171416.132500", "171416.592500", "171417.052500", "171417.512500", "171417.972500", "171418.432500", "171418.892500", "171419.352500", "171419.812500", "171420.272500", "171420.732500", "171421.192500", "171421.652500", "171422.112500", "171422.572500", "171423.032500", "171423.492500", "171423.952500", "171424.412500", "171424.872500", "171425.332500", "171425.792500", "171426.252500", "171426.712500", "171427.172500", "171427.632500", "171428.092500", "171428.552500", "171429.012500", "171429.472500", "171429.932500", "171430.392500", "171430.852500", "171431.312500", "171431.772500", "171432.232500", "171432.692500", "171433.152500", "171433.612500", "171434.072500", "171434.532500", "171434.992500", "171435.452500", "171435.912500", "171436.372500", "171436.832500", "171437.292500", "171437.752500", "171438.212500", "171438.672500", "171439.132500", "171439.592500", "171440.052500", "171440.512500", "171440.972500", "171441.432500", "171441.892500", "171442.352500", "171442.812500", "171443.272500", "171443.732500", "171444.192500", "171444.652500", "171445.112500", "171445.572500", "171446.032500", "171446.492500", "171446.952500", "171447.412500", "171447.872500", "171448.332500", "171448.792500", "171449.252500", "171449.712500", "171450.172500", "171450.632500", "171451.092500", "171451.552500", "171452.012500", "171452.472500", "171452.932500", "171453.392500", "171453.852500", "171454.312500", "171454.772500", "171455.232500", "171455.692500", "171456.152500", "171456.612500", "171457.072500", "171457.532500", "171457.992500", "171458.452500", "171458.912500", "171459.372500", "171459.832500", "171500.292500", "171500.752500", "171501.212500", "171501.672500", "171502.132500", "171502.592500", "171503.052500", "171503.512500", "171503.972500", "171504.432500", "171504.892500", "171505.352500", "171505.812500", "171506.272500", "171506.732500", "171507.192500", "171507.652500", "171508.112500", "171508.572500", "171509.032500", "171509.492500", "171509.952500", "171510.412500", "171510.872500", "171511.332500", "171511.792500", "171512.252500", "171512.712500", "171513.172500", "171513.632500", "171514.092500", "171514.552500", "171515.012500", "171515.472500", "171515.932500", "171516.392500", "171516.852500", "171517.312500", "171517.772500", "171518.232500", "171518.692500", "171519.152500", "171519.612500", "171520.072500", "171520.532500", "171520.992500", "171521.452500", "171521.912500", "171522.372500", "171522.832500", "171523.292500", "171523.752500", "171524.212500", "171524.672500", "171525.132500", "171525.592500", "171526.052500", "171526.512500", "171526.972500", "171527.432500", "171527.892500", "171528.352500", "171528.812500", "171529.272500", "171529.732500", "171530.192500", "171530.652500", "171531.112500", "171531.572500", "171532.032500", "171532.492500", "171532.952500", "171533.412500", "171533.872500", "171534.332500", "171534.792500", "171535.252500", "171535.712500", "171536.172500", "171536.632500", "171537.092500", "171537.552500", "171538.012500", "171538.472500", "171538.932500", "171539.392500", "171539.852500", "171540.312500", "171540.772500", "171541.232500", "171541.692500", "171542.152500", "171542.612500", "171543.072500", "171543.532500", "171543.992500", "171544.452500", "171544.912500", "171545.372500", "171545.832500", "171546.292500", "171546.752500", "171547.212500", "171547.672500", "171548.132500", "171548.592500", "171549.052500", "171549.512500", "171549.972500", "171550.432500", "171550.892500", "171551.352500", "171551.812500", "171552.272500", "171552.732500", "171553.192500", "171553.652500", "171554.112500", "171554.572500", "171555.032500", "171555.492500", "171555.952500", "171556.412500", "171556.872500", "171557.332500", "171557.792500", "171558.252500", "171558.712500", "171559.172500", "171559.632500", "171600.092500", "171600.552500", "171601.012500", "171601.472500", "171601.932500", "171602.392500", "171602.852500", "171603.312500", "171603.772500", "171604.232500", "171604.692500", "171605.152500", "171605.612500", "171606.072500", "171606.532500", "171606.992500", "171607.452500", "171607.912500", "171608.372500", "171608.832500", "171609.292500", "171609.752500", "171610.212500", "171610.672500", "171611.132500", "171611.592500", "171612.052500", "171612.512500", "171612.972500", "171613.432500", "171613.892500", "171614.352500", "171614.812500", "171615.272500", "171615.732500", "171616.192500", "171616.652500", "171617.112500", "171617.572500", "171618.032500", "171618.492500", "171618.952500", "171619.412500", "171619.872500", "171620.332500", "171620.792500", "171621.252500", "171621.712500", "171622.172500", "171622.632500", "171623.092500", "171623.552500", "171624.012500", "171624.472500", "171624.932500", "171625.392500", "171625.852500", "171626.312500", "171626.772500", "171627.232500", "171627.692500", "171628.152500", "171628.612500", "171629.072500", "171629.532500", "171629.992500", "171630.452500", "171630.912500", "171631.372500", "171631.832500", "171632.292500", "171632.752500", "171633.212500", "171633.672500", "171634.132500", "171634.592500", "171635.052500", "171635.512500", "171635.972500", "171636.432500", "171636.892500", "171637.352500", "171637.812500", "171638.272500", "171638.732500", "171639.192500", "171639.652500", "171640.112500", "171640.572500", "171641.032500", "171641.492500", "171641.952500", "171642.412500", "171642.872500", "171643.332500", "171643.792500", "171644.252500", "171644.712500", "171645.172500", "171645.632500", "171646.092500", "171646.552500", "171647.012500", "171647.472500", "171647.932500", "171648.392500", "171648.852500", "171649.312500", "171649.772500", "171650.232500", "171650.692500", "171651.152500", "171651.612500", "171652.072500", "171652.532500", "171652.992500", "171653.452500", "171653.912500", "171654.372500", "171654.832500", "171655.292500", "171655.752500", "171656.212500", "171656.672500", "171657.132500", "171657.592500", "171658.052500", "171658.512500", "171658.972500", "171659.432500", "171659.892500", "171700.352500", "171700.812500", "171701.272500", "171701.732500", "171702.192500", "171702.652500", "171703.112500", "171703.572500", "171704.032500", "171704.492500", "171704.952500", "171705.412500", "171705.872500", "171706.332500", "171706.792500", "171707.252500", "171707.712500", "171708.172500", "171708.632500", "171709.092500", "171709.552500", "171710.012500", "171710.472500", "171710.932500", "171711.392500", "171711.852500", "171712.312500", "171712.772500", "171713.232500", "171713.692500", "171714.152500", "171714.612500", "171715.072500", "171715.532500", "171715.992500", "171716.452500", "171716.912500", "171717.372500", "171717.832500", "171718.292500", "171718.752500", "171719.212500", "171719.672500", "171720.132500", "171720.592500", "171721.052500", "171721.512500", "171721.972500", "171722.432500", "171722.892500", "171723.352500", "171723.812500", "171724.272500", "171724.732500", "171725.192500", "171725.652500", "171726.112500", "171726.572500", "171727.032500", "171727.492500", "171727.952500", "171728.412500", "171728.872500", "171729.332500", "171729.792500", "171730.252500", "171730.712500", "171731.172500", "171731.632500", "171732.092500", "171732.552500", "171733.012500", "171733.472500", "171733.932500", "171734.392500", "171734.852500", "171735.312500", "171735.772500", "171736.232500", "171736.692500", "171737.152500", "171737.612500", "171738.072500", "171738.532500", "171738.992500", "171739.452500", "171739.912500", "171740.372500", "171740.832500", "171741.292500", "171741.752500", "171742.212500", "171742.672500", "171743.132500", "171743.592500", "171744.052500", "171744.512500", "171744.972500", "171745.432500", "171745.892500", "171746.352500", "171746.812500", "171747.272500", "171747.732500", "171748.192500", "171748.652500", "171749.112500", "171749.572500", "171750.032500", "171750.492500", "171750.952500", "171751.412500", "171751.872500", "171752.332500", "171752.792500", "171753.252500", "171753.712500", "171754.172500", "171754.632500", "171755.092500", "171755.552500", "171756.012500", "171756.472500", "171756.932500", "171757.392500", "171757.852500", "171758.312500", "171758.772500", "171759.232500", "171759.692500", "171800.152500", "171800.612500", "171801.072500", "171801.532500", "171801.992500", "171802.452500", "171802.912500", "171803.372500", "171803.832500", "171804.292500", "171804.752500", "171805.212500", "171805.672500", "171806.132500", "171806.592500", "171807.052500", "171807.512500", "171807.972500", "171808.432500", "171808.892500", "171809.352500", "171809.812500", "171810.272500", "171810.732500", "171811.192500", "171811.652500", "171812.112500", "171812.572500", "171813.032500", "171813.492500", "171813.952500", "171814.412500", "171814.872500", "171815.332500", "171815.792500", "171816.252500", "171816.712500", "171817.172500", "171817.632500", "171818.092500", "171818.552500", "171819.012500", "171819.472500", "171819.932500", "171820.392500", "171820.852500", "171821.312500", "171821.772500", "171822.232500", "171822.692500", "171823.152500", "171823.612500", "171824.072500", "171824.532500", "171824.992500", "171825.452500", "171825.912500", "171826.372500", "171826.832500", "171827.292500", "171827.752500", "171828.212500", "171828.672500", "171829.132500", "171829.592500", "171830.052500", "171830.512500", "171830.972500", "171831.432500", "171831.892500", "171832.352500", "171832.812500", "171833.272500", "171833.732500", "171834.192500", "171834.652500", "171835.112500", "171835.572500", "171836.032500", "171836.492500", "171836.952500", "171837.412500", "171837.872500", "171838.332500", "171838.792500", "171839.252500"],
