{
  "AcquisitionMatrixPE": 82,
  "AcquisitionNumber": 1,
  "AcquisitionTime": "09:52:52.570000",
  "BandwidthPerPixelPhaseEncode": 24.888,
  "BaseResolution": 82,
  "BodyPartExamined": "BRAIN",
  "ConsistencyInfo": "N4_VE11C_LATEST_20160120",
  "ConversionSoftware": "dcm2niix",
  "ConversionSoftwareVersion": "v1.0.20201102",
  "DerivedVendorReportedEchoSpacing": 0.00049,
  "DeviceSerialNumber": "66112",
  "DwellTime": 2e-06,
  "EchoTime": 0.0272,
  "EchoTrainLength": 82,
  "EffectiveEchoSpacing": 0.00049,
  "FlipAngle": 44,
  "ImageComments": "Unaliased MB8/PE3",
  "ImageOrientationPatientDICOM": [0.99987, 0.0124882, 0.0101578, -0.0134381, 0.99494, 0.0995647],
  "ImageType": [
    "ORIGINAL",
    "PRIMARY",
    "M",
    "MB",
    "ND",
    "NORM",
    "MOSAIC"
],
  "ImagingFrequency": 123.252,
  "InPlanePhaseEncodingDirectionDICOM": "COL",
  "InstitutionAddress": "Maynard 3,Hanover,NH,US,03755",
  "InstitutionName": "Dartmouth College - PBS",
  "InstitutionalDepartmentName": "Department",
  "MRAcquisitionType": "2D",
  "MagneticFieldStrength": 3,
  "Manufacturer": "Siemens",
  "ManufacturersModelName": "Prisma",
  "Modality": "MR",
  "MultibandAccelerationFactor": 8,
  "PartialFourier": 1,
  "PatientPosition": "HFS",
  "PercentPhaseFOV": 100,
  "PercentSampling": 100,
  "PhaseEncodingDirection": "j-",
  "PhaseEncodingSteps": 82,
  "PhaseResolution": 1,
  "PixelBandwidth": 3050,
  "ProcedureStepDescription": "Wager_Wager^1076_spacetop",
  "ProtocolName": "func_run-01_task-narratives_acq-ap-mb8",
  "PulseSequenceDetails": "%CustomerSeq%\\cmrr_mbep2d_bold",
  "ReceiveCoilActiveElements": "HEA;HEP",
  "ReceiveCoilName": "Head_32",
  "ReconMatrixPE": 82,
  "RepetitionTime": 0.46,
  "SAR": 0.0941717,
  "ScanOptions": "FS",
  "ScanningSequence": "EP",
  "SequenceName": "epfid2d1_82",
  "SequenceVariant": "SK\\SS",
  "SeriesDescription": "func_run-01_task-narratives_acq-ap-mb8",
  "SeriesNumber": 8,
  "ShimSetting": [4114, -7807, -7210, 458, -117, -201, 38, 83],
  "SliceThickness": 2.7,
  "SliceTiming": [0, 0.25, 0.0625, 0.3125, 0.125, 0.375, 0.1875, 0, 0.25, 0.0625, 0.3125, 0.125, 0.375, 0.1875, 0, 0.25, 0.0625, 0.3125, 0.125, 0.375, 0.1875, 0, 0.25, 0.0625, 0.3125, 0.125, 0.375, 0.1875, 0, 0.25, 0.0625, 0.3125, 0.125, 0.375, 0.1875, 0, 0.25, 0.0625, 0.3125, 0.125, 0.375, 0.1875, 0, 0.25, 0.0625, 0.3125, 0.125, 0.375, 0.1875, 0, 0.25, 0.0625, 0.3125, 0.125, 0.375, 0.1875],
  "SoftwareVersions": "syngo MR E11",
  "SpacingBetweenSlices": 2.7,
  "StationName": "AWP66112",
  "TaskName": "narratives",
  "TotalReadoutTime": 0.03969,
  "TxRefAmp": 258.587,
  "WipMemBlock": "1a2a9003-71e2-442e-bd99-ee459e5840bb||Sequence: R016 ve11c/master r/e634e98; Dec 19 2017 11:00:25 by eja",
  "dcmmeta_affine": [
    [-2.682579278945923, -0.03605342656373978, 0.02393023855984211, 112.63350677490234],
    [-0.03350486978888512, 2.6693522930145264, 0.26915839314460754, -95.83737182617188],
    [0.027252711355686188, -0.2671247720718384, 2.68644380569458, -12.366846084594727],
    [0.0, 0.0, 0.0, 1.0]
],
  "dcmmeta_reorient_transform": [
    [0.0, -1.0, 0.0, 81.0],
    [1.0, 0.0, 0.0, 0.0],
    [0.0, 0.0, 1.0, 0.0],
    [0.0, 0.0, 0.0, 1.0]
],
  "dcmmeta_shape": [82, 82, 56, 967],
  "dcmmeta_slice_dim": 2,
  "dcmmeta_version": 0.6,
  "global": {
    "const": {
      "AccessionNumber": "A003473",
      "AcquisitionMatrix": [82, 0, 0, 82],
      "AngioFlag": "N",
      "BitsAllocated": 16,
      "BitsStored": 16,
      "BodyPartExamined": "BRAIN",
      "Columns": 656,
      "EchoNumbers": 1,
      "EchoTime": 27.2,
      "EchoTrainLength": 82,
      "FlipAngle": 44.0,
      "HighBit": 15,
      "ImageOrientationPatient": [0.99987042357195, 0.01248817794615, 0.01015782839168, -0.0134380943751, 0.99494034494407, 0.09956469063947],
      "ImagePositionPatient": [-869.26609389688, -896.10014007892, -118.4902959019],
      "ImageType": [
        "ORIGINAL",
        "PRIMARY",
        "M",
        "MB",
        "ND",
        "NORM",
        "MOSAIC"
],
      "ImagedNucleus": "1H",
      "ImagingFrequency": 123.252053,
      "InPlanePhaseEncodingDirection": "COL",
      "MRAcquisitionType": "2D",
      "MagneticFieldStrength": 3.0,
      "Manufacturer": "SIEMENS",
      "ManufacturerModelName": "Prisma",
      "Modality": "MR",
      "NumberOfAverages": 1.0,
      "NumberOfPhaseEncodingSteps": 82,
      "PercentPhaseFieldOfView": 100.0,
      "PercentSampling": 100.0,
      "PerformedProcedureStepStartTime": "094504.170000",
      "PhotometricInterpretation": "MONOCHROME2",
      "PixelBandwidth": 3050.0,
      "PixelRepresentation": 0,
      "PixelSpacing": [2.6829268932343, 2.6829268932343],
      "ProtocolName": "func_run-01_task-narratives_acq-ap-mb8",
      "RepetitionTime": 460.0,
      "Rows": 656,
      "SAR": 0.09417172777694,
      "SamplesPerPixel": 1,
      "ScanOptions": "FS",
      "ScanningSequence": "EP",
      "SequenceName": "epfid2d1_82",
      "SequenceVariant": [
        "SK",
        "SS"
],
      "SeriesDescription": "func_run-01_task-narratives_acq-ap-mb8",
      "SeriesNumber": 8,
      "SeriesTime": "095314.254000",
      "SliceLocation": -20.860342633219,
      "SliceThickness": 2.7000000476837,
      "SmallestImagePixelValue": 0,
      "SoftwareVersions": "syngo MR E11",
      "SpacingBetweenSlices": 2.6999999660688,
      "SpecificCharacterSet": "ISO_IR 100",
      "StudyID": "3",
      "StudyTime": "094504.038000",
      "TransmitCoilName": "Body",
      "VariableFlipAngleFlag": "N",
      "WindowCenterWidthExplanation": "Algo1",
      "dBdt": 0.0},
    "slices": {}
  },
  "time": {
    "samples": {
      "AcquisitionNumber": [1, 2, 3, 4, 5, 6, 7, 8, 9, 10, 11, 12, 13, 14, 15, 16, 17, 18, 19, 20, 21, 22, 23, 24, 25, 26, 27, 28, 29, 30, 31, 32, 33, 34, 35, 36, 37, 38, 39, 40, 41, 42, 43, 44, 45, 46, 47, 48, 49, 50, 51, 52, 53, 54, 55, 56, 57, 58, 59, 60, 61, 62, 63, 64, 65, 66, 67, 68, 69, 70, 71, 72, 73, 74, 75, 76, 77, 78, 79, 80, 81, 82, 83, 84, 85, 86, 87, 88, 89, 90, 91, 92, 93, 94, 95, 96, 97, 98, 99, 100, 101, 102, 103, 104, 105, 106, 107, 108, 109, 110, 111, 112, 113, 114, 115, 116, 117, 118, 119, 120, 121, 122, 123, 124, 125, 126, 127, 128, 129, 130, 131, 132, 133, 134, 135, 136, 137, 138, 139, 140, 141, 142, 143, 144, 145, 146, 147, 148, 149, 150, 151, 152, 153, 154, 155, 156, 157, 158, 159, 160, 161, 162, 163, 164, 165, 166, 167, 168, 169, 170, 171, 172, 173, 174, 175, 176, 177, 178, 179, 180, 181, 182, 183, 184, 185, 186, 187, 188, 189, 190, 191, 192, 193, 194, 195, 196, 197, 198, 199, 200, 201, 202, 203, 204, 205, 206, 207, 208, 209, 210, 211, 212, 213, 214, 215, 216, 217, 218, 219, 220, 221, 222, 223, 224, 225, 226, 227, 228, 229, 230, 231, 232, 233, 234, 235, 236, 237, 238, 239, 240, 241, 242, 243, 244, 245, 246, 247, 248, 249, 250, 251, 252, 253, 254, 255, 256, 257, 258, 259, 260, 261, 262, 263, 264, 265, 266, 267, 268, 269, 270, 271, 272, 273, 274, 275, 276, 277, 278, 279, 280, 281, 282, 283, 284, 285, 286, 287, 288, 289, 290, 291, 292, 293, 294, 295, 296, 297, 298, 299, 300, 301, 302, 303, 304, 305, 306, 307, 308, 309, 310, 311, 312, 313, 314, 315, 316, 317, 318, 319, 320, 321, 322, 323, 324, 325, 326, 327, 328, 329, 330, 331, 332, 333, 334, 335, 336, 337, 338, 339, 340, 341, 342, 343, 344, 345, 346, 347, 348, 349, 350, 351, 352, 353, 354, 355, 356, 357, 358, 359, 360, 361, 362, 363, 364, 365, 366, 367, 368, 369, 370, 371, 372, 373, 374, 375, 376, 377, 378, 379, 380, 381, 382, 383, 384, 385, 386, 387, 388, 389, 390, 391, 392, 393, 394, 395, 396, 397, 398, 399, 400, 401, 402, 403, 404, 405, 406, 407, 408, 409, 410, 411, 412, 413, 414, 415, 416, 417, 418, 419, 420, 421, 422, 423, 424, 425, 426, 427, 428, 429, 430, 431, 432, 433, 434, 435, 436, 437, 438, 439, 440, 441, 442, 443, 444, 445, 446, 447, 448, 449, 450, 451, 452, 453, 454, 455, 456, 457, 458, 459, 460, 461, 462, 463, 464, 465, 466, 467, 468, 469, 470, 471, 472, 473, 474, 475, 476, 477, 478, 479, 480, 481, 482, 483, 484, 485, 486, 487, 488, 489, 490, 491, 492, 493, 494, 495, 496, 497, 498, 499, 500, 501, 502, 503, 504, 505, 506, 507, 508, 509, 510, 511, 512, 513, 514, 515, 516, 517, 518, 519, 520, 521, 522, 523, 524, 525, 526, 527, 528, 529, 530, 531, 532, 533, 534, 535, 536, 537, 538, 539, 540, 541, 542, 543, 544, 545, 546, 547, 548, 549, 550, 551, 552, 553, 554, 555, 556, 557, 558, 559, 560, 561, 562, 563, 564, 565, 566, 567, 568, 569, 570, 571, 572, 573, 574, 575, 576, 577, 578, 579, 580, 581, 582, 583, 584, 585, 586, 587, 588, 589, 590, 591, 592, 593, 594, 595, 596, 597, 598, 599, 600, 601, 602, 603, 604, 605, 606, 607, 608, 609, 610, 611, 612, 613, 614, 615, 616, 617, 618, 619, 620, 621, 622, 623, 624, 625, 626, 627, 628, 629, 630, 631, 632, 633, 634, 635, 636, 637, 638, 639, 640, 641, 642, 643, 644, 645, 646, 647, 648, 649, 650, 651, 652, 653, 654, 655, 656, 657, 658, 659, 660, 661, 662, 663, 664, 665, 666, 667, 668, 669, 670, 671, 672, 673, 674, 675, 676, 677, 678, 679, 680, 681, 682, 683, 684, 685, 686, 687, 688, 689, 690, 691, 692, 693, 694, 695, 696, 697, 698, 699, 700, 701, 702, 703, 704, 705, 706, 707, 708, 709, 710, 711, 712, 713, 714, 715, 716, 717, 718, 719, 720, 721, 722, 723, 724, 725, 726, 727, 728, 729, 730, 731, 732, 733, 734, 735, 736, 737, 738, 739, 740, 741, 742, 743, 744, 745, 746, 747, 748, 749, 750, 751, 752, 753, 754, 755, 756, 757, 758, 759, 760, 761, 762, 763, 764, 765, 766, 767, 768, 769, 770, 771, 772, 773, 774, 775, 776, 777, 778, 779, 780, 781, 782, 783, 784, 785, 786, 787, 788, 789, 790, 791, 792, 793, 794, 795, 796, 797, 798, 799, 800, 801, 802, 803, 804, 805, 806, 807, 808, 809, 810, 811, 812, 813, 814, 815, 816, 817, 818, 819, 820, 821, 822, 823, 824, 825, 826, 827, 828, 829, 830, 831, 832, 833, 834, 835, 836, 837, 838, 839, 840, 841, 842, 843, 844, 845, 846, 847, 848, 849, 850, 851, 852, 853, 854, 855, 856, 857, 858, 859, 860, 861, 862, 863, 864, 865, 866, 867, 868, 869, 870, 871, 872, 873, 874, 875, 876, 877, 878, 879, 880, 881, 882, 883, 884, 885, 886, 887, 888, 889, 890, 891, 892, 893, 894, 895, 896, 897, 898, 899, 900, 901, 902, 903, 904, 905, 906, 907, 908, 909, 910, 911, 912, 913, 914, 915, 916, 917, 918, 919, 920, 921, 922, 923, 924, 925, 926, 927, 928, 929, 930, 931, 932, 933, 934, 935, 936, 937, 938, 939, 940, 941, 942, 943, 944, 945, 946, 947, 948, 949, 950, 951, 952, 953, 954, 955, 956, 957, 958, 959, 960, 961, 962, 963, 964, 965, 966, 967],
      "AcquisitionTime": ["095252.570000", "095253.030000", "095253.490000", "095253.950000", "095254.410000", "095254.870000", "095255.330000", "095255.790000", "095256.250000", "095256.710000", "095257.170000", "095257.630000", "095258.090000", "095258.550000", "095259.010000", "095259.470000", "095259.930000", "095300.390000", "095300.850000", "095301.310000", "095301.770000", "095302.230000", "095302.690000", "095303.150000", "095303.610000", "095304.070000", "095304.530000", "095304.990000", "095305.450000", "095305.910000", "095306.370000", "095306.830000", "095307.290000", "095307.750000", "095308.210000", "095308.670000", "095309.130000", "095309.590000", "095310.050000", "095310.510000", "095310.970000", "095311.430000", "095311.890000", "095312.350000", "095312.810000", "095313.270000", "095313.730000", "095314.190000", "095314.650000", "095315.110000", "095315.570000", "095316.030000", "095316.490000", "095316.950000", "095317.410000", "095317.870000", "095318.330000", "095318.790000", "095319.250000", "095319.710000", "095320.170000", "095320.630000", "095321.090000", "095321.550000", "095322.010000", "095322.470000", "095322.930000", "095323.390000", "095323.850000", "095324.310000", "095324.770000", "095325.230000", "095325.690000", "095326.150000", "095326.610000", "095327.070000", "095327.530000", "095327.990000", "095328.450000", "095328.910000", "095329.370000", "095329.830000", "095330.290000", "095330.750000", "095331.210000", "095331.670000", "095332.130000", "095332.590000", "095333.050000", "095333.510000", "095333.970000", "095334.430000", "095334.890000", "095335.350000", "095335.810000", "095336.270000", "095336.730000", "095337.190000", "095337.650000", "095338.110000", "095338.570000", "095339.030000", "095339.490000", "095339.950000", "095340.410000", "095340.870000", "095341.330000", "095341.790000", "095342.250000", "095342.710000", "095343.170000", "095343.630000", "095344.090000", "095344.550000", "095345.010000", "095345.470000", "095345.930000", "095346.390000", "095346.850000", "095347.310000", "095347.770000", "095348.230000", "095348.690000", "095349.150000", "095349.610000", "095350.070000", "095350.530000", "095350.990000", "095351.450000", "095351.910000", "095352.370000", "095352.830000", "095353.290000", "095353.750000", "095354.210000", "095354.670000", "095355.130000", "095355.590000", "095356.050000", "095356.510000", "095356.970000", "095357.430000", "095357.890000", "095358.350000", "095358.810000", "095359.270000", "095359.730000", "095400.190000", "095400.650000", "095401.110000", "095401.570000", "095402.030000", "095402.490000", "095402.950000", "095403.410000", "095403.870000", "095404.330000", "095404.790000", "095405.250000", "095405.710000", "095406.170000", "095406.630000", "095407.090000", "095407.550000", "095408.010000", "095408.470000", "095408.930000", "095409.390000", "095409.850000", "095410.310000", "095410.770000", "095411.230000", "095411.690000", "095412.150000", "095412.610000", "095413.070000", "095413.530000", "095413.990000", "095414.450000", "095414.910000", "095415.370000", "095415.830000", "095416.290000", "095416.750000", "095417.210000", "095417.670000", "095418.130000", "095418.590000", "095419.050000", "095419.510000", "095419.970000", "095420.430000", "095420.890000", "095421.350000", "095421.810000", "095422.270000", "095422.730000", "095423.190000", "095423.650000", "095424.110000", "095424.570000", "095425.030000", "095425.490000", "095425.950000", "095426.410000", "095426.870000", "095427.330000", "095427.790000", "095428.250000", "095428.710000", "095429.170000", "095429.630000", "095430.090000", "095430.550000", "095431.010000", "095431.470000", "095431.930000", "095432.390000", "095432.850000", "095433.310000", "095433.770000", "095434.230000", "095434.690000", "095435.150000", "095435.610000", "095436.070000", "095436.530000", "095436.990000", "095437.450000", "095437.910000", "095438.370000", "095438.830000", "095439.290000", "095439.750000", "095440.210000", "095440.670000", "095441.130000", "095441.590000", "095442.050000", "095442.510000", "095442.970000", "095443.430000", "095443.890000", "095444.350000", "095444.810000", "095445.270000", "095445.730000", "095446.190000", "095446.650000", "095447.110000", "095447.570000", "095448.030000", "095448.490000", "095448.950000", "095449.410000", "095449.870000", "095450.330000", "095450.790000", "095451.250000", "095451.710000", "095452.170000", "095452.630000", "095453.090000", "095453.550000", "095454.010000", "095454.470000", "095454.930000", "095455.390000", "095455.850000", "095456.310000", "095456.770000", "095457.230000", "095457.690000", "095458.150000", "095458.610000", "095459.070000", "095459.530000", "095459.990000", "095500.450000", "095500.910000", "095501.370000", "095501.830000", "095502.290000", "095502.750000", "095503.210000", "095503.670000", "095504.130000", "095504.590000", "095505.050000", "095505.510000", "095505.970000", "095506.430000", "095506.890000", "095507.350000", "095507.810000", "095508.270000", "095508.730000", "095509.190000", "095509.650000", "095510.110000", "095510.570000", "095511.030000", "095511.490000", "095511.950000", "095512.410000", "095512.870000", "095513.330000", "095513.790000", "095514.250000", "095514.710000", "095515.170000", "095515.630000", "095516.090000", "095516.550000", "095517.010000", "095517.470000", "095517.930000", "095518.390000", "095518.850000", "095519.310000", "095519.770000", "095520.230000", "095520.690000", "095521.150000", "095521.610000", "095522.070000", "095522.530000", "095522.990000", "095523.450000", "095523.910000", "095524.370000", "095524.830000", "095525.290000", "095525.750000", "095526.210000", "095526.670000", "095527.130000", "095527.590000", "095528.050000", "095528.510000", "095528.970000", "095529.430000", "095529.890000", "095530.350000", "095530.810000", "095531.270000", "095531.730000", "095532.190000", "095532.650000", "095533.110000", "095533.570000", "095534.030000", "095534.490000", "095534.950000", "095535.410000", "095535.870000", "095536.330000", "095536.790000", "095537.250000", "095537.710000", "095538.170000", "095538.630000", "095539.090000", "095539.550000", "095540.010000", "095540.470000", "095540.930000", "095541.390000", "095541.850000", "095542.310000", "095542.770000", "095543.230000", "095543.690000", "095544.150000", "095544.610000", "095545.070000", "095545.530000", "095545.990000", "095546.450000", "095546.910000", "095547.370000", "095547.830000", "095548.290000", "095548.750000", "095549.210000", "095549.670000", "095550.130000", "095550.590000", "095551.050000", "095551.510000", "095551.970000", "095552.430000", "095552.890000", "095553.350000", "095553.810000", "095554.270000", "095554.730000", "095555.190000", "095555.650000", "095556.110000", "095556.570000", "095557.030000", "095557.490000", "095557.950000", "095558.410000", "095558.870000", "095559.330000", "095559.790000", "095600.250000", "095600.710000", "095601.170000", "095601.630000", "095602.090000", "095602.550000", "095603.010000", "095603.470000", "095603.930000", "095604.390000", "095604.850000", "095605.310000", "095605.770000", "095606.230000", "095606.690000", "095607.150000", "095607.610000", "095608.070000", "095608.530000", "095608.990000", "095609.450000", "095609.910000", "095610.370000", "095610.830000", "095611.290000", "095611.750000", "095612.210000", "095612.670000", "095613.130000", "095613.590000", "095614.050000", "095614.510000", "095614.970000", "095615.430000", "095615.890000", "095616.350000", "095616.810000", "095617.270000", "095617.730000", "095618.190000", "095618.650000", "095619.110000", "095619.570000", "095620.030000", "095620.490000", "095620.950000", "095621.410000", "095621.870000", "095622.330000", "095622.790000", "095623.250000", "095623.710000", "095624.170000", "095624.630000", "095625.090000", "095625.550000", "095626.010000", "095626.470000", "095626.930000", "095627.390000", "095627.850000", "095628.310000", "095628.770000", "095629.230000", "095629.690000", "095630.150000", "095630.610000", "095631.070000", "095631.530000", "095631.990000", "095632.450000", "095632.910000", "095633.370000", "095633.830000", "095634.290000", "095634.750000", "095635.210000", "095635.670000", "095636.130000", "095636.590000", "095637.050000", "095637.510000", "095637.970000", "095638.430000", "095638.890000", "095639.350000", "095639.810000", "095640.270000", "095640.730000", "095641.190000", "095641.650000", "095642.110000", "095642.570000", "095643.030000", "095643.490000", "095643.950000", "095644.410000", "095644.870000", "095645.330000", "095645.790000", "095646.250000", "095646.710000", "095647.170000", "095647.630000", "095648.090000", "095648.550000", "095649.010000", "095649.470000", "095649.930000", "095650.390000", "095650.850000", "095651.310000", "095651.770000", "095652.230000", "095652.690000", "095653.150000", "095653.610000", "095654.070000", "095654.530000", "095654.990000", "095655.450000", "095655.910000", "095656.370000", "095656.830000", "095657.290000", "095657.750000", "095658.210000", "095658.670000", "095659.130000", "095659.590000", "095700.050000", "095700.510000", "095700.970000", "095701.430000", "095701.890000", "095702.350000", "095702.810000", "095703.270000", "095703.730000", "095704.190000", "095704.650000", "095705.110000", "095705.570000", "095706.030000", "095706.490000", "095706.950000", "095707.410000", "095707.870000", "095708.330000", "095708.790000", "095709.250000", "095709.710000", "095710.170000", "095710.630000", "095711.090000", "095711.550000", "095712.010000", "095712.470000", "095712.930000", "095713.390000", "095713.850000", "095714.310000", "095714.770000", "095715.230000", "095715.690000", "095716.150000", "095716.610000", "095717.070000", "095717.530000", "095717.990000", "095718.450000", "095718.910000", "095719.370000", "095719.830000", "095720.290000", "095720.750000", "095721.210000", "095721.670000", "095722.130000", "095722.590000", "095723.050000", "095723.510000", "095723.970000", "095724.430000", "095724.890000", "095725.350000", "095725.810000", "095726.270000", "095726.730000", "095727.190000", "095727.650000", "095728.110000", "095728.570000", "095729.030000", "095729.490000", "095729.950000", "095730.410000", "095730.870000", "095731.330000", "095731.790000", "095732.250000", "095732.710000", "095733.170000", "095733.630000", "095734.090000", "095734.550000", "095735.010000", "095735.470000", "095735.930000", "095736.390000", "095736.850000", "095737.310000", "095737.770000", "095738.230000", "095738.690000", "095739.150000", "095739.610000", "095740.070000", "095740.530000", "095740.990000", "095741.450000", "095741.910000", "095742.370000", "095742.830000", "095743.290000", "095743.750000", "095744.210000", "095744.670000", "095745.130000", "095745.590000", "095746.050000", "095746.510000", "095746.970000", "095747.430000", "095747.890000", "095748.350000", "095748.810000", "095749.270000", "095749.730000", "095750.190000", "095750.650000", "095751.110000", "095751.570000", "095752.030000", "095752.490000", "095752.950000", "095753.410000", "095753.870000", "095754.330000", "095754.790000", "095755.250000", "095755.710000", "095756.170000", "095756.630000", "095757.090000", "095757.550000", "095758.010000", "095758.470000", "095758.930000", "095759.390000", "095759.850000", "095800.310000", "095800.770000", "095801.230000", "095801.690000", "095802.150000", "095802.610000", "095803.070000", "095803.530000", "095803.990000", "095804.450000", "095804.910000", "095805.370000", "095805.830000", "095806.290000", "095806.750000", "095807.210000", "095807.670000", "095808.130000", "095808.590000", "095809.050000", "095809.510000", "095809.970000", "095810.430000", "095810.890000", "095811.350000", "095811.810000", "095812.270000", "095812.730000", "095813.190000", "095813.650000", "095814.110000", "095814.570000", "095815.030000", "095815.490000", "095815.950000", "095816.410000", "095816.870000", "095817.330000", "095817.790000", "095818.250000", "095818.710000", "095819.170000", "095819.630000", "095820.090000", "095820.550000", "095821.010000", "095821.470000", "095821.930000", "095822.390000", "095822.850000", "095823.310000", "095823.770000", "095824.230000", "095824.690000", "095825.150000", "095825.610000", "095826.070000", "095826.530000", "095826.990000", "095827.450000", "095827.910000", "095828.370000", "095828.830000", "095829.290000", "095829.750000", "095830.210000", "095830.670000", "095831.130000", "095831.590000", "095832.050000", "095832.510000", "095832.970000", "095833.430000", "095833.890000", "095834.350000", "095834.810000", "095835.270000", "095835.730000", "095836.190000", "095836.650000", "095837.110000", "095837.570000", "095838.030000", "095838.490000", "095838.950000", "095839.410000", "095839.870000", "095840.330000", "095840.790000", "095841.250000", "095841.710000", "095842.170000", "095842.630000", "095843.090000", "095843.550000", "095844.010000", "095844.470000", "095844.930000", "095845.390000", "095845.850000", "095846.310000", "095846.770000", "095847.230000", "095847.690000", "095848.150000", "095848.610000", "095849.070000", "095849.530000", "095849.990000", "095850.450000", "095850.910000", "095851.370000", "095851.830000", "095852.290000", "095852.750000", "095853.210000", "095853.670000", "095854.130000", "095854.590000", "095855.050000", "095855.510000", "095855.970000", "095856.430000", "095856.890000", "095857.350000", "095857.810000", "095858.270000", "095858.730000", "095859.190000", "095859.650000", "095900.110000", "095900.570000", "095901.030000", "095901.490000", "095901.950000", "095902.410000", "095902.870000", "095903.330000", "095903.790000", "095904.250000", "095904.710000", "095905.170000", "095905.630000", "095906.090000", "095906.550000", "095907.010000", "095907.470000", "095907.930000", "095908.390000", "095908.850000", "095909.310000", "095909.770000", "095910.230000", "095910.690000", "095911.150000", "095911.610000", "095912.070000", "095912.530000", "095912.990000", "095913.450000", "095913.910000", "095914.370000", "095914.830000", "095915.290000", "095915.750000", "095916.210000", "095916.670000", "095917.130000", "095917.590000", "095918.050000", "095918.510000", "095918.970000", "095919.430000", "095919.890000", "095920.350000", "095920.810000", "095921.270000", "095921.730000", "095922.190000", "095922.650000", "095923.110000", "095923.570000", "095924.030000", "095924.490000", "095924.950000", "095925.410000", "095925.870000", "095926.330000", "095926.790000", "095927.250000", "095927.710000", "095928.170000", "095928.630000", "095929.090000", "095929.550000", "095930.010000", "095930.470000", "095930.930000", "095931.390000", "095931.850000", "095932.310000", "095932.770000", "095933.230000", "095933.690000", "095934.150000", "095934.610000", "095935.070000", "095935.530000", "095935.990000", "095936.450000", "095936.910000", "095937.370000", "095937.830000", "095938.290000", "095938.750000", "095939.210000", "095939.670000", "095940.130000", "095940.590000", "095941.050000", "095941.510000", "095941.970000", "095942.430000", "095942.890000", "095943.350000", "095943.810000", "095944.270000", "095944.730000", "095945.190000", "095945.650000", "095946.110000", "095946.570000", "095947.030000", "095947.490000", "095947.950000", "095948.410000", "095948.870000", "095949.330000", "095949.790000", "095950.250000", "095950.710000", "095951.170000", "095951.630000", "095952.090000", "095952.550000", "095953.010000", "095953.470000", "095953.930000", "095954.390000", "095954.850000", "095955.310000", "095955.770000", "095956.230000", "095956.690000", "095957.150000", "095957.610000", "095958.070000", "095958.530000", "095958.990000", "095959.450000", "095959.910000", "100000.370000", "100000.830000", "100001.290000", "100001.750000", "100002.210000", "100002.670000", "100003.130000", "100003.590000", "100004.050000", "100004.510000", "100004.970000", "100005.430000", "100005.890000", "100006.350000", "100006.810000", "100007.270000", "100007.730000", "100008.190000", "100008.650000", "100009.110000", "100009.570000", "100010.030000", "100010.490000", "100010.950000", "100011.410000", "100011.870000", "100012.330000", "100012.790000", "100013.250000", "100013.710000", "100014.170000", "100014.630000", "100015.090000", "100015.550000", "100016.010000", "100016.470000", "100016.930000"],
