{
  "AcquisitionMatrixPE": 82,
  "AcquisitionNumber": 1,
  "AcquisitionTime": "10:00:43.060000",
  "BandwidthPerPixelPhaseEncode": 24.888,
  "BaseResolution": 82,
  "BodyPartExamined": "BRAIN",
  "ConsistencyInfo": "N4_VE11C_LATEST_20160120",
  "ConversionSoftware": "dcm2niix",
  "ConversionSoftwareVersion": "v1.0.20201102",
  "DerivedVendorReportedEchoSpacing": 0.00049,
  "DeviceSerialNumber": "66112",
  "DwellTime": 2e-06,
  "EchoTime": 0.0272,
  "EchoTrainLength": 82,
  "EffectiveEchoSpacing": 0.00049,
  "FlipAngle": 44,
  "ImageComments": "Unaliased MB8/PE3",
  "ImageOrientationPatientDICOM": [0.99987, 0.0124882, 0.0101578, -0.0134381, 0.99494, 0.0995647],
  "ImageType": [
    "ORIGINAL",
    "PRIMARY",
    "M",
    "MB",
    "ND",
    "NORM",
    "MOSAIC"
],
  "ImagingFrequency": 123.252,
  "InPlanePhaseEncodingDirectionDICOM": "COL",
  "InstitutionAddress": "Maynard 3,Hanover,NH,US,03755",
  "InstitutionName": "Dartmouth College - PBS",
  "InstitutionalDepartmentName": "Department",
  "MRAcquisitionType": "2D",
  "MagneticFieldStrength": 3,
  "Manufacturer": "Siemens",
  "ManufacturersModelName": "Prisma",
  "Modality": "MR",
  "MultibandAccelerationFactor": 8,
  "PartialFourier": 1,
  "PatientPosition": "HFS",
  "PercentPhaseFOV": 100,
  "PercentSampling": 100,
  "PhaseEncodingDirection": "j-",
  "PhaseEncodingSteps": 82,
  "PhaseResolution": 1,
  "PixelBandwidth": 3050,
  "ProcedureStepDescription": "Wager_Wager^1076_spacetop",
  "ProtocolName": "func_run-02_task-narratives_acq-ap-mb8",
  "PulseSequenceDetails": "%CustomerSeq%\\cmrr_mbep2d_bold",
  "ReceiveCoilActiveElements": "HEA;HEP",
  "ReceiveCoilName": "Head_32",
  "ReconMatrixPE": 82,
  "RepetitionTime": 0.46,
  "SAR": 0.0942349,
  "ScanOptions": "FS",
  "ScanningSequence": "EP",
  "SequenceName": "epfid2d1_82",
  "SequenceVariant": "SK\\SS",
  "SeriesDescription": "func_run-02_task-narratives_acq-ap-mb8",
  "SeriesNumber": 10,
  "ShimSetting": [4114, -7807, -7210, 458, -117, -201, 38, 83],
  "SliceThickness": 2.7,
  "SliceTiming": [0, 0.25, 0.0625, 0.315, 0.125, 0.3775, 0.1875, 0, 0.25, 0.0625, 0.315, 0.125, 0.3775, 0.1875, 0, 0.25, 0.0625, 0.315, 0.125, 0.3775, 0.1875, 0, 0.25, 0.0625, 0.315, 0.125, 0.3775, 0.1875, 0, 0.25, 0.0625, 0.315, 0.125, 0.3775, 0.1875, 0, 0.25, 0.0625, 0.315, 0.125, 0.3775, 0.1875, 0, 0.25, 0.0625, 0.315, 0.125, 0.3775, 0.1875, 0, 0.25, 0.0625, 0.315, 0.125, 0.3775, 0.1875],
  "SoftwareVersions": "syngo MR E11",
  "SpacingBetweenSlices": 2.7,
  "StationName": "AWP66112",
  "TaskName": "narratives",
  "TotalReadoutTime": 0.03969,
  "TxRefAmp": 258.587,
  "WipMemBlock": "6b8d6491-d777-41e5-9a47-9691a73ad25e||Sequence: R016 ve11c/master r/e634e98; Dec 19 2017 11:00:25 by eja",
  "dcmmeta_affine": [
    [-2.682579278945923, -0.03605342656373978, 0.02393023855984211, 112.63350677490234],
    [-0.03350486978888512, 2.6693522930145264, 0.26915839314460754, -95.83737182617188],
    [0.027252711355686188, -0.2671247720718384, 2.68644380569458, -12.366846084594727],
    [0.0, 0.0, 0.0, 1.0]
],
  "dcmmeta_reorient_transform": [
    [0.0, -1.0, 0.0, 81.0],
    [1.0, 0.0, 0.0, 0.0],
    [0.0, 0.0, 1.0, 0.0],
    [0.0, 0.0, 0.0, 1.0]
],
  "dcmmeta_shape": [82, 82, 56, 1098],
  "dcmmeta_slice_dim": 2,
  "dcmmeta_version": 0.6,
  "global": {
    "const": {
      "AccessionNumber": "A003473",
      "AcquisitionMatrix": [82, 0, 0, 82],
      "AngioFlag": "N",
      "BitsAllocated": 16,
      "BitsStored": 16,
      "BodyPartExamined": "BRAIN",
      "Columns": 656,
      "EchoNumbers": 1,
      "EchoTime": 27.2,
      "EchoTrainLength": 82,
      "FlipAngle": 44.0,
      "HighBit": 15,
      "ImageOrientationPatient": [0.99987042357195, 0.01248817794615, 0.01015782839168, -0.0134380943751, 0.99494034494407, 0.09956469063947],
      "ImagePositionPatient": [-869.26609389688, -896.10014007892, -118.4902959019],
      "ImageType": [
        "ORIGINAL",
        "PRIMARY",
        "M",
        "MB",
        "ND",
        "NORM",
        "MOSAIC"
],
      "ImagedNucleus": "1H",
      "ImagingFrequency": 123.252057,
      "InPlanePhaseEncodingDirection": "COL",
      "MRAcquisitionType": "2D",
      "MagneticFieldStrength": 3.0,
      "Manufacturer": "SIEMENS",
      "ManufacturerModelName": "Prisma",
      "Modality": "MR",
      "NumberOfAverages": 1.0,
      "NumberOfPhaseEncodingSteps": 82,
      "PercentPhaseFieldOfView": 100.0,
      "PercentSampling": 100.0,
      "PerformedProcedureStepStartTime": "094504.170000",
      "PhotometricInterpretation": "MONOCHROME2",
      "PixelBandwidth": 3050.0,
      "PixelRepresentation": 0,
      "PixelSpacing": [2.6829268932343, 2.6829268932343],
      "ProtocolName": "func_run-02_task-narratives_acq-ap-mb8",
      "RepetitionTime": 460.0,
      "Rows": 656,
      "SAR": 0.09423488760038,
      "SamplesPerPixel": 1,
      "ScanOptions": "FS",
      "ScanningSequence": "EP",
      "SequenceName": "epfid2d1_82",
      "SequenceVariant": [
        "SK",
        "SS"
],
      "SeriesDescription": "func_run-02_task-narratives_acq-ap-mb8",
      "SeriesNumber": 10,
      "SeriesTime": "100054.329000",
      "SliceLocation": -20.860342633219,
      "SliceThickness": 2.7000000476837,
      "SmallestImagePixelValue": 0,
      "SoftwareVersions": "syngo MR E11",
      "SpacingBetweenSlices": 2.6999999660688,
      "SpecificCharacterSet": "ISO_IR 100",
      "StudyID": "3",
      "StudyTime": "094504.038000",
      "TransmitCoilName": "Body",
      "VariableFlipAngleFlag": "N",
      "WindowCenterWidthExplanation": "Algo1",
      "dBdt": 0.0},
    "slices": {}
  },
  "time": {
    "samples": {
      "AcquisitionNumber": [1, 2, 3, 4, 5, 6, 7, 8, 9, 10, 11, 12, 13, 14, 15, 16, 17, 18, 19, 20, 21, 22, 23, 24, 25, 26, 27, 28, 29, 30, 31, 32, 33, 34, 35, 36, 37, 38, 39, 40, 41, 42, 43, 44, 45, 46, 47, 48, 49, 50, 51, 52, 53, 54, 55, 56, 57, 58, 59, 60, 61, 62, 63, 64, 65, 66, 67, 68, 69, 70, 71, 72, 73, 74, 75, 76, 77, 78, 79, 80, 81, 82, 83, 84, 85, 86, 87, 88, 89, 90, 91, 92, 93, 94, 95, 96, 97, 98, 99, 100, 101, 102, 103, 104, 105, 106, 107, 108, 109, 110, 111, 112, 113, 114, 115, 116, 117, 118, 119, 120, 121, 122, 123, 124, 125, 126, 127, 128, 129, 130, 131, 132, 133, 134, 135, 136, 137, 138, 139, 140, 141, 142, 143, 144, 145, 146, 147, 148, 149, 150, 151, 152, 153, 154, 155, 156, 157, 158, 159, 160, 161, 162, 163, 164, 165, 166, 167, 168, 169, 170, 171, 172, 173, 174, 175, 176, 177, 178, 179, 180, 181, 182, 183, 184, 185, 186, 187, 188, 189, 190, 191, 192, 193, 194, 195, 196, 197, 198, 199, 200, 201, 202, 203, 204, 205, 206, 207, 208, 209, 210, 211, 212, 213, 214, 215, 216, 217, 218, 219, 220, 221, 222, 223, 224, 225, 226, 227, 228, 229, 230, 231, 232, 233, 234, 235, 236, 237, 238, 239, 240, 241, 242, 243, 244, 245, 246, 247, 248, 249, 250, 251, 252, 253, 254, 255, 256, 257, 258, 259, 260, 261, 262, 263, 264, 265, 266, 267, 268, 269, 270, 271, 272, 273, 274, 275, 276, 277, 278, 279, 280, 281, 282, 283, 284, 285, 286, 287, 288, 289, 290, 291, 292, 293, 294, 295, 296, 297, 298, 299, 300, 301, 302, 303, 304, 305, 306, 307, 308, 309, 310, 311, 312, 313, 314, 315, 316, 317, 318, 319, 320, 321, 322, 323, 324, 325, 326, 327, 328, 329, 330, 331, 332, 333, 334, 335, 336, 337, 338, 339, 340, 341, 342, 343, 344, 345, 346, 347, 348, 349, 350, 351, 352, 353, 354, 355, 356, 357, 358, 359, 360, 361, 362, 363, 364, 365, 366, 367, 368, 369, 370, 371, 372, 373, 374, 375, 376, 377, 378, 379, 380, 381, 382, 383, 384, 385, 386, 387, 388, 389, 390, 391, 392, 393, 394, 395, 396, 397, 398, 399, 400, 401, 402, 403, 404, 405, 406, 407, 408, 409, 410, 411, 412, 413, 414, 415, 416, 417, 418, 419, 420, 421, 422, 423, 424, 425, 426, 427, 428, 429, 430, 431, 432, 433, 434, 435, 436, 437, 438, 439, 440, 441, 442, 443, 444, 445, 446, 447, 448, 449, 450, 451, 452, 453, 454, 455, 456, 457, 458, 459, 460, 461, 462, 463, 464, 465, 466, 467, 468, 469, 470, 471, 472, 473, 474, 475, 476, 477, 478, 479, 480, 481, 482, 483, 484, 485, 486, 487, 488, 489, 490, 491, 492, 493, 494, 495, 496, 497, 498, 499, 500, 501, 502, 503, 504, 505, 506, 507, 508, 509, 510, 511, 512, 513, 514, 515, 516, 517, 518, 519, 520, 521, 522, 523, 524, 525, 526, 527, 528, 529, 530, 531, 532, 533, 534, 535, 536, 537, 538, 539, 540, 541, 542, 543, 544, 545, 546, 547, 548, 549, 550, 551, 552, 553, 554, 555, 556, 557, 558, 559, 560, 561, 562, 563, 564, 565, 566, 567, 568, 569, 570, 571, 572, 573, 574, 575, 576, 577, 578, 579, 580, 581, 582, 583, 584, 585, 586, 587, 588, 589, 590, 591, 592, 593, 594, 595, 596, 597, 598, 599, 600, 601, 602, 603, 604, 605, 606, 607, 608, 609, 610, 611, 612, 613, 614, 615, 616, 617, 618, 619, 620, 621, 622, 623, 624, 625, 626, 627, 628, 629, 630, 631, 632, 633, 634, 635, 636, 637, 638, 639, 640, 641, 642, 643, 644, 645, 646, 647, 648, 649, 650, 651, 652, 653, 654, 655, 656, 657, 658, 659, 660, 661, 662, 663, 664, 665, 666, 667, 668, 669, 670, 671, 672, 673, 674, 675, 676, 677, 678, 679, 680, 681, 682, 683, 684, 685, 686, 687, 688, 689, 690, 691, 692, 693, 694, 695, 696, 697, 698, 699, 700, 701, 702, 703, 704, 705, 706, 707, 708, 709, 710, 711, 712, 713, 714, 715, 716, 717, 718, 719, 720, 721, 722, 723, 724, 725, 726, 727, 728, 729, 730, 731, 732, 733, 734, 735, 736, 737, 738, 739, 740, 741, 742, 743, 744, 745, 746, 747, 748, 749, 750, 751, 752, 753, 754, 755, 756, 757, 758, 759, 760, 761, 762, 763, 764, 765, 766, 767, 768, 769, 770, 771, 772, 773, 774, 775, 776, 777, 778, 779, 780, 781, 782, 783, 784, 785, 786, 787, 788, 789, 790, 791, 792, 793, 794, 795, 796, 797, 798, 799, 800, 801, 802, 803, 804, 805, 806, 807, 808, 809, 810, 811, 812, 813, 814, 815, 816, 817, 818, 819, 820, 821, 822, 823, 824, 825, 826, 827, 828, 829, 830, 831, 832, 833, 834, 835, 836, 837, 838, 839, 840, 841, 842, 843, 844, 845, 846, 847, 848, 849, 850, 851, 852, 853, 854, 855, 856, 857, 858, 859, 860, 861, 862, 863, 864, 865, 866, 867, 868, 869, 870, 871, 872, 873, 874, 875, 876, 877, 878, 879, 880, 881, 882, 883, 884, 885, 886, 887, 888, 889, 890, 891, 892, 893, 894, 895, 896, 897, 898, 899, 900, 901, 902, 903, 904, 905, 906, 907, 908, 909, 910, 911, 912, 913, 914, 915, 916, 917, 918, 919, 920, 921, 922, 923, 924, 925, 926, 927, 928, 929, 930, 931, 932, 933, 934, 935, 936, 937, 938, 939, 940, 941, 942, 943, 944, 945, 946, 947, 948, 949, 950, 951, 952, 953, 954, 955, 956, 957, 958, 959, 960, 961, 962, 963, 964, 965, 966, 967, 968, 969, 970, 971, 972, 973, 974, 975, 976, 977, 978, 979, 980, 981, 982, 983, 984, 985, 986, 987, 988, 989, 990, 991, 992, 993, 994, 995, 996, 997, 998, 999, 1000, 1001, 1002, 1003, 1004, 1005, 1006, 1007, 1008, 1009, 1010, 1011, 1012, 1013, 1014, 1015, 1016, 1017, 1018, 1019, 1020, 1021, 1022, 1023, 1024, 1025, 1026, 1027, 1028, 1029, 1030, 1031, 1032, 1033, 1034, 1035, 1036, 1037, 1038, 1039, 1040, 1041, 1042, 1043, 1044, 1045, 1046, 1047, 1048, 1049, 1050, 1051, 1052, 1053, 1054, 1055, 1056, 1057, 1058, 1059, 1060, 1061, 1062, 1063, 1064, 1065, 1066, 1067, 1068, 1069, 1070, 1071, 1072, 1073, 1074, 1075, 1076, 1077, 1078, 1079, 1080, 1081, 1082, 1083, 1084, 1085, 1086, 1087, 1088, 1089, 1090, 1091, 1092, 1093, 1094, 1095, 1096, 1097, 1098],
      "AcquisitionTime": ["100043.060000", "100043.520000", "100043.980000", "100044.440000", "100044.900000", "100045.360000", "100045.820000", "100046.280000", "100046.740000", "100047.200000", "100047.660000", "100048.120000", "100048.580000", "100049.040000", "100049.500000", "100049.960000", "100050.420000", "100050.880000", "100051.340000", "100051.800000", "100052.260000", "100052.720000", "100053.180000", "100053.640000", "100054.100000", "100054.560000", "100055.020000", "100055.480000", "100055.940000", "100056.400000", "100056.860000", "100057.320000", "100057.780000", "100058.240000", "100058.700000", "100059.160000", "100059.620000", "100100.080000", "100100.540000", "100101.000000", "100101.460000", "100101.920000", "100102.380000", "100102.840000", "100103.300000", "100103.760000", "100104.220000", "100104.680000", "100105.140000", "100105.600000", "100106.060000", "100106.520000", "100106.980000", "100107.440000", "100107.900000", "100108.360000", "100108.820000", "100109.280000", "100109.740000", "100110.200000", "100110.660000", "100111.120000", "100111.580000", "100112.040000", "100112.500000", "100112.960000", "100113.420000", "100113.880000", "100114.340000", "100114.800000", "100115.260000", "100115.720000", "100116.180000", "100116.640000", "100117.100000", "100117.560000", "100118.020000", "100118.480000", "100118.940000", "100119.400000", "100119.860000", "100120.320000", "100120.780000", "100121.240000", "100121.700000", "100122.160000", "100122.620000", "100123.080000", "100123.540000", "100124.000000", "100124.460000", "100124.920000", "100125.380000", "100125.840000", "100126.300000", "100126.760000", "100127.220000", "100127.680000", "100128.140000", "100128.600000", "100129.060000", "100129.520000", "100129.980000", "100130.440000", "100130.900000", "100131.360000", "100131.820000", "100132.280000", "100132.740000", "100133.200000", "100133.660000", "100134.120000", "100134.580000", "100135.040000", "100135.500000", "100135.960000", "100136.420000", "100136.880000", "100137.340000", "100137.800000", "100138.260000", "100138.720000", "100139.180000", "100139.640000", "100140.100000", "100140.560000", "100141.020000", "100141.480000", "100141.940000", "100142.400000", "100142.860000", "100143.320000", "100143.780000", "100144.240000", "100144.700000", "100145.160000", "100145.620000", "100146.080000", "100146.540000", "100147.000000", "100147.460000", "100147.920000", "100148.380000", "100148.840000", "100149.300000", "100149.760000", "100150.220000", "100150.680000", "100151.140000", "100151.600000", "100152.060000", "100152.520000", "100152.980000", "100153.440000", "100153.900000", "100154.360000", "100154.820000", "100155.280000", "100155.740000", "100156.200000", "100156.660000", "100157.120000", "100157.580000", "100158.040000", "100158.500000", "100158.960000", "100159.420000", "100159.880000", "100200.340000", "100200.800000", "100201.260000", "100201.720000", "100202.180000", "100202.640000", "100203.100000", "100203.560000", "100204.020000", "100204.480000", "100204.940000", "100205.400000", "100205.860000", "100206.320000", "100206.780000", "100207.240000", "100207.700000", "100208.160000", "100208.620000", "100209.080000", "100209.540000", "100210.000000", "100210.460000", "100210.920000", "100211.380000", "100211.840000", "100212.300000", "100212.760000", "100213.220000", "100213.680000", "100214.140000", "100214.600000", "100215.060000", "100215.520000", "100215.980000", "100216.440000", "100216.900000", "100217.360000", "100217.820000", "100218.280000", "100218.740000", "100219.200000", "100219.660000", "100220.120000", "100220.580000", "100221.040000", "100221.500000", "100221.960000", "100222.420000", "100222.880000", "100223.340000", "100223.800000", "100224.260000", "100224.720000", "100225.180000", "100225.640000", "100226.100000", "100226.560000", "100227.020000", "100227.480000", "100227.940000", "100228.400000", "100228.860000", "100229.320000", "100229.780000", "100230.240000", "100230.700000", "100231.160000", "100231.620000", "100232.080000", "100232.540000", "100233.000000", "100233.460000", "100233.920000", "100234.380000", "100234.840000", "100235.300000", "100235.760000", "100236.220000", "100236.680000", "100237.140000", "100237.600000", "100238.060000", "100238.520000", "100238.980000", "100239.440000", "100239.900000", "100240.360000", "100240.820000", "100241.280000", "100241.740000", "100242.200000", "100242.660000", "100243.120000", "100243.580000", "100244.040000", "100244.500000", "100244.960000", "100245.420000", "100245.880000", "100246.340000", "100246.800000", "100247.260000", "100247.720000", "100248.180000", "100248.640000", "100249.100000", "100249.560000", "100250.020000", "100250.480000", "100250.940000", "100251.400000", "100251.860000", "100252.320000", "100252.780000", "100253.240000", "100253.700000", "100254.160000", "100254.620000", "100255.080000", "100255.540000", "100256.000000", "100256.460000", "100256.920000", "100257.380000", "100257.840000", "100258.300000", "100258.760000", "100259.220000", "100259.680000", "100300.140000", "100300.600000", "100301.060000", "100301.520000", "100301.980000", "100302.440000", "100302.900000", "100303.360000", "100303.820000", "100304.280000", "100304.740000", "100305.200000", "100305.660000", "100306.120000", "100306.580000", "100307.040000", "100307.500000", "100307.960000", "100308.420000", "100308.880000", "100309.340000", "100309.800000", "100310.260000", "100310.720000", "100311.180000", "100311.640000", "100312.100000", "100312.560000", "100313.020000", "100313.480000", "100313.940000", "100314.400000", "100314.860000", "100315.320000", "100315.780000", "100316.240000", "100316.700000", "100317.160000", "100317.620000", "100318.080000", "100318.540000", "100319.000000", "100319.460000", "100319.920000", "100320.380000", "100320.840000", "100321.300000", "100321.760000", "100322.220000", "100322.680000", "100323.140000", "100323.600000", "100324.060000", "100324.520000", "100324.980000", "100325.440000", "100325.900000", "100326.360000", "100326.820000", "100327.280000", "100327.740000", "100328.200000", "100328.660000", "100329.120000", "100329.580000", "100330.040000", "100330.500000", "100330.960000", "100331.420000", "100331.880000", "100332.340000", "100332.800000", "100333.260000", "100333.720000", "100334.180000", "100334.640000", "100335.100000", "100335.560000", "100336.020000", "100336.480000", "100336.940000", "100337.400000", "100337.860000", "100338.320000", "100338.780000", "100339.240000", "100339.700000", "100340.160000", "100340.620000", "100341.080000", "100341.540000", "100342.000000", "100342.460000", "100342.920000", "100343.380000", "100343.840000", "100344.300000", "100344.760000", "100345.220000", "100345.680000", "100346.140000", "100346.600000", "100347.060000", "100347.520000", "100347.980000", "100348.440000", "100348.900000", "100349.360000", "100349.820000", "100350.280000", "100350.740000", "100351.200000", "100351.660000", "100352.120000", "100352.580000", "100353.040000", "100353.500000", "100353.960000", "100354.420000", "100354.880000", "100355.340000", "100355.800000", "100356.260000", "100356.720000", "100357.180000", "100357.640000", "100358.100000", "100358.560000", "100359.020000", "100359.480000", "100359.940000", "100400.400000", "100400.860000", "100401.320000", "100401.780000", "100402.240000", "100402.700000", "100403.160000", "100403.620000", "100404.080000", "100404.540000", "100405.000000", "100405.460000", "100405.920000", "100406.380000", "100406.840000", "100407.300000", "100407.760000", "100408.220000", "100408.680000", "100409.140000", "100409.600000", "100410.060000", "100410.520000", "100410.980000", "100411.440000", "100411.900000", "100412.360000", "100412.820000", "100413.280000", "100413.740000", "100414.200000", "100414.660000", "100415.120000", "100415.580000", "100416.040000", "100416.500000", "100416.960000", "100417.420000", "100417.880000", "100418.340000", "100418.800000", "100419.260000", "100419.720000", "100420.180000", "100420.640000", "100421.100000", "100421.560000", "100422.020000", "100422.480000", "100422.940000", "100423.400000", "100423.860000", "100424.320000", "100424.780000", "100425.240000", "100425.700000", "100426.160000", "100426.620000", "100427.080000", "100427.540000", "100428.000000", "100428.460000", "100428.920000", "100429.380000", "100429.840000", "100430.300000", "100430.760000", "100431.220000", "100431.680000", "100432.140000", "100432.600000", "100433.060000", "100433.520000", "100433.980000", "100434.440000", "100434.900000", "100435.360000", "100435.820000", "100436.280000", "100436.740000", "100437.200000", "100437.660000", "100438.120000", "100438.580000", "100439.040000", "100439.500000", "100439.960000", "100440.420000", "100440.880000", "100441.340000", "100441.800000", "100442.260000", "100442.720000", "100443.180000", "100443.640000", "100444.100000", "100444.560000", "100445.020000", "100445.480000", "100445.940000", "100446.400000", "100446.860000", "100447.320000", "100447.780000", "100448.240000", "100448.700000", "100449.160000", "100449.620000", "100450.080000", "100450.540000", "100451.000000", "100451.460000", "100451.920000", "100452.380000", "100452.840000", "100453.300000", "100453.760000", "100454.220000", "100454.680000", "100455.140000", "100455.600000", "100456.060000", "100456.520000", "100456.980000", "100457.440000", "100457.900000", "100458.360000", "100458.820000", "100459.280000", "100459.740000", "100500.200000", "100500.660000", "100501.120000", "100501.580000", "100502.040000", "100502.500000", "100502.960000", "100503.420000", "100503.880000", "100504.340000", "100504.800000", "100505.260000", "100505.720000", "100506.180000", "100506.640000", "100507.100000", "100507.560000", "100508.020000", "100508.480000", "100508.940000", "100509.400000", "100509.860000", "100510.320000", "100510.780000", "100511.240000", "100511.700000", "100512.160000", "100512.620000", "100513.080000", "100513.540000", "100514.000000", "100514.460000", "100514.920000", "100515.380000", "100515.840000", "100516.300000", "100516.760000", "100517.220000", "100517.680000", "100518.140000", "100518.600000", "100519.060000", "100519.520000", "100519.980000", "100520.440000", "100520.900000", "100521.360000", "100521.820000", "100522.280000", "100522.740000", "100523.200000", "100523.660000", "100524.120000", "100524.580000", "100525.040000", "100525.500000", "100525.960000", "100526.420000", "100526.880000", "100527.340000", "100527.800000", "100528.260000", "100528.720000", "100529.180000", "100529.640000", "100530.100000", "100530.560000", "100531.020000", "100531.480000", "100531.940000", "100532.400000", "100532.860000", "100533.320000", "100533.780000", "100534.240000", "100534.700000", "100535.160000", "100535.620000", "100536.080000", "100536.540000", "100537.000000", "100537.460000", "100537.920000", "100538.380000", "100538.840000", "100539.300000", "100539.760000", "100540.220000", "100540.680000", "100541.140000", "100541.600000", "100542.060000", "100542.520000", "100542.980000", "100543.440000", "100543.900000", "100544.360000", "100544.820000", "100545.280000", "100545.740000", "100546.200000", "100546.660000", "100547.120000", "100547.580000", "100548.040000", "100548.500000", "100548.960000", "100549.420000", "100549.880000", "100550.340000", "100550.800000", "100551.260000", "100551.720000", "100552.180000", "100552.640000", "100553.100000", "100553.560000", "100554.020000", "100554.480000", "100554.940000", "100555.400000", "100555.860000", "100556.320000", "100556.780000", "100557.240000", "100557.700000", "100558.160000", "100558.620000", "100559.080000", "100559.540000", "100600.000000", "100600.460000", "100600.920000", "100601.380000", "100601.840000", "100602.300000", "100602.760000", "100603.220000", "100603.680000", "100604.140000", "100604.600000", "100605.060000", "100605.520000", "100605.980000", "100606.440000", "100606.900000", "100607.360000", "100607.820000", "100608.280000", "100608.740000", "100609.200000", "100609.660000", "100610.120000", "100610.580000", "100611.040000", "100611.500000", "100611.960000", "100612.420000", "100612.880000", "100613.340000", "100613.800000", "100614.260000", "100614.720000", "100615.180000", "100615.640000", "100616.100000", "100616.560000", "100617.020000", "100617.480000", "100617.940000", "100618.400000", "100618.860000", "100619.320000", "100619.780000", "100620.240000", "100620.700000", "100621.160000", "100621.620000", "100622.080000", "100622.540000", "100623.000000", "100623.460000", "100623.920000", "100624.380000", "100624.840000", "100625.300000", "100625.760000", "100626.220000", "100626.680000", "100627.140000", "100627.600000", "100628.060000", "100628.520000", "100628.980000", "100629.440000", "100629.900000", "100630.360000", "100630.820000", "100631.280000", "100631.740000", "100632.200000", "100632.660000", "100633.120000", "100633.580000", "100634.040000", "100634.500000", "100634.960000", "100635.420000", "100635.880000", "100636.340000", "100636.800000", "100637.260000", "100637.720000", "100638.180000", "100638.640000", "100639.100000", "100639.560000", "100640.020000", "100640.480000", "100640.940000", "100641.400000", "100641.860000", "100642.320000", "100642.780000", "100643.240000", "100643.700000", "100644.160000", "100644.620000", "100645.080000", "100645.540000", "100646.000000", "100646.460000", "100646.920000", "100647.380000", "100647.840000", "100648.300000", "100648.760000", "100649.220000", "100649.680000", "100650.140000", "100650.600000", "100651.060000", "100651.520000", "100651.980000", "100652.440000", "100652.900000", "100653.360000", "100653.820000", "100654.280000", "100654.740000", "100655.200000", "100655.660000", "100656.120000", "100656.580000", "100657.040000", "100657.500000", "100657.960000", "100658.420000", "100658.880000", "100659.340000", "100659.800000", "100700.260000", "100700.720000", "100701.180000", "100701.640000", "100702.100000", "100702.560000", "100703.020000", "100703.480000", "100703.940000", "100704.400000", "100704.860000", "100705.320000", "100705.780000", "100706.240000", "100706.700000", "100707.160000", "100707.620000", "100708.080000", "100708.540000", "100709.000000", "100709.460000", "100709.920000", "100710.380000", "100710.840000", "100711.300000", "100711.760000", "100712.220000", "100712.680000", "100713.140000", "100713.600000", "100714.060000", "100714.520000", "100714.980000", "100715.440000", "100715.900000", "100716.360000", "100716.820000", "100717.280000", "100717.740000", "100718.200000", "100718.660000", "100719.120000", "100719.580000", "100720.040000", "100720.500000", "100720.960000", "100721.420000", "100721.880000", "100722.340000", "100722.800000", "100723.260000", "100723.720000", "100724.180000", "100724.640000", "100725.100000", "100725.560000", "100726.020000", "100726.480000", "100726.940000", "100727.400000", "100727.860000", "100728.320000", "100728.780000", "100729.240000", "100729.700000", "100730.160000", "100730.620000", "100731.080000", "100731.540000", "100732.000000", "100732.460000", "100732.920000", "100733.380000", "100733.840000", "100734.300000", "100734.760000", "100735.220000", "100735.680000", "100736.140000", "100736.600000", "100737.060000", "100737.520000", "100737.980000", "100738.440000", "100738.900000", "100739.360000", "100739.820000", "100740.280000", "100740.740000", "100741.200000", "100741.660000", "100742.120000", "100742.580000", "100743.040000", "100743.500000", "100743.960000", "100744.420000", "100744.880000", "100745.340000", "100745.800000", "100746.260000", "100746.720000", "100747.180000", "100747.640000", "100748.100000", "100748.560000", "100749.020000", "100749.480000", "100749.940000", "100750.400000", "100750.860000", "100751.320000", "100751.780000", "100752.240000", "100752.700000", "100753.160000", "100753.620000", "100754.080000", "100754.540000", "100755.000000", "100755.460000", "100755.920000", "100756.380000", "100756.840000", "100757.300000", "100757.760000", "100758.220000", "100758.680000", "100759.140000", "100759.600000", "100800.060000", "100800.520000", "100800.980000", "100801.440000", "100801.900000", "100802.360000", "100802.820000", "100803.280000", "100803.740000", "100804.200000", "100804.660000", "100805.120000", "100805.580000", "100806.040000", "100806.500000", "100806.960000", "100807.420000", "100807.880000", "100808.340000", "100808.800000", "100809.260000", "100809.720000", "100810.180000", "100810.640000", "100811.100000", "100811.560000", "100812.020000", "100812.480000", "100812.940000", "100813.400000", "100813.860000", "100814.320000", "100814.780000", "100815.240000", "100815.700000", "100816.160000", "100816.620000", "100817.080000", "100817.540000", "100818.000000", "100818.460000", "100818.920000", "100819.380000", "100819.840000", "100820.300000", "100820.760000", "100821.220000", "100821.680000", "100822.140000", "100822.600000", "100823.060000", "100823.520000", "100823.980000", "100824.440000", "100824.900000", "100825.360000", "100825.820000", "100826.280000", "100826.740000", "100827.200000", "100827.660000", "100828.120000", "100828.580000", "100829.040000", "100829.500000", "100829.960000", "100830.420000", "100830.880000", "100831.340000", "100831.800000", "100832.260000", "100832.720000", "100833.180000", "100833.640000", "100834.100000", "100834.560000", "100835.020000", "100835.480000", "100835.940000", "100836.400000", "100836.860000", "100837.320000", "100837.780000", "100838.240000", "100838.700000", "100839.160000", "100839.620000", "100840.080000", "100840.540000", "100841.000000", "100841.460000", "100841.920000", "100842.380000", "100842.840000", "100843.300000", "100843.760000", "100844.220000", "100844.680000", "100845.140000", "100845.600000", "100846.060000", "100846.520000", "100846.980000", "100847.440000", "100847.900000", "100848.360000", "100848.820000", "100849.280000", "100849.740000", "100850.200000", "100850.660000", "100851.120000", "100851.580000", "100852.040000", "100852.500000", "100852.960000", "100853.420000", "100853.880000", "100854.340000", "100854.800000", "100855.260000", "100855.720000", "100856.180000", "100856.640000", "100857.100000", "100857.560000", "100858.020000", "100858.480000", "100858.940000", "100859.400000", "100859.860000", "100900.320000", "100900.780000", "100901.240000", "100901.700000", "100902.160000", "100902.620000", "100903.080000", "100903.540000", "100904.000000", "100904.460000", "100904.920000", "100905.380000", "100905.840000", "100906.300000", "100906.760000", "100907.220000", "100907.680000"],
