{
  "AcquisitionMatrixPE": 82,
  "AcquisitionNumber": 1,
  "AcquisitionTime": "11:26:56.410000",
  "BandwidthPerPixelPhaseEncode": 24.888,
  "BaseResolution": 82,
  "BodyPartExamined": "BRAIN",
  "ConsistencyInfo": "N4_VE11C_LATEST_20160120",
  "ConversionSoftware": "dcm2niix",
  "ConversionSoftwareVersion": "v1.0.20201102",
  "DerivedVendorReportedEchoSpacing": 0.00049,
  "DeviceSerialNumber": "66112",
  "DwellTime": 2e-06,
  "EchoTime": 0.0272,
  "EchoTrainLength": 82,
  "EffectiveEchoSpacing": 0.00049,
  "FlipAngle": 44,
  "ImageComments": "Unaliased MB8/PE3",
  "ImageOrientationPatientDICOM": [0.999209, 0.0342162, 0.0202632, -0.0364647, 0.991658, 0.12363],
  "ImageType": [
    "ORIGINAL",
    "PRIMARY",
    "M",
    "MB",
    "ND",
    "NORM",
    "MOSAIC"
],
  "ImagingFrequency": 123.252,
  "InPlanePhaseEncodingDirectionDICOM": "COL",
  "InstitutionAddress": "Maynard 3,Hanover,NH,US,03755",
  "InstitutionName": "Dartmouth College - PBS",
  "InstitutionalDepartmentName": "Department",
  "MRAcquisitionType": "2D",
  "MagneticFieldStrength": 3,
  "Manufacturer": "Siemens",
  "ManufacturersModelName": "Prisma",
  "Modality": "MR",
  "MultibandAccelerationFactor": 8,
  "PartialFourier": 1,
  "PatientPosition": "HFS",
  "PercentPhaseFOV": 100,
  "PercentSampling": 100,
  "PhaseEncodingDirection": "j-",
  "PhaseEncodingSteps": 82,
  "PhaseResolution": 1,
  "PixelBandwidth": 3050,
  "ProcedureStepDescription": "Wager_Wager^1076_spacetop",
  "ProtocolName": "func_run-04_task-alignvideo_acq-ap-mb8",
  "PulseSequenceDetails": "%CustomerSeq%\\cmrr_mbep2d_bold",
  "ReceiveCoilActiveElements": "HEA;HEP",
  "ReceiveCoilName": "Head_32",
  "ReconMatrixPE": 82,
  "RepetitionTime": 0.46,
  "SAR": 0.0941411,
  "ScanOptions": "FS",
  "ScanningSequence": "EP",
  "SequenceName": "epfid2d1_82",
  "SequenceVariant": "SK\\SS",
  "SeriesDescription": "func_run-04_task-alignvideo_acq-ap-mb8",
  "SeriesNumber": 34,
  "ShimSetting": [4115, -7800, -7210, 458, -116, -180, 43, 82],
  "SliceThickness": 2.7,
  "SliceTiming": [0, 0.25, 0.0625, 0.315, 0.125, 0.3775, 0.1875, 0, 0.25, 0.0625, 0.315, 0.125, 0.3775, 0.1875, 0, 0.25, 0.0625, 0.315, 0.125, 0.3775, 0.1875, 0, 0.25, 0.0625, 0.315, 0.125, 0.3775, 0.1875, 0, 0.25, 0.0625, 0.315, 0.125, 0.3775, 0.1875, 0, 0.25, 0.0625, 0.315, 0.125, 0.3775, 0.1875, 0, 0.25, 0.0625, 0.315, 0.125, 0.3775, 0.1875, 0, 0.25, 0.0625, 0.315, 0.125, 0.3775, 0.1875],
  "SoftwareVersions": "syngo MR E11",
  "SpacingBetweenSlices": 2.7,
  "StationName": "AWP66112",
  "TaskName": "alignvideo",
  "TotalReadoutTime": 0.03969,
  "TxRefAmp": 258.587,
  "WipMemBlock": "1be3e6df-ccf5-4552-88ee-8011af212107||Sequence: R016 ve11c/master r/e634e98; Dec 19 2017 11:00:25 by eja",
  "dcmmeta_affine": [
    [-2.68080472946167, -0.09783216565847397, 0.04283283278346062, 117.01478576660156],
    [-0.09179946780204773, 2.6605465412139893, 0.33553147315979004, -93.94549560546875],
    [0.054364632815122604, -0.3316897451877594, 2.6787281036376953, -7.9680891036987305],
    [0.0, 0.0, 0.0, 1.0]
],
  "dcmmeta_reorient_transform": [
    [0.0, -1.0, 0.0, 81.0],
    [1.0, 0.0, 0.0, 0.0],
    [0.0, 0.0, 1.0, 0.0],
    [0.0, 0.0, 0.0, 1.0]
],
  "dcmmeta_shape": [82, 82, 56, 914],
  "dcmmeta_slice_dim": 2,
  "dcmmeta_version": 0.6,
  "global": {
    "const": {
      "AccessionNumber": "A003473",
      "AcquisitionMatrix": [82, 0, 0, 82],
      "AngioFlag": "N",
      "BitsAllocated": 16,
      "BitsStored": 16,
      "BodyPartExamined": "BRAIN",
      "Columns": 656,
      "EchoNumbers": 1,
      "EchoTime": 27.2,
      "EchoTrainLength": 82,
      "FlipAngle": 44.0,
      "HighBit": 15,
      "ImageOrientationPatient": [0.99920901599527, 0.03421616378355, 0.02026318064113, -0.0364647157723, 0.99165820412768, 0.12362981311116],
      "ImagePositionPatient": [-850.40350742232, -911.48204978112, -145.63256664699],
      "ImageType": [
        "ORIGINAL",
        "PRIMARY",
        "M",
        "MB",
        "ND",
        "NORM",
        "MOSAIC"
],
      "ImagedNucleus": "1H",
      "ImagingFrequency": 123.252071,
      "InPlanePhaseEncodingDirection": "COL",
      "MRAcquisitionType": "2D",
      "MagneticFieldStrength": 3.0,
      "Manufacturer": "SIEMENS",
      "ManufacturerModelName": "Prisma",
      "Modality": "MR",
      "NumberOfAverages": 1.0,
      "NumberOfPhaseEncodingSteps": 82,
      "PercentPhaseFieldOfView": 100.0,
      "PercentSampling": 100.0,
      "PerformedProcedureStepStartTime": "094504.170000",
      "PhotometricInterpretation": "MONOCHROME2",
      "PixelBandwidth": 3050.0,
      "PixelRepresentation": 0,
      "PixelSpacing": [2.6829268932343, 2.6829268932343],
      "ProtocolName": "func_run-04_task-alignvideo_acq-ap-mb8",
      "RepetitionTime": 460.0,
      "Rows": 656,
      "SAR": 0.09414111037292,
      "SamplesPerPixel": 1,
      "ScanOptions": "FS",
      "ScanningSequence": "EP",
      "SequenceName": "epfid2d1_82",
      "SequenceVariant": [
        "SK",
        "SS"
],
      "SeriesDescription": "func_run-04_task-alignvideo_acq-ap-mb8",
      "SeriesNumber": 34,
      "SeriesTime": "112714.338000",
      "SliceLocation": -17.723681334403,
      "SliceThickness": 2.7000000476837,
      "SmallestImagePixelValue": 0,
      "SoftwareVersions": "syngo MR E11",
      "SpacingBetweenSlices": 2.7000000835309,
      "SpecificCharacterSet": "ISO_IR 100",
      "StudyID": "3",
      "StudyTime": "094504.038000",
      "TransmitCoilName": "Body",
      "VariableFlipAngleFlag": "N",
      "WindowCenterWidthExplanation": "Algo1",
      "dBdt": 0.0},
    "slices": {}
  },
  "time": {
    "samples": {
      "AcquisitionNumber": [1, 2, 3, 4, 5, 6, 7, 8, 9, 10, 11, 12, 13, 14, 15, 16, 17, 18, 19, 20, 21, 22, 23, 24, 25, 26, 27, 28, 29, 30, 31, 32, 33, 34, 35, 36, 37, 38, 39, 40, 41, 42, 43, 44, 45, 46, 47, 48, 49, 50, 51, 52, 53, 54, 55, 56, 57, 58, 59, 60, 61, 62, 63, 64, 65, 66, 67, 68, 69, 70, 71, 72, 73, 74, 75, 76, 77, 78, 79, 80, 81, 82, 83, 84, 85, 86, 87, 88, 89, 90, 91, 92, 93, 94, 95, 96, 97, 98, 99, 100, 101, 102, 103, 104, 105, 106, 107, 108, 109, 110, 111, 112, 113, 114, 115, 116, 117, 118, 119, 120, 121, 122, 123, 124, 125, 126, 127, 128, 129, 130, 131, 132, 133, 134, 135, 136, 137, 138, 139, 140, 141, 142, 143, 144, 145, 146, 147, 148, 149, 150, 151, 152, 153, 154, 155, 156, 157, 158, 159, 160, 161, 162, 163, 164, 165, 166, 167, 168, 169, 170, 171, 172, 173, 174, 175, 176, 177, 178, 179, 180, 181, 182, 183, 184, 185, 186, 187, 188, 189, 190, 191, 192, 193, 194, 195, 196, 197, 198, 199, 200, 201, 202, 203, 204, 205, 206, 207, 208, 209, 210, 211, 212, 213, 214, 215, 216, 217, 218, 219, 220, 221, 222, 223, 224, 225, 226, 227, 228, 229, 230, 231, 232, 233, 234, 235, 236, 237, 238, 239, 240, 241, 242, 243, 244, 245, 246, 247, 248, 249, 250, 251, 252, 253, 254, 255, 256, 257, 258, 259, 260, 261, 262, 263, 264, 265, 266, 267, 268, 269, 270, 271, 272, 273, 274, 275, 276, 277, 278, 279, 280, 281, 282, 283, 284, 285, 286, 287, 288, 289, 290, 291, 292, 293, 294, 295, 296, 297, 298, 299, 300, 301, 302, 303, 304, 305, 306, 307, 308, 309, 310, 311, 312, 313, 314, 315, 316, 317, 318, 319, 320, 321, 322, 323, 324, 325, 326, 327, 328, 329, 330, 331, 332, 333, 334, 335, 336, 337, 338, 339, 340, 341, 342, 343, 344, 345, 346, 347, 348, 349, 350, 351, 352, 353, 354, 355, 356, 357, 358, 359, 360, 361, 362, 363, 364, 365, 366, 367, 368, 369, 370, 371, 372, 373, 374, 375, 376, 377, 378, 379, 380, 381, 382, 383, 384, 385, 386, 387, 388, 389, 390, 391, 392, 393, 394, 395, 396, 397, 398, 399, 400, 401, 402, 403, 404, 405, 406, 407, 408, 409, 410, 411, 412, 413, 414, 415, 416, 417, 418, 419, 420, 421, 422, 423, 424, 425, 426, 427, 428, 429, 430, 431, 432, 433, 434, 435, 436, 437, 438, 439, 440, 441, 442, 443, 444, 445, 446, 447, 448, 449, 450, 451, 452, 453, 454, 455, 456, 457, 458, 459, 460, 461, 462, 463, 464, 465, 466, 467, 468, 469, 470, 471, 472, 473, 474, 475, 476, 477, 478, 479, 480, 481, 482, 483, 484, 485, 486, 487, 488, 489, 490, 491, 492, 493, 494, 495, 496, 497, 498, 499, 500, 501, 502, 503, 504, 505, 506, 507, 508, 509, 510, 511, 512, 513, 514, 515, 516, 517, 518, 519, 520, 521, 522, 523, 524, 525, 526, 527, 528, 529, 530, 531, 532, 533, 534, 535, 536, 537, 538, 539, 540, 541, 542, 543, 544, 545, 546, 547, 548, 549, 550, 551, 552, 553, 554, 555, 556, 557, 558, 559, 560, 561, 562, 563, 564, 565, 566, 567, 568, 569, 570, 571, 572, 573, 574, 575, 576, 577, 578, 579, 580, 581, 582, 583, 584, 585, 586, 587, 588, 589, 590, 591, 592, 593, 594, 595, 596, 597, 598, 599, 600, 601, 602, 603, 604, 605, 606, 607, 608, 609, 610, 611, 612, 613, 614, 615, 616, 617, 618, 619, 620, 621, 622, 623, 624, 625, 626, 627, 628, 629, 630, 631, 632, 633, 634, 635, 636, 637, 638, 639, 640, 641, 642, 643, 644, 645, 646, 647, 648, 649, 650, 651, 652, 653, 654, 655, 656, 657, 658, 659, 660, 661, 662, 663, 664, 665, 666, 667, 668, 669, 670, 671, 672, 673, 674, 675, 676, 677, 678, 679, 680, 681, 682, 683, 684, 685, 686, 687, 688, 689, 690, 691, 692, 693, 694, 695, 696, 697, 698, 699, 700, 701, 702, 703, 704, 705, 706, 707, 708, 709, 710, 711, 712, 713, 714, 715, 716, 717, 718, 719, 720, 721, 722, 723, 724, 725, 726, 727, 728, 729, 730, 731, 732, 733, 734, 735, 736, 737, 738, 739, 740, 741, 742, 743, 744, 745, 746, 747, 748, 749, 750, 751, 752, 753, 754, 755, 756, 757, 758, 759, 760, 761, 762, 763, 764, 765, 766, 767, 768, 769, 770, 771, 772, 773, 774, 775, 776, 777, 778, 779, 780, 781, 782, 783, 784, 785, 786, 787, 788, 789, 790, 791, 792, 793, 794, 795, 796, 797, 798, 799, 800, 801, 802, 803, 804, 805, 806, 807, 808, 809, 810, 811, 812, 813, 814, 815, 816, 817, 818, 819, 820, 821, 822, 823, 824, 825, 826, 827, 828, 829, 830, 831, 832, 833, 834, 835, 836, 837, 838, 839, 840, 841, 842, 843, 844, 845, 846, 847, 848, 849, 850, 851, 852, 853, 854, 855, 856, 857, 858, 859, 860, 861, 862, 863, 864, 865, 866, 867, 868, 869, 870, 871, 872, 873, 874, 875, 876, 877, 878, 879, 880, 881, 882, 883, 884, 885, 886, 887, 888, 889, 890, 891, 892, 893, 894, 895, 896, 897, 898, 899, 900, 901, 902, 903, 904, 905, 906, 907, 908, 909, 910, 911, 912, 913, 914],
      "AcquisitionTime": ["112656.410000", "112656.870000", "112657.330000", "112657.790000", "112658.250000", "112658.710000", "112659.170000", "112659.630000", "112700.090000", "112700.550000", "112701.010000", "112701.470000", "112701.930000", "112702.390000", "112702.850000", "112703.310000", "112703.770000", "112704.230000", "112704.690000", "112705.150000", "112705.610000", "112706.070000", "112706.530000", "112706.990000", "112707.450000", "112707.910000", "112708.370000", "112708.830000", "112709.290000", "112709.750000", "112710.210000", "112710.670000", "112711.130000", "112711.590000", "112712.050000", "112712.510000", "112712.970000", "112713.430000", "112713.890000", "112714.350000", "112714.810000", "112715.270000", "112715.730000", "112716.190000", "112716.650000", "112717.110000", "112717.570000", "112718.030000", "112718.490000", "112718.950000", "112719.410000", "112719.870000", "112720.330000", "112720.790000", "112721.250000", "112721.710000", "112722.170000", "112722.630000", "112723.090000", "112723.550000", "112724.010000", "112724.470000", "112724.930000", "112725.390000", "112725.850000", "112726.310000", "112726.770000", "112727.230000", "112727.690000", "112728.150000", "112728.610000", "112729.070000", "112729.530000", "112729.990000", "112730.450000", "112730.910000", "112731.370000", "112731.830000", "112732.290000", "112732.750000", "112733.210000", "112733.670000", "112734.130000", "112734.590000", "112735.050000", "112735.510000", "112735.970000", "112736.430000", "112736.890000", "112737.350000", "112737.810000", "112738.270000", "112738.730000", "112739.190000", "112739.650000", "112740.110000", "112740.570000", "112741.030000", "112741.490000", "112741.950000", "112742.410000", "112742.870000", "112743.330000", "112743.790000", "112744.250000", "112744.710000", "112745.170000", "112745.630000", "112746.090000", "112746.550000", "112747.010000", "112747.470000", "112747.930000", "112748.390000", "112748.850000", "112749.310000", "112749.770000", "112750.230000", "112750.690000", "112751.150000", "112751.610000", "112752.070000", "112752.530000", "112752.990000", "112753.450000", "112753.910000", "112754.370000", "112754.830000", "112755.290000", "112755.750000", "112756.210000", "112756.670000", "112757.130000", "112757.590000", "112758.050000", "112758.510000", "112758.970000", "112759.430000", "112759.890000", "112800.350000", "112800.810000", "112801.270000", "112801.730000", "112802.190000", "112802.650000", "112803.110000", "112803.570000", "112804.030000", "112804.490000", "112804.950000", "112805.410000", "112805.870000", "112806.330000", "112806.790000", "112807.250000", "112807.710000", "112808.170000", "112808.630000", "112809.090000", "112809.550000", "112810.010000", "112810.470000", "112810.930000", "112811.390000", "112811.850000", "112812.310000", "112812.770000", "112813.230000", "112813.690000", "112814.150000", "112814.610000", "112815.070000", "112815.530000", "112815.990000", "112816.450000", "112816.910000", "112817.370000", "112817.830000", "112818.290000", "112818.750000", "112819.210000", "112819.670000", "112820.130000", "112820.590000", "112821.050000", "112821.510000", "112821.970000", "112822.430000", "112822.890000", "112823.350000", "112823.810000", "112824.270000", "112824.730000", "112825.190000", "112825.650000", "112826.110000", "112826.570000", "112827.030000", "112827.490000", "112827.950000", "112828.410000", "112828.870000", "112829.330000", "112829.790000", "112830.250000", "112830.710000", "112831.170000", "112831.630000", "112832.090000", "112832.550000", "112833.010000", "112833.470000", "112833.930000", "112834.390000", "112834.850000", "112835.310000", "112835.770000", "112836.230000", "112836.690000", "112837.150000", "112837.610000", "112838.070000", "112838.530000", "112838.990000", "112839.450000", "112839.910000", "112840.370000", "112840.830000", "112841.290000", "112841.750000", "112842.210000", "112842.670000", "112843.130000", "112843.590000", "112844.050000", "112844.510000", "112844.970000", "112845.430000", "112845.890000", "112846.350000", "112846.810000", "112847.270000", "112847.730000", "112848.190000", "112848.650000", "112849.110000", "112849.570000", "112850.030000", "112850.490000", "112850.950000", "112851.410000", "112851.870000", "112852.330000", "112852.790000", "112853.250000", "112853.710000", "112854.170000", "112854.630000", "112855.090000", "112855.550000", "112856.010000", "112856.470000", "112856.930000", "112857.390000", "112857.850000", "112858.310000", "112858.770000", "112859.230000", "112859.690000", "112900.150000", "112900.610000", "112901.070000", "112901.530000", "112901.990000", "112902.450000", "112902.910000", "112903.370000", "112903.830000", "112904.290000", "112904.750000", "112905.210000", "112905.670000", "112906.130000", "112906.590000", "112907.050000", "112907.510000", "112907.970000", "112908.430000", "112908.890000", "112909.350000", "112909.810000", "112910.270000", "112910.730000", "112911.190000", "112911.650000", "112912.110000", "112912.570000", "112913.030000", "112913.490000", "112913.950000", "112914.410000", "112914.870000", "112915.330000", "112915.790000", "112916.250000", "112916.710000", "112917.170000", "112917.630000", "112918.090000", "112918.550000", "112919.010000", "112919.470000", "112919.930000", "112920.390000", "112920.850000", "112921.310000", "112921.770000", "112922.230000", "112922.690000", "112923.150000", "112923.610000", "112924.070000", "112924.530000", "112924.990000", "112925.450000", "112925.910000", "112926.370000", "112926.830000", "112927.290000", "112927.750000", "112928.210000", "112928.670000", "112929.130000", "112929.590000", "112930.050000", "112930.510000", "112930.970000", "112931.430000", "112931.890000", "112932.350000", "112932.810000", "112933.270000", "112933.730000", "112934.190000", "112934.650000", "112935.110000", "112935.570000", "112936.030000", "112936.490000", "112936.950000", "112937.410000", "112937.870000", "112938.330000", "112938.790000", "112939.250000", "112939.710000", "112940.170000", "112940.630000", "112941.090000", "112941.550000", "112942.010000", "112942.470000", "112942.930000", "112943.390000", "112943.850000", "112944.310000", "112944.770000", "112945.230000", "112945.690000", "112946.150000", "112946.610000", "112947.070000", "112947.530000", "112947.990000", "112948.450000", "112948.910000", "112949.370000", "112949.830000", "112950.290000", "112950.750000", "112951.210000", "112951.670000", "112952.130000", "112952.590000", "112953.050000", "112953.510000", "112953.970000", "112954.430000", "112954.890000", "112955.350000", "112955.810000", "112956.270000", "112956.730000", "112957.190000", "112957.650000", "112958.110000", "112958.570000", "112959.030000", "112959.490000", "112959.950000", "113000.410000", "113000.870000", "113001.330000", "113001.790000", "113002.250000", "113002.710000", "113003.170000", "113003.630000", "113004.090000", "113004.550000", "113005.010000", "113005.470000", "113005.930000", "113006.390000", "113006.850000", "113007.310000", "113007.770000", "113008.230000", "113008.690000", "113009.150000", "113009.610000", "113010.070000", "113010.530000", "113010.990000", "113011.450000", "113011.910000", "113012.370000", "113012.830000", "113013.290000", "113013.750000", "113014.210000", "113014.670000", "113015.130000", "113015.590000", "113016.050000", "113016.510000", "113016.970000", "113017.430000", "113017.890000", "113018.350000", "113018.810000", "113019.270000", "113019.730000", "113020.190000", "113020.650000", "113021.110000", "113021.570000", "113022.030000", "113022.490000", "113022.950000", "113023.410000", "113023.870000", "113024.330000", "113024.790000", "113025.250000", "113025.710000", "113026.170000", "113026.630000", "113027.090000", "113027.550000", "113028.010000", "113028.470000", "113028.930000", "113029.390000", "113029.850000", "113030.310000", "113030.770000", "113031.230000", "113031.690000", "113032.150000", "113032.610000", "113033.070000", "113033.530000", "113033.990000", "113034.450000", "113034.910000", "113035.370000", "113035.830000", "113036.290000", "113036.750000", "113037.210000", "113037.670000", "113038.130000", "113038.590000", "113039.050000", "113039.510000", "113039.970000", "113040.430000", "113040.890000", "113041.350000", "113041.810000", "113042.270000", "113042.730000", "113043.190000", "113043.650000", "113044.110000", "113044.570000", "113045.030000", "113045.490000", "113045.950000", "113046.410000", "113046.870000", "113047.330000", "113047.790000", "113048.250000", "113048.710000", "113049.170000", "113049.630000", "113050.090000", "113050.550000", "113051.010000", "113051.470000", "113051.930000", "113052.390000", "113052.850000", "113053.310000", "113053.770000", "113054.230000", "113054.690000", "113055.150000", "113055.610000", "113056.070000", "113056.530000", "113056.990000", "113057.450000", "113057.910000", "113058.370000", "113058.830000", "113059.290000", "113059.750000", "113100.210000", "113100.670000", "113101.130000", "113101.590000", "113102.050000", "113102.510000", "113102.970000", "113103.430000", "113103.890000", "113104.350000", "113104.810000", "113105.270000", "113105.730000", "113106.190000", "113106.650000", "113107.110000", "113107.570000", "113108.030000", "113108.490000", "113108.950000", "113109.410000", "113109.870000", "113110.330000", "113110.790000", "113111.250000", "113111.710000", "113112.170000", "113112.630000", "113113.090000", "113113.550000", "113114.010000", "113114.470000", "113114.930000", "113115.390000", "113115.850000", "113116.310000", "113116.770000", "113117.230000", "113117.690000", "113118.150000", "113118.610000", "113119.070000", "113119.530000", "113119.990000", "113120.450000", "113120.910000", "113121.370000", "113121.830000", "113122.290000", "113122.750000", "113123.210000", "113123.670000", "113124.130000", "113124.590000", "113125.050000", "113125.510000", "113125.970000", "113126.430000", "113126.890000", "113127.350000", "113127.810000", "113128.270000", "113128.730000", "113129.190000", "113129.650000", "113130.110000", "113130.570000", "113131.030000", "113131.490000", "113131.950000", "113132.410000", "113132.870000", "113133.330000", "113133.790000", "113134.250000", "113134.710000", "113135.170000", "113135.630000", "113136.090000", "113136.550000", "113137.010000", "113137.470000", "113137.930000", "113138.390000", "113138.850000", "113139.310000", "113139.770000", "113140.230000", "113140.690000", "113141.150000", "113141.610000", "113142.070000", "113142.530000", "113142.990000", "113143.450000", "113143.910000", "113144.370000", "113144.830000", "113145.290000", "113145.750000", "113146.210000", "113146.670000", "113147.130000", "113147.590000", "113148.050000", "113148.510000", "113148.970000", "113149.430000", "113149.890000", "113150.350000", "113150.810000", "113151.270000", "113151.730000", "113152.190000", "113152.650000", "113153.110000", "113153.570000", "113154.030000", "113154.490000", "113154.950000", "113155.410000", "113155.870000", "113156.330000", "113156.790000", "113157.250000", "113157.710000", "113158.170000", "113158.630000", "113159.090000", "113159.550000", "113200.010000", "113200.470000", "113200.930000", "113201.390000", "113201.850000", "113202.310000", "113202.770000", "113203.230000", "113203.690000", "113204.150000", "113204.610000", "113205.070000", "113205.530000", "113205.990000", "113206.450000", "113206.910000", "113207.370000", "113207.830000", "113208.290000", "113208.750000", "113209.210000", "113209.670000", "113210.130000", "113210.590000", "113211.050000", "113211.510000", "113211.970000", "113212.430000", "113212.890000", "113213.350000", "113213.810000", "113214.270000", "113214.730000", "113215.190000", "113215.650000", "113216.110000", "113216.570000", "113217.030000", "113217.490000", "113217.950000", "113218.410000", "113218.870000", "113219.330000", "113219.790000", "113220.250000", "113220.710000", "113221.170000", "113221.630000", "113222.090000", "113222.550000", "113223.010000", "113223.470000", "113223.930000", "113224.390000", "113224.850000", "113225.310000", "113225.770000", "113226.230000", "113226.690000", "113227.150000", "113227.610000", "113228.070000", "113228.530000", "113228.990000", "113229.450000", "113229.910000", "113230.370000", "113230.830000", "113231.290000", "113231.750000", "113232.210000", "113232.670000", "113233.130000", "113233.590000", "113234.050000", "113234.510000", "113234.970000", "113235.430000", "113235.890000", "113236.350000", "113236.810000", "113237.270000", "113237.730000", "113238.190000", "113238.650000", "113239.110000", "113239.570000", "113240.030000", "113240.490000", "113240.950000", "113241.410000", "113241.870000", "113242.330000", "113242.790000", "113243.250000", "113243.710000", "113244.170000", "113244.630000", "113245.090000", "113245.550000", "113246.010000", "113246.470000", "113246.930000", "113247.390000", "113247.850000", "113248.310000", "113248.770000", "113249.230000", "113249.690000", "113250.150000", "113250.610000", "113251.070000", "113251.530000", "113251.990000", "113252.450000", "113252.910000", "113253.370000", "113253.830000", "113254.290000", "113254.750000", "113255.210000", "113255.670000", "113256.130000", "113256.590000", "113257.050000", "113257.510000", "113257.970000", "113258.430000", "113258.890000", "113259.350000", "113259.810000", "113300.270000", "113300.730000", "113301.190000", "113301.650000", "113302.110000", "113302.570000", "113303.030000", "113303.490000", "113303.950000", "113304.410000", "113304.870000", "113305.330000", "113305.790000", "113306.250000", "113306.710000", "113307.170000", "113307.630000", "113308.090000", "113308.550000", "113309.010000", "113309.470000", "113309.930000", "113310.390000", "113310.850000", "113311.310000", "113311.770000", "113312.230000", "113312.690000", "113313.150000", "113313.610000", "113314.070000", "113314.530000", "113314.990000", "113315.450000", "113315.910000", "113316.370000", "113316.830000", "113317.290000", "113317.750000", "113318.210000", "113318.670000", "113319.130000", "113319.590000", "113320.050000", "113320.510000", "113320.970000", "113321.430000", "113321.890000", "113322.350000", "113322.810000", "113323.270000", "113323.730000", "113324.190000", "113324.650000", "113325.110000", "113325.570000", "113326.030000", "113326.490000", "113326.950000", "113327.410000", "113327.870000", "113328.330000", "113328.790000", "113329.250000", "113329.710000", "113330.170000", "113330.630000", "113331.090000", "113331.550000", "113332.010000", "113332.470000", "113332.930000", "113333.390000", "113333.850000", "113334.310000", "113334.770000", "113335.230000", "113335.690000", "113336.150000", "113336.610000", "113337.070000", "113337.530000", "113337.990000", "113338.450000", "113338.910000", "113339.370000", "113339.830000", "113340.290000", "113340.750000", "113341.210000", "113341.670000", "113342.130000", "113342.590000", "113343.050000", "113343.510000", "113343.970000", "113344.430000", "113344.890000", "113345.350000", "113345.810000", "113346.270000", "113346.730000", "113347.190000", "113347.650000", "113348.110000", "113348.570000", "113349.030000", "113349.490000", "113349.950000", "113350.410000", "113350.870000", "113351.330000", "113351.790000", "113352.250000", "113352.710000", "113353.170000", "113353.630000", "113354.090000", "113354.550000", "113355.010000", "113355.470000", "113355.930000", "113356.390000"],
