{
  "AcquisitionMatrixPE": 140,
  "AcquisitionNumber": 1,
  "AcquisitionTime": "09:43:10.100000",
  "BandwidthPerPixelPhaseEncode": 10.352,
  "BaseResolution": 140,
  "BodyPartExamined": "BRAIN",
  "ConsistencyInfo": "N4_VE11C_LATEST_20160120",
  "ConversionSoftware": "dcm2niix",
  "ConversionSoftwareVersion": "v1.0.20201102",
  "DerivedVendorReportedEchoSpacing": 0.000689998,
  "DeviceSerialNumber": "66112",
  "DiffusionScheme": "Monopolar",
  "DwellTime": 2.1e-06,
  "EchoTime": 0.0884,
  "EchoTrainLength": 105,
  "EffectiveEchoSpacing": 0.000689998,
  "FlipAngle": 90,
  "ImageComments": "Unaliased MB3/PE3 SENSE1",
  "ImageOrientationPatientDICOM": [0.99521, -0.0153511, 0.0965447, -0.0142441, 0.954282, 0.298569],
  "ImageType": [
    "ORIGINAL",
    "PRIMARY",
    "DIFFUSION",
    "NONE",
    "MB",
    "ND",
    "MOSAIC"
],
  "ImagingFrequency": 123.252,
  "InPlanePhaseEncodingDirectionDICOM": "COL",
  "InstitutionAddress": "Maynard 3,Hanover,NH,US,03755",
  "InstitutionName": "Dartmouth College - PBS",
  "InstitutionalDepartmentName": "Department",
  "MRAcquisitionType": "2D",
  "MagneticFieldStrength": 3,
  "Manufacturer": "Siemens",
  "ManufacturersModelName": "Prisma",
  "Modality": "MR",
  "MultibandAccelerationFactor": 3,
  "PartialFourier": 0.75,
  "PatientPosition": "HFS",
  "PercentPhaseFOV": 100,
  "PercentSampling": 100,
  "PhaseEncodingDirection": "j-",
  "PhaseEncodingSteps": 105,
  "PhaseResolution": 1,
  "PixelBandwidth": 1700,
  "ProcedureStepDescription": "Wager_Wager^1076_spacetop",
  "ProtocolName": "dwi_acq-96dir-6b0-mb",
  "PulseSequenceDetails": "%CustomerSeq%\\cmrr_mbep2d_diff",
  "ReceiveCoilActiveElements": "HEA;HEP",
  "ReceiveCoilName": "Head_32",
  "ReconMatrixPE": 140,
  "RepetitionTime": 4.11,
  "SAR": 0.185208,
  "ScanOptions": "PFP\\FS",
  "ScanningSequence": "EP",
  "SequenceName": "ep_b5#1",
  "SequenceVariant": "SK\\SS",
  "SeriesDescription": "dwi_acq-96dir-6b0-mb",
  "SeriesNumber": 8,
  "ShimSetting": [4160, -7770, -7256, 540, -65, -219, 93, 73],
  "SliceThickness": 1.7,
  "SliceTiming": [0, 2.12, 0.1525, 2.2725, 0.3025, 2.425, 0.455, 2.575, 0.605, 2.7275, 0.7575, 2.8775, 0.91, 3.03, 1.06, 3.1825, 1.2125, 3.3325, 1.3625, 3.485, 1.515, 3.635, 1.6675, 3.7875, 1.8175, 3.9375, 1.97, 0, 2.12, 0.1525, 2.2725, 0.3025, 2.425, 0.455, 2.575, 0.605, 2.7275, 0.7575, 2.8775, 0.91, 3.03, 1.06, 3.1825, 1.2125, 3.3325, 1.3625, 3.485, 1.515, 3.635, 1.6675, 3.7875, 1.8175, 3.9375, 1.97, 0, 2.12, 0.1525, 2.2725, 0.3025, 2.425, 0.455, 2.575, 0.605, 2.7275, 0.7575, 2.8775, 0.91, 3.03, 1.06, 3.1825, 1.2125, 3.3325, 1.3625, 3.485, 1.515, 3.635, 1.6675, 3.7875, 1.8175, 3.9375, 1.97],
  "SoftwareVersions": "syngo MR E11",
  "SpacingBetweenSlices": 1.7,
  "StationName": "AWP66112",
  "TotalReadoutTime": 0.0959097,
  "TxRefAmp": 233.707,
  "WipMemBlock": "f116e247-760c-4d0f-9bfb-bc567c92c7c0||Sequence: R016 ve11c/master r/e634e98; Dec 19 2017 11:11:25 by eja",
  "dcmmeta_affine": [
    [-1.7060747146606445, -0.02441849373281002, 0.16441410779953003, 123.74845123291016],
    [0.02631625160574913, 1.6359117031097412, 0.5074735879898071, -112.349365234375],
    [0.16550512611865997, -0.5118321180343628, 1.6141371726989746, -23.9954833984375],
    [0.0, 0.0, 0.0, 1.0]
],
  "dcmmeta_reorient_transform": [
    [0.0, -1.0, 0.0, 139.0],
    [1.0, 0.0, 0.0, 0.0],
    [0.0, 0.0, 1.0, 0.0],
    [0.0, 0.0, 0.0, 1.0]
],
  "dcmmeta_shape": [140, 140, 81, 103],
  "dcmmeta_slice_dim": 2,
  "dcmmeta_version": 0.6,
  "global": {
    "const": {
      "AccessionNumber": "A003466",
      "AcquisitionMatrix": [140, 0, 0, 140],
      "AngioFlag": "N",
      "BitsAllocated": 16,
      "BitsStored": 16,
      "BodyPartExamined": "BRAIN",
      "Columns": 1260,
      "EchoNumbers": 1,
      "EchoTime": 88.4,
      "EchoTrainLength": 105,
      "FlipAngle": 90.0,
      "HighBit": 15,
      "ImageOrientationPatient": [0.99521026532682, -0.0153511470884, 0.09654465325011, -0.014244121141, 0.95428182812052, 0.29856874841799],
      "ImagePositionPatient": [-1062.0817907716, -1016.4158287816, -474.44902146717],
      "ImageType": [
        "ORIGINAL",
        "PRIMARY",
        "DIFFUSION",
        "NONE",
        "MB",
        "ND",
        "MOSAIC"
],
      "ImagedNucleus": "1H",
      "ImagingFrequency": 123.252103,
      "InPlanePhaseEncodingDirection": "COL",
      "MRAcquisitionType": "2D",
      "MagneticFieldStrength": 3.0,
      "Manufacturer": "SIEMENS",
      "ManufacturerModelName": "Prisma",
      "Modality": "MR",
      "NumberOfAverages": 1.0,
      "NumberOfPhaseEncodingSteps": 105,
      "PercentPhaseFieldOfView": 100.0,
      "PercentSampling": 100.0,
      "PerformedProcedureStepStartTime": "085422.745000",
      "PhotometricInterpretation": "MONOCHROME2",
      "PixelBandwidth": 1700.0,
      "PixelRepresentation": 0,
      "PixelSpacing": [1.7142857313156, 1.7142857313156],
      "ProtocolName": "dwi_acq-96dir-6b0-mb",
      "RepetitionTime": 4110.0,
      "Rows": 1260,
      "SAR": 0.18520764298376,
      "SamplesPerPixel": 1,
      "ScanOptions": [
        "PFP",
        "FS"
],
      "ScanningSequence": "EP",
      "SequenceVariant": [
        "SK",
        "SS"
],
      "SeriesDescription": "dwi_acq-96dir-6b0-mb",
      "SeriesNumber": 8,
      "SeriesTime": "094449.318000",
      "SliceLocation": -44.353143470894,
      "SliceThickness": 1.7000000476837,
      "SmallestImagePixelValue": 0,
      "SoftwareVersions": "syngo MR E11",
      "SpacingBetweenSlices": 1.7000000302391,
      "SpecificCharacterSet": "ISO_IR 100",
      "StudyID": "1",
      "StudyTime": "085422.620000",
      "TransmitCoilName": "Body",
      "VariableFlipAngleFlag": "N",
      "WindowCenterWidthExplanation": "Algo1",
      "dBdt": 0.0},
    "slices": {}
  },
  "time": {
    "samples": {
      "AcquisitionNumber": [1, 2, 3, 4, 5, 6, 7, 8, 9, 10, 11, 12, 13, 14, 15, 16, 17, 18, 19, 20, 21, 22, 23, 24, 25, 26, 27, 28, 29, 30, 31, 32, 33, 34, 35, 36, 37, 38, 39, 40, 41, 42, 43, 44, 45, 46, 47, 48, 49, 50, 51, 52, 53, 54, 55, 56, 57, 58, 59, 60, 61, 62, 63, 64, 65, 66, 67, 68, 69, 70, 71, 72, 73, 74, 75, 76, 77, 78, 79, 80, 81, 82, 83, 84, 85, 86, 87, 88, 89, 90, 91, 92, 93, 94, 95, 96, 97, 98, 99, 100, 101, 102, 103],
      "AcquisitionTime": ["094310.100000", "094314.210000", "094318.320000", "094322.430000", "094326.540000", "094330.650000", "094334.760000", "094338.870000", "094342.980000", "094347.090000", "094351.200000", "094355.310000", "094359.420000", "094403.530000", "094407.640000", "094411.750000", "094415.860000", "094419.970000", "094424.080000", "094428.190000", "094432.300000", "094436.410000", "094440.520000", "094444.630000", "094448.740000", "094452.850000", "094456.960000", "094501.070000", "094505.180000", "094509.290000", "094513.400000", "094517.510000", "094521.620000", "094525.730000", "094529.840000", "094533.950000", "094538.060000", "094542.170000", "094546.280000", "094550.390000", "094554.500000", "094558.610000", "094602.720000", "094606.830000", "094610.940000", "094615.050000", "094619.160000", "094623.270000", "094627.380000", "094631.490000", "094635.600000", "094639.710000", "094643.820000", "094647.930000", "094652.040000", "094656.150000", "094700.260000", "094704.370000", "094708.480000", "094712.590000", "094716.700000", "094720.810000", "094724.920000", "094729.030000", "094733.140000", "094737.250000", "094741.360000", "094745.470000", "094749.580000", "094753.690000", "094757.800000", "094801.910000", "094806.020000", "094810.130000", "094814.240000", "094818.350000", "094822.460000", "094826.570000", "094830.680000", "094834.790000", "094838.900000", "094843.010000", "094847.120000", "094851.230000", "094855.340000", "094859.450000", "094903.560000", "094907.670000", "094911.780000", "094915.890000", "094920.000000", "094924.110000", "094928.220000", "094932.330000", "094936.440000", "094940.550000", "094944.660000", "094948.770000", "094952.880000", "094956.990000", "095001.100000", "095005.210000", "095009.320000"],
      "ContentTime": ["094449.322000", "094449.326000", "094449.340000", "094449.343000", "094449.352000", "094449.356000", "094449.359000", "094449.362000", "094449.365000", "094449.369000", "094449.372000", "094449.375000", "094449.379000", "094449.382000", "094449.385000", "094449.389000", "094449.392000", "094449.395000", "094449.399000", "094449.402000", "094449.405000", "094449.422000", "094449.425000", "094529.316000", "094529.320000", "094529.323000", "094529.326000", "094529.338000", "094529.341000", "094529.346000", "094529.349000", "094529.352000", "094529.356000", "094649.317000", "094649.321000", "094649.324000", "094649.327000", "094649.331000", "094649.334000", "094649.342000", "094649.345000", "094649.349000", "094649.352000", "094649.356000", "094649.359000", "094649.362000", "094649.366000", "094649.369000", "094649.372000", "094649.376000", "094649.379000", "094649.382000", "094649.386000", "094829.317000", "094829.321000", "094829.324000", "094829.327000", "094829.331000", "094829.334000", "094829.337000", "094829.341000", "094829.344000", "094829.348000", "094829.351000", "094829.355000", "094829.358000", "094829.361000", "094829.365000", "094829.368000", "094829.371000", "094829.374000", "094829.378000", "094829.381000", "094829.384000", "094829.387000", "094829.391000", "094829.394000", "095009.316000", "095009.320000", "095009.323000", "095009.327000", "095009.330000", "095009.333000", "095009.337000", "095009.340000", "095009.343000", "095009.347000", "095009.350000", "095009.354000", "095009.357000", "095009.360000", "095009.363000", "095009.367000", "095009.370000", "095009.373000", "095009.377000", "095009.380000", "095009.383000", "095009.386000", "095009.390000", "095009.393000", "095014.184000", "095014.188000"],
      "InstanceCreationTime": ["094449.322000", "094449.326000", "094449.340000", "094449.343000", "094449.352000", "094449.356000", "094449.359000", "094449.362000", "094449.365000", "094449.369000", "094449.372000", "094449.375000", "094449.379000", "094449.382000", "094449.385000", "094449.389000", "094449.392000", "094449.395000", "094449.399000", "094449.402000", "094449.405000", "094449.422000", "094449.425000", "094529.316000", "094529.320000", "094529.323000", "094529.326000", "094529.338000", "094529.341000", "094529.346000", "094529.349000", "094529.352000", "094529.356000", "094649.317000", "094649.321000", "094649.324000", "094649.327000", "094649.331000", "094649.334000", "094649.342000", "094649.345000", "094649.349000", "094649.352000", "094649.356000", "094649.359000", "094649.362000", "094649.366000", "094649.369000", "094649.372000", "094649.376000", "094649.379000", "094649.382000", "094649.386000", "094829.317000", "094829.321000", "094829.324000", "094829.327000", "094829.331000", "094829.334000", "094829.337000", "094829.341000", "094829.344000", "094829.348000", "094829.351000", "094829.355000", "094829.358000", "094829.361000", "094829.365000", "094829.368000", "094829.371000", "094829.374000", "094829.378000", "094829.381000", "094829.384000", "094829.387000", "094829.391000", "094829.394000", "095009.316000", "095009.320000", "095009.323000", "095009.327000", "095009.330000", "095009.333000", "095009.337000", "095009.340000", "095009.343000", "095009.347000", "095009.350000", "095009.354000", "095009.357000", "095009.360000", "095009.363000", "095009.367000", "095009.370000", "095009.373000", "095009.377000", "095009.380000", "095009.383000", "095009.386000", "095009.390000", "095009.393000", "095014.184000", "095014.188000"],
      "InstanceNumber": [1, 2, 3, 4, 5, 6, 7, 8, 9, 10, 11, 12, 13, 14, 15, 16, 17, 18, 19, 20, 21, 22, 23, 24, 25, 26, 27, 28, 29, 30, 31, 32, 33, 34, 35, 36, 37, 38, 39, 40, 41, 42, 43, 44, 45, 46, 47, 48, 49, 50, 51, 52, 53, 54, 55, 56, 57, 58, 59, 60, 61, 62, 63, 64, 65, 66, 67, 68, 69, 70, 71, 72, 73, 74, 75, 76, 77, 78, 79, 80, 81, 82, 83, 84, 85, 86, 87, 88, 89, 90, 91, 92, 93, 94, 95, 96, 97, 98, 99, 100, 101, 102, 103],
      "LargestImagePixelValue": [65535, 65535, 41048, 41727, 41917, 41883, 39874, 40660, 65535, 27588, 30312, 28009, 28359, 28854, 27430, 29188, 31284, 32730, 29901, 31300, 29552, 31803, 28706, 29197, 65535, 15629, 13996, 16543, 16524, 15836, 15548, 15115, 15780, 16616, 14103, 15618, 16026, 15742, 15907, 16645, 65535, 9704, 9918, 10779, 9824, 9739, 10362, 9985, 9258, 9922, 9025, 10878, 10179, 10439, 9588, 10717, 10911, 9183, 9243, 9914, 9220, 9299, 8628, 9610, 8473, 9364, 8539, 8519, 9339, 11087, 10408, 8820, 10077, 65535, 9930, 9451, 9559, 9458, 9573, 9272, 9589, 9506, 8726, 9366, 10947, 8720, 9186, 10700, 11319, 10965, 10408, 8913, 9303, 9195, 9127, 11172, 8358, 8616, 10774, 9271, 10336, 10385, 65535],
      "SequenceName": [
 "ep_b5#1",
 "ep_b5#1",
 "ep_b500#2",
 "ep_b500#3",
 "ep_b500#4",
 "ep_b505#5",
 "ep_b495#6",
 "ep_b500#7",
 "ep_b5#8",
 "ep_b1000#9",
 "ep_b1005#10",
 "ep_b1000#11",
 "ep_b1005#12",
 "ep_b995#13",
 "ep_b995#14",
 "ep_b1005#15",
 "ep_b1000#16",
 "ep_b1000#17",
 "ep_b995#18",
 "ep_b1005#19",
 "ep_b995#20",
 "ep_b1000#21",
 "ep_b1005#22",
 "ep_b1005#23",
 "ep_b5#24",
 "ep_b2000#25",
 "ep_b2000#26",
 "ep_b1995#27",
 "ep_b1995#28",
 "ep_b2005#29",
 "ep_b2010#30",
 "ep_b2005#31",
 "ep_b2005#32",
 "ep_b1995#33",
 "ep_b1990#34",
 "ep_b1995#35",
 "ep_b2005#36",
 "ep_b2000#37",
 "ep_b2010#38",
 "ep_b2000#39",
 "ep_b5#40",
 "ep_b3000#41",
 "ep_b3005#42",
 "ep_b3010#43",
 "ep_b3010#44",
 "ep_b2995#45",
 "ep_b2995#46",
 "ep_b2990#47",
 "ep_b3000#48",
 "ep_b3000#49",
 "ep_b2990#50",
 "ep_b2990#51",
 "ep_b2995#52",
 "ep_b2995#53",
 "ep_b3010#54",
 "ep_b3000#55",
 "ep_b2995#56",
 "ep_b3000#57",
 "ep_b2990#58",
 "ep_b2990#59",
 "ep_b3000#60",
 "ep_b2995#61",
 "ep_b2990#62",
 "ep_b2995#63",
 "ep_b3005#64",
 "ep_b3010#65",
 "ep_b3000#66",
 "ep_b3005#67",
 "ep_b3010#68",
 "ep_b3005#69",
 "ep_b3005#70",
 "ep_b3010#71",
 "ep_b2990#72",
 "ep_b5#73",
 "ep_b3010#74",
 "ep_b3000#75",
 "ep_b3005#76",
 "ep_b3005#77",
 "ep_b2995#78",
 "ep_b3000#79",
 "ep_b2995#80",
 "ep_b3010#81",
 "ep_b3010#82",
 "ep_b3005#83",
 "ep_b2995#84",
 "ep_b3000#85",
 "ep_b3005#86",
 "ep_b3010#87",
 "ep_b2990#88",
 "ep_b3010#89",
 "ep_b2990#90",
 "ep_b2995#91",
 "ep_b2995#92",
 "ep_b2995#93",
 "ep_b3005#94",
 "ep_b3005#95",
 "ep_b2990#96",
 "ep_b3000#97",
 "ep_b2990#98",
 "ep_b3000#99",
 "ep_b3000#100",
 "ep_b2995#101",
 "ep_b5#102"
],
      "WindowCenter": [10721.0, 10726.0, 7593.0, 7564.0, 7565.0, 7511.0, 7631.0, 7611.0, 10709.0, 5787.0, 5717.0, 5727.0, 5724.0, 5711.0, 5769.0, 5674.0, 5720.0, 5740.0, 5786.0, 5743.0, 5822.0, 5734.0, 5725.0, 5738.0, 10692.0, 3720.0, 3627.0, 3651.0, 3789.0, 3659.0, 3631.0, 3685.0, 3629.0, 3751.0, 3695.0, 3703.0, 3656.0, 3665.0, 3693.0, 3677.0, 10707.0, 2614.0, 2545.0, 2617.0, 2562.0, 2599.0, 2636.0, 2618.0, 2540.0, 2597.0, 2494.0, 2580.0, 2642.0, 2652.0, 2600.0, 2606.0, 2649.0, 2530.0, 2598.0, 2576.0, 2553.0, 2556.0, 2581.0, 2621.0, 2525.0, 2563.0, 2520.0, 2538.0, 2572.0, 2647.0, 2625.0, 2568.0, 2608.0, 10673.0, 2560.0, 2588.0, 2520.0, 2563.0, 2531.0, 2538.0, 2552.0, 2518.0, 2540.0, 2544.0, 2645.0, 2556.0, 2505.0, 2552.0, 2620.0, 2578.0, 2634.0, 2514.0, 2522.0, 2615.0, 2540.0, 2642.0, 2572.0, 2505.0, 2636.0, 2530.0, 2606.0, 2641.0, 10670.0],
      "WindowWidth": [24503.0, 24523.0, 16000.0, 15940.0, 15935.0, 15840.0, 16094.0, 16044.0, 24467.0, 12307.0, 12192.0, 12214.0, 12207.0, 12197.0, 12285.0, 12092.0, 12173.0, 12218.0, 12314.0, 12203.0, 12371.0, 12203.0, 12202.0, 12214.0, 24408.0, 8344.0, 8192.0, 8198.0, 8481.0, 8230.0, 8165.0, 8291.0, 8171.0, 8393.0, 8330.0, 8330.0, 8228.0, 8243.0, 8285.0, 8262.0, 24465.0, 6260.0, 6089.0, 6234.0, 6116.0, 6231.0, 6304.0, 6235.0, 6103.0, 6223.0, 5984.0, 6123.0, 6322.0, 6330.0, 6226.0, 6231.0, 6315.0, 6096.0, 6211.0, 6144.0, 6173.0, 6128.0, 6213.0, 6308.0, 6147.0, 6166.0, 6082.0, 6130.0, 6170.0, 6315.0, 6280.0, 6196.0, 6222.0, 24338.0, 6107.0, 6227.0, 6043.0, 6178.0, 6055.0, 6092.0, 6120.0, 6023.0, 6132.0, 6121.0, 6302.0, 6174.0, 6006.0, 6079.0, 6213.0, 6122.0, 6283.0, 6051.0, 6050.0, 6272.0, 6102.0, 6285.0, 6217.0, 6053.0, 6245.0, 6093.0, 6227.0, 6321.0, 24338.0]
    },
    "slices": {}
  }
}