{
  "AcquisitionMatrixPE": 82,
  "AcquisitionNumber": 1,
  "AcquisitionTime": "19:28:24.455000",
  "BandwidthPerPixelPhaseEncode": 24.888,
  "BaseResolution": 82,
  "BodyPartExamined": "BRAIN",
  "ConsistencyInfo": "N4_VE11E_LATEST_20181129",
  "ConversionSoftware": "dcm2niix",
  "ConversionSoftwareVersion": "v1.0.20201102",
  "DerivedVendorReportedEchoSpacing": 0.00049,
  "DeviceSerialNumber": "66112",
  "DwellTime": 2e-06,
  "EchoTime": 0.0272,
  "EchoTrainLength": 82,
  "EffectiveEchoSpacing": 0.00049,
  "FlipAngle": 44,
  "ImageComments": "Unaliased MB8/PE3",
  "ImageOrientationPatientDICOM": [0.99536, -0.0961916, -0.00240731, 0.0961929, 0.994139, 0.0493429],
  "ImageType": [
    "ORIGINAL",
    "PRIMARY",
    "M",
    "MB",
    "ND",
    "NORM",
    "MOSAIC"
],
  "ImagingFrequency": 123.259,
  "InPlanePhaseEncodingDirectionDICOM": "COL",
  "InstitutionAddress": "Maynard 3,Hanover,NH,US,03755",
  "InstitutionName": "Dartmouth College - PBS",
  "InstitutionalDepartmentName": "Department",
  "MRAcquisitionType": "2D",
  "MagneticFieldStrength": 3,
  "Manufacturer": "Siemens",
  "ManufacturersModelName": "Prisma",
  "Modality": "MR",
  "MultibandAccelerationFactor": 8,
  "PartialFourier": 1,
  "PatientPosition": "HFS",
  "PercentPhaseFOV": 100,
  "PercentSampling": 100,
  "PhaseEncodingDirection": "j-",
  "PhaseEncodingSteps": 82,
  "PhaseResolution": 1,
  "PixelBandwidth": 3050,
  "ProcedureStepDescription": "Wager_Wager^1076_spacetop",
  "ProtocolName": "func_run-04_task-social_acq-ap-mb8",
  "PulseSequenceDetails": "%CustomerSeq%\\cmrr_mbep2d_bold",
  "ReceiveCoilActiveElements": "HEA;HEP",
  "ReceiveCoilName": "Head_32",
  "ReconMatrixPE": 82,
  "RepetitionTime": 0.46,
  "SAR": 0.116081,
  "ScanOptions": "FS",
  "ScanningSequence": "EP",
  "SequenceName": "epfid2d1_82",
  "SequenceVariant": "SK\\SS",
  "SeriesDescription": "func_run-04_task-social_acq-ap-mb8",
  "SeriesNumber": 14,
  "ShimSetting": [4229, -7757, -7232, 156, -222, -7, 72, 139],
  "SliceThickness": 2.7,
  "SliceTiming": [0, 0.25, 0.0625, 0.3125, 0.125, 0.3775, 0.1875, 0, 0.25, 0.0625, 0.3125, 0.125, 0.3775, 0.1875, 0, 0.25, 0.0625, 0.3125, 0.125, 0.3775, 0.1875, 0, 0.25, 0.0625, 0.3125, 0.125, 0.3775, 0.1875, 0, 0.25, 0.0625, 0.3125, 0.125, 0.3775, 0.1875, 0, 0.25, 0.0625, 0.3125, 0.125, 0.3775, 0.1875, 0, 0.25, 0.0625, 0.3125, 0.125, 0.3775, 0.1875, 0, 0.25, 0.0625, 0.3125, 0.125, 0.3775, 0.1875],
  "SoftwareVersions": "syngo MR E11",
  "SpacingBetweenSlices": 2.7,
  "StationName": "AWP66112",
  "TaskName": "social",
  "TotalReadoutTime": 0.03969,
  "TxRefAmp": 251.813,
  "WipMemBlock": "947fc015-0be0-40e7-9aaa-bba34eedb1db||Sequence: R016 ve11e/master r/434b28f1; Aug  7 2019 18:53:46 by eja",
  "dcmmeta_affine": [
    [-2.670477867126465, 0.2580786347389221, 0.006353546865284443, 98.53409576416016],
    [0.2580750286579132, 2.6672019958496094, 0.13323278725147247, -107.0809555053711],
    [-0.006458645220845938, -0.1323833018541336, 2.6967034339904785, -57.05416488647461],
    [0.0, 0.0, 0.0, 1.0]
],
  "dcmmeta_reorient_transform": [
    [0.0, -1.0, 0.0, 81.0],
    [1.0, 0.0, 0.0, 0.0],
    [0.0, 0.0, 1.0, 0.0],
    [0.0, 0.0, 0.0, 1.0]
],
  "dcmmeta_shape": [82, 82, 56, 872],
  "dcmmeta_slice_dim": 2,
  "dcmmeta_version": 0.6,
  "global": {
    "const": {
      "AccessionNumber": "A004857",
      "AcquisitionMatrix": [82, 0, 0, 82],
      "AngioFlag": "N",
      "BitsAllocated": 16,
      "BitsStored": 16,
      "BodyPartExamined": "BRAIN",
      "Columns": 656,
      "EchoNumbers": 1,
      "EchoTime": 27.2,
      "EchoTrainLength": 82,
      "FlipAngle": 44.0,
      "HighBit": 15,
      "ImageOrientationPatient": [0.99535992506765, -0.0961916026093, -0.0024073131867, 0.09619294247183, 0.99413892364106, 0.04934286493918],
      "ImagePositionPatient": [-959.93419350745, -800.38186229822, -103.9175863011],
      "ImageType": [
        "ORIGINAL",
        "PRIMARY",
        "M",
        "MB",
        "ND",
        "NORM",
        "MOSAIC"
],
      "ImagedNucleus": "1H",
      "ImagingFrequency": 123.259045,
      "InPlanePhaseEncodingDirection": "COL",
      "MRAcquisitionType": "2D",
      "MagneticFieldStrength": 3.0,
      "Manufacturer": "SIEMENS",
      "ManufacturerModelName": "Prisma",
      "Modality": "MR",
      "NumberOfAverages": 1.0,
      "NumberOfPhaseEncodingSteps": 82,
      "PercentPhaseFieldOfView": 100.0,
      "PercentSampling": 100.0,
      "PerformedProcedureStepStartTime": "185630.315000",
      "PhotometricInterpretation": "MONOCHROME2",
      "PixelBandwidth": 3050.0,
      "PixelRepresentation": 0,
      "PixelSpacing": [2.6829268932343, 2.6829268932343],
      "ProtocolName": "func_run-04_task-social_acq-ap-mb8",
      "RepetitionTime": 460.0,
      "Rows": 656,
      "SAR": 0.11608070148624,
      "SamplesPerPixel": 1,
      "ScanOptions": "FS",
      "ScanningSequence": "EP",
      "SequenceName": "epfid2d1_82",
      "SequenceVariant": [
        "SK",
        "SS"
],
      "SeriesDescription": "func_run-04_task-social_acq-ap-mb8",
      "SeriesNumber": 14,
      "SeriesTime": "192850.088000",
      "SliceLocation": -62.036593975128,
      "SliceThickness": 2.7000000476837,
      "SmallestImagePixelValue": 0,
      "SoftwareVersions": "syngo MR E11",
      "SpacingBetweenSlices": 2.7000000446741,
      "SpecificCharacterSet": "ISO_IR 100",
      "StudyID": "1",
      "StudyTime": "185630.234000",
      "TransmitCoilName": "Body",
      "VariableFlipAngleFlag": "N",
      "WindowCenterWidthExplanation": "Algo1"
    },
    "slices": {}
  },
  "time": {
    "samples": {
      "AcquisitionNumber": [1, 2, 3, 4, 5, 6, 7, 8, 9, 10, 11, 12, 13, 14, 15, 16, 17, 18, 19, 20, 21, 22, 23, 24, 25, 26, 27, 28, 29, 30, 31, 32, 33, 34, 35, 36, 37, 38, 39, 40, 41, 42, 43, 44, 45, 46, 47, 48, 49, 50, 51, 52, 53, 54, 55, 56, 57, 58, 59, 60, 61, 62, 63, 64, 65, 66, 67, 68, 69, 70, 71, 72, 73, 74, 75, 76, 77, 78, 79, 80, 81, 82, 83, 84, 85, 86, 87, 88, 89, 90, 91, 92, 93, 94, 95, 96, 97, 98, 99, 100, 101, 102, 103, 104, 105, 106, 107, 108, 109, 110, 111, 112, 113, 114, 115, 116, 117, 118, 119, 120, 121, 122, 123, 124, 125, 126, 127, 128, 129, 130, 131, 132, 133, 134, 135, 136, 137, 138, 139, 140, 141, 142, 143, 144, 145, 146, 147, 148, 149, 150, 151, 152, 153, 154, 155, 156, 157, 158, 159, 160, 161, 162, 163, 164, 165, 166, 167, 168, 169, 170, 171, 172, 173, 174, 175, 176, 177, 178, 179, 180, 181, 182, 183, 184, 185, 186, 187, 188, 189, 190, 191, 192, 193, 194, 195, 196, 197, 198, 199, 200, 201, 202, 203, 204, 205, 206, 207, 208, 209, 210, 211, 212, 213, 214, 215, 216, 217, 218, 219, 220, 221, 222, 223, 224, 225, 226, 227, 228, 229, 230, 231, 232, 233, 234, 235, 236, 237, 238, 239, 240, 241, 242, 243, 244, 245, 246, 247, 248, 249, 250, 251, 252, 253, 254, 255, 256, 257, 258, 259, 260, 261, 262, 263, 264, 265, 266, 267, 268, 269, 270, 271, 272, 273, 274, 275, 276, 277, 278, 279, 280, 281, 282, 283, 284, 285, 286, 287, 288, 289, 290, 291, 292, 293, 294, 295, 296, 297, 298, 299, 300, 301, 302, 303, 304, 305, 306, 307, 308, 309, 310, 311, 312, 313, 314, 315, 316, 317, 318, 319, 320, 321, 322, 323, 324, 325, 326, 327, 328, 329, 330, 331, 332, 333, 334, 335, 336, 337, 338, 339, 340, 341, 342, 343, 344, 345, 346, 347, 348, 349, 350, 351, 352, 353, 354, 355, 356, 357, 358, 359, 360, 361, 362, 363, 364, 365, 366, 367, 368, 369, 370, 371, 372, 373, 374, 375, 376, 377, 378, 379, 380, 381, 382, 383, 384, 385, 386, 387, 388, 389, 390, 391, 392, 393, 394, 395, 396, 397, 398, 399, 400, 401, 402, 403, 404, 405, 406, 407, 408, 409, 410, 411, 412, 413, 414, 415, 416, 417, 418, 419, 420, 421, 422, 423, 424, 425, 426, 427, 428, 429, 430, 431, 432, 433, 434, 435, 436, 437, 438, 439, 440, 441, 442, 443, 444, 445, 446, 447, 448, 449, 450, 451, 452, 453, 454, 455, 456, 457, 458, 459, 460, 461, 462, 463, 464, 465, 466, 467, 468, 469, 470, 471, 472, 473, 474, 475, 476, 477, 478, 479, 480, 481, 482, 483, 484, 485, 486, 487, 488, 489, 490, 491, 492, 493, 494, 495, 496, 497, 498, 499, 500, 501, 502, 503, 504, 505, 506, 507, 508, 509, 510, 511, 512, 513, 514, 515, 516, 517, 518, 519, 520, 521, 522, 523, 524, 525, 526, 527, 528, 529, 530, 531, 532, 533, 534, 535, 536, 537, 538, 539, 540, 541, 542, 543, 544, 545, 546, 547, 548, 549, 550, 551, 552, 553, 554, 555, 556, 557, 558, 559, 560, 561, 562, 563, 564, 565, 566, 567, 568, 569, 570, 571, 572, 573, 574, 575, 576, 577, 578, 579, 580, 581, 582, 583, 584, 585, 586, 587, 588, 589, 590, 591, 592, 593, 594, 595, 596, 597, 598, 599, 600, 601, 602, 603, 604, 605, 606, 607, 608, 609, 610, 611, 612, 613, 614, 615, 616, 617, 618, 619, 620, 621, 622, 623, 624, 625, 626, 627, 628, 629, 630, 631, 632, 633, 634, 635, 636, 637, 638, 639, 640, 641, 642, 643, 644, 645, 646, 647, 648, 649, 650, 651, 652, 653, 654, 655, 656, 657, 658, 659, 660, 661, 662, 663, 664, 665, 666, 667, 668, 669, 670, 671, 672, 673, 674, 675, 676, 677, 678, 679, 680, 681, 682, 683, 684, 685, 686, 687, 688, 689, 690, 691, 692, 693, 694, 695, 696, 697, 698, 699, 700, 701, 702, 703, 704, 705, 706, 707, 708, 709, 710, 711, 712, 713, 714, 715, 716, 717, 718, 719, 720, 721, 722, 723, 724, 725, 726, 727, 728, 729, 730, 731, 732, 733, 734, 735, 736, 737, 738, 739, 740, 741, 742, 743, 744, 745, 746, 747, 748, 749, 750, 751, 752, 753, 754, 755, 756, 757, 758, 759, 760, 761, 762, 763, 764, 765, 766, 767, 768, 769, 770, 771, 772, 773, 774, 775, 776, 777, 778, 779, 780, 781, 782, 783, 784, 785, 786, 787, 788, 789, 790, 791, 792, 793, 794, 795, 796, 797, 798, 799, 800, 801, 802, 803, 804, 805, 806, 807, 808, 809, 810, 811, 812, 813, 814, 815, 816, 817, 818, 819, 820, 821, 822, 823, 824, 825, 826, 827, 828, 829, 830, 831, 832, 833, 834, 835, 836, 837, 838, 839, 840, 841, 842, 843, 844, 845, 846, 847, 848, 849, 850, 851, 852, 853, 854, 855, 856, 857, 858, 859, 860, 861, 862, 863, 864, 865, 866, 867, 868, 869, 870, 871, 872],
      "AcquisitionTime": ["192824.455000", "192824.915000", "192825.375000", "192825.835000", "192826.295000", "192826.755000", "192827.215000", "192827.675000", "192828.135000", "192828.595000", "192829.055000", "192829.515000", "192829.975000", "192830.435000", "192830.895000", "192831.355000", "192831.815000", "192832.275000", "192832.735000", "192833.195000", "192833.655000", "192834.115000", "192834.575000", "192835.035000", "192835.495000", "192835.955000", "192836.415000", "192836.875000", "192837.335000", "192837.795000", "192838.255000", "192838.715000", "192839.175000", "192839.635000", "192840.095000", "192840.555000", "192841.015000", "192841.475000", "192841.935000", "192842.395000", "192842.855000", "192843.315000", "192843.775000", "192844.235000", "192844.695000", "192845.155000", "192845.615000", "192846.075000", "192846.535000", "192846.995000", "192847.455000", "192847.915000", "192848.375000", "192848.835000", "192849.295000", "192849.755000", "192850.215000", "192850.675000", "192851.135000", "192851.595000", "192852.055000", "192852.515000", "192852.975000", "192853.435000", "192853.895000", "192854.355000", "192854.815000", "192855.275000", "192855.735000", "192856.195000", "192856.655000", "192857.115000", "192857.575000", "192858.035000", "192858.495000", "192858.955000", "192859.415000", "192859.875000", "192900.335000", "192900.795000", "192901.255000", "192901.715000", "192902.175000", "192902.635000", "192903.095000", "192903.555000", "192904.015000", "192904.475000", "192904.935000", "192905.395000", "192905.855000", "192906.315000", "192906.775000", "192907.235000", "192907.695000", "192908.155000", "192908.615000", "192909.075000", "192909.535000", "192909.995000", "192910.455000", "192910.915000", "192911.375000", "192911.835000", "192912.295000", "192912.755000", "192913.215000", "192913.675000", "192914.135000", "192914.595000", "192915.055000", "192915.515000", "192915.975000", "192916.435000", "192916.895000", "192917.355000", "192917.815000", "192918.275000", "192918.735000", "192919.195000", "192919.655000", "192920.115000", "192920.575000", "192921.035000", "192921.495000", "192921.955000", "192922.415000", "192922.875000", "192923.335000", "192923.795000", "192924.255000", "192924.715000", "192925.175000", "192925.635000", "192926.095000", "192926.555000", "192927.015000", "192927.475000", "192927.935000", "192928.395000", "192928.855000", "192929.315000", "192929.775000", "192930.235000", "192930.695000", "192931.155000", "192931.615000", "192932.075000", "192932.535000", "192932.995000", "192933.455000", "192933.915000", "192934.375000", "192934.835000", "192935.295000", "192935.755000", "192936.215000", "192936.675000", "192937.135000", "192937.595000", "192938.055000", "192938.515000", "192938.975000", "192939.435000", "192939.895000", "192940.355000", "192940.815000", "192941.275000", "192941.735000", "192942.195000", "192942.655000", "192943.115000", "192943.575000", "192944.035000", "192944.495000", "192944.955000", "192945.415000", "192945.875000", "192946.335000", "192946.795000", "192947.255000", "192947.715000", "192948.175000", "192948.635000", "192949.095000", "192949.555000", "192950.015000", "192950.475000", "192950.935000", "192951.395000", "192951.855000", "192952.315000", "192952.775000", "192953.235000", "192953.695000", "192954.155000", "192954.615000", "192955.075000", "192955.535000", "192955.995000", "192956.455000", "192956.915000", "192957.375000", "192957.835000", "192958.295000", "192958.755000", "192959.215000", "192959.675000", "193000.135000", "193000.595000", "193001.055000", "193001.515000", "193001.975000", "193002.435000", "193002.895000", "193003.355000", "193003.815000", "193004.275000", "193004.735000", "193005.195000", "193005.655000", "193006.115000", "193006.575000", "193007.035000", "193007.495000", "193007.955000", "193008.415000", "193008.875000", "193009.335000", "193009.795000", "193010.255000", "193010.715000", "193011.175000", "193011.635000", "193012.095000", "193012.555000", "193013.015000", "193013.475000", "193013.935000", "193014.395000", "193014.855000", "193015.315000", "193015.775000", "193016.235000", "193016.695000", "193017.155000", "193017.615000", "193018.075000", "193018.535000", "193018.995000", "193019.455000", "193019.915000", "193020.375000", "193020.835000", "193021.295000", "193021.755000", "193022.215000", "193022.675000", "193023.135000", "193023.595000", "193024.055000", "193024.515000", "193024.975000", "193025.435000", "193025.895000", "193026.355000", "193026.815000", "193027.275000", "193027.735000", "193028.195000", "193028.655000", "193029.115000", "193029.575000", "193030.035000", "193030.495000", "193030.955000", "193031.415000", "193031.875000", "193032.335000", "193032.795000", "193033.255000", "193033.715000", "193034.175000", "193034.635000", "193035.095000", "193035.555000", "193036.015000", "193036.475000", "193036.935000", "193037.395000", "193037.855000", "193038.315000", "193038.775000", "193039.235000", "193039.695000", "193040.155000", "193040.615000", "193041.075000", "193041.535000", "193041.995000", "193042.455000", "193042.915000", "193043.375000", "193043.835000", "193044.295000", "193044.755000", "193045.215000", "193045.675000", "193046.135000", "193046.595000", "193047.055000", "193047.515000", "193047.975000", "193048.435000", "193048.895000", "193049.355000", "193049.815000", "193050.275000", "193050.735000", "193051.195000", "193051.655000", "193052.115000", "193052.575000", "193053.035000", "193053.495000", "193053.955000", "193054.415000", "193054.875000", "193055.335000", "193055.795000", "193056.255000", "193056.715000", "193057.175000", "193057.635000", "193058.095000", "193058.555000", "193059.015000", "193059.475000", "193059.935000", "193100.395000", "193100.855000", "193101.315000", "193101.775000", "193102.235000", "193102.695000", "193103.155000", "193103.615000", "193104.075000", "193104.535000", "193104.995000", "193105.455000", "193105.915000", "193106.375000", "193106.835000", "193107.295000", "193107.755000", "193108.215000", "193108.675000", "193109.135000", "193109.595000", "193110.055000", "193110.515000", "193110.975000", "193111.435000", "193111.895000", "193112.355000", "193112.815000", "193113.275000", "193113.735000", "193114.195000", "193114.655000", "193115.115000", "193115.575000", "193116.035000", "193116.495000", "193116.955000", "193117.415000", "193117.875000", "193118.335000", "193118.795000", "193119.255000", "193119.715000", "193120.175000", "193120.635000", "193121.095000", "193121.555000", "193122.015000", "193122.475000", "193122.935000", "193123.395000", "193123.855000", "193124.315000", "193124.775000", "193125.235000", "193125.695000", "193126.155000", "193126.615000", "193127.075000", "193127.535000", "193127.995000", "193128.455000", "193128.915000", "193129.375000", "193129.835000", "193130.295000", "193130.755000", "193131.215000", "193131.675000", "193132.135000", "193132.595000", "193133.055000", "193133.515000", "193133.975000", "193134.435000", "193134.895000", "193135.355000", "193135.815000", "193136.275000", "193136.735000", "193137.195000", "193137.655000", "193138.115000", "193138.575000", "193139.035000", "193139.495000", "193139.955000", "193140.415000", "193140.875000", "193141.335000", "193141.795000", "193142.255000", "193142.715000", "193143.175000", "193143.635000", "193144.095000", "193144.555000", "193145.015000", "193145.475000", "193145.935000", "193146.395000", "193146.855000", "193147.315000", "193147.775000", "193148.235000", "193148.695000", "193149.155000", "193149.615000", "193150.075000", "193150.535000", "193150.995000", "193151.455000", "193151.915000", "193152.375000", "193152.835000", "193153.295000", "193153.755000", "193154.215000", "193154.675000", "193155.135000", "193155.595000", "193156.055000", "193156.515000", "193156.975000", "193157.435000", "193157.895000", "193158.355000", "193158.815000", "193159.275000", "193159.735000", "193200.195000", "193200.655000", "193201.115000", "193201.575000", "193202.035000", "193202.495000", "193202.955000", "193203.415000", "193203.875000", "193204.335000", "193204.795000", "193205.255000", "193205.715000", "193206.175000", "193206.635000", "193207.095000", "193207.555000", "193208.015000", "193208.475000", "193208.935000", "193209.395000", "193209.855000", "193210.315000", "193210.775000", "193211.235000", "193211.695000", "193212.155000", "193212.615000", "193213.075000", "193213.535000", "193213.995000", "193214.455000", "193214.915000", "193215.375000", "193215.835000", "193216.295000", "193216.755000", "193217.215000", "193217.675000", "193218.135000", "193218.595000", "193219.055000", "193219.515000", "193219.975000", "193220.435000", "193220.895000", "193221.355000", "193221.815000", "193222.275000", "193222.735000", "193223.195000", "193223.655000", "193224.115000", "193224.575000", "193225.035000", "193225.495000", "193225.955000", "193226.415000", "193226.875000", "193227.335000", "193227.795000", "193228.255000", "193228.715000", "193229.175000", "193229.635000", "193230.095000", "193230.555000", "193231.015000", "193231.475000", "193231.935000", "193232.395000", "193232.855000", "193233.315000", "193233.775000", "193234.235000", "193234.695000", "193235.155000", "193235.615000", "193236.075000", "193236.535000", "193236.995000", "193237.455000", "193237.915000", "193238.375000", "193238.835000", "193239.295000", "193239.755000", "193240.215000", "193240.675000", "193241.135000", "193241.595000", "193242.055000", "193242.515000", "193242.975000", "193243.435000", "193243.895000", "193244.355000", "193244.815000", "193245.275000", "193245.735000", "193246.195000", "193246.655000", "193247.115000", "193247.575000", "193248.035000", "193248.495000", "193248.955000", "193249.415000", "193249.875000", "193250.335000", "193250.795000", "193251.255000", "193251.715000", "193252.175000", "193252.635000", "193253.095000", "193253.555000", "193254.015000", "193254.475000", "193254.935000", "193255.395000", "193255.855000", "193256.315000", "193256.775000", "193257.235000", "193257.695000", "193258.155000", "193258.615000", "193259.075000", "193259.535000", "193259.995000", "193300.455000", "193300.915000", "193301.375000", "193301.835000", "193302.295000", "193302.755000", "193303.215000", "193303.675000", "193304.135000", "193304.595000", "193305.055000", "193305.515000", "193305.975000", "193306.435000", "193306.895000", "193307.355000", "193307.815000", "193308.275000", "193308.735000", "193309.195000", "193309.655000", "193310.115000", "193310.575000", "193311.035000", "193311.495000", "193311.955000", "193312.415000", "193312.875000", "193313.335000", "193313.795000", "193314.255000", "193314.715000", "193315.175000", "193315.635000", "193316.095000", "193316.555000", "193317.015000", "193317.475000", "193317.935000", "193318.395000", "193318.855000", "193319.315000", "193319.775000", "193320.235000", "193320.695000", "193321.155000", "193321.615000", "193322.075000", "193322.535000", "193322.995000", "193323.455000", "193323.915000", "193324.375000", "193324.835000", "193325.295000", "193325.755000", "193326.215000", "193326.675000", "193327.135000", "193327.595000", "193328.055000", "193328.515000", "193328.975000", "193329.435000", "193329.895000", "193330.355000", "193330.815000", "193331.275000", "193331.735000", "193332.195000", "193332.655000", "193333.115000", "193333.575000", "193334.035000", "193334.495000", "193334.955000", "193335.415000", "193335.875000", "193336.335000", "193336.795000", "193337.255000", "193337.715000", "193338.175000", "193338.635000", "193339.095000", "193339.555000", "193340.015000", "193340.475000", "193340.935000", "193341.395000", "193341.855000", "193342.315000", "193342.775000", "193343.235000", "193343.695000", "193344.155000", "193344.615000", "193345.075000", "193345.535000", "193345.995000", "193346.455000", "193346.915000", "193347.375000", "193347.835000", "193348.295000", "193348.755000", "193349.215000", "193349.675000", "193350.135000", "193350.595000", "193351.055000", "193351.515000", "193351.975000", "193352.435000", "193352.895000", "193353.355000", "193353.815000", "193354.275000", "193354.735000", "193355.195000", "193355.655000", "193356.115000", "193356.575000", "193357.035000", "193357.495000", "193357.955000", "193358.415000", "193358.875000", "193359.335000", "193359.795000", "193400.255000", "193400.715000", "193401.175000", "193401.635000", "193402.095000", "193402.555000", "193403.015000", "193403.475000", "193403.935000", "193404.395000", "193404.855000", "193405.315000", "193405.775000", "193406.235000", "193406.695000", "193407.155000", "193407.615000", "193408.075000", "193408.535000", "193408.995000", "193409.455000", "193409.915000", "193410.375000", "193410.835000", "193411.295000", "193411.755000", "193412.215000", "193412.675000", "193413.135000", "193413.595000", "193414.055000", "193414.515000", "193414.975000", "193415.435000", "193415.895000", "193416.355000", "193416.815000", "193417.275000", "193417.735000", "193418.195000", "193418.655000", "193419.115000", "193419.575000", "193420.035000", "193420.495000", "193420.955000", "193421.415000", "193421.875000", "193422.335000", "193422.795000", "193423.255000", "193423.715000", "193424.175000", "193424.635000", "193425.095000", "193425.555000", "193426.015000", "193426.475000", "193426.935000", "193427.395000", "193427.855000", "193428.315000", "193428.775000", "193429.235000", "193429.695000", "193430.155000", "193430.615000", "193431.075000", "193431.535000", "193431.995000", "193432.455000", "193432.915000", "193433.375000", "193433.835000", "193434.295000", "193434.755000", "193435.215000", "193435.675000", "193436.135000", "193436.595000", "193437.055000", "193437.515000", "193437.975000", "193438.435000", "193438.895000", "193439.355000", "193439.815000", "193440.275000", "193440.735000", "193441.195000", "193441.655000", "193442.115000", "193442.575000", "193443.035000", "193443.495000", "193443.955000", "193444.415000", "193444.875000", "193445.335000", "193445.795000", "193446.255000", "193446.715000", "193447.175000", "193447.635000", "193448.095000", "193448.555000", "193449.015000", "193449.475000", "193449.935000", "193450.395000", "193450.855000", "193451.315000", "193451.775000", "193452.235000", "193452.695000", "193453.155000", "193453.615000", "193454.075000", "193454.535000", "193454.995000", "193455.455000", "193455.915000", "193456.375000", "193456.835000", "193457.295000", "193457.755000", "193458.215000", "193458.675000", "193459.135000", "193459.595000", "193500.055000", "193500.515000", "193500.975000", "193501.435000", "193501.895000", "193502.355000", "193502.815000", "193503.275000", "193503.735000", "193504.195000", "193504.655000", "193505.115000"],
