{
  "AcquisitionMatrixPE": 82,
  "AcquisitionNumber": 1,
  "AcquisitionTime": "19:13:53.182500",
  "BandwidthPerPixelPhaseEncode": 24.888,
  "BaseResolution": 82,
  "BodyPartExamined": "BRAIN",
  "ConsistencyInfo": "N4_VE11E_LATEST_20181129",
  "ConversionSoftware": "dcm2niix",
  "ConversionSoftwareVersion": "v1.0.20201102",
  "DerivedVendorReportedEchoSpacing": 0.00049,
  "DeviceSerialNumber": "66112",
  "DwellTime": 2e-06,
  "EchoTime": 0.0272,
  "EchoTrainLength": 82,
  "EffectiveEchoSpacing": 0.00049,
  "FlipAngle": 44,
  "ImageComments": "Unaliased MB8/PE3",
  "ImageOrientationPatientDICOM": [0.99536, -0.0961916, -0.00240731, 0.0961929, 0.994139, 0.0493429],
  "ImageType": [
    "ORIGINAL",
    "PRIMARY",
    "M",
    "MB",
    "ND",
    "NORM",
    "MOSAIC"
],
  "ImagingFrequency": 123.259,
  "InPlanePhaseEncodingDirectionDICOM": "COL",
  "InstitutionAddress": "Maynard 3,Hanover,NH,US,03755",
  "InstitutionName": "Dartmouth College - PBS",
  "InstitutionalDepartmentName": "Department",
  "MRAcquisitionType": "2D",
  "MagneticFieldStrength": 3,
  "Manufacturer": "Siemens",
  "ManufacturersModelName": "Prisma",
  "Modality": "MR",
  "MultibandAccelerationFactor": 8,
  "PartialFourier": 1,
  "PatientPosition": "HFS",
  "PercentPhaseFOV": 100,
  "PercentSampling": 100,
  "PhaseEncodingDirection": "j-",
  "PhaseEncodingSteps": 82,
  "PhaseResolution": 1,
  "PixelBandwidth": 3050,
  "ProcedureStepDescription": "Wager_Wager^1076_spacetop",
  "ProtocolName": "func_run-02_task-social_acq-ap-mb8",
  "PulseSequenceDetails": "%CustomerSeq%\\cmrr_mbep2d_bold",
  "ReceiveCoilActiveElements": "HEA;HEP",
  "ReceiveCoilName": "Head_32",
  "ReconMatrixPE": 82,
  "RepetitionTime": 0.46,
  "SAR": 0.116081,
  "ScanOptions": "FS",
  "ScanningSequence": "EP",
  "SequenceName": "epfid2d1_82",
  "SequenceVariant": "SK\\SS",
  "SeriesDescription": "func_run-02_task-social_acq-ap-mb8",
  "SeriesNumber": 10,
  "ShimSetting": [4229, -7757, -7232, 156, -222, -7, 72, 139],
  "SliceThickness": 2.7,
  "SliceTiming": [0, 0.25, 0.0625, 0.3125, 0.125, 0.375, 0.1875, 0, 0.25, 0.0625, 0.3125, 0.125, 0.375, 0.1875, 0, 0.25, 0.0625, 0.3125, 0.125, 0.375, 0.1875, 0, 0.25, 0.0625, 0.3125, 0.125, 0.375, 0.1875, 0, 0.25, 0.0625, 0.3125, 0.125, 0.375, 0.1875, 0, 0.25, 0.0625, 0.3125, 0.125, 0.375, 0.1875, 0, 0.25, 0.0625, 0.3125, 0.125, 0.375, 0.1875, 0, 0.25, 0.0625, 0.3125, 0.125, 0.375, 0.1875],
  "SoftwareVersions": "syngo MR E11",
  "SpacingBetweenSlices": 2.7,
  "StationName": "AWP66112",
  "TaskName": "social",
  "TotalReadoutTime": 0.03969,
  "TxRefAmp": 251.813,
  "WipMemBlock": "4016fdee-6d9e-4649-a9a2-5f7d7a650281||Sequence: R016 ve11e/master r/434b28f1; Aug  7 2019 18:53:46 by eja",
  "dcmmeta_affine": [
    [-2.670477867126465, 0.2580786347389221, 0.006353546865284443, 98.53409576416016],
    [0.2580750286579132, 2.6672019958496094, 0.13323278725147247, -107.0809555053711],
    [-0.006458645220845938, -0.1323833018541336, 2.6967034339904785, -57.05416488647461],
    [0.0, 0.0, 0.0, 1.0]
],
  "dcmmeta_reorient_transform": [
    [0.0, -1.0, 0.0, 81.0],
    [1.0, 0.0, 0.0, 0.0],
    [0.0, 0.0, 1.0, 0.0],
    [0.0, 0.0, 0.0, 1.0]
],
  "dcmmeta_shape": [82, 82, 56, 872],
  "dcmmeta_slice_dim": 2,
  "dcmmeta_version": 0.6,
  "global": {
    "const": {
      "AccessionNumber": "A004857",
      "AcquisitionMatrix": [82, 0, 0, 82],
      "AngioFlag": "N",
      "BitsAllocated": 16,
      "BitsStored": 16,
      "BodyPartExamined": "BRAIN",
      "Columns": 656,
      "EchoNumbers": 1,
      "EchoTime": 27.2,
      "EchoTrainLength": 82,
      "FlipAngle": 44.0,
      "HighBit": 15,
      "ImageOrientationPatient": [0.99535992506765, -0.0961916026093, -0.0024073131867, 0.09619294247183, 0.99413892364106, 0.04934286493918],
      "ImagePositionPatient": [-959.93419350745, -800.38186229822, -103.9175863011],
      "ImageType": [
        "ORIGINAL",
        "PRIMARY",
        "M",
        "MB",
        "ND",
        "NORM",
        "MOSAIC"
],
      "ImagedNucleus": "1H",
      "ImagingFrequency": 123.259041,
      "InPlanePhaseEncodingDirection": "COL",
      "MRAcquisitionType": "2D",
      "MagneticFieldStrength": 3.0,
      "Manufacturer": "SIEMENS",
      "ManufacturerModelName": "Prisma",
      "Modality": "MR",
      "NumberOfAverages": 1.0,
      "NumberOfPhaseEncodingSteps": 82,
      "PercentPhaseFieldOfView": 100.0,
      "PercentSampling": 100.0,
      "PerformedProcedureStepStartTime": "185630.315000",
      "PhotometricInterpretation": "MONOCHROME2",
      "PixelBandwidth": 3050.0,
      "PixelRepresentation": 0,
      "PixelSpacing": [2.6829268932343, 2.6829268932343],
      "ProtocolName": "func_run-02_task-social_acq-ap-mb8",
      "RepetitionTime": 460.0,
      "Rows": 656,
      "SAR": 0.11608070148624,
      "SamplesPerPixel": 1,
      "ScanOptions": "FS",
      "ScanningSequence": "EP",
      "SequenceName": "epfid2d1_82",
      "SequenceVariant": [
        "SK",
        "SS"
],
      "SeriesDescription": "func_run-02_task-social_acq-ap-mb8",
      "SeriesNumber": 10,
      "SeriesTime": "191410.074000",
      "SliceLocation": -62.036593975128,
      "SliceThickness": 2.7000000476837,
      "SmallestImagePixelValue": 0,
      "SoftwareVersions": "syngo MR E11",
      "SpacingBetweenSlices": 2.7000000446741,
      "SpecificCharacterSet": "ISO_IR 100",
      "StudyID": "1",
      "StudyTime": "185630.234000",
      "TransmitCoilName": "Body",
      "VariableFlipAngleFlag": "N",
      "WindowCenterWidthExplanation": "Algo1"
    },
    "slices": {}
  },
  "time": {
    "samples": {
      "AcquisitionNumber": [1, 2, 3, 4, 5, 6, 7, 8, 9, 10, 11, 12, 13, 14, 15, 16, 17, 18, 19, 20, 21, 22, 23, 24, 25, 26, 27, 28, 29, 30, 31, 32, 33, 34, 35, 36, 37, 38, 39, 40, 41, 42, 43, 44, 45, 46, 47, 48, 49, 50, 51, 52, 53, 54, 55, 56, 57, 58, 59, 60, 61, 62, 63, 64, 65, 66, 67, 68, 69, 70, 71, 72, 73, 74, 75, 76, 77, 78, 79, 80, 81, 82, 83, 84, 85, 86, 87, 88, 89, 90, 91, 92, 93, 94, 95, 96, 97, 98, 99, 100, 101, 102, 103, 104, 105, 106, 107, 108, 109, 110, 111, 112, 113, 114, 115, 116, 117, 118, 119, 120, 121, 122, 123, 124, 125, 126, 127, 128, 129, 130, 131, 132, 133, 134, 135, 136, 137, 138, 139, 140, 141, 142, 143, 144, 145, 146, 147, 148, 149, 150, 151, 152, 153, 154, 155, 156, 157, 158, 159, 160, 161, 162, 163, 164, 165, 166, 167, 168, 169, 170, 171, 172, 173, 174, 175, 176, 177, 178, 179, 180, 181, 182, 183, 184, 185, 186, 187, 188, 189, 190, 191, 192, 193, 194, 195, 196, 197, 198, 199, 200, 201, 202, 203, 204, 205, 206, 207, 208, 209, 210, 211, 212, 213, 214, 215, 216, 217, 218, 219, 220, 221, 222, 223, 224, 225, 226, 227, 228, 229, 230, 231, 232, 233, 234, 235, 236, 237, 238, 239, 240, 241, 242, 243, 244, 245, 246, 247, 248, 249, 250, 251, 252, 253, 254, 255, 256, 257, 258, 259, 260, 261, 262, 263, 264, 265, 266, 267, 268, 269, 270, 271, 272, 273, 274, 275, 276, 277, 278, 279, 280, 281, 282, 283, 284, 285, 286, 287, 288, 289, 290, 291, 292, 293, 294, 295, 296, 297, 298, 299, 300, 301, 302, 303, 304, 305, 306, 307, 308, 309, 310, 311, 312, 313, 314, 315, 316, 317, 318, 319, 320, 321, 322, 323, 324, 325, 326, 327, 328, 329, 330, 331, 332, 333, 334, 335, 336, 337, 338, 339, 340, 341, 342, 343, 344, 345, 346, 347, 348, 349, 350, 351, 352, 353, 354, 355, 356, 357, 358, 359, 360, 361, 362, 363, 364, 365, 366, 367, 368, 369, 370, 371, 372, 373, 374, 375, 376, 377, 378, 379, 380, 381, 382, 383, 384, 385, 386, 387, 388, 389, 390, 391, 392, 393, 394, 395, 396, 397, 398, 399, 400, 401, 402, 403, 404, 405, 406, 407, 408, 409, 410, 411, 412, 413, 414, 415, 416, 417, 418, 419, 420, 421, 422, 423, 424, 425, 426, 427, 428, 429, 430, 431, 432, 433, 434, 435, 436, 437, 438, 439, 440, 441, 442, 443, 444, 445, 446, 447, 448, 449, 450, 451, 452, 453, 454, 455, 456, 457, 458, 459, 460, 461, 462, 463, 464, 465, 466, 467, 468, 469, 470, 471, 472, 473, 474, 475, 476, 477, 478, 479, 480, 481, 482, 483, 484, 485, 486, 487, 488, 489, 490, 491, 492, 493, 494, 495, 496, 497, 498, 499, 500, 501, 502, 503, 504, 505, 506, 507, 508, 509, 510, 511, 512, 513, 514, 515, 516, 517, 518, 519, 520, 521, 522, 523, 524, 525, 526, 527, 528, 529, 530, 531, 532, 533, 534, 535, 536, 537, 538, 539, 540, 541, 542, 543, 544, 545, 546, 547, 548, 549, 550, 551, 552, 553, 554, 555, 556, 557, 558, 559, 560, 561, 562, 563, 564, 565, 566, 567, 568, 569, 570, 571, 572, 573, 574, 575, 576, 577, 578, 579, 580, 581, 582, 583, 584, 585, 586, 587, 588, 589, 590, 591, 592, 593, 594, 595, 596, 597, 598, 599, 600, 601, 602, 603, 604, 605, 606, 607, 608, 609, 610, 611, 612, 613, 614, 615, 616, 617, 618, 619, 620, 621, 622, 623, 624, 625, 626, 627, 628, 629, 630, 631, 632, 633, 634, 635, 636, 637, 638, 639, 640, 641, 642, 643, 644, 645, 646, 647, 648, 649, 650, 651, 652, 653, 654, 655, 656, 657, 658, 659, 660, 661, 662, 663, 664, 665, 666, 667, 668, 669, 670, 671, 672, 673, 674, 675, 676, 677, 678, 679, 680, 681, 682, 683, 684, 685, 686, 687, 688, 689, 690, 691, 692, 693, 694, 695, 696, 697, 698, 699, 700, 701, 702, 703, 704, 705, 706, 707, 708, 709, 710, 711, 712, 713, 714, 715, 716, 717, 718, 719, 720, 721, 722, 723, 724, 725, 726, 727, 728, 729, 730, 731, 732, 733, 734, 735, 736, 737, 738, 739, 740, 741, 742, 743, 744, 745, 746, 747, 748, 749, 750, 751, 752, 753, 754, 755, 756, 757, 758, 759, 760, 761, 762, 763, 764, 765, 766, 767, 768, 769, 770, 771, 772, 773, 774, 775, 776, 777, 778, 779, 780, 781, 782, 783, 784, 785, 786, 787, 788, 789, 790, 791, 792, 793, 794, 795, 796, 797, 798, 799, 800, 801, 802, 803, 804, 805, 806, 807, 808, 809, 810, 811, 812, 813, 814, 815, 816, 817, 818, 819, 820, 821, 822, 823, 824, 825, 826, 827, 828, 829, 830, 831, 832, 833, 834, 835, 836, 837, 838, 839, 840, 841, 842, 843, 844, 845, 846, 847, 848, 849, 850, 851, 852, 853, 854, 855, 856, 857, 858, 859, 860, 861, 862, 863, 864, 865, 866, 867, 868, 869, 870, 871, 872],
      "AcquisitionTime": ["191353.182500", "191353.642500", "191354.102500", "191354.562500", "191355.022500", "191355.482500", "191355.942500", "191356.402500", "191356.862500", "191357.322500", "191357.782500", "191358.242500", "191358.702500", "191359.162500", "191359.622500", "191400.082500", "191400.542500", "191401.002500", "191401.462500", "191401.922500", "191402.382500", "191402.842500", "191403.302500", "191403.762500", "191404.222500", "191404.682500", "191405.142500", "191405.602500", "191406.062500", "191406.522500", "191406.982500", "191407.442500", "191407.902500", "191408.362500", "191408.822500", "191409.282500", "191409.742500", "191410.202500", "191410.662500", "191411.122500", "191411.582500", "191412.042500", "191412.502500", "191412.962500", "191413.422500", "191413.882500", "191414.342500", "191414.802500", "191415.262500", "191415.722500", "191416.182500", "191416.642500", "191417.102500", "191417.562500", "191418.022500", "191418.482500", "191418.942500", "191419.402500", "191419.862500", "191420.322500", "191420.782500", "191421.242500", "191421.702500", "191422.162500", "191422.622500", "191423.082500", "191423.542500", "191424.002500", "191424.462500", "191424.922500", "191425.382500", "191425.842500", "191426.302500", "191426.762500", "191427.222500", "191427.682500", "191428.142500", "191428.602500", "191429.062500", "191429.522500", "191429.982500", "191430.442500", "191430.902500", "191431.362500", "191431.822500", "191432.282500", "191432.742500", "191433.202500", "191433.662500", "191434.122500", "191434.582500", "191435.042500", "191435.502500", "191435.962500", "191436.422500", "191436.882500", "191437.342500", "191437.802500", "191438.262500", "191438.722500", "191439.182500", "191439.642500", "191440.102500", "191440.562500", "191441.022500", "191441.482500", "191441.942500", "191442.402500", "191442.862500", "191443.322500", "191443.782500", "191444.242500", "191444.702500", "191445.162500", "191445.622500", "191446.082500", "191446.542500", "191447.002500", "191447.462500", "191447.922500", "191448.382500", "191448.842500", "191449.302500", "191449.762500", "191450.222500", "191450.682500", "191451.142500", "191451.602500", "191452.062500", "191452.522500", "191452.982500", "191453.442500", "191453.902500", "191454.362500", "191454.822500", "191455.282500", "191455.742500", "191456.202500", "191456.662500", "191457.122500", "191457.582500", "191458.042500", "191458.502500", "191458.962500", "191459.422500", "191459.882500", "191500.342500", "191500.802500", "191501.262500", "191501.722500", "191502.182500", "191502.642500", "191503.102500", "191503.562500", "191504.022500", "191504.482500", "191504.942500", "191505.402500", "191505.862500", "191506.322500", "191506.782500", "191507.242500", "191507.702500", "191508.162500", "191508.622500", "191509.082500", "191509.542500", "191510.002500", "191510.462500", "191510.922500", "191511.382500", "191511.842500", "191512.302500", "191512.762500", "191513.222500", "191513.682500", "191514.142500", "191514.602500", "191515.062500", "191515.522500", "191515.982500", "191516.442500", "191516.902500", "191517.362500", "191517.822500", "191518.282500", "191518.742500", "191519.202500", "191519.662500", "191520.122500", "191520.582500", "191521.042500", "191521.502500", "191521.962500", "191522.422500", "191522.882500", "191523.342500", "191523.802500", "191524.262500", "191524.722500", "191525.182500", "191525.642500", "191526.102500", "191526.562500", "191527.022500", "191527.482500", "191527.942500", "191528.402500", "191528.862500", "191529.322500", "191529.782500", "191530.242500", "191530.702500", "191531.162500", "191531.622500", "191532.082500", "191532.542500", "191533.002500", "191533.462500", "191533.922500", "191534.382500", "191534.842500", "191535.302500", "191535.762500", "191536.222500", "191536.682500", "191537.142500", "191537.602500", "191538.062500", "191538.522500", "191538.982500", "191539.442500", "191539.902500", "191540.362500", "191540.822500", "191541.282500", "191541.742500", "191542.202500", "191542.662500", "191543.122500", "191543.582500", "191544.042500", "191544.502500", "191544.962500", "191545.422500", "191545.882500", "191546.342500", "191546.802500", "191547.262500", "191547.722500", "191548.182500", "191548.642500", "191549.102500", "191549.562500", "191550.022500", "191550.482500", "191550.942500", "191551.402500", "191551.862500", "191552.322500", "191552.782500", "191553.242500", "191553.702500", "191554.162500", "191554.622500", "191555.082500", "191555.542500", "191556.002500", "191556.462500", "191556.922500", "191557.382500", "191557.842500", "191558.302500", "191558.762500", "191559.222500", "191559.682500", "191600.142500", "191600.602500", "191601.062500", "191601.522500", "191601.982500", "191602.442500", "191602.902500", "191603.362500", "191603.822500", "191604.282500", "191604.742500", "191605.202500", "191605.662500", "191606.122500", "191606.582500", "191607.042500", "191607.502500", "191607.962500", "191608.422500", "191608.882500", "191609.342500", "191609.802500", "191610.262500", "191610.722500", "191611.182500", "191611.642500", "191612.102500", "191612.562500", "191613.022500", "191613.482500", "191613.942500", "191614.402500", "191614.862500", "191615.322500", "191615.782500", "191616.242500", "191616.702500", "191617.162500", "191617.622500", "191618.082500", "191618.542500", "191619.002500", "191619.462500", "191619.922500", "191620.382500", "191620.842500", "191621.302500", "191621.762500", "191622.222500", "191622.682500", "191623.142500", "191623.602500", "191624.062500", "191624.522500", "191624.982500", "191625.442500", "191625.902500", "191626.362500", "191626.822500", "191627.282500", "191627.742500", "191628.202500", "191628.662500", "191629.122500", "191629.582500", "191630.042500", "191630.502500", "191630.962500", "191631.422500", "191631.882500", "191632.342500", "191632.802500", "191633.262500", "191633.722500", "191634.182500", "191634.642500", "191635.102500", "191635.562500", "191636.022500", "191636.482500", "191636.942500", "191637.402500", "191637.862500", "191638.322500", "191638.782500", "191639.242500", "191639.702500", "191640.162500", "191640.622500", "191641.082500", "191641.542500", "191642.002500", "191642.462500", "191642.922500", "191643.382500", "191643.842500", "191644.302500", "191644.762500", "191645.222500", "191645.682500", "191646.142500", "191646.602500", "191647.062500", "191647.522500", "191647.982500", "191648.442500", "191648.902500", "191649.362500", "191649.822500", "191650.282500", "191650.742500", "191651.202500", "191651.662500", "191652.122500", "191652.582500", "191653.042500", "191653.502500", "191653.962500", "191654.422500", "191654.882500", "191655.342500", "191655.802500", "191656.262500", "191656.722500", "191657.182500", "191657.642500", "191658.102500", "191658.562500", "191659.022500", "191659.482500", "191659.942500", "191700.402500", "191700.862500", "191701.322500", "191701.782500", "191702.242500", "191702.702500", "191703.162500", "191703.622500", "191704.082500", "191704.542500", "191705.002500", "191705.462500", "191705.922500", "191706.382500", "191706.842500", "191707.302500", "191707.762500", "191708.222500", "191708.682500", "191709.142500", "191709.602500", "191710.062500", "191710.522500", "191710.982500", "191711.442500", "191711.902500", "191712.362500", "191712.822500", "191713.282500", "191713.742500", "191714.202500", "191714.662500", "191715.122500", "191715.582500", "191716.042500", "191716.502500", "191716.962500", "191717.422500", "191717.882500", "191718.342500", "191718.802500", "191719.262500", "191719.722500", "191720.182500", "191720.642500", "191721.102500", "191721.562500", "191722.022500", "191722.482500", "191722.942500", "191723.402500", "191723.862500", "191724.322500", "191724.782500", "191725.242500", "191725.702500", "191726.162500", "191726.622500", "191727.082500", "191727.542500", "191728.002500", "191728.462500", "191728.922500", "191729.382500", "191729.842500", "191730.302500", "191730.762500", "191731.222500", "191731.682500", "191732.142500", "191732.602500", "191733.062500", "191733.522500", "191733.982500", "191734.442500", "191734.902500", "191735.362500", "191735.822500", "191736.282500", "191736.742500", "191737.202500", "191737.662500", "191738.122500", "191738.582500", "191739.042500", "191739.502500", "191739.962500", "191740.422500", "191740.882500", "191741.342500", "191741.802500", "191742.262500", "191742.722500", "191743.182500", "191743.642500", "191744.102500", "191744.562500", "191745.022500", "191745.482500", "191745.942500", "191746.402500", "191746.862500", "191747.322500", "191747.782500", "191748.242500", "191748.702500", "191749.162500", "191749.622500", "191750.082500", "191750.542500", "191751.002500", "191751.462500", "191751.922500", "191752.382500", "191752.842500", "191753.302500", "191753.762500", "191754.222500", "191754.682500", "191755.142500", "191755.602500", "191756.062500", "191756.522500", "191756.982500", "191757.442500", "191757.902500", "191758.362500", "191758.822500", "191759.282500", "191759.742500", "191800.202500", "191800.662500", "191801.122500", "191801.582500", "191802.042500", "191802.502500", "191802.962500", "191803.422500", "191803.882500", "191804.342500", "191804.802500", "191805.262500", "191805.722500", "191806.182500", "191806.642500", "191807.102500", "191807.562500", "191808.022500", "191808.482500", "191808.942500", "191809.402500", "191809.862500", "191810.322500", "191810.782500", "191811.242500", "191811.702500", "191812.162500", "191812.622500", "191813.082500", "191813.542500", "191814.002500", "191814.462500", "191814.922500", "191815.382500", "191815.842500", "191816.302500", "191816.762500", "191817.222500", "191817.682500", "191818.142500", "191818.602500", "191819.062500", "191819.522500", "191819.982500", "191820.442500", "191820.902500", "191821.362500", "191821.822500", "191822.282500", "191822.742500", "191823.202500", "191823.662500", "191824.122500", "191824.582500", "191825.042500", "191825.502500", "191825.962500", "191826.422500", "191826.882500", "191827.342500", "191827.802500", "191828.262500", "191828.722500", "191829.182500", "191829.642500", "191830.102500", "191830.562500", "191831.022500", "191831.482500", "191831.942500", "191832.402500", "191832.862500", "191833.322500", "191833.782500", "191834.242500", "191834.702500", "191835.162500", "191835.622500", "191836.082500", "191836.542500", "191837.002500", "191837.462500", "191837.922500", "191838.382500", "191838.842500", "191839.302500", "191839.762500", "191840.222500", "191840.682500", "191841.142500", "191841.602500", "191842.062500", "191842.522500", "191842.982500", "191843.442500", "191843.902500", "191844.362500", "191844.822500", "191845.282500", "191845.742500", "191846.202500", "191846.662500", "191847.122500", "191847.582500", "191848.042500", "191848.502500", "191848.962500", "191849.422500", "191849.882500", "191850.342500", "191850.802500", "191851.262500", "191851.722500", "191852.182500", "191852.642500", "191853.102500", "191853.562500", "191854.022500", "191854.482500", "191854.942500", "191855.402500", "191855.862500", "191856.322500", "191856.782500", "191857.242500", "191857.702500", "191858.162500", "191858.622500", "191859.082500", "191859.542500", "191900.002500", "191900.462500", "191900.922500", "191901.382500", "191901.842500", "191902.302500", "191902.762500", "191903.222500", "191903.682500", "191904.142500", "191904.602500", "191905.062500", "191905.522500", "191905.982500", "191906.442500", "191906.902500", "191907.362500", "191907.822500", "191908.282500", "191908.742500", "191909.202500", "191909.662500", "191910.122500", "191910.582500", "191911.042500", "191911.502500", "191911.962500", "191912.422500", "191912.882500", "191913.342500", "191913.802500", "191914.262500", "191914.722500", "191915.182500", "191915.642500", "191916.102500", "191916.562500", "191917.022500", "191917.482500", "191917.942500", "191918.402500", "191918.862500", "191919.322500", "191919.782500", "191920.242500", "191920.702500", "191921.162500", "191921.622500", "191922.082500", "191922.542500", "191923.002500", "191923.462500", "191923.922500", "191924.382500", "191924.842500", "191925.302500", "191925.762500", "191926.222500", "191926.682500", "191927.142500", "191927.602500", "191928.062500", "191928.522500", "191928.982500", "191929.442500", "191929.902500", "191930.362500", "191930.822500", "191931.282500", "191931.742500", "191932.202500", "191932.662500", "191933.122500", "191933.582500", "191934.042500", "191934.502500", "191934.962500", "191935.422500", "191935.882500", "191936.342500", "191936.802500", "191937.262500", "191937.722500", "191938.182500", "191938.642500", "191939.102500", "191939.562500", "191940.022500", "191940.482500", "191940.942500", "191941.402500", "191941.862500", "191942.322500", "191942.782500", "191943.242500", "191943.702500", "191944.162500", "191944.622500", "191945.082500", "191945.542500", "191946.002500", "191946.462500", "191946.922500", "191947.382500", "191947.842500", "191948.302500", "191948.762500", "191949.222500", "191949.682500", "191950.142500", "191950.602500", "191951.062500", "191951.522500", "191951.982500", "191952.442500", "191952.902500", "191953.362500", "191953.822500", "191954.282500", "191954.742500", "191955.202500", "191955.662500", "191956.122500", "191956.582500", "191957.042500", "191957.502500", "191957.962500", "191958.422500", "191958.882500", "191959.342500", "191959.802500", "192000.262500", "192000.722500", "192001.182500", "192001.642500", "192002.102500", "192002.562500", "192003.022500", "192003.482500", "192003.942500", "192004.402500", "192004.862500", "192005.322500", "192005.782500", "192006.242500", "192006.702500", "192007.162500", "192007.622500", "192008.082500", "192008.542500", "192009.002500", "192009.462500", "192009.922500", "192010.382500", "192010.842500", "192011.302500", "192011.762500", "192012.222500", "192012.682500", "192013.142500", "192013.602500", "192014.062500", "192014.522500", "192014.982500", "192015.442500", "192015.902500", "192016.362500", "192016.822500", "192017.282500", "192017.742500", "192018.202500", "192018.662500", "192019.122500", "192019.582500", "192020.042500", "192020.502500", "192020.962500", "192021.422500", "192021.882500", "192022.342500", "192022.802500", "192023.262500", "192023.722500", "192024.182500", "192024.642500", "192025.102500", "192025.562500", "192026.022500", "192026.482500", "192026.942500", "192027.402500", "192027.862500", "192028.322500", "192028.782500", "192029.242500", "192029.702500", "192030.162500", "192030.622500", "192031.082500", "192031.542500", "192032.002500", "192032.462500", "192032.922500", "192033.382500", "192033.842500"],
