{
  "AcquisitionMatrixPE": 82,
  "AcquisitionNumber": 1,
  "AcquisitionTime": "20:28:50.127500",
  "BandwidthPerPixelPhaseEncode": 24.888,
  "BaseResolution": 82,
  "BodyPartExamined": "BRAIN",
  "ConsistencyInfo": "N4_VE11E_LATEST_20181129",
  "ConversionSoftware": "dcm2niix",
  "ConversionSoftwareVersion": "v1.0.20201102",
  "DerivedVendorReportedEchoSpacing": 0.00049,
  "DeviceSerialNumber": "66112",
  "DwellTime": 2e-06,
  "EchoTime": 0.0272,
  "EchoTrainLength": 82,
  "EffectiveEchoSpacing": 0.00049,
  "FlipAngle": 44,
  "ImageComments": "Unaliased MB8/PE3",
  "ImageOrientationPatientDICOM": [0.996203, -0.0851122, 0.0183227, 0.0813777, 0.985104, 0.151485],
  "ImageType": [
    "ORIGINAL",
    "PRIMARY",
    "M",
    "MB",
    "ND",
    "NORM",
    "MOSAIC"
],
  "ImagingFrequency": 123.259,
  "InPlanePhaseEncodingDirectionDICOM": "COL",
  "InstitutionAddress": "Maynard 3,Hanover,NH,US,03755",
  "InstitutionName": "Dartmouth College - PBS",
  "InstitutionalDepartmentName": "Department",
  "MRAcquisitionType": "2D",
  "MagneticFieldStrength": 3,
  "Manufacturer": "Siemens",
  "ManufacturersModelName": "Prisma",
  "Modality": "MR",
  "MultibandAccelerationFactor": 8,
  "PartialFourier": 1,
  "PatientPosition": "HFS",
  "PercentPhaseFOV": 100,
  "PercentSampling": 100,
  "PhaseEncodingDirection": "j-",
  "PhaseEncodingSteps": 82,
  "PhaseResolution": 1,
  "PixelBandwidth": 3050,
  "ProcedureStepDescription": "Wager_Wager^1076_spacetop",
  "ProtocolName": "func_run-03_task-alignvideo_acq-ap-mb8",
  "PulseSequenceDetails": "%CustomerSeq%\\cmrr_mbep2d_bold",
  "ReceiveCoilActiveElements": "HEA;HEP",
  "ReceiveCoilName": "Head_32",
  "ReconMatrixPE": 82,
  "RepetitionTime": 0.46,
  "SAR": 0.116212,
  "ScanOptions": "FS",
  "ScanningSequence": "EP",
  "SequenceName": "epfid2d1_82",
  "SequenceVariant": "SK\\SS",
  "SeriesDescription": "func_run-03_task-alignvideo_acq-ap-mb8",
  "SeriesNumber": 32,
  "ShimSetting": [4234, -7755, -7235, 97, -193, 25, 89, 139],
  "SliceThickness": 2.7,
  "SliceTiming": [0, 0.2525, 0.065, 0.315, 0.1275, 0.3775, 0.19, 0, 0.2525, 0.065, 0.315, 0.1275, 0.3775, 0.19, 0, 0.2525, 0.065, 0.315, 0.1275, 0.3775, 0.19, 0, 0.2525, 0.065, 0.315, 0.1275, 0.3775, 0.19, 0, 0.2525, 0.065, 0.315, 0.1275, 0.3775, 0.19, 0, 0.2525, 0.065, 0.315, 0.1275, 0.3775, 0.19, 0, 0.2525, 0.065, 0.315, 0.1275, 0.3775, 0.19, 0, 0.2525, 0.065, 0.315, 0.1275, 0.3775, 0.19],
  "SoftwareVersions": "syngo MR E11",
  "SpacingBetweenSlices": 2.7,
  "StationName": "AWP66112",
  "TaskName": "alignvideo",
  "TotalReadoutTime": 0.03969,
  "TxRefAmp": 251.813,
  "WipMemBlock": "84d98e3f-3c9a-4f38-a0fc-67c4e8e9f609||Sequence: R016 ve11e/master r/434b28f1; Aug  7 2019 18:53:46 by eja",
  "dcmmeta_affine": [
    [-2.6727395057678223, 0.2183304727077484, 0.08354602754116058, 100.31298065185547],
    [0.2283497154712677, 2.6429619789123535, 0.40343138575553894, -112.24681091308594],
    [0.04915837198495865, -0.406423956155777, 2.668382167816162, -38.42610549926758],
    [0.0, 0.0, 0.0, 1.0]
],
  "dcmmeta_reorient_transform": [
    [0.0, -1.0, 0.0, 81.0],
    [1.0, 0.0, 0.0, 0.0],
    [0.0, 0.0, 1.0, 0.0],
    [0.0, 0.0, 0.0, 1.0]
],
  "dcmmeta_shape": [82, 82, 56, 1065],
  "dcmmeta_slice_dim": 2,
  "dcmmeta_version": 0.6,
  "global": {
    "const": {
      "AccessionNumber": "A004857",
      "AcquisitionMatrix": [82, 0, 0, 82],
      "AngioFlag": "N",
      "BitsAllocated": 16,
      "BitsStored": 16,
      "BodyPartExamined": "BRAIN",
      "Columns": 656,
      "EchoNumbers": 1,
      "EchoTime": 27.2,
      "EchoTrainLength": 82,
      "FlipAngle": 44.0,
      "HighBit": 15,
      "ImageOrientationPatient": [0.99620289055766, -0.0851121657634, 0.01832266584396, 0.0813777199488, 0.98510399121811, 0.15148529031587],
      "ImagePositionPatient": [-947.73483741293, -794.82683326119, -202.09857700485],
      "ImageType": [
        "ORIGINAL",
        "PRIMARY",
        "M",
        "MB",
        "ND",
        "NORM",
        "MOSAIC"
],
      "ImagedNucleus": "1H",
      "ImagingFrequency": 123.259042,
      "InPlanePhaseEncodingDirection": "COL",
      "MRAcquisitionType": "2D",
      "MagneticFieldStrength": 3.0,
      "Manufacturer": "SIEMENS",
      "ManufacturerModelName": "Prisma",
      "Modality": "MR",
      "NumberOfAverages": 1.0,
      "NumberOfPhaseEncodingSteps": 82,
      "PercentPhaseFieldOfView": 100.0,
      "PercentSampling": 100.0,
      "PerformedProcedureStepStartTime": "185630.315000",
      "PhotometricInterpretation": "MONOCHROME2",
      "PixelBandwidth": 3050.0,
      "PixelRepresentation": 0,
      "PixelSpacing": [2.6829268932343, 2.6829268932343],
      "ProtocolName": "func_run-03_task-alignvideo_acq-ap-mb8",
      "RepetitionTime": 460.0,
      "Rows": 656,
      "SAR": 0.11621165435758,
      "SamplesPerPixel": 1,
      "ScanOptions": "FS",
      "ScanningSequence": "EP",
      "SequenceName": "epfid2d1_82",
      "SequenceVariant": [
        "SK",
        "SS"
],
      "SeriesDescription": "func_run-03_task-alignvideo_acq-ap-mb8",
      "SeriesNumber": 32,
      "SeriesTime": "202910.070000",
      "SliceLocation": -51.64395227633,
      "SliceThickness": 2.7000000476837,
      "SmallestImagePixelValue": 0,
      "SoftwareVersions": "syngo MR E11",
      "SpacingBetweenSlices": 2.6999999950315,
      "SpecificCharacterSet": "ISO_IR 100",
      "StudyID": "1",
      "StudyTime": "185630.234000",
      "TransmitCoilName": "Body",
      "VariableFlipAngleFlag": "N",
      "WindowCenterWidthExplanation": "Algo1"
    },
    "slices": {}
  },
  "time": {
    "samples": {
      "AcquisitionNumber": [1, 2, 3, 4, 5, 6, 7, 8, 9, 10, 11, 12, 13, 14, 15, 16, 17, 18, 19, 20, 21, 22, 23, 24, 25, 26, 27, 28, 29, 30, 31, 32, 33, 34, 35, 36, 37, 38, 39, 40, 41, 42, 43, 44, 45, 46, 47, 48, 49, 50, 51, 52, 53, 54, 55, 56, 57, 58, 59, 60, 61, 62, 63, 64, 65, 66, 67, 68, 69, 70, 71, 72, 73, 74, 75, 76, 77, 78, 79, 80, 81, 82, 83, 84, 85, 86, 87, 88, 89, 90, 91, 92, 93, 94, 95, 96, 97, 98, 99, 100, 101, 102, 103, 104, 105, 106, 107, 108, 109, 110, 111, 112, 113, 114, 115, 116, 117, 118, 119, 120, 121, 122, 123, 124, 125, 126, 127, 128, 129, 130, 131, 132, 133, 134, 135, 136, 137, 138, 139, 140, 141, 142, 143, 144, 145, 146, 147, 148, 149, 150, 151, 152, 153, 154, 155, 156, 157, 158, 159, 160, 161, 162, 163, 164, 165, 166, 167, 168, 169, 170, 171, 172, 173, 174, 175, 176, 177, 178, 179, 180, 181, 182, 183, 184, 185, 186, 187, 188, 189, 190, 191, 192, 193, 194, 195, 196, 197, 198, 199, 200, 201, 202, 203, 204, 205, 206, 207, 208, 209, 210, 211, 212, 213, 214, 215, 216, 217, 218, 219, 220, 221, 222, 223, 224, 225, 226, 227, 228, 229, 230, 231, 232, 233, 234, 235, 236, 237, 238, 239, 240, 241, 242, 243, 244, 245, 246, 247, 248, 249, 250, 251, 252, 253, 254, 255, 256, 257, 258, 259, 260, 261, 262, 263, 264, 265, 266, 267, 268, 269, 270, 271, 272, 273, 274, 275, 276, 277, 278, 279, 280, 281, 282, 283, 284, 285, 286, 287, 288, 289, 290, 291, 292, 293, 294, 295, 296, 297, 298, 299, 300, 301, 302, 303, 304, 305, 306, 307, 308, 309, 310, 311, 312, 313, 314, 315, 316, 317, 318, 319, 320, 321, 322, 323, 324, 325, 326, 327, 328, 329, 330, 331, 332, 333, 334, 335, 336, 337, 338, 339, 340, 341, 342, 343, 344, 345, 346, 347, 348, 349, 350, 351, 352, 353, 354, 355, 356, 357, 358, 359, 360, 361, 362, 363, 364, 365, 366, 367, 368, 369, 370, 371, 372, 373, 374, 375, 376, 377, 378, 379, 380, 381, 382, 383, 384, 385, 386, 387, 388, 389, 390, 391, 392, 393, 394, 395, 396, 397, 398, 399, 400, 401, 402, 403, 404, 405, 406, 407, 408, 409, 410, 411, 412, 413, 414, 415, 416, 417, 418, 419, 420, 421, 422, 423, 424, 425, 426, 427, 428, 429, 430, 431, 432, 433, 434, 435, 436, 437, 438, 439, 440, 441, 442, 443, 444, 445, 446, 447, 448, 449, 450, 451, 452, 453, 454, 455, 456, 457, 458, 459, 460, 461, 462, 463, 464, 465, 466, 467, 468, 469, 470, 471, 472, 473, 474, 475, 476, 477, 478, 479, 480, 481, 482, 483, 484, 485, 486, 487, 488, 489, 490, 491, 492, 493, 494, 495, 496, 497, 498, 499, 500, 501, 502, 503, 504, 505, 506, 507, 508, 509, 510, 511, 512, 513, 514, 515, 516, 517, 518, 519, 520, 521, 522, 523, 524, 525, 526, 527, 528, 529, 530, 531, 532, 533, 534, 535, 536, 537, 538, 539, 540, 541, 542, 543, 544, 545, 546, 547, 548, 549, 550, 551, 552, 553, 554, 555, 556, 557, 558, 559, 560, 561, 562, 563, 564, 565, 566, 567, 568, 569, 570, 571, 572, 573, 574, 575, 576, 577, 578, 579, 580, 581, 582, 583, 584, 585, 586, 587, 588, 589, 590, 591, 592, 593, 594, 595, 596, 597, 598, 599, 600, 601, 602, 603, 604, 605, 606, 607, 608, 609, 610, 611, 612, 613, 614, 615, 616, 617, 618, 619, 620, 621, 622, 623, 624, 625, 626, 627, 628, 629, 630, 631, 632, 633, 634, 635, 636, 637, 638, 639, 640, 641, 642, 643, 644, 645, 646, 647, 648, 649, 650, 651, 652, 653, 654, 655, 656, 657, 658, 659, 660, 661, 662, 663, 664, 665, 666, 667, 668, 669, 670, 671, 672, 673, 674, 675, 676, 677, 678, 679, 680, 681, 682, 683, 684, 685, 686, 687, 688, 689, 690, 691, 692, 693, 694, 695, 696, 697, 698, 699, 700, 701, 702, 703, 704, 705, 706, 707, 708, 709, 710, 711, 712, 713, 714, 715, 716, 717, 718, 719, 720, 721, 722, 723, 724, 725, 726, 727, 728, 729, 730, 731, 732, 733, 734, 735, 736, 737, 738, 739, 740, 741, 742, 743, 744, 745, 746, 747, 748, 749, 750, 751, 752, 753, 754, 755, 756, 757, 758, 759, 760, 761, 762, 763, 764, 765, 766, 767, 768, 769, 770, 771, 772, 773, 774, 775, 776, 777, 778, 779, 780, 781, 782, 783, 784, 785, 786, 787, 788, 789, 790, 791, 792, 793, 794, 795, 796, 797, 798, 799, 800, 801, 802, 803, 804, 805, 806, 807, 808, 809, 810, 811, 812, 813, 814, 815, 816, 817, 818, 819, 820, 821, 822, 823, 824, 825, 826, 827, 828, 829, 830, 831, 832, 833, 834, 835, 836, 837, 838, 839, 840, 841, 842, 843, 844, 845, 846, 847, 848, 849, 850, 851, 852, 853, 854, 855, 856, 857, 858, 859, 860, 861, 862, 863, 864, 865, 866, 867, 868, 869, 870, 871, 872, 873, 874, 875, 876, 877, 878, 879, 880, 881, 882, 883, 884, 885, 886, 887, 888, 889, 890, 891, 892, 893, 894, 895, 896, 897, 898, 899, 900, 901, 902, 903, 904, 905, 906, 907, 908, 909, 910, 911, 912, 913, 914, 915, 916, 917, 918, 919, 920, 921, 922, 923, 924, 925, 926, 927, 928, 929, 930, 931, 932, 933, 934, 935, 936, 937, 938, 939, 940, 941, 942, 943, 944, 945, 946, 947, 948, 949, 950, 951, 952, 953, 954, 955, 956, 957, 958, 959, 960, 961, 962, 963, 964, 965, 966, 967, 968, 969, 970, 971, 972, 973, 974, 975, 976, 977, 978, 979, 980, 981, 982, 983, 984, 985, 986, 987, 988, 989, 990, 991, 992, 993, 994, 995, 996, 997, 998, 999, 1000, 1001, 1002, 1003, 1004, 1005, 1006, 1007, 1008, 1009, 1010, 1011, 1012, 1013, 1014, 1015, 1016, 1017, 1018, 1019, 1020, 1021, 1022, 1023, 1024, 1025, 1026, 1027, 1028, 1029, 1030, 1031, 1032, 1033, 1034, 1035, 1036, 1037, 1038, 1039, 1040, 1041, 1042, 1043, 1044, 1045, 1046, 1047, 1048, 1049, 1050, 1051, 1052, 1053, 1054, 1055, 1056, 1057, 1058, 1059, 1060, 1061, 1062, 1063, 1064, 1065],
      "AcquisitionTime": ["202850.127500", "202850.587500", "202851.047500", "202851.507500", "202851.967500", "202852.427500", "202852.887500", "202853.347500", "202853.807500", "202854.267500", "202854.727500", "202855.187500", "202855.647500", "202856.107500", "202856.567500", "202857.027500", "202857.487500", "202857.947500", "202858.407500", "202858.867500", "202859.327500", "202859.787500", "202900.247500", "202900.707500", "202901.167500", "202901.627500", "202902.087500", "202902.547500", "202903.007500", "202903.467500", "202903.927500", "202904.387500", "202904.847500", "202905.307500", "202905.767500", "202906.227500", "202906.687500", "202907.147500", "202907.607500", "202908.067500", "202908.527500", "202908.987500", "202909.447500", "202909.907500", "202910.367500", "202910.827500", "202911.287500", "202911.747500", "202912.207500", "202912.667500", "202913.127500", "202913.587500", "202914.047500", "202914.507500", "202914.967500", "202915.427500", "202915.887500", "202916.347500", "202916.807500", "202917.267500", "202917.727500", "202918.187500", "202918.647500", "202919.107500", "202919.567500", "202920.027500", "202920.487500", "202920.947500", "202921.407500", "202921.867500", "202922.327500", "202922.787500", "202923.247500", "202923.707500", "202924.167500", "202924.627500", "202925.087500", "202925.547500", "202926.007500", "202926.467500", "202926.927500", "202927.387500", "202927.847500", "202928.307500", "202928.767500", "202929.227500", "202929.687500", "202930.147500", "202930.607500", "202931.067500", "202931.527500", "202931.987500", "202932.447500", "202932.907500", "202933.367500", "202933.827500", "202934.287500", "202934.747500", "202935.207500", "202935.667500", "202936.127500", "202936.587500", "202937.047500", "202937.507500", "202937.967500", "202938.427500", "202938.887500", "202939.347500", "202939.807500", "202940.267500", "202940.727500", "202941.187500", "202941.647500", "202942.107500", "202942.567500", "202943.027500", "202943.487500", "202943.947500", "202944.407500", "202944.867500", "202945.327500", "202945.787500", "202946.247500", "202946.707500", "202947.167500", "202947.627500", "202948.087500", "202948.547500", "202949.007500", "202949.467500", "202949.927500", "202950.387500", "202950.847500", "202951.307500", "202951.767500", "202952.227500", "202952.687500", "202953.147500", "202953.607500", "202954.067500", "202954.527500", "202954.987500", "202955.447500", "202955.907500", "202956.367500", "202956.827500", "202957.287500", "202957.747500", "202958.207500", "202958.667500", "202959.127500", "202959.587500", "203000.047500", "203000.507500", "203000.967500", "203001.427500", "203001.887500", "203002.347500", "203002.807500", "203003.267500", "203003.727500", "203004.187500", "203004.647500", "203005.107500", "203005.567500", "203006.027500", "203006.487500", "203006.947500", "203007.407500", "203007.867500", "203008.327500", "203008.787500", "203009.247500", "203009.707500", "203010.167500", "203010.627500", "203011.087500", "203011.547500", "203012.007500", "203012.467500", "203012.927500", "203013.387500", "203013.847500", "203014.307500", "203014.767500", "203015.227500", "203015.687500", "203016.147500", "203016.607500", "203017.067500", "203017.527500", "203017.987500", "203018.447500", "203018.907500", "203019.367500", "203019.827500", "203020.287500", "203020.747500", "203021.207500", "203021.667500", "203022.127500", "203022.587500", "203023.047500", "203023.507500", "203023.967500", "203024.427500", "203024.887500", "203025.347500", "203025.807500", "203026.267500", "203026.727500", "203027.187500", "203027.647500", "203028.107500", "203028.567500", "203029.027500", "203029.487500", "203029.947500", "203030.407500", "203030.867500", "203031.327500", "203031.787500", "203032.247500", "203032.707500", "203033.167500", "203033.627500", "203034.087500", "203034.547500", "203035.007500", "203035.467500", "203035.927500", "203036.387500", "203036.847500", "203037.307500", "203037.767500", "203038.227500", "203038.687500", "203039.147500", "203039.607500", "203040.067500", "203040.527500", "203040.987500", "203041.447500", "203041.907500", "203042.367500", "203042.827500", "203043.287500", "203043.747500", "203044.207500", "203044.667500", "203045.127500", "203045.587500", "203046.047500", "203046.507500", "203046.967500", "203047.427500", "203047.887500", "203048.347500", "203048.807500", "203049.267500", "203049.727500", "203050.187500", "203050.647500", "203051.107500", "203051.567500", "203052.027500", "203052.487500", "203052.947500", "203053.407500", "203053.867500", "203054.327500", "203054.787500", "203055.247500", "203055.707500", "203056.167500", "203056.627500", "203057.087500", "203057.547500", "203058.007500", "203058.467500", "203058.927500", "203059.387500", "203059.847500", "203100.307500", "203100.767500", "203101.227500", "203101.687500", "203102.147500", "203102.607500", "203103.067500", "203103.527500", "203103.987500", "203104.447500", "203104.907500", "203105.367500", "203105.827500", "203106.287500", "203106.747500", "203107.207500", "203107.667500", "203108.127500", "203108.587500", "203109.047500", "203109.507500", "203109.967500", "203110.427500", "203110.887500", "203111.347500", "203111.807500", "203112.267500", "203112.727500", "203113.187500", "203113.647500", "203114.107500", "203114.567500", "203115.027500", "203115.487500", "203115.947500", "203116.407500", "203116.867500", "203117.327500", "203117.787500", "203118.247500", "203118.707500", "203119.167500", "203119.627500", "203120.087500", "203120.547500", "203121.007500", "203121.467500", "203121.927500", "203122.387500", "203122.847500", "203123.307500", "203123.767500", "203124.227500", "203124.687500", "203125.147500", "203125.607500", "203126.067500", "203126.527500", "203126.987500", "203127.447500", "203127.907500", "203128.367500", "203128.827500", "203129.287500", "203129.747500", "203130.207500", "203130.667500", "203131.127500", "203131.587500", "203132.047500", "203132.507500", "203132.967500", "203133.427500", "203133.887500", "203134.347500", "203134.807500", "203135.267500", "203135.727500", "203136.187500", "203136.647500", "203137.107500", "203137.567500", "203138.027500", "203138.487500", "203138.947500", "203139.407500", "203139.867500", "203140.327500", "203140.787500", "203141.247500", "203141.707500", "203142.167500", "203142.627500", "203143.087500", "203143.547500", "203144.007500", "203144.467500", "203144.927500", "203145.387500", "203145.847500", "203146.307500", "203146.767500", "203147.227500", "203147.687500", "203148.147500", "203148.607500", "203149.067500", "203149.527500", "203149.987500", "203150.447500", "203150.907500", "203151.367500", "203151.827500", "203152.287500", "203152.747500", "203153.207500", "203153.667500", "203154.127500", "203154.587500", "203155.047500", "203155.507500", "203155.967500", "203156.427500", "203156.887500", "203157.347500", "203157.807500", "203158.267500", "203158.727500", "203159.187500", "203159.647500", "203200.107500", "203200.567500", "203201.027500", "203201.487500", "203201.947500", "203202.407500", "203202.867500", "203203.327500", "203203.787500", "203204.247500", "203204.707500", "203205.167500", "203205.627500", "203206.087500", "203206.547500", "203207.007500", "203207.467500", "203207.927500", "203208.387500", "203208.847500", "203209.307500", "203209.767500", "203210.227500", "203210.687500", "203211.147500", "203211.607500", "203212.067500", "203212.527500", "203212.987500", "203213.447500", "203213.907500", "203214.367500", "203214.827500", "203215.287500", "203215.747500", "203216.207500", "203216.667500", "203217.127500", "203217.587500", "203218.047500", "203218.507500", "203218.967500", "203219.427500", "203219.887500", "203220.347500", "203220.807500", "203221.267500", "203221.727500", "203222.187500", "203222.647500", "203223.107500", "203223.567500", "203224.027500", "203224.487500", "203224.947500", "203225.407500", "203225.867500", "203226.327500", "203226.787500", "203227.247500", "203227.707500", "203228.167500", "203228.627500", "203229.087500", "203229.547500", "203230.007500", "203230.467500", "203230.927500", "203231.387500", "203231.847500", "203232.307500", "203232.767500", "203233.227500", "203233.687500", "203234.147500", "203234.607500", "203235.067500", "203235.527500", "203235.987500", "203236.447500", "203236.907500", "203237.367500", "203237.827500", "203238.287500", "203238.747500", "203239.207500", "203239.667500", "203240.127500", "203240.587500", "203241.047500", "203241.507500", "203241.967500", "203242.427500", "203242.887500", "203243.347500", "203243.807500", "203244.267500", "203244.727500", "203245.187500", "203245.647500", "203246.107500", "203246.567500", "203247.027500", "203247.487500", "203247.947500", "203248.407500", "203248.867500", "203249.327500", "203249.787500", "203250.247500", "203250.707500", "203251.167500", "203251.627500", "203252.087500", "203252.547500", "203253.007500", "203253.467500", "203253.927500", "203254.387500", "203254.847500", "203255.307500", "203255.767500", "203256.227500", "203256.687500", "203257.147500", "203257.607500", "203258.067500", "203258.527500", "203258.987500", "203259.447500", "203259.907500", "203300.367500", "203300.827500", "203301.287500", "203301.747500", "203302.207500", "203302.667500", "203303.127500", "203303.587500", "203304.047500", "203304.507500", "203304.967500", "203305.427500", "203305.887500", "203306.347500", "203306.807500", "203307.267500", "203307.727500", "203308.187500", "203308.647500", "203309.107500", "203309.567500", "203310.027500", "203310.487500", "203310.947500", "203311.407500", "203311.867500", "203312.327500", "203312.787500", "203313.247500", "203313.707500", "203314.167500", "203314.627500", "203315.087500", "203315.547500", "203316.007500", "203316.467500", "203316.927500", "203317.387500", "203317.847500", "203318.307500", "203318.767500", "203319.227500", "203319.687500", "203320.147500", "203320.607500", "203321.067500", "203321.527500", "203321.987500", "203322.447500", "203322.907500", "203323.367500", "203323.827500", "203324.287500", "203324.747500", "203325.207500", "203325.667500", "203326.127500", "203326.587500", "203327.047500", "203327.507500", "203327.967500", "203328.427500", "203328.887500", "203329.347500", "203329.807500", "203330.267500", "203330.727500", "203331.187500", "203331.647500", "203332.107500", "203332.567500", "203333.027500", "203333.487500", "203333.947500", "203334.407500", "203334.867500", "203335.327500", "203335.787500", "203336.247500", "203336.707500", "203337.167500", "203337.627500", "203338.087500", "203338.547500", "203339.007500", "203339.467500", "203339.927500", "203340.387500", "203340.847500", "203341.307500", "203341.767500", "203342.227500", "203342.687500", "203343.147500", "203343.607500", "203344.067500", "203344.527500", "203344.987500", "203345.447500", "203345.907500", "203346.367500", "203346.827500", "203347.287500", "203347.747500", "203348.207500", "203348.667500", "203349.127500", "203349.587500", "203350.047500", "203350.507500", "203350.967500", "203351.427500", "203351.887500", "203352.347500", "203352.807500", "203353.267500", "203353.727500", "203354.187500", "203354.647500", "203355.107500", "203355.567500", "203356.027500", "203356.487500", "203356.947500", "203357.407500", "203357.867500", "203358.327500", "203358.787500", "203359.247500", "203359.707500", "203400.167500", "203400.627500", "203401.087500", "203401.547500", "203402.007500", "203402.467500", "203402.927500", "203403.387500", "203403.847500", "203404.307500", "203404.767500", "203405.227500", "203405.687500", "203406.147500", "203406.607500", "203407.067500", "203407.527500", "203407.987500", "203408.447500", "203408.907500", "203409.367500", "203409.827500", "203410.287500", "203410.747500", "203411.207500", "203411.667500", "203412.127500", "203412.587500", "203413.047500", "203413.507500", "203413.967500", "203414.427500", "203414.887500", "203415.347500", "203415.807500", "203416.267500", "203416.727500", "203417.187500", "203417.647500", "203418.107500", "203418.567500", "203419.027500", "203419.487500", "203419.947500", "203420.407500", "203420.867500", "203421.327500", "203421.787500", "203422.247500", "203422.707500", "203423.167500", "203423.627500", "203424.087500", "203424.547500", "203425.007500", "203425.467500", "203425.927500", "203426.387500", "203426.847500", "203427.307500", "203427.767500", "203428.227500", "203428.687500", "203429.147500", "203429.607500", "203430.067500", "203430.527500", "203430.987500", "203431.447500", "203431.907500", "203432.367500", "203432.827500", "203433.287500", "203433.747500", "203434.207500", "203434.667500", "203435.127500", "203435.587500", "203436.047500", "203436.507500", "203436.967500", "203437.427500", "203437.887500", "203438.347500", "203438.807500", "203439.267500", "203439.727500", "203440.187500", "203440.647500", "203441.107500", "203441.567500", "203442.027500", "203442.487500", "203442.947500", "203443.407500", "203443.867500", "203444.327500", "203444.787500", "203445.247500", "203445.707500", "203446.167500", "203446.627500", "203447.087500", "203447.547500", "203448.007500", "203448.467500", "203448.927500", "203449.387500", "203449.847500", "203450.307500", "203450.767500", "203451.227500", "203451.687500", "203452.147500", "203452.607500", "203453.067500", "203453.527500", "203453.987500", "203454.447500", "203454.907500", "203455.367500", "203455.827500", "203456.287500", "203456.747500", "203457.207500", "203457.667500", "203458.127500", "203458.587500", "203459.047500", "203459.507500", "203459.967500", "203500.427500", "203500.887500", "203501.347500", "203501.807500", "203502.267500", "203502.727500", "203503.187500", "203503.647500", "203504.107500", "203504.567500", "203505.027500", "203505.487500", "203505.947500", "203506.407500", "203506.867500", "203507.327500", "203507.787500", "203508.247500", "203508.707500", "203509.167500", "203509.627500", "203510.087500", "203510.547500", "203511.007500", "203511.467500", "203511.927500", "203512.387500", "203512.847500", "203513.307500", "203513.767500", "203514.227500", "203514.687500", "203515.147500", "203515.607500", "203516.067500", "203516.527500", "203516.987500", "203517.447500", "203517.907500", "203518.367500", "203518.827500", "203519.287500", "203519.747500", "203520.207500", "203520.667500", "203521.127500", "203521.587500", "203522.047500", "203522.507500", "203522.967500", "203523.427500", "203523.887500", "203524.347500", "203524.807500", "203525.267500", "203525.727500", "203526.187500", "203526.647500", "203527.107500", "203527.567500", "203528.027500", "203528.487500", "203528.947500", "203529.407500", "203529.867500", "203530.327500", "203530.787500", "203531.247500", "203531.707500", "203532.167500", "203532.627500", "203533.087500", "203533.547500", "203534.007500", "203534.467500", "203534.927500", "203535.387500", "203535.847500", "203536.307500", "203536.767500", "203537.227500", "203537.687500", "203538.147500", "203538.607500", "203539.067500", "203539.527500", "203539.987500", "203540.447500", "203540.907500", "203541.367500", "203541.827500", "203542.287500", "203542.747500", "203543.207500", "203543.667500", "203544.127500", "203544.587500", "203545.047500", "203545.507500", "203545.967500", "203546.427500", "203546.887500", "203547.347500", "203547.807500", "203548.267500", "203548.727500", "203549.187500", "203549.647500", "203550.107500", "203550.567500", "203551.027500", "203551.487500", "203551.947500", "203552.407500", "203552.867500", "203553.327500", "203553.787500", "203554.247500", "203554.707500", "203555.167500", "203555.627500", "203556.087500", "203556.547500", "203557.007500", "203557.467500", "203557.927500", "203558.387500", "203558.847500", "203559.307500", "203559.767500", "203600.227500", "203600.687500", "203601.147500", "203601.607500", "203602.067500", "203602.527500", "203602.987500", "203603.447500", "203603.907500", "203604.367500", "203604.827500", "203605.287500", "203605.747500", "203606.207500", "203606.667500", "203607.127500", "203607.587500", "203608.047500", "203608.507500", "203608.967500", "203609.427500", "203609.887500", "203610.347500", "203610.807500", "203611.267500", "203611.727500", "203612.187500", "203612.647500", "203613.107500", "203613.567500", "203614.027500", "203614.487500", "203614.947500", "203615.407500", "203615.867500", "203616.327500", "203616.787500", "203617.247500", "203617.707500", "203618.167500", "203618.627500", "203619.087500", "203619.547500", "203620.007500", "203620.467500", "203620.927500", "203621.387500", "203621.847500", "203622.307500", "203622.767500", "203623.227500", "203623.687500", "203624.147500", "203624.607500", "203625.067500", "203625.527500", "203625.987500", "203626.447500", "203626.907500", "203627.367500", "203627.827500", "203628.287500", "203628.747500", "203629.207500", "203629.667500", "203630.127500", "203630.587500", "203631.047500", "203631.507500", "203631.967500", "203632.427500", "203632.887500", "203633.347500", "203633.807500", "203634.267500", "203634.727500", "203635.187500", "203635.647500", "203636.107500", "203636.567500", "203637.027500", "203637.487500", "203637.947500", "203638.407500", "203638.867500", "203639.327500", "203639.787500", "203640.247500", "203640.707500", "203641.167500", "203641.627500", "203642.087500", "203642.547500", "203643.007500", "203643.467500", "203643.927500", "203644.387500", "203644.847500", "203645.307500", "203645.767500", "203646.227500", "203646.687500", "203647.147500", "203647.607500", "203648.067500", "203648.527500", "203648.987500", "203649.447500", "203649.907500", "203650.367500", "203650.827500", "203651.287500", "203651.747500", "203652.207500", "203652.667500", "203653.127500", "203653.587500", "203654.047500", "203654.507500", "203654.967500", "203655.427500", "203655.887500", "203656.347500", "203656.807500", "203657.267500", "203657.727500", "203658.187500", "203658.647500", "203659.107500", "203659.567500"],
