{
  "AcquisitionMatrixPE": 82,
  "AcquisitionNumber": 1,
  "AcquisitionTime": "19:43:48.740000",
  "BandwidthPerPixelPhaseEncode": 24.888,
  "BaseResolution": 82,
  "BodyPartExamined": "BRAIN",
  "ConsistencyInfo": "N4_VE11E_LATEST_20181129",
  "ConversionSoftware": "dcm2niix",
  "ConversionSoftwareVersion": "v1.0.20201102",
  "DerivedVendorReportedEchoSpacing": 0.00049,
  "DeviceSerialNumber": "66112",
  "DwellTime": 2e-06,
  "EchoTime": 0.0272,
  "EchoTrainLength": 82,
  "EffectiveEchoSpacing": 0.00049,
  "FlipAngle": 44,
  "ImageComments": "Unaliased MB8/PE3",
  "ImageOrientationPatientDICOM": [0.99536, -0.0961916, -0.00240731, 0.0961929, 0.994139, 0.0493429],
  "ImageType": [
    "ORIGINAL",
    "PRIMARY",
    "M",
    "MB",
    "ND",
    "NORM",
    "MOSAIC"
],
  "ImagingFrequency": 123.259,
  "InPlanePhaseEncodingDirectionDICOM": "COL",
  "InstitutionAddress": "Maynard 3,Hanover,NH,US,03755",
  "InstitutionName": "Dartmouth College - PBS",
  "InstitutionalDepartmentName": "Department",
  "MRAcquisitionType": "2D",
  "MagneticFieldStrength": 3,
  "Manufacturer": "Siemens",
  "ManufacturersModelName": "Prisma",
  "Modality": "MR",
  "MultibandAccelerationFactor": 8,
  "PartialFourier": 1,
  "PatientPosition": "HFS",
  "PercentPhaseFOV": 100,
  "PercentSampling": 100,
  "PhaseEncodingDirection": "j-",
  "PhaseEncodingSteps": 82,
  "PhaseResolution": 1,
  "PixelBandwidth": 3050,
  "ProcedureStepDescription": "Wager_Wager^1076_spacetop",
  "ProtocolName": "func_run-06_task-social_acq-ap-mb8",
  "PulseSequenceDetails": "%CustomerSeq%\\cmrr_mbep2d_bold",
  "ReceiveCoilActiveElements": "HEA;HEP",
  "ReceiveCoilName": "Head_32",
  "ReconMatrixPE": 82,
  "RepetitionTime": 0.46,
  "SAR": 0.116081,
  "ScanOptions": "FS",
  "ScanningSequence": "EP",
  "SequenceName": "epfid2d1_82",
  "SequenceVariant": "SK\\SS",
  "SeriesDescription": "func_run-06_task-social_acq-ap-mb8",
  "SeriesNumber": 18,
  "ShimSetting": [4229, -7757, -7232, 156, -222, -7, 72, 139],
  "SliceThickness": 2.7,
  "SliceTiming": [0, 0.2525, 0.0625, 0.315, 0.1275, 0.3775, 0.19, 0, 0.2525, 0.0625, 0.315, 0.1275, 0.3775, 0.19, 0, 0.2525, 0.0625, 0.315, 0.1275, 0.3775, 0.19, 0, 0.2525, 0.0625, 0.315, 0.1275, 0.3775, 0.19, 0, 0.2525, 0.0625, 0.315, 0.1275, 0.3775, 0.19, 0, 0.2525, 0.0625, 0.315, 0.1275, 0.3775, 0.19, 0, 0.2525, 0.0625, 0.315, 0.1275, 0.3775, 0.19, 0, 0.2525, 0.0625, 0.315, 0.1275, 0.3775, 0.19],
  "SoftwareVersions": "syngo MR E11",
  "SpacingBetweenSlices": 2.7,
  "StationName": "AWP66112",
  "TaskName": "social",
  "TotalReadoutTime": 0.03969,
  "TxRefAmp": 251.813,
  "WipMemBlock": "b6eb279b-fee0-478f-bb52-f9350806c463||Sequence: R016 ve11e/master r/434b28f1; Aug  7 2019 18:53:46 by eja",
  "dcmmeta_affine": [
    [-2.670477867126465, 0.2580786347389221, 0.006353546865284443, 98.53409576416016],
    [0.2580750286579132, 2.6672019958496094, 0.13323278725147247, -107.0809555053711],
    [-0.006458645220845938, -0.1323833018541336, 2.6967034339904785, -57.05416488647461],
    [0.0, 0.0, 0.0, 1.0]
],
  "dcmmeta_reorient_transform": [
    [0.0, -1.0, 0.0, 81.0],
    [1.0, 0.0, 0.0, 0.0],
    [0.0, 0.0, 1.0, 0.0],
    [0.0, 0.0, 0.0, 1.0]
],
  "dcmmeta_shape": [82, 82, 56, 872],
  "dcmmeta_slice_dim": 2,
  "dcmmeta_version": 0.6,
  "global": {
    "const": {
      "AccessionNumber": "A004857",
      "AcquisitionMatrix": [82, 0, 0, 82],
      "AngioFlag": "N",
      "BitsAllocated": 16,
      "BitsStored": 16,
      "BodyPartExamined": "BRAIN",
      "Columns": 656,
      "EchoNumbers": 1,
      "EchoTime": 27.2,
      "EchoTrainLength": 82,
      "FlipAngle": 44.0,
      "HighBit": 15,
      "ImageOrientationPatient": [0.99535992506765, -0.0961916026093, -0.0024073131867, 0.09619294247183, 0.99413892364106, 0.04934286493918],
      "ImagePositionPatient": [-959.93419350745, -800.38186229822, -103.9175863011],
      "ImageType": [
        "ORIGINAL",
        "PRIMARY",
        "M",
        "MB",
        "ND",
        "NORM",
        "MOSAIC"
],
      "ImagedNucleus": "1H",
      "ImagingFrequency": 123.259054,
      "InPlanePhaseEncodingDirection": "COL",
      "MRAcquisitionType": "2D",
      "MagneticFieldStrength": 3.0,
      "Manufacturer": "SIEMENS",
      "ManufacturerModelName": "Prisma",
      "Modality": "MR",
      "NumberOfAverages": 1.0,
      "NumberOfPhaseEncodingSteps": 82,
      "PercentPhaseFieldOfView": 100.0,
      "PercentSampling": 100.0,
      "PerformedProcedureStepStartTime": "185630.315000",
      "PhotometricInterpretation": "MONOCHROME2",
      "PixelBandwidth": 3050.0,
      "PixelRepresentation": 0,
      "PixelSpacing": [2.6829268932343, 2.6829268932343],
      "ProtocolName": "func_run-06_task-social_acq-ap-mb8",
      "RepetitionTime": 460.0,
      "Rows": 656,
      "SAR": 0.11608070148624,
      "SamplesPerPixel": 1,
      "ScanOptions": "FS",
      "ScanningSequence": "EP",
      "SequenceName": "epfid2d1_82",
      "SequenceVariant": [
        "SK",
        "SS"
],
      "SeriesDescription": "func_run-06_task-social_acq-ap-mb8",
      "SeriesNumber": 18,
      "SeriesTime": "194409.988000",
      "SliceLocation": -62.036593975128,
      "SliceThickness": 2.7000000476837,
      "SmallestImagePixelValue": 0,
      "SoftwareVersions": "syngo MR E11",
      "SpacingBetweenSlices": 2.7000000446741,
      "SpecificCharacterSet": "ISO_IR 100",
      "StudyID": "1",
      "StudyTime": "185630.234000",
      "TransmitCoilName": "Body",
      "VariableFlipAngleFlag": "N",
      "WindowCenterWidthExplanation": "Algo1"
    },
    "slices": {}
  },
  "time": {
    "samples": {
      "AcquisitionNumber": [1, 2, 3, 4, 5, 6, 7, 8, 9, 10, 11, 12, 13, 14, 15, 16, 17, 18, 19, 20, 21, 22, 23, 24, 25, 26, 27, 28, 29, 30, 31, 32, 33, 34, 35, 36, 37, 38, 39, 40, 41, 42, 43, 44, 45, 46, 47, 48, 49, 50, 51, 52, 53, 54, 55, 56, 57, 58, 59, 60, 61, 62, 63, 64, 65, 66, 67, 68, 69, 70, 71, 72, 73, 74, 75, 76, 77, 78, 79, 80, 81, 82, 83, 84, 85, 86, 87, 88, 89, 90, 91, 92, 93, 94, 95, 96, 97, 98, 99, 100, 101, 102, 103, 104, 105, 106, 107, 108, 109, 110, 111, 112, 113, 114, 115, 116, 117, 118, 119, 120, 121, 122, 123, 124, 125, 126, 127, 128, 129, 130, 131, 132, 133, 134, 135, 136, 137, 138, 139, 140, 141, 142, 143, 144, 145, 146, 147, 148, 149, 150, 151, 152, 153, 154, 155, 156, 157, 158, 159, 160, 161, 162, 163, 164, 165, 166, 167, 168, 169, 170, 171, 172, 173, 174, 175, 176, 177, 178, 179, 180, 181, 182, 183, 184, 185, 186, 187, 188, 189, 190, 191, 192, 193, 194, 195, 196, 197, 198, 199, 200, 201, 202, 203, 204, 205, 206, 207, 208, 209, 210, 211, 212, 213, 214, 215, 216, 217, 218, 219, 220, 221, 222, 223, 224, 225, 226, 227, 228, 229, 230, 231, 232, 233, 234, 235, 236, 237, 238, 239, 240, 241, 242, 243, 244, 245, 246, 247, 248, 249, 250, 251, 252, 253, 254, 255, 256, 257, 258, 259, 260, 261, 262, 263, 264, 265, 266, 267, 268, 269, 270, 271, 272, 273, 274, 275, 276, 277, 278, 279, 280, 281, 282, 283, 284, 285, 286, 287, 288, 289, 290, 291, 292, 293, 294, 295, 296, 297, 298, 299, 300, 301, 302, 303, 304, 305, 306, 307, 308, 309, 310, 311, 312, 313, 314, 315, 316, 317, 318, 319, 320, 321, 322, 323, 324, 325, 326, 327, 328, 329, 330, 331, 332, 333, 334, 335, 336, 337, 338, 339, 340, 341, 342, 343, 344, 345, 346, 347, 348, 349, 350, 351, 352, 353, 354, 355, 356, 357, 358, 359, 360, 361, 362, 363, 364, 365, 366, 367, 368, 369, 370, 371, 372, 373, 374, 375, 376, 377, 378, 379, 380, 381, 382, 383, 384, 385, 386, 387, 388, 389, 390, 391, 392, 393, 394, 395, 396, 397, 398, 399, 400, 401, 402, 403, 404, 405, 406, 407, 408, 409, 410, 411, 412, 413, 414, 415, 416, 417, 418, 419, 420, 421, 422, 423, 424, 425, 426, 427, 428, 429, 430, 431, 432, 433, 434, 435, 436, 437, 438, 439, 440, 441, 442, 443, 444, 445, 446, 447, 448, 449, 450, 451, 452, 453, 454, 455, 456, 457, 458, 459, 460, 461, 462, 463, 464, 465, 466, 467, 468, 469, 470, 471, 472, 473, 474, 475, 476, 477, 478, 479, 480, 481, 482, 483, 484, 485, 486, 487, 488, 489, 490, 491, 492, 493, 494, 495, 496, 497, 498, 499, 500, 501, 502, 503, 504, 505, 506, 507, 508, 509, 510, 511, 512, 513, 514, 515, 516, 517, 518, 519, 520, 521, 522, 523, 524, 525, 526, 527, 528, 529, 530, 531, 532, 533, 534, 535, 536, 537, 538, 539, 540, 541, 542, 543, 544, 545, 546, 547, 548, 549, 550, 551, 552, 553, 554, 555, 556, 557, 558, 559, 560, 561, 562, 563, 564, 565, 566, 567, 568, 569, 570, 571, 572, 573, 574, 575, 576, 577, 578, 579, 580, 581, 582, 583, 584, 585, 586, 587, 588, 589, 590, 591, 592, 593, 594, 595, 596, 597, 598, 599, 600, 601, 602, 603, 604, 605, 606, 607, 608, 609, 610, 611, 612, 613, 614, 615, 616, 617, 618, 619, 620, 621, 622, 623, 624, 625, 626, 627, 628, 629, 630, 631, 632, 633, 634, 635, 636, 637, 638, 639, 640, 641, 642, 643, 644, 645, 646, 647, 648, 649, 650, 651, 652, 653, 654, 655, 656, 657, 658, 659, 660, 661, 662, 663, 664, 665, 666, 667, 668, 669, 670, 671, 672, 673, 674, 675, 676, 677, 678, 679, 680, 681, 682, 683, 684, 685, 686, 687, 688, 689, 690, 691, 692, 693, 694, 695, 696, 697, 698, 699, 700, 701, 702, 703, 704, 705, 706, 707, 708, 709, 710, 711, 712, 713, 714, 715, 716, 717, 718, 719, 720, 721, 722, 723, 724, 725, 726, 727, 728, 729, 730, 731, 732, 733, 734, 735, 736, 737, 738, 739, 740, 741, 742, 743, 744, 745, 746, 747, 748, 749, 750, 751, 752, 753, 754, 755, 756, 757, 758, 759, 760, 761, 762, 763, 764, 765, 766, 767, 768, 769, 770, 771, 772, 773, 774, 775, 776, 777, 778, 779, 780, 781, 782, 783, 784, 785, 786, 787, 788, 789, 790, 791, 792, 793, 794, 795, 796, 797, 798, 799, 800, 801, 802, 803, 804, 805, 806, 807, 808, 809, 810, 811, 812, 813, 814, 815, 816, 817, 818, 819, 820, 821, 822, 823, 824, 825, 826, 827, 828, 829, 830, 831, 832, 833, 834, 835, 836, 837, 838, 839, 840, 841, 842, 843, 844, 845, 846, 847, 848, 849, 850, 851, 852, 853, 854, 855, 856, 857, 858, 859, 860, 861, 862, 863, 864, 865, 866, 867, 868, 869, 870, 871, 872],
      "AcquisitionTime": ["194348.740000", "194349.200000", "194349.660000", "194350.120000", "194350.580000", "194351.040000", "194351.500000", "194351.960000", "194352.420000", "194352.880000", "194353.340000", "194353.800000", "194354.260000", "194354.720000", "194355.180000", "194355.640000", "194356.100000", "194356.560000", "194357.020000", "194357.480000", "194357.940000", "194358.400000", "194358.860000", "194359.320000", "194359.780000", "194400.240000", "194400.700000", "194401.160000", "194401.620000", "194402.080000", "194402.540000", "194403.000000", "194403.460000", "194403.920000", "194404.380000", "194404.840000", "194405.300000", "194405.760000", "194406.220000", "194406.680000", "194407.140000", "194407.600000", "194408.060000", "194408.520000", "194408.980000", "194409.440000", "194409.900000", "194410.360000", "194410.820000", "194411.280000", "194411.740000", "194412.200000", "194412.660000", "194413.120000", "194413.580000", "194414.040000", "194414.500000", "194414.960000", "194415.420000", "194415.880000", "194416.340000", "194416.800000", "194417.260000", "194417.720000", "194418.180000", "194418.640000", "194419.100000", "194419.560000", "194420.020000", "194420.480000", "194420.940000", "194421.400000", "194421.860000", "194422.320000", "194422.780000", "194423.240000", "194423.700000", "194424.160000", "194424.620000", "194425.080000", "194425.540000", "194426.000000", "194426.460000", "194426.920000", "194427.380000", "194427.840000", "194428.300000", "194428.760000", "194429.220000", "194429.680000", "194430.140000", "194430.600000", "194431.060000", "194431.520000", "194431.980000", "194432.440000", "194432.900000", "194433.360000", "194433.820000", "194434.280000", "194434.740000", "194435.200000", "194435.660000", "194436.120000", "194436.580000", "194437.040000", "194437.500000", "194437.960000", "194438.420000", "194438.880000", "194439.340000", "194439.800000", "194440.260000", "194440.720000", "194441.180000", "194441.640000", "194442.100000", "194442.560000", "194443.020000", "194443.480000", "194443.940000", "194444.400000", "194444.860000", "194445.320000", "194445.780000", "194446.240000", "194446.700000", "194447.160000", "194447.620000", "194448.080000", "194448.540000", "194449.000000", "194449.460000", "194449.920000", "194450.380000", "194450.840000", "194451.300000", "194451.760000", "194452.220000", "194452.680000", "194453.140000", "194453.600000", "194454.060000", "194454.520000", "194454.980000", "194455.440000", "194455.900000", "194456.360000", "194456.820000", "194457.280000", "194457.740000", "194458.200000", "194458.660000", "194459.120000", "194459.580000", "194500.040000", "194500.500000", "194500.960000", "194501.420000", "194501.880000", "194502.340000", "194502.800000", "194503.260000", "194503.720000", "194504.180000", "194504.640000", "194505.100000", "194505.560000", "194506.020000", "194506.480000", "194506.940000", "194507.400000", "194507.860000", "194508.320000", "194508.780000", "194509.240000", "194509.700000", "194510.160000", "194510.620000", "194511.080000", "194511.540000", "194512.000000", "194512.460000", "194512.920000", "194513.380000", "194513.840000", "194514.300000", "194514.760000", "194515.220000", "194515.680000", "194516.140000", "194516.600000", "194517.060000", "194517.520000", "194517.980000", "194518.440000", "194518.900000", "194519.360000", "194519.820000", "194520.280000", "194520.740000", "194521.200000", "194521.660000", "194522.120000", "194522.580000", "194523.040000", "194523.500000", "194523.960000", "194524.420000", "194524.880000", "194525.340000", "194525.800000", "194526.260000", "194526.720000", "194527.180000", "194527.640000", "194528.100000", "194528.560000", "194529.020000", "194529.480000", "194529.940000", "194530.400000", "194530.860000", "194531.320000", "194531.780000", "194532.240000", "194532.700000", "194533.160000", "194533.620000", "194534.080000", "194534.540000", "194535.000000", "194535.460000", "194535.920000", "194536.380000", "194536.840000", "194537.300000", "194537.760000", "194538.220000", "194538.680000", "194539.140000", "194539.600000", "194540.060000", "194540.520000", "194540.980000", "194541.440000", "194541.900000", "194542.360000", "194542.820000", "194543.280000", "194543.740000", "194544.200000", "194544.660000", "194545.120000", "194545.580000", "194546.040000", "194546.500000", "194546.960000", "194547.420000", "194547.880000", "194548.340000", "194548.800000", "194549.260000", "194549.720000", "194550.180000", "194550.640000", "194551.100000", "194551.560000", "194552.020000", "194552.480000", "194552.940000", "194553.400000", "194553.860000", "194554.320000", "194554.780000", "194555.240000", "194555.700000", "194556.160000", "194556.620000", "194557.080000", "194557.540000", "194558.000000", "194558.460000", "194558.920000", "194559.380000", "194559.840000", "194600.300000", "194600.760000", "194601.220000", "194601.680000", "194602.140000", "194602.600000", "194603.060000", "194603.520000", "194603.980000", "194604.440000", "194604.900000", "194605.360000", "194605.820000", "194606.280000", "194606.740000", "194607.200000", "194607.660000", "194608.120000", "194608.580000", "194609.040000", "194609.500000", "194609.960000", "194610.420000", "194610.880000", "194611.340000", "194611.800000", "194612.260000", "194612.720000", "194613.180000", "194613.640000", "194614.100000", "194614.560000", "194615.020000", "194615.480000", "194615.940000", "194616.400000", "194616.860000", "194617.320000", "194617.780000", "194618.240000", "194618.700000", "194619.160000", "194619.620000", "194620.080000", "194620.540000", "194621.000000", "194621.460000", "194621.920000", "194622.380000", "194622.840000", "194623.300000", "194623.760000", "194624.220000", "194624.680000", "194625.140000", "194625.600000", "194626.060000", "194626.520000", "194626.980000", "194627.440000", "194627.900000", "194628.360000", "194628.820000", "194629.280000", "194629.740000", "194630.200000", "194630.660000", "194631.120000", "194631.580000", "194632.040000", "194632.500000", "194632.960000", "194633.420000", "194633.880000", "194634.340000", "194634.800000", "194635.260000", "194635.720000", "194636.180000", "194636.640000", "194637.100000", "194637.560000", "194638.020000", "194638.480000", "194638.940000", "194639.400000", "194639.860000", "194640.320000", "194640.780000", "194641.240000", "194641.700000", "194642.160000", "194642.620000", "194643.080000", "194643.540000", "194644.000000", "194644.460000", "194644.920000", "194645.380000", "194645.840000", "194646.300000", "194646.760000", "194647.220000", "194647.680000", "194648.140000", "194648.600000", "194649.060000", "194649.520000", "194649.980000", "194650.440000", "194650.900000", "194651.360000", "194651.820000", "194652.280000", "194652.740000", "194653.200000", "194653.660000", "194654.120000", "194654.580000", "194655.040000", "194655.500000", "194655.960000", "194656.420000", "194656.880000", "194657.340000", "194657.800000", "194658.260000", "194658.720000", "194659.180000", "194659.640000", "194700.100000", "194700.560000", "194701.020000", "194701.480000", "194701.940000", "194702.400000", "194702.860000", "194703.320000", "194703.780000", "194704.240000", "194704.700000", "194705.160000", "194705.620000", "194706.080000", "194706.540000", "194707.000000", "194707.460000", "194707.920000", "194708.380000", "194708.840000", "194709.300000", "194709.760000", "194710.220000", "194710.680000", "194711.140000", "194711.600000", "194712.060000", "194712.520000", "194712.980000", "194713.440000", "194713.900000", "194714.360000", "194714.820000", "194715.280000", "194715.740000", "194716.200000", "194716.660000", "194717.120000", "194717.580000", "194718.040000", "194718.500000", "194718.960000", "194719.420000", "194719.880000", "194720.340000", "194720.800000", "194721.260000", "194721.720000", "194722.180000", "194722.640000", "194723.100000", "194723.560000", "194724.020000", "194724.480000", "194724.940000", "194725.400000", "194725.860000", "194726.320000", "194726.780000", "194727.240000", "194727.700000", "194728.160000", "194728.620000", "194729.080000", "194729.540000", "194730.000000", "194730.460000", "194730.920000", "194731.380000", "194731.840000", "194732.300000", "194732.760000", "194733.220000", "194733.680000", "194734.140000", "194734.600000", "194735.060000", "194735.520000", "194735.980000", "194736.440000", "194736.900000", "194737.360000", "194737.820000", "194738.280000", "194738.740000", "194739.200000", "194739.660000", "194740.120000", "194740.580000", "194741.040000", "194741.500000", "194741.960000", "194742.420000", "194742.880000", "194743.340000", "194743.800000", "194744.260000", "194744.720000", "194745.180000", "194745.640000", "194746.100000", "194746.560000", "194747.020000", "194747.480000", "194747.940000", "194748.400000", "194748.860000", "194749.320000", "194749.780000", "194750.240000", "194750.700000", "194751.160000", "194751.620000", "194752.080000", "194752.540000", "194753.000000", "194753.460000", "194753.920000", "194754.380000", "194754.840000", "194755.300000", "194755.760000", "194756.220000", "194756.680000", "194757.140000", "194757.600000", "194758.060000", "194758.520000", "194758.980000", "194759.440000", "194759.900000", "194800.360000", "194800.820000", "194801.280000", "194801.740000", "194802.200000", "194802.660000", "194803.120000", "194803.580000", "194804.040000", "194804.500000", "194804.960000", "194805.420000", "194805.880000", "194806.340000", "194806.800000", "194807.260000", "194807.720000", "194808.180000", "194808.640000", "194809.100000", "194809.560000", "194810.020000", "194810.480000", "194810.940000", "194811.400000", "194811.860000", "194812.320000", "194812.780000", "194813.240000", "194813.700000", "194814.160000", "194814.620000", "194815.080000", "194815.540000", "194816.000000", "194816.460000", "194816.920000", "194817.380000", "194817.840000", "194818.300000", "194818.760000", "194819.220000", "194819.680000", "194820.140000", "194820.600000", "194821.060000", "194821.520000", "194821.980000", "194822.440000", "194822.900000", "194823.360000", "194823.820000", "194824.280000", "194824.740000", "194825.200000", "194825.660000", "194826.120000", "194826.580000", "194827.040000", "194827.500000", "194827.960000", "194828.420000", "194828.880000", "194829.340000", "194829.800000", "194830.260000", "194830.720000", "194831.180000", "194831.640000", "194832.100000", "194832.560000", "194833.020000", "194833.480000", "194833.940000", "194834.400000", "194834.860000", "194835.320000", "194835.780000", "194836.240000", "194836.700000", "194837.160000", "194837.620000", "194838.080000", "194838.540000", "194839.000000", "194839.460000", "194839.920000", "194840.380000", "194840.840000", "194841.300000", "194841.760000", "194842.220000", "194842.680000", "194843.140000", "194843.600000", "194844.060000", "194844.520000", "194844.980000", "194845.440000", "194845.900000", "194846.360000", "194846.820000", "194847.280000", "194847.740000", "194848.200000", "194848.660000", "194849.120000", "194849.580000", "194850.040000", "194850.500000", "194850.960000", "194851.420000", "194851.880000", "194852.340000", "194852.800000", "194853.260000", "194853.720000", "194854.180000", "194854.640000", "194855.100000", "194855.560000", "194856.020000", "194856.480000", "194856.940000", "194857.400000", "194857.860000", "194858.320000", "194858.780000", "194859.240000", "194859.700000", "194900.160000", "194900.620000", "194901.080000", "194901.540000", "194902.000000", "194902.460000", "194902.920000", "194903.380000", "194903.840000", "194904.300000", "194904.760000", "194905.220000", "194905.680000", "194906.140000", "194906.600000", "194907.060000", "194907.520000", "194907.980000", "194908.440000", "194908.900000", "194909.360000", "194909.820000", "194910.280000", "194910.740000", "194911.200000", "194911.660000", "194912.120000", "194912.580000", "194913.040000", "194913.500000", "194913.960000", "194914.420000", "194914.880000", "194915.340000", "194915.800000", "194916.260000", "194916.720000", "194917.180000", "194917.640000", "194918.100000", "194918.560000", "194919.020000", "194919.480000", "194919.940000", "194920.400000", "194920.860000", "194921.320000", "194921.780000", "194922.240000", "194922.700000", "194923.160000", "194923.620000", "194924.080000", "194924.540000", "194925.000000", "194925.460000", "194925.920000", "194926.380000", "194926.840000", "194927.300000", "194927.760000", "194928.220000", "194928.680000", "194929.140000", "194929.600000", "194930.060000", "194930.520000", "194930.980000", "194931.440000", "194931.900000", "194932.360000", "194932.820000", "194933.280000", "194933.740000", "194934.200000", "194934.660000", "194935.120000", "194935.580000", "194936.040000", "194936.500000", "194936.960000", "194937.420000", "194937.880000", "194938.340000", "194938.800000", "194939.260000", "194939.720000", "194940.180000", "194940.640000", "194941.100000", "194941.560000", "194942.020000", "194942.480000", "194942.940000", "194943.400000", "194943.860000", "194944.320000", "194944.780000", "194945.240000", "194945.700000", "194946.160000", "194946.620000", "194947.080000", "194947.540000", "194948.000000", "194948.460000", "194948.920000", "194949.380000", "194949.840000", "194950.300000", "194950.760000", "194951.220000", "194951.680000", "194952.140000", "194952.600000", "194953.060000", "194953.520000", "194953.980000", "194954.440000", "194954.900000", "194955.360000", "194955.820000", "194956.280000", "194956.740000", "194957.200000", "194957.660000", "194958.120000", "194958.580000", "194959.040000", "194959.500000", "194959.960000", "195000.420000", "195000.880000", "195001.340000", "195001.800000", "195002.260000", "195002.720000", "195003.180000", "195003.640000", "195004.100000", "195004.560000", "195005.020000", "195005.480000", "195005.940000", "195006.400000", "195006.860000", "195007.320000", "195007.780000", "195008.240000", "195008.700000", "195009.160000", "195009.620000", "195010.080000", "195010.540000", "195011.000000", "195011.460000", "195011.920000", "195012.380000", "195012.840000", "195013.300000", "195013.760000", "195014.220000", "195014.680000", "195015.140000", "195015.600000", "195016.060000", "195016.520000", "195016.980000", "195017.440000", "195017.900000", "195018.360000", "195018.820000", "195019.280000", "195019.740000", "195020.200000", "195020.660000", "195021.120000", "195021.580000", "195022.040000", "195022.500000", "195022.960000", "195023.420000", "195023.880000", "195024.340000", "195024.800000", "195025.260000", "195025.720000", "195026.180000", "195026.640000", "195027.100000", "195027.560000", "195028.020000", "195028.480000", "195028.940000", "195029.400000"],
