{
  "AcquisitionMatrixPE": 82,
  "AcquisitionNumber": 1,
  "AcquisitionTime": "19:35:25.432500",
  "BandwidthPerPixelPhaseEncode": 24.888,
  "BaseResolution": 82,
  "BodyPartExamined": "BRAIN",
  "ConsistencyInfo": "N4_VE11E_LATEST_20181129",
  "ConversionSoftware": "dcm2niix",
  "ConversionSoftwareVersion": "v1.0.20201102",
  "DerivedVendorReportedEchoSpacing": 0.00049,
  "DeviceSerialNumber": "66112",
  "DwellTime": 2e-06,
  "EchoTime": 0.0272,
  "EchoTrainLength": 82,
  "EffectiveEchoSpacing": 0.00049,
  "FlipAngle": 44,
  "ImageComments": "Unaliased MB8/PE3",
  "ImageOrientationPatientDICOM": [0.99536, -0.0961916, -0.00240731, 0.0961929, 0.994139, 0.0493429],
  "ImageType": [
    "ORIGINAL",
    "PRIMARY",
    "M",
    "MB",
    "ND",
    "NORM",
    "MOSAIC"
],
  "ImagingFrequency": 123.259,
  "InPlanePhaseEncodingDirectionDICOM": "COL",
  "InstitutionAddress": "Maynard 3,Hanover,NH,US,03755",
  "InstitutionName": "Dartmouth College - PBS",
  "InstitutionalDepartmentName": "Department",
  "MRAcquisitionType": "2D",
  "MagneticFieldStrength": 3,
  "Manufacturer": "Siemens",
  "ManufacturersModelName": "Prisma",
  "Modality": "MR",
  "MultibandAccelerationFactor": 8,
  "PartialFourier": 1,
  "PatientPosition": "HFS",
  "PercentPhaseFOV": 100,
  "PercentSampling": 100,
  "PhaseEncodingDirection": "j-",
  "PhaseEncodingSteps": 82,
  "PhaseResolution": 1,
  "PixelBandwidth": 3050,
  "ProcedureStepDescription": "Wager_Wager^1076_spacetop",
  "ProtocolName": "func_run-05_task-social_acq-ap-mb8",
  "PulseSequenceDetails": "%CustomerSeq%\\cmrr_mbep2d_bold",
  "ReceiveCoilActiveElements": "HEA;HEP",
  "ReceiveCoilName": "Head_32",
  "ReconMatrixPE": 82,
  "RepetitionTime": 0.46,
  "SAR": 0.116081,
  "ScanOptions": "FS",
  "ScanningSequence": "EP",
  "SequenceName": "epfid2d1_82",
  "SequenceVariant": "SK\\SS",
  "SeriesDescription": "func_run-05_task-social_acq-ap-mb8",
  "SeriesNumber": 16,
  "ShimSetting": [4229, -7757, -7232, 156, -222, -7, 72, 139],
  "SliceThickness": 2.7,
  "SliceTiming": [0, 0.25, 0.0625, 0.3125, 0.125, 0.3775, 0.1875, 0, 0.25, 0.0625, 0.3125, 0.125, 0.3775, 0.1875, 0, 0.25, 0.0625, 0.3125, 0.125, 0.3775, 0.1875, 0, 0.25, 0.0625, 0.3125, 0.125, 0.3775, 0.1875, 0, 0.25, 0.0625, 0.3125, 0.125, 0.3775, 0.1875, 0, 0.25, 0.0625, 0.3125, 0.125, 0.3775, 0.1875, 0, 0.25, 0.0625, 0.3125, 0.125, 0.3775, 0.1875, 0, 0.25, 0.0625, 0.3125, 0.125, 0.3775, 0.1875],
  "SoftwareVersions": "syngo MR E11",
  "SpacingBetweenSlices": 2.7,
  "StationName": "AWP66112",
  "TaskName": "social",
  "TotalReadoutTime": 0.03969,
  "TxRefAmp": 251.813,
  "WipMemBlock": "341ba692-710f-4f50-bebd-32242e1a42b0||Sequence: R016 ve11e/master r/434b28f1; Aug  7 2019 18:53:46 by eja",
  "dcmmeta_affine": [
    [-2.670477867126465, 0.2580786347389221, 0.006353546865284443, 98.53409576416016],
    [0.2580750286579132, 2.6672019958496094, 0.13323278725147247, -107.0809555053711],
    [-0.006458645220845938, -0.1323833018541336, 2.6967034339904785, -57.05416488647461],
    [0.0, 0.0, 0.0, 1.0]
],
  "dcmmeta_reorient_transform": [
    [0.0, -1.0, 0.0, 81.0],
    [1.0, 0.0, 0.0, 0.0],
    [0.0, 0.0, 1.0, 0.0],
    [0.0, 0.0, 0.0, 1.0]
],
  "dcmmeta_shape": [82, 82, 56, 872],
  "dcmmeta_slice_dim": 2,
  "dcmmeta_version": 0.6,
  "global": {
    "const": {
      "AccessionNumber": "A004857",
      "AcquisitionMatrix": [82, 0, 0, 82],
      "AngioFlag": "N",
      "BitsAllocated": 16,
      "BitsStored": 16,
      "BodyPartExamined": "BRAIN",
      "Columns": 656,
      "EchoNumbers": 1,
      "EchoTime": 27.2,
      "EchoTrainLength": 82,
      "FlipAngle": 44.0,
      "HighBit": 15,
      "ImageOrientationPatient": [0.99535992506765, -0.0961916026093, -0.0024073131867, 0.09619294247183, 0.99413892364106, 0.04934286493918],
      "ImagePositionPatient": [-959.93419350745, -800.38186229822, -103.9175863011],
      "ImageType": [
        "ORIGINAL",
        "PRIMARY",
        "M",
        "MB",
        "ND",
        "NORM",
        "MOSAIC"
],
      "ImagedNucleus": "1H",
      "ImagingFrequency": 123.25905,
      "InPlanePhaseEncodingDirection": "COL",
      "MRAcquisitionType": "2D",
      "MagneticFieldStrength": 3.0,
      "Manufacturer": "SIEMENS",
      "ManufacturerModelName": "Prisma",
      "Modality": "MR",
      "NumberOfAverages": 1.0,
      "NumberOfPhaseEncodingSteps": 82,
      "PercentPhaseFieldOfView": 100.0,
      "PercentSampling": 100.0,
      "PerformedProcedureStepStartTime": "185630.315000",
      "PhotometricInterpretation": "MONOCHROME2",
      "PixelBandwidth": 3050.0,
      "PixelRepresentation": 0,
      "PixelSpacing": [2.6829268932343, 2.6829268932343],
      "ProtocolName": "func_run-05_task-social_acq-ap-mb8",
      "RepetitionTime": 460.0,
      "Rows": 656,
      "SAR": 0.11608070148624,
      "SamplesPerPixel": 1,
      "ScanOptions": "FS",
      "ScanningSequence": "EP",
      "SequenceName": "epfid2d1_82",
      "SequenceVariant": [
        "SK",
        "SS"
],
      "SeriesDescription": "func_run-05_task-social_acq-ap-mb8",
      "SeriesNumber": 16,
      "SeriesTime": "193549.917000",
      "SliceLocation": -62.036593975128,
      "SliceThickness": 2.7000000476837,
      "SmallestImagePixelValue": 0,
      "SoftwareVersions": "syngo MR E11",
      "SpacingBetweenSlices": 2.7000000446741,
      "SpecificCharacterSet": "ISO_IR 100",
      "StudyID": "1",
      "StudyTime": "185630.234000",
      "TransmitCoilName": "Body",
      "VariableFlipAngleFlag": "N",
      "WindowCenterWidthExplanation": "Algo1"
    },
    "slices": {}
  },
  "time": {
    "samples": {
      "AcquisitionNumber": [1, 2, 3, 4, 5, 6, 7, 8, 9, 10, 11, 12, 13, 14, 15, 16, 17, 18, 19, 20, 21, 22, 23, 24, 25, 26, 27, 28, 29, 30, 31, 32, 33, 34, 35, 36, 37, 38, 39, 40, 41, 42, 43, 44, 45, 46, 47, 48, 49, 50, 51, 52, 53, 54, 55, 56, 57, 58, 59, 60, 61, 62, 63, 64, 65, 66, 67, 68, 69, 70, 71, 72, 73, 74, 75, 76, 77, 78, 79, 80, 81, 82, 83, 84, 85, 86, 87, 88, 89, 90, 91, 92, 93, 94, 95, 96, 97, 98, 99, 100, 101, 102, 103, 104, 105, 106, 107, 108, 109, 110, 111, 112, 113, 114, 115, 116, 117, 118, 119, 120, 121, 122, 123, 124, 125, 126, 127, 128, 129, 130, 131, 132, 133, 134, 135, 136, 137, 138, 139, 140, 141, 142, 143, 144, 145, 146, 147, 148, 149, 150, 151, 152, 153, 154, 155, 156, 157, 158, 159, 160, 161, 162, 163, 164, 165, 166, 167, 168, 169, 170, 171, 172, 173, 174, 175, 176, 177, 178, 179, 180, 181, 182, 183, 184, 185, 186, 187, 188, 189, 190, 191, 192, 193, 194, 195, 196, 197, 198, 199, 200, 201, 202, 203, 204, 205, 206, 207, 208, 209, 210, 211, 212, 213, 214, 215, 216, 217, 218, 219, 220, 221, 222, 223, 224, 225, 226, 227, 228, 229, 230, 231, 232, 233, 234, 235, 236, 237, 238, 239, 240, 241, 242, 243, 244, 245, 246, 247, 248, 249, 250, 251, 252, 253, 254, 255, 256, 257, 258, 259, 260, 261, 262, 263, 264, 265, 266, 267, 268, 269, 270, 271, 272, 273, 274, 275, 276, 277, 278, 279, 280, 281, 282, 283, 284, 285, 286, 287, 288, 289, 290, 291, 292, 293, 294, 295, 296, 297, 298, 299, 300, 301, 302, 303, 304, 305, 306, 307, 308, 309, 310, 311, 312, 313, 314, 315, 316, 317, 318, 319, 320, 321, 322, 323, 324, 325, 326, 327, 328, 329, 330, 331, 332, 333, 334, 335, 336, 337, 338, 339, 340, 341, 342, 343, 344, 345, 346, 347, 348, 349, 350, 351, 352, 353, 354, 355, 356, 357, 358, 359, 360, 361, 362, 363, 364, 365, 366, 367, 368, 369, 370, 371, 372, 373, 374, 375, 376, 377, 378, 379, 380, 381, 382, 383, 384, 385, 386, 387, 388, 389, 390, 391, 392, 393, 394, 395, 396, 397, 398, 399, 400, 401, 402, 403, 404, 405, 406, 407, 408, 409, 410, 411, 412, 413, 414, 415, 416, 417, 418, 419, 420, 421, 422, 423, 424, 425, 426, 427, 428, 429, 430, 431, 432, 433, 434, 435, 436, 437, 438, 439, 440, 441, 442, 443, 444, 445, 446, 447, 448, 449, 450, 451, 452, 453, 454, 455, 456, 457, 458, 459, 460, 461, 462, 463, 464, 465, 466, 467, 468, 469, 470, 471, 472, 473, 474, 475, 476, 477, 478, 479, 480, 481, 482, 483, 484, 485, 486, 487, 488, 489, 490, 491, 492, 493, 494, 495, 496, 497, 498, 499, 500, 501, 502, 503, 504, 505, 506, 507, 508, 509, 510, 511, 512, 513, 514, 515, 516, 517, 518, 519, 520, 521, 522, 523, 524, 525, 526, 527, 528, 529, 530, 531, 532, 533, 534, 535, 536, 537, 538, 539, 540, 541, 542, 543, 544, 545, 546, 547, 548, 549, 550, 551, 552, 553, 554, 555, 556, 557, 558, 559, 560, 561, 562, 563, 564, 565, 566, 567, 568, 569, 570, 571, 572, 573, 574, 575, 576, 577, 578, 579, 580, 581, 582, 583, 584, 585, 586, 587, 588, 589, 590, 591, 592, 593, 594, 595, 596, 597, 598, 599, 600, 601, 602, 603, 604, 605, 606, 607, 608, 609, 610, 611, 612, 613, 614, 615, 616, 617, 618, 619, 620, 621, 622, 623, 624, 625, 626, 627, 628, 629, 630, 631, 632, 633, 634, 635, 636, 637, 638, 639, 640, 641, 642, 643, 644, 645, 646, 647, 648, 649, 650, 651, 652, 653, 654, 655, 656, 657, 658, 659, 660, 661, 662, 663, 664, 665, 666, 667, 668, 669, 670, 671, 672, 673, 674, 675, 676, 677, 678, 679, 680, 681, 682, 683, 684, 685, 686, 687, 688, 689, 690, 691, 692, 693, 694, 695, 696, 697, 698, 699, 700, 701, 702, 703, 704, 705, 706, 707, 708, 709, 710, 711, 712, 713, 714, 715, 716, 717, 718, 719, 720, 721, 722, 723, 724, 725, 726, 727, 728, 729, 730, 731, 732, 733, 734, 735, 736, 737, 738, 739, 740, 741, 742, 743, 744, 745, 746, 747, 748, 749, 750, 751, 752, 753, 754, 755, 756, 757, 758, 759, 760, 761, 762, 763, 764, 765, 766, 767, 768, 769, 770, 771, 772, 773, 774, 775, 776, 777, 778, 779, 780, 781, 782, 783, 784, 785, 786, 787, 788, 789, 790, 791, 792, 793, 794, 795, 796, 797, 798, 799, 800, 801, 802, 803, 804, 805, 806, 807, 808, 809, 810, 811, 812, 813, 814, 815, 816, 817, 818, 819, 820, 821, 822, 823, 824, 825, 826, 827, 828, 829, 830, 831, 832, 833, 834, 835, 836, 837, 838, 839, 840, 841, 842, 843, 844, 845, 846, 847, 848, 849, 850, 851, 852, 853, 854, 855, 856, 857, 858, 859, 860, 861, 862, 863, 864, 865, 866, 867, 868, 869, 870, 871, 872],
      "AcquisitionTime": ["193525.432500", "193525.892500", "193526.352500", "193526.812500", "193527.272500", "193527.732500", "193528.192500", "193528.652500", "193529.112500", "193529.572500", "193530.032500", "193530.492500", "193530.952500", "193531.412500", "193531.872500", "193532.332500", "193532.792500", "193533.252500", "193533.712500", "193534.172500", "193534.632500", "193535.092500", "193535.552500", "193536.012500", "193536.472500", "193536.932500", "193537.392500", "193537.852500", "193538.312500", "193538.772500", "193539.232500", "193539.692500", "193540.152500", "193540.612500", "193541.072500", "193541.532500", "193541.992500", "193542.452500", "193542.912500", "193543.372500", "193543.832500", "193544.292500", "193544.752500", "193545.212500", "193545.672500", "193546.132500", "193546.592500", "193547.052500", "193547.512500", "193547.972500", "193548.432500", "193548.892500", "193549.352500", "193549.812500", "193550.272500", "193550.732500", "193551.192500", "193551.652500", "193552.112500", "193552.572500", "193553.032500", "193553.492500", "193553.952500", "193554.412500", "193554.872500", "193555.332500", "193555.792500", "193556.252500", "193556.712500", "193557.172500", "193557.632500", "193558.092500", "193558.552500", "193559.012500", "193559.472500", "193559.932500", "193600.392500", "193600.852500", "193601.312500", "193601.772500", "193602.232500", "193602.692500", "193603.152500", "193603.612500", "193604.072500", "193604.532500", "193604.992500", "193605.452500", "193605.912500", "193606.372500", "193606.832500", "193607.292500", "193607.752500", "193608.212500", "193608.672500", "193609.132500", "193609.592500", "193610.052500", "193610.512500", "193610.972500", "193611.432500", "193611.892500", "193612.352500", "193612.812500", "193613.272500", "193613.732500", "193614.192500", "193614.652500", "193615.112500", "193615.572500", "193616.032500", "193616.492500", "193616.952500", "193617.412500", "193617.872500", "193618.332500", "193618.792500", "193619.252500", "193619.712500", "193620.172500", "193620.632500", "193621.092500", "193621.552500", "193622.012500", "193622.472500", "193622.932500", "193623.392500", "193623.852500", "193624.312500", "193624.772500", "193625.232500", "193625.692500", "193626.152500", "193626.612500", "193627.072500", "193627.532500", "193627.992500", "193628.452500", "193628.912500", "193629.372500", "193629.832500", "193630.292500", "193630.752500", "193631.212500", "193631.672500", "193632.132500", "193632.592500", "193633.052500", "193633.512500", "193633.972500", "193634.432500", "193634.892500", "193635.352500", "193635.812500", "193636.272500", "193636.732500", "193637.192500", "193637.652500", "193638.112500", "193638.572500", "193639.032500", "193639.492500", "193639.952500", "193640.412500", "193640.872500", "193641.332500", "193641.792500", "193642.252500", "193642.712500", "193643.172500", "193643.632500", "193644.092500", "193644.552500", "193645.012500", "193645.472500", "193645.932500", "193646.392500", "193646.852500", "193647.312500", "193647.772500", "193648.232500", "193648.692500", "193649.152500", "193649.612500", "193650.072500", "193650.532500", "193650.992500", "193651.452500", "193651.912500", "193652.372500", "193652.832500", "193653.292500", "193653.752500", "193654.212500", "193654.672500", "193655.132500", "193655.592500", "193656.052500", "193656.512500", "193656.972500", "193657.432500", "193657.892500", "193658.352500", "193658.812500", "193659.272500", "193659.732500", "193700.192500", "193700.652500", "193701.112500", "193701.572500", "193702.032500", "193702.492500", "193702.952500", "193703.412500", "193703.872500", "193704.332500", "193704.792500", "193705.252500", "193705.712500", "193706.172500", "193706.632500", "193707.092500", "193707.552500", "193708.012500", "193708.472500", "193708.932500", "193709.392500", "193709.852500", "193710.312500", "193710.772500", "193711.232500", "193711.692500", "193712.152500", "193712.612500", "193713.072500", "193713.532500", "193713.992500", "193714.452500", "193714.912500", "193715.372500", "193715.832500", "193716.292500", "193716.752500", "193717.212500", "193717.672500", "193718.132500", "193718.592500", "193719.052500", "193719.512500", "193719.972500", "193720.432500", "193720.892500", "193721.352500", "193721.812500", "193722.272500", "193722.732500", "193723.192500", "193723.652500", "193724.112500", "193724.572500", "193725.032500", "193725.492500", "193725.952500", "193726.412500", "193726.872500", "193727.332500", "193727.792500", "193728.252500", "193728.712500", "193729.172500", "193729.632500", "193730.092500", "193730.552500", "193731.012500", "193731.472500", "193731.932500", "193732.392500", "193732.852500", "193733.312500", "193733.772500", "193734.232500", "193734.692500", "193735.152500", "193735.612500", "193736.072500", "193736.532500", "193736.992500", "193737.452500", "193737.912500", "193738.372500", "193738.832500", "193739.292500", "193739.752500", "193740.212500", "193740.672500", "193741.132500", "193741.592500", "193742.052500", "193742.512500", "193742.972500", "193743.432500", "193743.892500", "193744.352500", "193744.812500", "193745.272500", "193745.732500", "193746.192500", "193746.652500", "193747.112500", "193747.572500", "193748.032500", "193748.492500", "193748.952500", "193749.412500", "193749.872500", "193750.332500", "193750.792500", "193751.252500", "193751.712500", "193752.172500", "193752.632500", "193753.092500", "193753.552500", "193754.012500", "193754.472500", "193754.932500", "193755.392500", "193755.852500", "193756.312500", "193756.772500", "193757.232500", "193757.692500", "193758.152500", "193758.612500", "193759.072500", "193759.532500", "193759.992500", "193800.452500", "193800.912500", "193801.372500", "193801.832500", "193802.292500", "193802.752500", "193803.212500", "193803.672500", "193804.132500", "193804.592500", "193805.052500", "193805.512500", "193805.972500", "193806.432500", "193806.892500", "193807.352500", "193807.812500", "193808.272500", "193808.732500", "193809.192500", "193809.652500", "193810.112500", "193810.572500", "193811.032500", "193811.492500", "193811.952500", "193812.412500", "193812.872500", "193813.332500", "193813.792500", "193814.252500", "193814.712500", "193815.172500", "193815.632500", "193816.092500", "193816.552500", "193817.012500", "193817.472500", "193817.932500", "193818.392500", "193818.852500", "193819.312500", "193819.772500", "193820.232500", "193820.692500", "193821.152500", "193821.612500", "193822.072500", "193822.532500", "193822.992500", "193823.452500", "193823.912500", "193824.372500", "193824.832500", "193825.292500", "193825.752500", "193826.212500", "193826.672500", "193827.132500", "193827.592500", "193828.052500", "193828.512500", "193828.972500", "193829.432500", "193829.892500", "193830.352500", "193830.812500", "193831.272500", "193831.732500", "193832.192500", "193832.652500", "193833.112500", "193833.572500", "193834.032500", "193834.492500", "193834.952500", "193835.412500", "193835.872500", "193836.332500", "193836.792500", "193837.252500", "193837.712500", "193838.172500", "193838.632500", "193839.092500", "193839.552500", "193840.012500", "193840.472500", "193840.932500", "193841.392500", "193841.852500", "193842.312500", "193842.772500", "193843.232500", "193843.692500", "193844.152500", "193844.612500", "193845.072500", "193845.532500", "193845.992500", "193846.452500", "193846.912500", "193847.372500", "193847.832500", "193848.292500", "193848.752500", "193849.212500", "193849.672500", "193850.132500", "193850.592500", "193851.052500", "193851.512500", "193851.972500", "193852.432500", "193852.892500", "193853.352500", "193853.812500", "193854.272500", "193854.732500", "193855.192500", "193855.652500", "193856.112500", "193856.572500", "193857.032500", "193857.492500", "193857.952500", "193858.412500", "193858.872500", "193859.332500", "193859.792500", "193900.252500", "193900.712500", "193901.172500", "193901.632500", "193902.092500", "193902.552500", "193903.012500", "193903.472500", "193903.932500", "193904.392500", "193904.852500", "193905.312500", "193905.772500", "193906.232500", "193906.692500", "193907.152500", "193907.612500", "193908.072500", "193908.532500", "193908.992500", "193909.452500", "193909.912500", "193910.372500", "193910.832500", "193911.292500", "193911.752500", "193912.212500", "193912.672500", "193913.132500", "193913.592500", "193914.052500", "193914.512500", "193914.972500", "193915.432500", "193915.892500", "193916.352500", "193916.812500", "193917.272500", "193917.732500", "193918.192500", "193918.652500", "193919.112500", "193919.572500", "193920.032500", "193920.492500", "193920.952500", "193921.412500", "193921.872500", "193922.332500", "193922.792500", "193923.252500", "193923.712500", "193924.172500", "193924.632500", "193925.092500", "193925.552500", "193926.012500", "193926.472500", "193926.932500", "193927.392500", "193927.852500", "193928.312500", "193928.772500", "193929.232500", "193929.692500", "193930.152500", "193930.612500", "193931.072500", "193931.532500", "193931.992500", "193932.452500", "193932.912500", "193933.372500", "193933.832500", "193934.292500", "193934.752500", "193935.212500", "193935.672500", "193936.132500", "193936.592500", "193937.052500", "193937.512500", "193937.972500", "193938.432500", "193938.892500", "193939.352500", "193939.812500", "193940.272500", "193940.732500", "193941.192500", "193941.652500", "193942.112500", "193942.572500", "193943.032500", "193943.492500", "193943.952500", "193944.412500", "193944.872500", "193945.332500", "193945.792500", "193946.252500", "193946.712500", "193947.172500", "193947.632500", "193948.092500", "193948.552500", "193949.012500", "193949.472500", "193949.932500", "193950.392500", "193950.852500", "193951.312500", "193951.772500", "193952.232500", "193952.692500", "193953.152500", "193953.612500", "193954.072500", "193954.532500", "193954.992500", "193955.452500", "193955.912500", "193956.372500", "193956.832500", "193957.292500", "193957.752500", "193958.212500", "193958.672500", "193959.132500", "193959.592500", "194000.052500", "194000.512500", "194000.972500", "194001.432500", "194001.892500", "194002.352500", "194002.812500", "194003.272500", "194003.732500", "194004.192500", "194004.652500", "194005.112500", "194005.572500", "194006.032500", "194006.492500", "194006.952500", "194007.412500", "194007.872500", "194008.332500", "194008.792500", "194009.252500", "194009.712500", "194010.172500", "194010.632500", "194011.092500", "194011.552500", "194012.012500", "194012.472500", "194012.932500", "194013.392500", "194013.852500", "194014.312500", "194014.772500", "194015.232500", "194015.692500", "194016.152500", "194016.612500", "194017.072500", "194017.532500", "194017.992500", "194018.452500", "194018.912500", "194019.372500", "194019.832500", "194020.292500", "194020.752500", "194021.212500", "194021.672500", "194022.132500", "194022.592500", "194023.052500", "194023.512500", "194023.972500", "194024.432500", "194024.892500", "194025.352500", "194025.812500", "194026.272500", "194026.732500", "194027.192500", "194027.652500", "194028.112500", "194028.572500", "194029.032500", "194029.492500", "194029.952500", "194030.412500", "194030.872500", "194031.332500", "194031.792500", "194032.252500", "194032.712500", "194033.172500", "194033.632500", "194034.092500", "194034.552500", "194035.012500", "194035.472500", "194035.932500", "194036.392500", "194036.852500", "194037.312500", "194037.772500", "194038.232500", "194038.692500", "194039.152500", "194039.612500", "194040.072500", "194040.532500", "194040.992500", "194041.452500", "194041.912500", "194042.372500", "194042.832500", "194043.292500", "194043.752500", "194044.212500", "194044.672500", "194045.132500", "194045.592500", "194046.052500", "194046.512500", "194046.972500", "194047.432500", "194047.892500", "194048.352500", "194048.812500", "194049.272500", "194049.732500", "194050.192500", "194050.652500", "194051.112500", "194051.572500", "194052.032500", "194052.492500", "194052.952500", "194053.412500", "194053.872500", "194054.332500", "194054.792500", "194055.252500", "194055.712500", "194056.172500", "194056.632500", "194057.092500", "194057.552500", "194058.012500", "194058.472500", "194058.932500", "194059.392500", "194059.852500", "194100.312500", "194100.772500", "194101.232500", "194101.692500", "194102.152500", "194102.612500", "194103.072500", "194103.532500", "194103.992500", "194104.452500", "194104.912500", "194105.372500", "194105.832500", "194106.292500", "194106.752500", "194107.212500", "194107.672500", "194108.132500", "194108.592500", "194109.052500", "194109.512500", "194109.972500", "194110.432500", "194110.892500", "194111.352500", "194111.812500", "194112.272500", "194112.732500", "194113.192500", "194113.652500", "194114.112500", "194114.572500", "194115.032500", "194115.492500", "194115.952500", "194116.412500", "194116.872500", "194117.332500", "194117.792500", "194118.252500", "194118.712500", "194119.172500", "194119.632500", "194120.092500", "194120.552500", "194121.012500", "194121.472500", "194121.932500", "194122.392500", "194122.852500", "194123.312500", "194123.772500", "194124.232500", "194124.692500", "194125.152500", "194125.612500", "194126.072500", "194126.532500", "194126.992500", "194127.452500", "194127.912500", "194128.372500", "194128.832500", "194129.292500", "194129.752500", "194130.212500", "194130.672500", "194131.132500", "194131.592500", "194132.052500", "194132.512500", "194132.972500", "194133.432500", "194133.892500", "194134.352500", "194134.812500", "194135.272500", "194135.732500", "194136.192500", "194136.652500", "194137.112500", "194137.572500", "194138.032500", "194138.492500", "194138.952500", "194139.412500", "194139.872500", "194140.332500", "194140.792500", "194141.252500", "194141.712500", "194142.172500", "194142.632500", "194143.092500", "194143.552500", "194144.012500", "194144.472500", "194144.932500", "194145.392500", "194145.852500", "194146.312500", "194146.772500", "194147.232500", "194147.692500", "194148.152500", "194148.612500", "194149.072500", "194149.532500", "194149.992500", "194150.452500", "194150.912500", "194151.372500", "194151.832500", "194152.292500", "194152.752500", "194153.212500", "194153.672500", "194154.132500", "194154.592500", "194155.052500", "194155.512500", "194155.972500", "194156.432500", "194156.892500", "194157.352500", "194157.812500", "194158.272500", "194158.732500", "194159.192500", "194159.652500", "194200.112500", "194200.572500", "194201.032500", "194201.492500", "194201.952500", "194202.412500", "194202.872500", "194203.332500", "194203.792500", "194204.252500", "194204.712500", "194205.172500", "194205.632500", "194206.092500"],
