{
  "AcquisitionMatrixPE": 82,
  "AcquisitionNumber": 1,
  "AcquisitionTime": "18:00:6.947500",
  "BandwidthPerPixelPhaseEncode": 24.888,
  "BaseResolution": 82,
  "BodyPartExamined": "BRAIN",
  "ConsistencyInfo": "N4_VE11E_LATEST_20181129",
  "ConversionSoftware": "dcm2niix",
  "ConversionSoftwareVersion": "v1.0.20201102",
  "DerivedVendorReportedEchoSpacing": 0.00049,
  "DeviceSerialNumber": "66112",
  "DwellTime": 2e-06,
  "EchoTime": 0.0272,
  "EchoTrainLength": 82,
  "EffectiveEchoSpacing": 0.00049,
  "FlipAngle": 44,
  "ImageComments": "Unaliased MB8/PE3",
  "ImageOrientationPatientDICOM": [0.999809, -0.0108236, 0.0162795, 0.00872524, 0.992262, 0.123854],
  "ImageType": [
    "ORIGINAL",
    "PRIMARY",
    "M",
    "MB",
    "ND",
    "NORM",
    "MOSAIC"
],
  "ImagingFrequency": 123.259,
  "InPlanePhaseEncodingDirectionDICOM": "COL",
  "InstitutionAddress": "Maynard 3,Hanover,NH,US,03755",
  "InstitutionName": "Dartmouth College - PBS",
  "InstitutionalDepartmentName": "Department",
  "MRAcquisitionType": "2D",
  "MagneticFieldStrength": 3,
  "Manufacturer": "Siemens",
  "ManufacturersModelName": "Prisma",
  "Modality": "MR",
  "MultibandAccelerationFactor": 8,
  "PartialFourier": 1,
  "PatientPosition": "HFS",
  "PercentPhaseFOV": 100,
  "PercentSampling": 100,
  "PhaseEncodingDirection": "j-",
  "PhaseEncodingSteps": 82,
  "PhaseResolution": 1,
  "PixelBandwidth": 3050,
  "ProcedureStepDescription": "Wager_Wager^1076_spacetop",
  "ProtocolName": "func_run-05_task-social_acq-ap-mb8",
  "PulseSequenceDetails": "%CustomerSeq%\\cmrr_mbep2d_bold",
  "ReceiveCoilActiveElements": "HEA;HEP",
  "ReceiveCoilName": "Head_32",
  "ReconMatrixPE": 82,
  "RepetitionTime": 0.46,
  "SAR": 0.092308,
  "ScanOptions": "FS",
  "ScanningSequence": "EP",
  "SequenceName": "epfid2d1_82",
  "SequenceVariant": "SK\\SS",
  "SeriesDescription": "func_run-05_task-social_acq-ap-mb8",
  "SeriesNumber": 20,
  "ShimSetting": [4222, -7803, -7217, 438, -114, -120, -9, 59],
  "SliceThickness": 2.7,
  "SliceTiming": [0, 0.25, 0.0625, 0.3125, 0.125, 0.3775, 0.1875, 0, 0.25, 0.0625, 0.3125, 0.125, 0.3775, 0.1875, 0, 0.25, 0.0625, 0.3125, 0.125, 0.3775, 0.1875, 0, 0.25, 0.0625, 0.3125, 0.125, 0.3775, 0.1875, 0, 0.25, 0.0625, 0.3125, 0.125, 0.3775, 0.1875, 0, 0.25, 0.0625, 0.3125, 0.125, 0.3775, 0.1875, 0, 0.25, 0.0625, 0.3125, 0.125, 0.3775, 0.1875, 0, 0.25, 0.0625, 0.3125, 0.125, 0.3775, 0.1875],
  "SoftwareVersions": "syngo MR E11",
  "SpacingBetweenSlices": 2.7,
  "StationName": "AWP66112",
  "TaskName": "social",
  "TotalReadoutTime": 0.03969,
  "TxRefAmp": 230.982,
  "WipMemBlock": "77ee78ba-2f33-4794-ae2b-e99f24521e66||Sequence: R016 ve11e/master r/434b28f1; Aug  7 2019 18:53:46 by eja",
  "dcmmeta_affine": [
    [-2.6824140548706055, 0.023409191519021988, 0.04723411053419113, 108.91999816894531],
    [0.029038982465863228, 2.6621665954589844, 0.33395934104919434, -115.51084899902344],
    [0.043676797300577164, -0.3322921693325043, 2.6788504123687744, -54.83186340332031],
    [0.0, 0.0, 0.0, 1.0]
],
  "dcmmeta_reorient_transform": [
    [0.0, -1.0, 0.0, 81.0],
    [1.0, 0.0, 0.0, 0.0],
    [0.0, 0.0, 1.0, 0.0],
    [0.0, 0.0, 0.0, 1.0]
],
  "dcmmeta_shape": [82, 82, 56, 872],
  "dcmmeta_slice_dim": 2,
  "dcmmeta_version": 0.6,
  "global": {
    "const": {
      "AccessionNumber": "A004834",
      "AcquisitionMatrix": [82, 0, 0, 82],
      "AngioFlag": "N",
      "BitsAllocated": 16,
      "BitsStored": 16,
      "BodyPartExamined": "BRAIN",
      "Columns": 656,
      "EchoNumbers": 1,
      "EchoTime": 27.2,
      "EchoTrainLength": 82,
      "FlipAngle": 44.0,
      "HighBit": 15,
      "ImageOrientationPatient": [0.99980889475301, -0.010823620416, 0.01627953358866, 0.00872524403212, 0.99226204633022, 0.12385435611699],
      "ImagePositionPatient": [-887.38744921258, -855.83224917991, -189.65062769994],
      "ImageType": [
        "ORIGINAL",
        "PRIMARY",
        "M",
        "MB",
        "ND",
        "NORM",
        "MOSAIC"
],
      "ImagedNucleus": "1H",
      "ImagingFrequency": 123.259087,
      "InPlanePhaseEncodingDirection": "COL",
      "MRAcquisitionType": "2D",
      "MagneticFieldStrength": 3.0,
      "Manufacturer": "SIEMENS",
      "ManufacturerModelName": "Prisma",
      "Modality": "MR",
      "NumberOfAverages": 1.0,
      "NumberOfPhaseEncodingSteps": 82,
      "PercentPhaseFieldOfView": 100.0,
      "PercentSampling": 100.0,
      "PerformedProcedureStepStartTime": "164516.605000",
      "PhotometricInterpretation": "MONOCHROME2",
      "PixelBandwidth": 3050.0,
      "PixelRepresentation": 0,
      "PixelSpacing": [2.6829268932343, 2.6829268932343],
      "ProtocolName": "func_run-05_task-social_acq-ap-mb8",
      "RepetitionTime": 460.0,
      "Rows": 656,
      "SAR": 0.09230797047096,
      "SamplesPerPixel": 1,
      "ScanOptions": "FS",
      "ScanningSequence": "EP",
      "SequenceName": "epfid2d1_82",
      "SequenceVariant": [
        "SK",
        "SS"
],
      "SeriesDescription": "func_run-05_task-social_acq-ap-mb8",
      "SeriesNumber": 20,
      "SeriesTime": "180019.853000",
      "SliceLocation": -66.784278282736,
      "SliceThickness": 2.7000000476837,
      "SmallestImagePixelValue": 0,
      "SoftwareVersions": "syngo MR E11",
      "SpacingBetweenSlices": 2.6999999667651,
      "SpecificCharacterSet": "ISO_IR 100",
      "StudyID": "1",
      "StudyTime": "164516.543000",
      "TransmitCoilName": "Body",
      "VariableFlipAngleFlag": "N",
      "WindowCenterWidthExplanation": "Algo1"
    },
    "slices": {}
  },
  "time": {
    "samples": {
      "AcquisitionNumber": [1, 2, 3, 4, 5, 6, 7, 8, 9, 10, 11, 12, 13, 14, 15, 16, 17, 18, 19, 20, 21, 22, 23, 24, 25, 26, 27, 28, 29, 30, 31, 32, 33, 34, 35, 36, 37, 38, 39, 40, 41, 42, 43, 44, 45, 46, 47, 48, 49, 50, 51, 52, 53, 54, 55, 56, 57, 58, 59, 60, 61, 62, 63, 64, 65, 66, 67, 68, 69, 70, 71, 72, 73, 74, 75, 76, 77, 78, 79, 80, 81, 82, 83, 84, 85, 86, 87, 88, 89, 90, 91, 92, 93, 94, 95, 96, 97, 98, 99, 100, 101, 102, 103, 104, 105, 106, 107, 108, 109, 110, 111, 112, 113, 114, 115, 116, 117, 118, 119, 120, 121, 122, 123, 124, 125, 126, 127, 128, 129, 130, 131, 132, 133, 134, 135, 136, 137, 138, 139, 140, 141, 142, 143, 144, 145, 146, 147, 148, 149, 150, 151, 152, 153, 154, 155, 156, 157, 158, 159, 160, 161, 162, 163, 164, 165, 166, 167, 168, 169, 170, 171, 172, 173, 174, 175, 176, 177, 178, 179, 180, 181, 182, 183, 184, 185, 186, 187, 188, 189, 190, 191, 192, 193, 194, 195, 196, 197, 198, 199, 200, 201, 202, 203, 204, 205, 206, 207, 208, 209, 210, 211, 212, 213, 214, 215, 216, 217, 218, 219, 220, 221, 222, 223, 224, 225, 226, 227, 228, 229, 230, 231, 232, 233, 234, 235, 236, 237, 238, 239, 240, 241, 242, 243, 244, 245, 246, 247, 248, 249, 250, 251, 252, 253, 254, 255, 256, 257, 258, 259, 260, 261, 262, 263, 264, 265, 266, 267, 268, 269, 270, 271, 272, 273, 274, 275, 276, 277, 278, 279, 280, 281, 282, 283, 284, 285, 286, 287, 288, 289, 290, 291, 292, 293, 294, 295, 296, 297, 298, 299, 300, 301, 302, 303, 304, 305, 306, 307, 308, 309, 310, 311, 312, 313, 314, 315, 316, 317, 318, 319, 320, 321, 322, 323, 324, 325, 326, 327, 328, 329, 330, 331, 332, 333, 334, 335, 336, 337, 338, 339, 340, 341, 342, 343, 344, 345, 346, 347, 348, 349, 350, 351, 352, 353, 354, 355, 356, 357, 358, 359, 360, 361, 362, 363, 364, 365, 366, 367, 368, 369, 370, 371, 372, 373, 374, 375, 376, 377, 378, 379, 380, 381, 382, 383, 384, 385, 386, 387, 388, 389, 390, 391, 392, 393, 394, 395, 396, 397, 398, 399, 400, 401, 402, 403, 404, 405, 406, 407, 408, 409, 410, 411, 412, 413, 414, 415, 416, 417, 418, 419, 420, 421, 422, 423, 424, 425, 426, 427, 428, 429, 430, 431, 432, 433, 434, 435, 436, 437, 438, 439, 440, 441, 442, 443, 444, 445, 446, 447, 448, 449, 450, 451, 452, 453, 454, 455, 456, 457, 458, 459, 460, 461, 462, 463, 464, 465, 466, 467, 468, 469, 470, 471, 472, 473, 474, 475, 476, 477, 478, 479, 480, 481, 482, 483, 484, 485, 486, 487, 488, 489, 490, 491, 492, 493, 494, 495, 496, 497, 498, 499, 500, 501, 502, 503, 504, 505, 506, 507, 508, 509, 510, 511, 512, 513, 514, 515, 516, 517, 518, 519, 520, 521, 522, 523, 524, 525, 526, 527, 528, 529, 530, 531, 532, 533, 534, 535, 536, 537, 538, 539, 540, 541, 542, 543, 544, 545, 546, 547, 548, 549, 550, 551, 552, 553, 554, 555, 556, 557, 558, 559, 560, 561, 562, 563, 564, 565, 566, 567, 568, 569, 570, 571, 572, 573, 574, 575, 576, 577, 578, 579, 580, 581, 582, 583, 584, 585, 586, 587, 588, 589, 590, 591, 592, 593, 594, 595, 596, 597, 598, 599, 600, 601, 602, 603, 604, 605, 606, 607, 608, 609, 610, 611, 612, 613, 614, 615, 616, 617, 618, 619, 620, 621, 622, 623, 624, 625, 626, 627, 628, 629, 630, 631, 632, 633, 634, 635, 636, 637, 638, 639, 640, 641, 642, 643, 644, 645, 646, 647, 648, 649, 650, 651, 652, 653, 654, 655, 656, 657, 658, 659, 660, 661, 662, 663, 664, 665, 666, 667, 668, 669, 670, 671, 672, 673, 674, 675, 676, 677, 678, 679, 680, 681, 682, 683, 684, 685, 686, 687, 688, 689, 690, 691, 692, 693, 694, 695, 696, 697, 698, 699, 700, 701, 702, 703, 704, 705, 706, 707, 708, 709, 710, 711, 712, 713, 714, 715, 716, 717, 718, 719, 720, 721, 722, 723, 724, 725, 726, 727, 728, 729, 730, 731, 732, 733, 734, 735, 736, 737, 738, 739, 740, 741, 742, 743, 744, 745, 746, 747, 748, 749, 750, 751, 752, 753, 754, 755, 756, 757, 758, 759, 760, 761, 762, 763, 764, 765, 766, 767, 768, 769, 770, 771, 772, 773, 774, 775, 776, 777, 778, 779, 780, 781, 782, 783, 784, 785, 786, 787, 788, 789, 790, 791, 792, 793, 794, 795, 796, 797, 798, 799, 800, 801, 802, 803, 804, 805, 806, 807, 808, 809, 810, 811, 812, 813, 814, 815, 816, 817, 818, 819, 820, 821, 822, 823, 824, 825, 826, 827, 828, 829, 830, 831, 832, 833, 834, 835, 836, 837, 838, 839, 840, 841, 842, 843, 844, 845, 846, 847, 848, 849, 850, 851, 852, 853, 854, 855, 856, 857, 858, 859, 860, 861, 862, 863, 864, 865, 866, 867, 868, 869, 870, 871, 872],
      "AcquisitionTime": ["180006.947500", "180007.407500", "180007.867500", "180008.327500", "180008.787500", "180009.247500", "180009.707500", "180010.167500", "180010.627500", "180011.087500", "180011.547500", "180012.007500", "180012.467500", "180012.927500", "180013.387500", "180013.847500", "180014.307500", "180014.767500", "180015.227500", "180015.687500", "180016.147500", "180016.607500", "180017.067500", "180017.527500", "180017.987500", "180018.447500", "180018.907500", "180019.367500", "180019.827500", "180020.287500", "180020.747500", "180021.207500", "180021.667500", "180022.127500", "180022.587500", "180023.047500", "180023.507500", "180023.967500", "180024.427500", "180024.887500", "180025.347500", "180025.807500", "180026.267500", "180026.727500", "180027.187500", "180027.647500", "180028.107500", "180028.567500", "180029.027500", "180029.487500", "180029.947500", "180030.407500", "180030.867500", "180031.327500", "180031.787500", "180032.247500", "180032.707500", "180033.167500", "180033.627500", "180034.087500", "180034.547500", "180035.007500", "180035.467500", "180035.927500", "180036.387500", "180036.847500", "180037.307500", "180037.767500", "180038.227500", "180038.687500", "180039.147500", "180039.607500", "180040.067500", "180040.527500", "180040.987500", "180041.447500", "180041.907500", "180042.367500", "180042.827500", "180043.287500", "180043.747500", "180044.207500", "180044.667500", "180045.127500", "180045.587500", "180046.047500", "180046.507500", "180046.967500", "180047.427500", "180047.887500", "180048.347500", "180048.807500", "180049.267500", "180049.727500", "180050.187500", "180050.647500", "180051.107500", "180051.567500", "180052.027500", "180052.487500", "180052.947500", "180053.407500", "180053.867500", "180054.327500", "180054.787500", "180055.247500", "180055.707500", "180056.167500", "180056.627500", "180057.087500", "180057.547500", "180058.007500", "180058.467500", "180058.927500", "180059.387500", "180059.847500", "180100.307500", "180100.767500", "180101.227500", "180101.687500", "180102.147500", "180102.607500", "180103.067500", "180103.527500", "180103.987500", "180104.447500", "180104.907500", "180105.367500", "180105.827500", "180106.287500", "180106.747500", "180107.207500", "180107.667500", "180108.127500", "180108.587500", "180109.047500", "180109.507500", "180109.967500", "180110.427500", "180110.887500", "180111.347500", "180111.807500", "180112.267500", "180112.727500", "180113.187500", "180113.647500", "180114.107500", "180114.567500", "180115.027500", "180115.487500", "180115.947500", "180116.407500", "180116.867500", "180117.327500", "180117.787500", "180118.247500", "180118.707500", "180119.167500", "180119.627500", "180120.087500", "180120.547500", "180121.007500", "180121.467500", "180121.927500", "180122.387500", "180122.847500", "180123.307500", "180123.767500", "180124.227500", "180124.687500", "180125.147500", "180125.607500", "180126.067500", "180126.527500", "180126.987500", "180127.447500", "180127.907500", "180128.367500", "180128.827500", "180129.287500", "180129.747500", "180130.207500", "180130.667500", "180131.127500", "180131.587500", "180132.047500", "180132.507500", "180132.967500", "180133.427500", "180133.887500", "180134.347500", "180134.807500", "180135.267500", "180135.727500", "180136.187500", "180136.647500", "180137.107500", "180137.567500", "180138.027500", "180138.487500", "180138.947500", "180139.407500", "180139.867500", "180140.327500", "180140.787500", "180141.247500", "180141.707500", "180142.167500", "180142.627500", "180143.087500", "180143.547500", "180144.007500", "180144.467500", "180144.927500", "180145.387500", "180145.847500", "180146.307500", "180146.767500", "180147.227500", "180147.687500", "180148.147500", "180148.607500", "180149.067500", "180149.527500", "180149.987500", "180150.447500", "180150.907500", "180151.367500", "180151.827500", "180152.287500", "180152.747500", "180153.207500", "180153.667500", "180154.127500", "180154.587500", "180155.047500", "180155.507500", "180155.967500", "180156.427500", "180156.887500", "180157.347500", "180157.807500", "180158.267500", "180158.727500", "180159.187500", "180159.647500", "180200.107500", "180200.567500", "180201.027500", "180201.487500", "180201.947500", "180202.407500", "180202.867500", "180203.327500", "180203.787500", "180204.247500", "180204.707500", "180205.167500", "180205.627500", "180206.087500", "180206.547500", "180207.007500", "180207.467500", "180207.927500", "180208.387500", "180208.847500", "180209.307500", "180209.767500", "180210.227500", "180210.687500", "180211.147500", "180211.607500", "180212.067500", "180212.527500", "180212.987500", "180213.447500", "180213.907500", "180214.367500", "180214.827500", "180215.287500", "180215.747500", "180216.207500", "180216.667500", "180217.127500", "180217.587500", "180218.047500", "180218.507500", "180218.967500", "180219.427500", "180219.887500", "180220.347500", "180220.807500", "180221.267500", "180221.727500", "180222.187500", "180222.647500", "180223.107500", "180223.567500", "180224.027500", "180224.487500", "180224.947500", "180225.407500", "180225.867500", "180226.327500", "180226.787500", "180227.247500", "180227.707500", "180228.167500", "180228.627500", "180229.087500", "180229.547500", "180230.007500", "180230.467500", "180230.927500", "180231.387500", "180231.847500", "180232.307500", "180232.767500", "180233.227500", "180233.687500", "180234.147500", "180234.607500", "180235.067500", "180235.527500", "180235.987500", "180236.447500", "180236.907500", "180237.367500", "180237.827500", "180238.287500", "180238.747500", "180239.207500", "180239.667500", "180240.127500", "180240.587500", "180241.047500", "180241.507500", "180241.967500", "180242.427500", "180242.887500", "180243.347500", "180243.807500", "180244.267500", "180244.727500", "180245.187500", "180245.647500", "180246.107500", "180246.567500", "180247.027500", "180247.487500", "180247.947500", "180248.407500", "180248.867500", "180249.327500", "180249.787500", "180250.247500", "180250.707500", "180251.167500", "180251.627500", "180252.087500", "180252.547500", "180253.007500", "180253.467500", "180253.927500", "180254.387500", "180254.847500", "180255.307500", "180255.767500", "180256.227500", "180256.687500", "180257.147500", "180257.607500", "180258.067500", "180258.527500", "180258.987500", "180259.447500", "180259.907500", "180300.367500", "180300.827500", "180301.287500", "180301.747500", "180302.207500", "180302.667500", "180303.127500", "180303.587500", "180304.047500", "180304.507500", "180304.967500", "180305.427500", "180305.887500", "180306.347500", "180306.807500", "180307.267500", "180307.727500", "180308.187500", "180308.647500", "180309.107500", "180309.567500", "180310.027500", "180310.487500", "180310.947500", "180311.407500", "180311.867500", "180312.327500", "180312.787500", "180313.247500", "180313.707500", "180314.167500", "180314.627500", "180315.087500", "180315.547500", "180316.007500", "180316.467500", "180316.927500", "180317.387500", "180317.847500", "180318.307500", "180318.767500", "180319.227500", "180319.687500", "180320.147500", "180320.607500", "180321.067500", "180321.527500", "180321.987500", "180322.447500", "180322.907500", "180323.367500", "180323.827500", "180324.287500", "180324.747500", "180325.207500", "180325.667500", "180326.127500", "180326.587500", "180327.047500", "180327.507500", "180327.967500", "180328.427500", "180328.887500", "180329.347500", "180329.807500", "180330.267500", "180330.727500", "180331.187500", "180331.647500", "180332.107500", "180332.567500", "180333.027500", "180333.487500", "180333.947500", "180334.407500", "180334.867500", "180335.327500", "180335.787500", "180336.247500", "180336.707500", "180337.167500", "180337.627500", "180338.087500", "180338.547500", "180339.007500", "180339.467500", "180339.927500", "180340.387500", "180340.847500", "180341.307500", "180341.767500", "180342.227500", "180342.687500", "180343.147500", "180343.607500", "180344.067500", "180344.527500", "180344.987500", "180345.447500", "180345.907500", "180346.367500", "180346.827500", "180347.287500", "180347.747500", "180348.207500", "180348.667500", "180349.127500", "180349.587500", "180350.047500", "180350.507500", "180350.967500", "180351.427500", "180351.887500", "180352.347500", "180352.807500", "180353.267500", "180353.727500", "180354.187500", "180354.647500", "180355.107500", "180355.567500", "180356.027500", "180356.487500", "180356.947500", "180357.407500", "180357.867500", "180358.327500", "180358.787500", "180359.247500", "180359.707500", "180400.167500", "180400.627500", "180401.087500", "180401.547500", "180402.007500", "180402.467500", "180402.927500", "180403.387500", "180403.847500", "180404.307500", "180404.767500", "180405.227500", "180405.687500", "180406.147500", "180406.607500", "180407.067500", "180407.527500", "180407.987500", "180408.447500", "180408.907500", "180409.367500", "180409.827500", "180410.287500", "180410.747500", "180411.207500", "180411.667500", "180412.127500", "180412.587500", "180413.047500", "180413.507500", "180413.967500", "180414.427500", "180414.887500", "180415.347500", "180415.807500", "180416.267500", "180416.727500", "180417.187500", "180417.647500", "180418.107500", "180418.567500", "180419.027500", "180419.487500", "180419.947500", "180420.407500", "180420.867500", "180421.327500", "180421.787500", "180422.247500", "180422.707500", "180423.167500", "180423.627500", "180424.087500", "180424.547500", "180425.007500", "180425.467500", "180425.927500", "180426.387500", "180426.847500", "180427.307500", "180427.767500", "180428.227500", "180428.687500", "180429.147500", "180429.607500", "180430.067500", "180430.527500", "180430.987500", "180431.447500", "180431.907500", "180432.367500", "180432.827500", "180433.287500", "180433.747500", "180434.207500", "180434.667500", "180435.127500", "180435.587500", "180436.047500", "180436.507500", "180436.967500", "180437.427500", "180437.887500", "180438.347500", "180438.807500", "180439.267500", "180439.727500", "180440.187500", "180440.647500", "180441.107500", "180441.567500", "180442.027500", "180442.487500", "180442.947500", "180443.407500", "180443.867500", "180444.327500", "180444.787500", "180445.247500", "180445.707500", "180446.167500", "180446.627500", "180447.087500", "180447.547500", "180448.007500", "180448.467500", "180448.927500", "180449.387500", "180449.847500", "180450.307500", "180450.767500", "180451.227500", "180451.687500", "180452.147500", "180452.607500", "180453.067500", "180453.527500", "180453.987500", "180454.447500", "180454.907500", "180455.367500", "180455.827500", "180456.287500", "180456.747500", "180457.207500", "180457.667500", "180458.127500", "180458.587500", "180459.047500", "180459.507500", "180459.967500", "180500.427500", "180500.887500", "180501.347500", "180501.807500", "180502.267500", "180502.727500", "180503.187500", "180503.647500", "180504.107500", "180504.567500", "180505.027500", "180505.487500", "180505.947500", "180506.407500", "180506.867500", "180507.327500", "180507.787500", "180508.247500", "180508.707500", "180509.167500", "180509.627500", "180510.087500", "180510.547500", "180511.007500", "180511.467500", "180511.927500", "180512.387500", "180512.847500", "180513.307500", "180513.767500", "180514.227500", "180514.687500", "180515.147500", "180515.607500", "180516.067500", "180516.527500", "180516.987500", "180517.447500", "180517.907500", "180518.367500", "180518.827500", "180519.287500", "180519.747500", "180520.207500", "180520.667500", "180521.127500", "180521.587500", "180522.047500", "180522.507500", "180522.967500", "180523.427500", "180523.887500", "180524.347500", "180524.807500", "180525.267500", "180525.727500", "180526.187500", "180526.647500", "180527.107500", "180527.567500", "180528.027500", "180528.487500", "180528.947500", "180529.407500", "180529.867500", "180530.327500", "180530.787500", "180531.247500", "180531.707500", "180532.167500", "180532.627500", "180533.087500", "180533.547500", "180534.007500", "180534.467500", "180534.927500", "180535.387500", "180535.847500", "180536.307500", "180536.767500", "180537.227500", "180537.687500", "180538.147500", "180538.607500", "180539.067500", "180539.527500", "180539.987500", "180540.447500", "180540.907500", "180541.367500", "180541.827500", "180542.287500", "180542.747500", "180543.207500", "180543.667500", "180544.127500", "180544.587500", "180545.047500", "180545.507500", "180545.967500", "180546.427500", "180546.887500", "180547.347500", "180547.807500", "180548.267500", "180548.727500", "180549.187500", "180549.647500", "180550.107500", "180550.567500", "180551.027500", "180551.487500", "180551.947500", "180552.407500", "180552.867500", "180553.327500", "180553.787500", "180554.247500", "180554.707500", "180555.167500", "180555.627500", "180556.087500", "180556.547500", "180557.007500", "180557.467500", "180557.927500", "180558.387500", "180558.847500", "180559.307500", "180559.767500", "180600.227500", "180600.687500", "180601.147500", "180601.607500", "180602.067500", "180602.527500", "180602.987500", "180603.447500", "180603.907500", "180604.367500", "180604.827500", "180605.287500", "180605.747500", "180606.207500", "180606.667500", "180607.127500", "180607.587500", "180608.047500", "180608.507500", "180608.967500", "180609.427500", "180609.887500", "180610.347500", "180610.807500", "180611.267500", "180611.727500", "180612.187500", "180612.647500", "180613.107500", "180613.567500", "180614.027500", "180614.487500", "180614.947500", "180615.407500", "180615.867500", "180616.327500", "180616.787500", "180617.247500", "180617.707500", "180618.167500", "180618.627500", "180619.087500", "180619.547500", "180620.007500", "180620.467500", "180620.927500", "180621.387500", "180621.847500", "180622.307500", "180622.767500", "180623.227500", "180623.687500", "180624.147500", "180624.607500", "180625.067500", "180625.527500", "180625.987500", "180626.447500", "180626.907500", "180627.367500", "180627.827500", "180628.287500", "180628.747500", "180629.207500", "180629.667500", "180630.127500", "180630.587500", "180631.047500", "180631.507500", "180631.967500", "180632.427500", "180632.887500", "180633.347500", "180633.807500", "180634.267500", "180634.727500", "180635.187500", "180635.647500", "180636.107500", "180636.567500", "180637.027500", "180637.487500", "180637.947500", "180638.407500", "180638.867500", "180639.327500", "180639.787500", "180640.247500", "180640.707500", "180641.167500", "180641.627500", "180642.087500", "180642.547500", "180643.007500", "180643.467500", "180643.927500", "180644.387500", "180644.847500", "180645.307500", "180645.767500", "180646.227500", "180646.687500", "180647.147500", "180647.607500"],
