{
  "AcquisitionMatrixPE": 82,
  "AcquisitionNumber": 1,
  "AcquisitionTime": "17:51:55.962500",
  "BandwidthPerPixelPhaseEncode": 24.888,
  "BaseResolution": 82,
  "BodyPartExamined": "BRAIN",
  "ConsistencyInfo": "N4_VE11E_LATEST_20181129",
  "ConversionSoftware": "dcm2niix",
  "ConversionSoftwareVersion": "v1.0.20201102",
  "DerivedVendorReportedEchoSpacing": 0.00049,
  "DeviceSerialNumber": "66112",
  "DwellTime": 2e-06,
  "EchoTime": 0.0272,
  "EchoTrainLength": 82,
  "EffectiveEchoSpacing": 0.00049,
  "FlipAngle": 44,
  "ImageComments": "Unaliased MB8/PE3",
  "ImageOrientationPatientDICOM": [0.999809, -0.0108236, 0.0162795, 0.00872524, 0.992262, 0.123854],
  "ImageType": [
    "ORIGINAL",
    "PRIMARY",
    "M",
    "MB",
    "ND",
    "NORM",
    "MOSAIC"
],
  "ImagingFrequency": 123.259,
  "InPlanePhaseEncodingDirectionDICOM": "COL",
  "InstitutionAddress": "Maynard 3,Hanover,NH,US,03755",
  "InstitutionName": "Dartmouth College - PBS",
  "InstitutionalDepartmentName": "Department",
  "MRAcquisitionType": "2D",
  "MagneticFieldStrength": 3,
  "Manufacturer": "Siemens",
  "ManufacturersModelName": "Prisma",
  "Modality": "MR",
  "MultibandAccelerationFactor": 8,
  "PartialFourier": 1,
  "PatientPosition": "HFS",
  "PercentPhaseFOV": 100,
  "PercentSampling": 100,
  "PhaseEncodingDirection": "j-",
  "PhaseEncodingSteps": 82,
  "PhaseResolution": 1,
  "PixelBandwidth": 3050,
  "ProcedureStepDescription": "Wager_Wager^1076_spacetop",
  "ProtocolName": "func_run-04_task-social_acq-ap-mb8",
  "PulseSequenceDetails": "%CustomerSeq%\\cmrr_mbep2d_bold",
  "ReceiveCoilActiveElements": "HEA;HEP",
  "ReceiveCoilName": "Head_32",
  "ReconMatrixPE": 82,
  "RepetitionTime": 0.46,
  "SAR": 0.092308,
  "ScanOptions": "FS",
  "ScanningSequence": "EP",
  "SequenceName": "epfid2d1_82",
  "SequenceVariant": "SK\\SS",
  "SeriesDescription": "func_run-04_task-social_acq-ap-mb8",
  "SeriesNumber": 18,
  "ShimSetting": [4222, -7803, -7217, 438, -114, -120, -9, 59],
  "SliceThickness": 2.7,
  "SliceTiming": [0, 0.25, 0.0625, 0.3125, 0.125, 0.375, 0.1875, 0, 0.25, 0.0625, 0.3125, 0.125, 0.375, 0.1875, 0, 0.25, 0.0625, 0.3125, 0.125, 0.375, 0.1875, 0, 0.25, 0.0625, 0.3125, 0.125, 0.375, 0.1875, 0, 0.25, 0.0625, 0.3125, 0.125, 0.375, 0.1875, 0, 0.25, 0.0625, 0.3125, 0.125, 0.375, 0.1875, 0, 0.25, 0.0625, 0.3125, 0.125, 0.375, 0.1875, 0, 0.25, 0.0625, 0.3125, 0.125, 0.375, 0.1875],
  "SoftwareVersions": "syngo MR E11",
  "SpacingBetweenSlices": 2.7,
  "StationName": "AWP66112",
  "TaskName": "social",
  "TotalReadoutTime": 0.03969,
  "TxRefAmp": 230.982,
  "WipMemBlock": "b4bab9b6-34e4-4ac1-b46c-d0b63a0c2d2a||Sequence: R016 ve11e/master r/434b28f1; Aug  7 2019 18:53:46 by eja",
  "dcmmeta_affine": [
    [-2.6824140548706055, 0.023409191519021988, 0.04723411053419113, 108.91999816894531],
    [0.029038982465863228, 2.6621665954589844, 0.33395934104919434, -115.51084899902344],
    [0.043676797300577164, -0.3322921693325043, 2.6788504123687744, -54.83186340332031],
    [0.0, 0.0, 0.0, 1.0]
],
  "dcmmeta_reorient_transform": [
    [0.0, -1.0, 0.0, 81.0],
    [1.0, 0.0, 0.0, 0.0],
    [0.0, 0.0, 1.0, 0.0],
    [0.0, 0.0, 0.0, 1.0]
],
  "dcmmeta_shape": [82, 82, 56, 872],
  "dcmmeta_slice_dim": 2,
  "dcmmeta_version": 0.6,
  "global": {
    "const": {
      "AccessionNumber": "A004834",
      "AcquisitionMatrix": [82, 0, 0, 82],
      "AngioFlag": "N",
      "BitsAllocated": 16,
      "BitsStored": 16,
      "BodyPartExamined": "BRAIN",
      "Columns": 656,
      "EchoNumbers": 1,
      "EchoTime": 27.2,
      "EchoTrainLength": 82,
      "FlipAngle": 44.0,
      "HighBit": 15,
      "ImageOrientationPatient": [0.99980889475301, -0.010823620416, 0.01627953358866, 0.00872524403212, 0.99226204633022, 0.12385435611699],
      "ImagePositionPatient": [-887.38744921258, -855.83224917991, -189.65062769994],
      "ImageType": [
        "ORIGINAL",
        "PRIMARY",
        "M",
        "MB",
        "ND",
        "NORM",
        "MOSAIC"
],
      "ImagedNucleus": "1H",
      "ImagingFrequency": 123.259084,
      "InPlanePhaseEncodingDirection": "COL",
      "MRAcquisitionType": "2D",
      "MagneticFieldStrength": 3.0,
      "Manufacturer": "SIEMENS",
      "ManufacturerModelName": "Prisma",
      "Modality": "MR",
      "NumberOfAverages": 1.0,
      "NumberOfPhaseEncodingSteps": 82,
      "PercentPhaseFieldOfView": 100.0,
      "PercentSampling": 100.0,
      "PerformedProcedureStepStartTime": "164516.605000",
      "PhotometricInterpretation": "MONOCHROME2",
      "PixelBandwidth": 3050.0,
      "PixelRepresentation": 0,
      "PixelSpacing": [2.6829268932343, 2.6829268932343],
      "ProtocolName": "func_run-04_task-social_acq-ap-mb8",
      "RepetitionTime": 460.0,
      "Rows": 656,
      "SAR": 0.09230797047096,
      "SamplesPerPixel": 1,
      "ScanOptions": "FS",
      "ScanningSequence": "EP",
      "SequenceName": "epfid2d1_82",
      "SequenceVariant": [
        "SK",
        "SS"
],
      "SeriesDescription": "func_run-04_task-social_acq-ap-mb8",
      "SeriesNumber": 18,
      "SeriesTime": "175219.768000",
      "SliceLocation": -66.784278282736,
      "SliceThickness": 2.7000000476837,
      "SmallestImagePixelValue": 0,
      "SoftwareVersions": "syngo MR E11",
      "SpacingBetweenSlices": 2.6999999667651,
      "SpecificCharacterSet": "ISO_IR 100",
      "StudyID": "1",
      "StudyTime": "164516.543000",
      "TransmitCoilName": "Body",
      "VariableFlipAngleFlag": "N",
      "WindowCenterWidthExplanation": "Algo1"
    },
    "slices": {}
  },
  "time": {
    "samples": {
      "AcquisitionNumber": [1, 2, 3, 4, 5, 6, 7, 8, 9, 10, 11, 12, 13, 14, 15, 16, 17, 18, 19, 20, 21, 22, 23, 24, 25, 26, 27, 28, 29, 30, 31, 32, 33, 34, 35, 36, 37, 38, 39, 40, 41, 42, 43, 44, 45, 46, 47, 48, 49, 50, 51, 52, 53, 54, 55, 56, 57, 58, 59, 60, 61, 62, 63, 64, 65, 66, 67, 68, 69, 70, 71, 72, 73, 74, 75, 76, 77, 78, 79, 80, 81, 82, 83, 84, 85, 86, 87, 88, 89, 90, 91, 92, 93, 94, 95, 96, 97, 98, 99, 100, 101, 102, 103, 104, 105, 106, 107, 108, 109, 110, 111, 112, 113, 114, 115, 116, 117, 118, 119, 120, 121, 122, 123, 124, 125, 126, 127, 128, 129, 130, 131, 132, 133, 134, 135, 136, 137, 138, 139, 140, 141, 142, 143, 144, 145, 146, 147, 148, 149, 150, 151, 152, 153, 154, 155, 156, 157, 158, 159, 160, 161, 162, 163, 164, 165, 166, 167, 168, 169, 170, 171, 172, 173, 174, 175, 176, 177, 178, 179, 180, 181, 182, 183, 184, 185, 186, 187, 188, 189, 190, 191, 192, 193, 194, 195, 196, 197, 198, 199, 200, 201, 202, 203, 204, 205, 206, 207, 208, 209, 210, 211, 212, 213, 214, 215, 216, 217, 218, 219, 220, 221, 222, 223, 224, 225, 226, 227, 228, 229, 230, 231, 232, 233, 234, 235, 236, 237, 238, 239, 240, 241, 242, 243, 244, 245, 246, 247, 248, 249, 250, 251, 252, 253, 254, 255, 256, 257, 258, 259, 260, 261, 262, 263, 264, 265, 266, 267, 268, 269, 270, 271, 272, 273, 274, 275, 276, 277, 278, 279, 280, 281, 282, 283, 284, 285, 286, 287, 288, 289, 290, 291, 292, 293, 294, 295, 296, 297, 298, 299, 300, 301, 302, 303, 304, 305, 306, 307, 308, 309, 310, 311, 312, 313, 314, 315, 316, 317, 318, 319, 320, 321, 322, 323, 324, 325, 326, 327, 328, 329, 330, 331, 332, 333, 334, 335, 336, 337, 338, 339, 340, 341, 342, 343, 344, 345, 346, 347, 348, 349, 350, 351, 352, 353, 354, 355, 356, 357, 358, 359, 360, 361, 362, 363, 364, 365, 366, 367, 368, 369, 370, 371, 372, 373, 374, 375, 376, 377, 378, 379, 380, 381, 382, 383, 384, 385, 386, 387, 388, 389, 390, 391, 392, 393, 394, 395, 396, 397, 398, 399, 400, 401, 402, 403, 404, 405, 406, 407, 408, 409, 410, 411, 412, 413, 414, 415, 416, 417, 418, 419, 420, 421, 422, 423, 424, 425, 426, 427, 428, 429, 430, 431, 432, 433, 434, 435, 436, 437, 438, 439, 440, 441, 442, 443, 444, 445, 446, 447, 448, 449, 450, 451, 452, 453, 454, 455, 456, 457, 458, 459, 460, 461, 462, 463, 464, 465, 466, 467, 468, 469, 470, 471, 472, 473, 474, 475, 476, 477, 478, 479, 480, 481, 482, 483, 484, 485, 486, 487, 488, 489, 490, 491, 492, 493, 494, 495, 496, 497, 498, 499, 500, 501, 502, 503, 504, 505, 506, 507, 508, 509, 510, 511, 512, 513, 514, 515, 516, 517, 518, 519, 520, 521, 522, 523, 524, 525, 526, 527, 528, 529, 530, 531, 532, 533, 534, 535, 536, 537, 538, 539, 540, 541, 542, 543, 544, 545, 546, 547, 548, 549, 550, 551, 552, 553, 554, 555, 556, 557, 558, 559, 560, 561, 562, 563, 564, 565, 566, 567, 568, 569, 570, 571, 572, 573, 574, 575, 576, 577, 578, 579, 580, 581, 582, 583, 584, 585, 586, 587, 588, 589, 590, 591, 592, 593, 594, 595, 596, 597, 598, 599, 600, 601, 602, 603, 604, 605, 606, 607, 608, 609, 610, 611, 612, 613, 614, 615, 616, 617, 618, 619, 620, 621, 622, 623, 624, 625, 626, 627, 628, 629, 630, 631, 632, 633, 634, 635, 636, 637, 638, 639, 640, 641, 642, 643, 644, 645, 646, 647, 648, 649, 650, 651, 652, 653, 654, 655, 656, 657, 658, 659, 660, 661, 662, 663, 664, 665, 666, 667, 668, 669, 670, 671, 672, 673, 674, 675, 676, 677, 678, 679, 680, 681, 682, 683, 684, 685, 686, 687, 688, 689, 690, 691, 692, 693, 694, 695, 696, 697, 698, 699, 700, 701, 702, 703, 704, 705, 706, 707, 708, 709, 710, 711, 712, 713, 714, 715, 716, 717, 718, 719, 720, 721, 722, 723, 724, 725, 726, 727, 728, 729, 730, 731, 732, 733, 734, 735, 736, 737, 738, 739, 740, 741, 742, 743, 744, 745, 746, 747, 748, 749, 750, 751, 752, 753, 754, 755, 756, 757, 758, 759, 760, 761, 762, 763, 764, 765, 766, 767, 768, 769, 770, 771, 772, 773, 774, 775, 776, 777, 778, 779, 780, 781, 782, 783, 784, 785, 786, 787, 788, 789, 790, 791, 792, 793, 794, 795, 796, 797, 798, 799, 800, 801, 802, 803, 804, 805, 806, 807, 808, 809, 810, 811, 812, 813, 814, 815, 816, 817, 818, 819, 820, 821, 822, 823, 824, 825, 826, 827, 828, 829, 830, 831, 832, 833, 834, 835, 836, 837, 838, 839, 840, 841, 842, 843, 844, 845, 846, 847, 848, 849, 850, 851, 852, 853, 854, 855, 856, 857, 858, 859, 860, 861, 862, 863, 864, 865, 866, 867, 868, 869, 870, 871, 872],
      "AcquisitionTime": ["175155.962500", "175156.422500", "175156.882500", "175157.342500", "175157.802500", "175158.262500", "175158.722500", "175159.182500", "175159.642500", "175200.102500", "175200.562500", "175201.022500", "175201.482500", "175201.942500", "175202.402500", "175202.862500", "175203.322500", "175203.782500", "175204.242500", "175204.702500", "175205.162500", "175205.622500", "175206.082500", "175206.542500", "175207.002500", "175207.462500", "175207.922500", "175208.382500", "175208.842500", "175209.302500", "175209.762500", "175210.222500", "175210.682500", "175211.142500", "175211.602500", "175212.062500", "175212.522500", "175212.982500", "175213.442500", "175213.902500", "175214.362500", "175214.822500", "175215.282500", "175215.742500", "175216.202500", "175216.662500", "175217.122500", "175217.582500", "175218.042500", "175218.502500", "175218.962500", "175219.422500", "175219.882500", "175220.342500", "175220.802500", "175221.262500", "175221.722500", "175222.182500", "175222.642500", "175223.102500", "175223.562500", "175224.022500", "175224.482500", "175224.942500", "175225.402500", "175225.862500", "175226.322500", "175226.782500", "175227.242500", "175227.702500", "175228.162500", "175228.622500", "175229.082500", "175229.542500", "175230.002500", "175230.462500", "175230.922500", "175231.382500", "175231.842500", "175232.302500", "175232.762500", "175233.222500", "175233.682500", "175234.142500", "175234.602500", "175235.062500", "175235.522500", "175235.982500", "175236.442500", "175236.902500", "175237.362500", "175237.822500", "175238.282500", "175238.742500", "175239.202500", "175239.662500", "175240.122500", "175240.582500", "175241.042500", "175241.502500", "175241.962500", "175242.422500", "175242.882500", "175243.342500", "175243.802500", "175244.262500", "175244.722500", "175245.182500", "175245.642500", "175246.102500", "175246.562500", "175247.022500", "175247.482500", "175247.942500", "175248.402500", "175248.862500", "175249.322500", "175249.782500", "175250.242500", "175250.702500", "175251.162500", "175251.622500", "175252.082500", "175252.542500", "175253.002500", "175253.462500", "175253.922500", "175254.382500", "175254.842500", "175255.302500", "175255.762500", "175256.222500", "175256.682500", "175257.142500", "175257.602500", "175258.062500", "175258.522500", "175258.982500", "175259.442500", "175259.902500", "175300.362500", "175300.822500", "175301.282500", "175301.742500", "175302.202500", "175302.662500", "175303.122500", "175303.582500", "175304.042500", "175304.502500", "175304.962500", "175305.422500", "175305.882500", "175306.342500", "175306.802500", "175307.262500", "175307.722500", "175308.182500", "175308.642500", "175309.102500", "175309.562500", "175310.022500", "175310.482500", "175310.942500", "175311.402500", "175311.862500", "175312.322500", "175312.782500", "175313.242500", "175313.702500", "175314.162500", "175314.622500", "175315.082500", "175315.542500", "175316.002500", "175316.462500", "175316.922500", "175317.382500", "175317.842500", "175318.302500", "175318.762500", "175319.222500", "175319.682500", "175320.142500", "175320.602500", "175321.062500", "175321.522500", "175321.982500", "175322.442500", "175322.902500", "175323.362500", "175323.822500", "175324.282500", "175324.742500", "175325.202500", "175325.662500", "175326.122500", "175326.582500", "175327.042500", "175327.502500", "175327.962500", "175328.422500", "175328.882500", "175329.342500", "175329.802500", "175330.262500", "175330.722500", "175331.182500", "175331.642500", "175332.102500", "175332.562500", "175333.022500", "175333.482500", "175333.942500", "175334.402500", "175334.862500", "175335.322500", "175335.782500", "175336.242500", "175336.702500", "175337.162500", "175337.622500", "175338.082500", "175338.542500", "175339.002500", "175339.462500", "175339.922500", "175340.382500", "175340.842500", "175341.302500", "175341.762500", "175342.222500", "175342.682500", "175343.142500", "175343.602500", "175344.062500", "175344.522500", "175344.982500", "175345.442500", "175345.902500", "175346.362500", "175346.822500", "175347.282500", "175347.742500", "175348.202500", "175348.662500", "175349.122500", "175349.582500", "175350.042500", "175350.502500", "175350.962500", "175351.422500", "175351.882500", "175352.342500", "175352.802500", "175353.262500", "175353.722500", "175354.182500", "175354.642500", "175355.102500", "175355.562500", "175356.022500", "175356.482500", "175356.942500", "175357.402500", "175357.862500", "175358.322500", "175358.782500", "175359.242500", "175359.702500", "175400.162500", "175400.622500", "175401.082500", "175401.542500", "175402.002500", "175402.462500", "175402.922500", "175403.382500", "175403.842500", "175404.302500", "175404.762500", "175405.222500", "175405.682500", "175406.142500", "175406.602500", "175407.062500", "175407.522500", "175407.982500", "175408.442500", "175408.902500", "175409.362500", "175409.822500", "175410.282500", "175410.742500", "175411.202500", "175411.662500", "175412.122500", "175412.582500", "175413.042500", "175413.502500", "175413.962500", "175414.422500", "175414.882500", "175415.342500", "175415.802500", "175416.262500", "175416.722500", "175417.182500", "175417.642500", "175418.102500", "175418.562500", "175419.022500", "175419.482500", "175419.942500", "175420.402500", "175420.862500", "175421.322500", "175421.782500", "175422.242500", "175422.702500", "175423.162500", "175423.622500", "175424.082500", "175424.542500", "175425.002500", "175425.462500", "175425.922500", "175426.382500", "175426.842500", "175427.302500", "175427.762500", "175428.222500", "175428.682500", "175429.142500", "175429.602500", "175430.062500", "175430.522500", "175430.982500", "175431.442500", "175431.902500", "175432.362500", "175432.822500", "175433.282500", "175433.742500", "175434.202500", "175434.662500", "175435.122500", "175435.582500", "175436.042500", "175436.502500", "175436.962500", "175437.422500", "175437.882500", "175438.342500", "175438.802500", "175439.262500", "175439.722500", "175440.182500", "175440.642500", "175441.102500", "175441.562500", "175442.022500", "175442.482500", "175442.942500", "175443.402500", "175443.862500", "175444.322500", "175444.782500", "175445.242500", "175445.702500", "175446.162500", "175446.622500", "175447.082500", "175447.542500", "175448.002500", "175448.462500", "175448.922500", "175449.382500", "175449.842500", "175450.302500", "175450.762500", "175451.222500", "175451.682500", "175452.142500", "175452.602500", "175453.062500", "175453.522500", "175453.982500", "175454.442500", "175454.902500", "175455.362500", "175455.822500", "175456.282500", "175456.742500", "175457.202500", "175457.662500", "175458.122500", "175458.582500", "175459.042500", "175459.502500", "175459.962500", "175500.422500", "175500.882500", "175501.342500", "175501.802500", "175502.262500", "175502.722500", "175503.182500", "175503.642500", "175504.102500", "175504.562500", "175505.022500", "175505.482500", "175505.942500", "175506.402500", "175506.862500", "175507.322500", "175507.782500", "175508.242500", "175508.702500", "175509.162500", "175509.622500", "175510.082500", "175510.542500", "175511.002500", "175511.462500", "175511.922500", "175512.382500", "175512.842500", "175513.302500", "175513.762500", "175514.222500", "175514.682500", "175515.142500", "175515.602500", "175516.062500", "175516.522500", "175516.982500", "175517.442500", "175517.902500", "175518.362500", "175518.822500", "175519.282500", "175519.742500", "175520.202500", "175520.662500", "175521.122500", "175521.582500", "175522.042500", "175522.502500", "175522.962500", "175523.422500", "175523.882500", "175524.342500", "175524.802500", "175525.262500", "175525.722500", "175526.182500", "175526.642500", "175527.102500", "175527.562500", "175528.022500", "175528.482500", "175528.942500", "175529.402500", "175529.862500", "175530.322500", "175530.782500", "175531.242500", "175531.702500", "175532.162500", "175532.622500", "175533.082500", "175533.542500", "175534.002500", "175534.462500", "175534.922500", "175535.382500", "175535.842500", "175536.302500", "175536.762500", "175537.222500", "175537.682500", "175538.142500", "175538.602500", "175539.062500", "175539.522500", "175539.982500", "175540.442500", "175540.902500", "175541.362500", "175541.822500", "175542.282500", "175542.742500", "175543.202500", "175543.662500", "175544.122500", "175544.582500", "175545.042500", "175545.502500", "175545.962500", "175546.422500", "175546.882500", "175547.342500", "175547.802500", "175548.262500", "175548.722500", "175549.182500", "175549.642500", "175550.102500", "175550.562500", "175551.022500", "175551.482500", "175551.942500", "175552.402500", "175552.862500", "175553.322500", "175553.782500", "175554.242500", "175554.702500", "175555.162500", "175555.622500", "175556.082500", "175556.542500", "175557.002500", "175557.462500", "175557.922500", "175558.382500", "175558.842500", "175559.302500", "175559.762500", "175600.222500", "175600.682500", "175601.142500", "175601.602500", "175602.062500", "175602.522500", "175602.982500", "175603.442500", "175603.902500", "175604.362500", "175604.822500", "175605.282500", "175605.742500", "175606.202500", "175606.662500", "175607.122500", "175607.582500", "175608.042500", "175608.502500", "175608.962500", "175609.422500", "175609.882500", "175610.342500", "175610.802500", "175611.262500", "175611.722500", "175612.182500", "175612.642500", "175613.102500", "175613.562500", "175614.022500", "175614.482500", "175614.942500", "175615.402500", "175615.862500", "175616.322500", "175616.782500", "175617.242500", "175617.702500", "175618.162500", "175618.622500", "175619.082500", "175619.542500", "175620.002500", "175620.462500", "175620.922500", "175621.382500", "175621.842500", "175622.302500", "175622.762500", "175623.222500", "175623.682500", "175624.142500", "175624.602500", "175625.062500", "175625.522500", "175625.982500", "175626.442500", "175626.902500", "175627.362500", "175627.822500", "175628.282500", "175628.742500", "175629.202500", "175629.662500", "175630.122500", "175630.582500", "175631.042500", "175631.502500", "175631.962500", "175632.422500", "175632.882500", "175633.342500", "175633.802500", "175634.262500", "175634.722500", "175635.182500", "175635.642500", "175636.102500", "175636.562500", "175637.022500", "175637.482500", "175637.942500", "175638.402500", "175638.862500", "175639.322500", "175639.782500", "175640.242500", "175640.702500", "175641.162500", "175641.622500", "175642.082500", "175642.542500", "175643.002500", "175643.462500", "175643.922500", "175644.382500", "175644.842500", "175645.302500", "175645.762500", "175646.222500", "175646.682500", "175647.142500", "175647.602500", "175648.062500", "175648.522500", "175648.982500", "175649.442500", "175649.902500", "175650.362500", "175650.822500", "175651.282500", "175651.742500", "175652.202500", "175652.662500", "175653.122500", "175653.582500", "175654.042500", "175654.502500", "175654.962500", "175655.422500", "175655.882500", "175656.342500", "175656.802500", "175657.262500", "175657.722500", "175658.182500", "175658.642500", "175659.102500", "175659.562500", "175700.022500", "175700.482500", "175700.942500", "175701.402500", "175701.862500", "175702.322500", "175702.782500", "175703.242500", "175703.702500", "175704.162500", "175704.622500", "175705.082500", "175705.542500", "175706.002500", "175706.462500", "175706.922500", "175707.382500", "175707.842500", "175708.302500", "175708.762500", "175709.222500", "175709.682500", "175710.142500", "175710.602500", "175711.062500", "175711.522500", "175711.982500", "175712.442500", "175712.902500", "175713.362500", "175713.822500", "175714.282500", "175714.742500", "175715.202500", "175715.662500", "175716.122500", "175716.582500", "175717.042500", "175717.502500", "175717.962500", "175718.422500", "175718.882500", "175719.342500", "175719.802500", "175720.262500", "175720.722500", "175721.182500", "175721.642500", "175722.102500", "175722.562500", "175723.022500", "175723.482500", "175723.942500", "175724.402500", "175724.862500", "175725.322500", "175725.782500", "175726.242500", "175726.702500", "175727.162500", "175727.622500", "175728.082500", "175728.542500", "175729.002500", "175729.462500", "175729.922500", "175730.382500", "175730.842500", "175731.302500", "175731.762500", "175732.222500", "175732.682500", "175733.142500", "175733.602500", "175734.062500", "175734.522500", "175734.982500", "175735.442500", "175735.902500", "175736.362500", "175736.822500", "175737.282500", "175737.742500", "175738.202500", "175738.662500", "175739.122500", "175739.582500", "175740.042500", "175740.502500", "175740.962500", "175741.422500", "175741.882500", "175742.342500", "175742.802500", "175743.262500", "175743.722500", "175744.182500", "175744.642500", "175745.102500", "175745.562500", "175746.022500", "175746.482500", "175746.942500", "175747.402500", "175747.862500", "175748.322500", "175748.782500", "175749.242500", "175749.702500", "175750.162500", "175750.622500", "175751.082500", "175751.542500", "175752.002500", "175752.462500", "175752.922500", "175753.382500", "175753.842500", "175754.302500", "175754.762500", "175755.222500", "175755.682500", "175756.142500", "175756.602500", "175757.062500", "175757.522500", "175757.982500", "175758.442500", "175758.902500", "175759.362500", "175759.822500", "175800.282500", "175800.742500", "175801.202500", "175801.662500", "175802.122500", "175802.582500", "175803.042500", "175803.502500", "175803.962500", "175804.422500", "175804.882500", "175805.342500", "175805.802500", "175806.262500", "175806.722500", "175807.182500", "175807.642500", "175808.102500", "175808.562500", "175809.022500", "175809.482500", "175809.942500", "175810.402500", "175810.862500", "175811.322500", "175811.782500", "175812.242500", "175812.702500", "175813.162500", "175813.622500", "175814.082500", "175814.542500", "175815.002500", "175815.462500", "175815.922500", "175816.382500", "175816.842500", "175817.302500", "175817.762500", "175818.222500", "175818.682500", "175819.142500", "175819.602500", "175820.062500", "175820.522500", "175820.982500", "175821.442500", "175821.902500", "175822.362500", "175822.822500", "175823.282500", "175823.742500", "175824.202500", "175824.662500", "175825.122500", "175825.582500", "175826.042500", "175826.502500", "175826.962500", "175827.422500", "175827.882500", "175828.342500", "175828.802500", "175829.262500", "175829.722500", "175830.182500", "175830.642500", "175831.102500", "175831.562500", "175832.022500", "175832.482500", "175832.942500", "175833.402500", "175833.862500", "175834.322500", "175834.782500", "175835.242500", "175835.702500", "175836.162500", "175836.622500"],
