{
  "AcquisitionMatrixPE": 82,
  "AcquisitionNumber": 1,
  "AcquisitionTime": "18:07:45.637500",
  "BandwidthPerPixelPhaseEncode": 24.888,
  "BaseResolution": 82,
  "BodyPartExamined": "BRAIN",
  "ConsistencyInfo": "N4_VE11E_LATEST_20181129",
  "ConversionSoftware": "dcm2niix",
  "ConversionSoftwareVersion": "v1.0.20201102",
  "DerivedVendorReportedEchoSpacing": 0.00049,
  "DeviceSerialNumber": "66112",
  "DwellTime": 2e-06,
  "EchoTime": 0.0272,
  "EchoTrainLength": 82,
  "EffectiveEchoSpacing": 0.00049,
  "FlipAngle": 44,
  "ImageComments": "Unaliased MB8/PE3",
  "ImageOrientationPatientDICOM": [0.999809, -0.0108236, 0.0162795, 0.00872524, 0.992262, 0.123854],
  "ImageType": [
    "ORIGINAL",
    "PRIMARY",
    "M",
    "MB",
    "ND",
    "NORM",
    "MOSAIC"
],
  "ImagingFrequency": 123.259,
  "InPlanePhaseEncodingDirectionDICOM": "COL",
  "InstitutionAddress": "Maynard 3,Hanover,NH,US,03755",
  "InstitutionName": "Dartmouth College - PBS",
  "InstitutionalDepartmentName": "Department",
  "MRAcquisitionType": "2D",
  "MagneticFieldStrength": 3,
  "Manufacturer": "Siemens",
  "ManufacturersModelName": "Prisma",
  "Modality": "MR",
  "MultibandAccelerationFactor": 8,
  "PartialFourier": 1,
  "PatientPosition": "HFS",
  "PercentPhaseFOV": 100,
  "PercentSampling": 100,
  "PhaseEncodingDirection": "j-",
  "PhaseEncodingSteps": 82,
  "PhaseResolution": 1,
  "PixelBandwidth": 3050,
  "ProcedureStepDescription": "Wager_Wager^1076_spacetop",
  "ProtocolName": "func_run-06_task-social_acq-ap-mb8",
  "PulseSequenceDetails": "%CustomerSeq%\\cmrr_mbep2d_bold",
  "ReceiveCoilActiveElements": "HEA;HEP",
  "ReceiveCoilName": "Head_32",
  "ReconMatrixPE": 82,
  "RepetitionTime": 0.46,
  "SAR": 0.092308,
  "ScanOptions": "FS",
  "ScanningSequence": "EP",
  "SequenceName": "epfid2d1_82",
  "SequenceVariant": "SK\\SS",
  "SeriesDescription": "func_run-06_task-social_acq-ap-mb8",
  "SeriesNumber": 22,
  "ShimSetting": [4222, -7803, -7217, 438, -114, -120, -9, 59],
  "SliceThickness": 2.7,
  "SliceTiming": [0, 0.25, 0.0625, 0.3125, 0.125, 0.375, 0.1875, 0, 0.25, 0.0625, 0.3125, 0.125, 0.375, 0.1875, 0, 0.25, 0.0625, 0.3125, 0.125, 0.375, 0.1875, 0, 0.25, 0.0625, 0.3125, 0.125, 0.375, 0.1875, 0, 0.25, 0.0625, 0.3125, 0.125, 0.375, 0.1875, 0, 0.25, 0.0625, 0.3125, 0.125, 0.375, 0.1875, 0, 0.25, 0.0625, 0.3125, 0.125, 0.375, 0.1875, 0, 0.25, 0.0625, 0.3125, 0.125, 0.375, 0.1875],
  "SoftwareVersions": "syngo MR E11",
  "SpacingBetweenSlices": 2.7,
  "StationName": "AWP66112",
  "TaskName": "social",
  "TotalReadoutTime": 0.03969,
  "TxRefAmp": 230.982,
  "WipMemBlock": "727cb50d-eb07-4306-a776-96da32aa83f5||Sequence: R016 ve11e/master r/434b28f1; Aug  7 2019 18:53:46 by eja",
  "dcmmeta_affine": [
    [-2.6824140548706055, 0.023409191519021988, 0.04723411053419113, 108.91999816894531],
    [0.029038982465863228, 2.6621665954589844, 0.33395934104919434, -115.51084899902344],
    [0.043676797300577164, -0.3322921693325043, 2.6788504123687744, -54.83186340332031],
    [0.0, 0.0, 0.0, 1.0]
],
  "dcmmeta_reorient_transform": [
    [0.0, -1.0, 0.0, 81.0],
    [1.0, 0.0, 0.0, 0.0],
    [0.0, 0.0, 1.0, 0.0],
    [0.0, 0.0, 0.0, 1.0]
],
  "dcmmeta_shape": [82, 82, 56, 872],
  "dcmmeta_slice_dim": 2,
  "dcmmeta_version": 0.6,
  "global": {
    "const": {
      "AccessionNumber": "A004834",
      "AcquisitionMatrix": [82, 0, 0, 82],
      "AngioFlag": "N",
      "BitsAllocated": 16,
      "BitsStored": 16,
      "BodyPartExamined": "BRAIN",
      "Columns": 656,
      "EchoNumbers": 1,
      "EchoTime": 27.2,
      "EchoTrainLength": 82,
      "FlipAngle": 44.0,
      "HighBit": 15,
      "ImageOrientationPatient": [0.99980889475301, -0.010823620416, 0.01627953358866, 0.00872524403212, 0.99226204633022, 0.12385435611699],
      "ImagePositionPatient": [-887.38744921258, -855.83224917991, -189.65062769994],
      "ImageType": [
        "ORIGINAL",
        "PRIMARY",
        "M",
        "MB",
        "ND",
        "NORM",
        "MOSAIC"
],
      "ImagedNucleus": "1H",
      "ImagingFrequency": 123.259089,
      "InPlanePhaseEncodingDirection": "COL",
      "MRAcquisitionType": "2D",
      "MagneticFieldStrength": 3.0,
      "Manufacturer": "SIEMENS",
      "ManufacturerModelName": "Prisma",
      "Modality": "MR",
      "NumberOfAverages": 1.0,
      "NumberOfPhaseEncodingSteps": 82,
      "PercentPhaseFieldOfView": 100.0,
      "PercentSampling": 100.0,
      "PerformedProcedureStepStartTime": "164516.605000",
      "PhotometricInterpretation": "MONOCHROME2",
      "PixelBandwidth": 3050.0,
      "PixelRepresentation": 0,
      "PixelSpacing": [2.6829268932343, 2.6829268932343],
      "ProtocolName": "func_run-06_task-social_acq-ap-mb8",
      "RepetitionTime": 460.0,
      "Rows": 656,
      "SAR": 0.09230797047096,
      "SamplesPerPixel": 1,
      "ScanOptions": "FS",
      "ScanningSequence": "EP",
      "SequenceName": "epfid2d1_82",
      "SequenceVariant": [
        "SK",
        "SS"
],
      "SeriesDescription": "func_run-06_task-social_acq-ap-mb8",
      "SeriesNumber": 22,
      "SeriesTime": "180759.941000",
      "SliceLocation": -66.784278282736,
      "SliceThickness": 2.7000000476837,
      "SmallestImagePixelValue": 0,
      "SoftwareVersions": "syngo MR E11",
      "SpacingBetweenSlices": 2.6999999667651,
      "SpecificCharacterSet": "ISO_IR 100",
      "StudyID": "1",
      "StudyTime": "164516.543000",
      "TransmitCoilName": "Body",
      "VariableFlipAngleFlag": "N",
      "WindowCenterWidthExplanation": "Algo1"
    },
    "slices": {}
  },
  "time": {
    "samples": {
      "AcquisitionNumber": [1, 2, 3, 4, 5, 6, 7, 8, 9, 10, 11, 12, 13, 14, 15, 16, 17, 18, 19, 20, 21, 22, 23, 24, 25, 26, 27, 28, 29, 30, 31, 32, 33, 34, 35, 36, 37, 38, 39, 40, 41, 42, 43, 44, 45, 46, 47, 48, 49, 50, 51, 52, 53, 54, 55, 56, 57, 58, 59, 60, 61, 62, 63, 64, 65, 66, 67, 68, 69, 70, 71, 72, 73, 74, 75, 76, 77, 78, 79, 80, 81, 82, 83, 84, 85, 86, 87, 88, 89, 90, 91, 92, 93, 94, 95, 96, 97, 98, 99, 100, 101, 102, 103, 104, 105, 106, 107, 108, 109, 110, 111, 112, 113, 114, 115, 116, 117, 118, 119, 120, 121, 122, 123, 124, 125, 126, 127, 128, 129, 130, 131, 132, 133, 134, 135, 136, 137, 138, 139, 140, 141, 142, 143, 144, 145, 146, 147, 148, 149, 150, 151, 152, 153, 154, 155, 156, 157, 158, 159, 160, 161, 162, 163, 164, 165, 166, 167, 168, 169, 170, 171, 172, 173, 174, 175, 176, 177, 178, 179, 180, 181, 182, 183, 184, 185, 186, 187, 188, 189, 190, 191, 192, 193, 194, 195, 196, 197, 198, 199, 200, 201, 202, 203, 204, 205, 206, 207, 208, 209, 210, 211, 212, 213, 214, 215, 216, 217, 218, 219, 220, 221, 222, 223, 224, 225, 226, 227, 228, 229, 230, 231, 232, 233, 234, 235, 236, 237, 238, 239, 240, 241, 242, 243, 244, 245, 246, 247, 248, 249, 250, 251, 252, 253, 254, 255, 256, 257, 258, 259, 260, 261, 262, 263, 264, 265, 266, 267, 268, 269, 270, 271, 272, 273, 274, 275, 276, 277, 278, 279, 280, 281, 282, 283, 284, 285, 286, 287, 288, 289, 290, 291, 292, 293, 294, 295, 296, 297, 298, 299, 300, 301, 302, 303, 304, 305, 306, 307, 308, 309, 310, 311, 312, 313, 314, 315, 316, 317, 318, 319, 320, 321, 322, 323, 324, 325, 326, 327, 328, 329, 330, 331, 332, 333, 334, 335, 336, 337, 338, 339, 340, 341, 342, 343, 344, 345, 346, 347, 348, 349, 350, 351, 352, 353, 354, 355, 356, 357, 358, 359, 360, 361, 362, 363, 364, 365, 366, 367, 368, 369, 370, 371, 372, 373, 374, 375, 376, 377, 378, 379, 380, 381, 382, 383, 384, 385, 386, 387, 388, 389, 390, 391, 392, 393, 394, 395, 396, 397, 398, 399, 400, 401, 402, 403, 404, 405, 406, 407, 408, 409, 410, 411, 412, 413, 414, 415, 416, 417, 418, 419, 420, 421, 422, 423, 424, 425, 426, 427, 428, 429, 430, 431, 432, 433, 434, 435, 436, 437, 438, 439, 440, 441, 442, 443, 444, 445, 446, 447, 448, 449, 450, 451, 452, 453, 454, 455, 456, 457, 458, 459, 460, 461, 462, 463, 464, 465, 466, 467, 468, 469, 470, 471, 472, 473, 474, 475, 476, 477, 478, 479, 480, 481, 482, 483, 484, 485, 486, 487, 488, 489, 490, 491, 492, 493, 494, 495, 496, 497, 498, 499, 500, 501, 502, 503, 504, 505, 506, 507, 508, 509, 510, 511, 512, 513, 514, 515, 516, 517, 518, 519, 520, 521, 522, 523, 524, 525, 526, 527, 528, 529, 530, 531, 532, 533, 534, 535, 536, 537, 538, 539, 540, 541, 542, 543, 544, 545, 546, 547, 548, 549, 550, 551, 552, 553, 554, 555, 556, 557, 558, 559, 560, 561, 562, 563, 564, 565, 566, 567, 568, 569, 570, 571, 572, 573, 574, 575, 576, 577, 578, 579, 580, 581, 582, 583, 584, 585, 586, 587, 588, 589, 590, 591, 592, 593, 594, 595, 596, 597, 598, 599, 600, 601, 602, 603, 604, 605, 606, 607, 608, 609, 610, 611, 612, 613, 614, 615, 616, 617, 618, 619, 620, 621, 622, 623, 624, 625, 626, 627, 628, 629, 630, 631, 632, 633, 634, 635, 636, 637, 638, 639, 640, 641, 642, 643, 644, 645, 646, 647, 648, 649, 650, 651, 652, 653, 654, 655, 656, 657, 658, 659, 660, 661, 662, 663, 664, 665, 666, 667, 668, 669, 670, 671, 672, 673, 674, 675, 676, 677, 678, 679, 680, 681, 682, 683, 684, 685, 686, 687, 688, 689, 690, 691, 692, 693, 694, 695, 696, 697, 698, 699, 700, 701, 702, 703, 704, 705, 706, 707, 708, 709, 710, 711, 712, 713, 714, 715, 716, 717, 718, 719, 720, 721, 722, 723, 724, 725, 726, 727, 728, 729, 730, 731, 732, 733, 734, 735, 736, 737, 738, 739, 740, 741, 742, 743, 744, 745, 746, 747, 748, 749, 750, 751, 752, 753, 754, 755, 756, 757, 758, 759, 760, 761, 762, 763, 764, 765, 766, 767, 768, 769, 770, 771, 772, 773, 774, 775, 776, 777, 778, 779, 780, 781, 782, 783, 784, 785, 786, 787, 788, 789, 790, 791, 792, 793, 794, 795, 796, 797, 798, 799, 800, 801, 802, 803, 804, 805, 806, 807, 808, 809, 810, 811, 812, 813, 814, 815, 816, 817, 818, 819, 820, 821, 822, 823, 824, 825, 826, 827, 828, 829, 830, 831, 832, 833, 834, 835, 836, 837, 838, 839, 840, 841, 842, 843, 844, 845, 846, 847, 848, 849, 850, 851, 852, 853, 854, 855, 856, 857, 858, 859, 860, 861, 862, 863, 864, 865, 866, 867, 868, 869, 870, 871, 872],
      "AcquisitionTime": ["180745.637500", "180746.097500", "180746.557500", "180747.017500", "180747.477500", "180747.937500", "180748.397500", "180748.857500", "180749.317500", "180749.777500", "180750.237500", "180750.697500", "180751.157500", "180751.617500", "180752.077500", "180752.537500", "180752.997500", "180753.457500", "180753.917500", "180754.377500", "180754.837500", "180755.297500", "180755.757500", "180756.217500", "180756.677500", "180757.137500", "180757.597500", "180758.057500", "180758.517500", "180758.977500", "180759.437500", "180759.897500", "180800.357500", "180800.817500", "180801.277500", "180801.737500", "180802.197500", "180802.657500", "180803.117500", "180803.577500", "180804.037500", "180804.497500", "180804.957500", "180805.417500", "180805.877500", "180806.337500", "180806.797500", "180807.257500", "180807.717500", "180808.177500", "180808.637500", "180809.097500", "180809.557500", "180810.017500", "180810.477500", "180810.937500", "180811.397500", "180811.857500", "180812.317500", "180812.777500", "180813.237500", "180813.697500", "180814.157500", "180814.617500", "180815.077500", "180815.537500", "180815.997500", "180816.457500", "180816.917500", "180817.377500", "180817.837500", "180818.297500", "180818.757500", "180819.217500", "180819.677500", "180820.137500", "180820.597500", "180821.057500", "180821.517500", "180821.977500", "180822.437500", "180822.897500", "180823.357500", "180823.817500", "180824.277500", "180824.737500", "180825.197500", "180825.657500", "180826.117500", "180826.577500", "180827.037500", "180827.497500", "180827.957500", "180828.417500", "180828.877500", "180829.337500", "180829.797500", "180830.257500", "180830.717500", "180831.177500", "180831.637500", "180832.097500", "180832.557500", "180833.017500", "180833.477500", "180833.937500", "180834.397500", "180834.857500", "180835.317500", "180835.777500", "180836.237500", "180836.697500", "180837.157500", "180837.617500", "180838.077500", "180838.537500", "180838.997500", "180839.457500", "180839.917500", "180840.377500", "180840.837500", "180841.297500", "180841.757500", "180842.217500", "180842.677500", "180843.137500", "180843.597500", "180844.057500", "180844.517500", "180844.977500", "180845.437500", "180845.897500", "180846.357500", "180846.817500", "180847.277500", "180847.737500", "180848.197500", "180848.657500", "180849.117500", "180849.577500", "180850.037500", "180850.497500", "180850.957500", "180851.417500", "180851.877500", "180852.337500", "180852.797500", "180853.257500", "180853.717500", "180854.177500", "180854.637500", "180855.097500", "180855.557500", "180856.017500", "180856.477500", "180856.937500", "180857.397500", "180857.857500", "180858.317500", "180858.777500", "180859.237500", "180859.697500", "180900.157500", "180900.617500", "180901.077500", "180901.537500", "180901.997500", "180902.457500", "180902.917500", "180903.377500", "180903.837500", "180904.297500", "180904.757500", "180905.217500", "180905.677500", "180906.137500", "180906.597500", "180907.057500", "180907.517500", "180907.977500", "180908.437500", "180908.897500", "180909.357500", "180909.817500", "180910.277500", "180910.737500", "180911.197500", "180911.657500", "180912.117500", "180912.577500", "180913.037500", "180913.497500", "180913.957500", "180914.417500", "180914.877500", "180915.337500", "180915.797500", "180916.257500", "180916.717500", "180917.177500", "180917.637500", "180918.097500", "180918.557500", "180919.017500", "180919.477500", "180919.937500", "180920.397500", "180920.857500", "180921.317500", "180921.777500", "180922.237500", "180922.697500", "180923.157500", "180923.617500", "180924.077500", "180924.537500", "180924.997500", "180925.457500", "180925.917500", "180926.377500", "180926.837500", "180927.297500", "180927.757500", "180928.217500", "180928.677500", "180929.137500", "180929.597500", "180930.057500", "180930.517500", "180930.977500", "180931.437500", "180931.897500", "180932.357500", "180932.817500", "180933.277500", "180933.737500", "180934.197500", "180934.657500", "180935.117500", "180935.577500", "180936.037500", "180936.497500", "180936.957500", "180937.417500", "180937.877500", "180938.337500", "180938.797500", "180939.257500", "180939.717500", "180940.177500", "180940.637500", "180941.097500", "180941.557500", "180942.017500", "180942.477500", "180942.937500", "180943.397500", "180943.857500", "180944.317500", "180944.777500", "180945.237500", "180945.697500", "180946.157500", "180946.617500", "180947.077500", "180947.537500", "180947.997500", "180948.457500", "180948.917500", "180949.377500", "180949.837500", "180950.297500", "180950.757500", "180951.217500", "180951.677500", "180952.137500", "180952.597500", "180953.057500", "180953.517500", "180953.977500", "180954.437500", "180954.897500", "180955.357500", "180955.817500", "180956.277500", "180956.737500", "180957.197500", "180957.657500", "180958.117500", "180958.577500", "180959.037500", "180959.497500", "180959.957500", "181000.417500", "181000.877500", "181001.337500", "181001.797500", "181002.257500", "181002.717500", "181003.177500", "181003.637500", "181004.097500", "181004.557500", "181005.017500", "181005.477500", "181005.937500", "181006.397500", "181006.857500", "181007.317500", "181007.777500", "181008.237500", "181008.697500", "181009.157500", "181009.617500", "181010.077500", "181010.537500", "181010.997500", "181011.457500", "181011.917500", "181012.377500", "181012.837500", "181013.297500", "181013.757500", "181014.217500", "181014.677500", "181015.137500", "181015.597500", "181016.057500", "181016.517500", "181016.977500", "181017.437500", "181017.897500", "181018.357500", "181018.817500", "181019.277500", "181019.737500", "181020.197500", "181020.657500", "181021.117500", "181021.577500", "181022.037500", "181022.497500", "181022.957500", "181023.417500", "181023.877500", "181024.337500", "181024.797500", "181025.257500", "181025.717500", "181026.177500", "181026.637500", "181027.097500", "181027.557500", "181028.017500", "181028.477500", "181028.937500", "181029.397500", "181029.857500", "181030.317500", "181030.777500", "181031.237500", "181031.697500", "181032.157500", "181032.617500", "181033.077500", "181033.537500", "181033.997500", "181034.457500", "181034.917500", "181035.377500", "181035.837500", "181036.297500", "181036.757500", "181037.217500", "181037.677500", "181038.137500", "181038.597500", "181039.057500", "181039.517500", "181039.977500", "181040.437500", "181040.897500", "181041.357500", "181041.817500", "181042.277500", "181042.737500", "181043.197500", "181043.657500", "181044.117500", "181044.577500", "181045.037500", "181045.497500", "181045.957500", "181046.417500", "181046.877500", "181047.337500", "181047.797500", "181048.257500", "181048.717500", "181049.177500", "181049.637500", "181050.097500", "181050.557500", "181051.017500", "181051.477500", "181051.937500", "181052.397500", "181052.857500", "181053.317500", "181053.777500", "181054.237500", "181054.697500", "181055.157500", "181055.617500", "181056.077500", "181056.537500", "181056.997500", "181057.457500", "181057.917500", "181058.377500", "181058.837500", "181059.297500", "181059.757500", "181100.217500", "181100.677500", "181101.137500", "181101.597500", "181102.057500", "181102.517500", "181102.977500", "181103.437500", "181103.897500", "181104.357500", "181104.817500", "181105.277500", "181105.737500", "181106.197500", "181106.657500", "181107.117500", "181107.577500", "181108.037500", "181108.497500", "181108.957500", "181109.417500", "181109.877500", "181110.337500", "181110.797500", "181111.257500", "181111.717500", "181112.177500", "181112.637500", "181113.097500", "181113.557500", "181114.017500", "181114.477500", "181114.937500", "181115.397500", "181115.857500", "181116.317500", "181116.777500", "181117.237500", "181117.697500", "181118.157500", "181118.617500", "181119.077500", "181119.537500", "181119.997500", "181120.457500", "181120.917500", "181121.377500", "181121.837500", "181122.297500", "181122.757500", "181123.217500", "181123.677500", "181124.137500", "181124.597500", "181125.057500", "181125.517500", "181125.977500", "181126.437500", "181126.897500", "181127.357500", "181127.817500", "181128.277500", "181128.737500", "181129.197500", "181129.657500", "181130.117500", "181130.577500", "181131.037500", "181131.497500", "181131.957500", "181132.417500", "181132.877500", "181133.337500", "181133.797500", "181134.257500", "181134.717500", "181135.177500", "181135.637500", "181136.097500", "181136.557500", "181137.017500", "181137.477500", "181137.937500", "181138.397500", "181138.857500", "181139.317500", "181139.777500", "181140.237500", "181140.697500", "181141.157500", "181141.617500", "181142.077500", "181142.537500", "181142.997500", "181143.457500", "181143.917500", "181144.377500", "181144.837500", "181145.297500", "181145.757500", "181146.217500", "181146.677500", "181147.137500", "181147.597500", "181148.057500", "181148.517500", "181148.977500", "181149.437500", "181149.897500", "181150.357500", "181150.817500", "181151.277500", "181151.737500", "181152.197500", "181152.657500", "181153.117500", "181153.577500", "181154.037500", "181154.497500", "181154.957500", "181155.417500", "181155.877500", "181156.337500", "181156.797500", "181157.257500", "181157.717500", "181158.177500", "181158.637500", "181159.097500", "181159.557500", "181200.017500", "181200.477500", "181200.937500", "181201.397500", "181201.857500", "181202.317500", "181202.777500", "181203.237500", "181203.697500", "181204.157500", "181204.617500", "181205.077500", "181205.537500", "181205.997500", "181206.457500", "181206.917500", "181207.377500", "181207.837500", "181208.297500", "181208.757500", "181209.217500", "181209.677500", "181210.137500", "181210.597500", "181211.057500", "181211.517500", "181211.977500", "181212.437500", "181212.897500", "181213.357500", "181213.817500", "181214.277500", "181214.737500", "181215.197500", "181215.657500", "181216.117500", "181216.577500", "181217.037500", "181217.497500", "181217.957500", "181218.417500", "181218.877500", "181219.337500", "181219.797500", "181220.257500", "181220.717500", "181221.177500", "181221.637500", "181222.097500", "181222.557500", "181223.017500", "181223.477500", "181223.937500", "181224.397500", "181224.857500", "181225.317500", "181225.777500", "181226.237500", "181226.697500", "181227.157500", "181227.617500", "181228.077500", "181228.537500", "181228.997500", "181229.457500", "181229.917500", "181230.377500", "181230.837500", "181231.297500", "181231.757500", "181232.217500", "181232.677500", "181233.137500", "181233.597500", "181234.057500", "181234.517500", "181234.977500", "181235.437500", "181235.897500", "181236.357500", "181236.817500", "181237.277500", "181237.737500", "181238.197500", "181238.657500", "181239.117500", "181239.577500", "181240.037500", "181240.497500", "181240.957500", "181241.417500", "181241.877500", "181242.337500", "181242.797500", "181243.257500", "181243.717500", "181244.177500", "181244.637500", "181245.097500", "181245.557500", "181246.017500", "181246.477500", "181246.937500", "181247.397500", "181247.857500", "181248.317500", "181248.777500", "181249.237500", "181249.697500", "181250.157500", "181250.617500", "181251.077500", "181251.537500", "181251.997500", "181252.457500", "181252.917500", "181253.377500", "181253.837500", "181254.297500", "181254.757500", "181255.217500", "181255.677500", "181256.137500", "181256.597500", "181257.057500", "181257.517500", "181257.977500", "181258.437500", "181258.897500", "181259.357500", "181259.817500", "181300.277500", "181300.737500", "181301.197500", "181301.657500", "181302.117500", "181302.577500", "181303.037500", "181303.497500", "181303.957500", "181304.417500", "181304.877500", "181305.337500", "181305.797500", "181306.257500", "181306.717500", "181307.177500", "181307.637500", "181308.097500", "181308.557500", "181309.017500", "181309.477500", "181309.937500", "181310.397500", "181310.857500", "181311.317500", "181311.777500", "181312.237500", "181312.697500", "181313.157500", "181313.617500", "181314.077500", "181314.537500", "181314.997500", "181315.457500", "181315.917500", "181316.377500", "181316.837500", "181317.297500", "181317.757500", "181318.217500", "181318.677500", "181319.137500", "181319.597500", "181320.057500", "181320.517500", "181320.977500", "181321.437500", "181321.897500", "181322.357500", "181322.817500", "181323.277500", "181323.737500", "181324.197500", "181324.657500", "181325.117500", "181325.577500", "181326.037500", "181326.497500", "181326.957500", "181327.417500", "181327.877500", "181328.337500", "181328.797500", "181329.257500", "181329.717500", "181330.177500", "181330.637500", "181331.097500", "181331.557500", "181332.017500", "181332.477500", "181332.937500", "181333.397500", "181333.857500", "181334.317500", "181334.777500", "181335.237500", "181335.697500", "181336.157500", "181336.617500", "181337.077500", "181337.537500", "181337.997500", "181338.457500", "181338.917500", "181339.377500", "181339.837500", "181340.297500", "181340.757500", "181341.217500", "181341.677500", "181342.137500", "181342.597500", "181343.057500", "181343.517500", "181343.977500", "181344.437500", "181344.897500", "181345.357500", "181345.817500", "181346.277500", "181346.737500", "181347.197500", "181347.657500", "181348.117500", "181348.577500", "181349.037500", "181349.497500", "181349.957500", "181350.417500", "181350.877500", "181351.337500", "181351.797500", "181352.257500", "181352.717500", "181353.177500", "181353.637500", "181354.097500", "181354.557500", "181355.017500", "181355.477500", "181355.937500", "181356.397500", "181356.857500", "181357.317500", "181357.777500", "181358.237500", "181358.697500", "181359.157500", "181359.617500", "181400.077500", "181400.537500", "181400.997500", "181401.457500", "181401.917500", "181402.377500", "181402.837500", "181403.297500", "181403.757500", "181404.217500", "181404.677500", "181405.137500", "181405.597500", "181406.057500", "181406.517500", "181406.977500", "181407.437500", "181407.897500", "181408.357500", "181408.817500", "181409.277500", "181409.737500", "181410.197500", "181410.657500", "181411.117500", "181411.577500", "181412.037500", "181412.497500", "181412.957500", "181413.417500", "181413.877500", "181414.337500", "181414.797500", "181415.257500", "181415.717500", "181416.177500", "181416.637500", "181417.097500", "181417.557500", "181418.017500", "181418.477500", "181418.937500", "181419.397500", "181419.857500", "181420.317500", "181420.777500", "181421.237500", "181421.697500", "181422.157500", "181422.617500", "181423.077500", "181423.537500", "181423.997500", "181424.457500", "181424.917500", "181425.377500", "181425.837500", "181426.297500"],
