{
  "AcquisitionMatrixPE": 82,
  "AcquisitionNumber": 1,
  "AcquisitionTime": "17:37:55.177500",
  "BandwidthPerPixelPhaseEncode": 24.888,
  "BaseResolution": 82,
  "BodyPartExamined": "BRAIN",
  "ConsistencyInfo": "N4_VE11E_LATEST_20181129",
  "ConversionSoftware": "dcm2niix",
  "ConversionSoftwareVersion": "v1.0.20201102",
  "DerivedVendorReportedEchoSpacing": 0.00049,
  "DeviceSerialNumber": "66112",
  "DwellTime": 2e-06,
  "EchoTime": 0.0272,
  "EchoTrainLength": 82,
  "EffectiveEchoSpacing": 0.00049,
  "FlipAngle": 44,
  "ImageComments": "Unaliased MB8/PE3",
  "ImageOrientationPatientDICOM": [0.999809, -0.0108236, 0.0162795, 0.00872524, 0.992262, 0.123854],
  "ImageType": [
    "ORIGINAL",
    "PRIMARY",
    "M",
    "MB",
    "ND",
    "NORM",
    "MOSAIC"
],
  "ImagingFrequency": 123.259,
  "InPlanePhaseEncodingDirectionDICOM": "COL",
  "InstitutionAddress": "Maynard 3,Hanover,NH,US,03755",
  "InstitutionName": "Dartmouth College - PBS",
  "InstitutionalDepartmentName": "Department",
  "MRAcquisitionType": "2D",
  "MagneticFieldStrength": 3,
  "Manufacturer": "Siemens",
  "ManufacturersModelName": "Prisma",
  "Modality": "MR",
  "MultibandAccelerationFactor": 8,
  "PartialFourier": 1,
  "PatientPosition": "HFS",
  "PercentPhaseFOV": 100,
  "PercentSampling": 100,
  "PhaseEncodingDirection": "j-",
  "PhaseEncodingSteps": 82,
  "PhaseResolution": 1,
  "PixelBandwidth": 3050,
  "ProcedureStepDescription": "Wager_Wager^1076_spacetop",
  "ProtocolName": "func_run-02_task-social_acq-ap-mb8",
  "PulseSequenceDetails": "%CustomerSeq%\\cmrr_mbep2d_bold",
  "ReceiveCoilActiveElements": "HEA;HEP",
  "ReceiveCoilName": "Head_32",
  "ReconMatrixPE": 82,
  "RepetitionTime": 0.46,
  "SAR": 0.092308,
  "ScanOptions": "FS",
  "ScanningSequence": "EP",
  "SequenceName": "epfid2d1_82",
  "SequenceVariant": "SK\\SS",
  "SeriesDescription": "func_run-02_task-social_acq-ap-mb8",
  "SeriesNumber": 14,
  "ShimSetting": [4222, -7803, -7217, 438, -114, -120, -9, 59],
  "SliceThickness": 2.7,
  "SliceTiming": [0, 0.25, 0.0625, 0.3125, 0.125, 0.3775, 0.1875, 0, 0.25, 0.0625, 0.3125, 0.125, 0.3775, 0.1875, 0, 0.25, 0.0625, 0.3125, 0.125, 0.3775, 0.1875, 0, 0.25, 0.0625, 0.3125, 0.125, 0.3775, 0.1875, 0, 0.25, 0.0625, 0.3125, 0.125, 0.3775, 0.1875, 0, 0.25, 0.0625, 0.3125, 0.125, 0.3775, 0.1875, 0, 0.25, 0.0625, 0.3125, 0.125, 0.3775, 0.1875, 0, 0.25, 0.0625, 0.3125, 0.125, 0.3775, 0.1875],
  "SoftwareVersions": "syngo MR E11",
  "SpacingBetweenSlices": 2.7,
  "StationName": "AWP66112",
  "TaskName": "social",
  "TotalReadoutTime": 0.03969,
  "TxRefAmp": 230.982,
  "WipMemBlock": "e1e08038-3daa-4ecc-8df5-f8821906968f||Sequence: R016 ve11e/master r/434b28f1; Aug  7 2019 18:53:46 by eja",
  "dcmmeta_affine": [
    [-2.6824140548706055, 0.023409191519021988, 0.04723411053419113, 108.91999816894531],
    [0.029038982465863228, 2.6621665954589844, 0.33395934104919434, -115.51084899902344],
    [0.043676797300577164, -0.3322921693325043, 2.6788504123687744, -54.83186340332031],
    [0.0, 0.0, 0.0, 1.0]
],
  "dcmmeta_reorient_transform": [
    [0.0, -1.0, 0.0, 81.0],
    [1.0, 0.0, 0.0, 0.0],
    [0.0, 0.0, 1.0, 0.0],
    [0.0, 0.0, 0.0, 1.0]
],
  "dcmmeta_shape": [82, 82, 56, 872],
  "dcmmeta_slice_dim": 2,
  "dcmmeta_version": 0.6,
  "global": {
    "const": {
      "AccessionNumber": "A004834",
      "AcquisitionMatrix": [82, 0, 0, 82],
      "AngioFlag": "N",
      "BitsAllocated": 16,
      "BitsStored": 16,
      "BodyPartExamined": "BRAIN",
      "Columns": 656,
      "EchoNumbers": 1,
      "EchoTime": 27.2,
      "EchoTrainLength": 82,
      "FlipAngle": 44.0,
      "HighBit": 15,
      "ImageOrientationPatient": [0.99980889475301, -0.010823620416, 0.01627953358866, 0.00872524403212, 0.99226204633022, 0.12385435611699],
      "ImagePositionPatient": [-887.38744921258, -855.83224917991, -189.65062769994],
      "ImageType": [
        "ORIGINAL",
        "PRIMARY",
        "M",
        "MB",
        "ND",
        "NORM",
        "MOSAIC"
],
      "ImagedNucleus": "1H",
      "ImagingFrequency": 123.259073,
      "InPlanePhaseEncodingDirection": "COL",
      "MRAcquisitionType": "2D",
      "MagneticFieldStrength": 3.0,
      "Manufacturer": "SIEMENS",
      "ManufacturerModelName": "Prisma",
      "Modality": "MR",
      "NumberOfAverages": 1.0,
      "NumberOfPhaseEncodingSteps": 82,
      "PercentPhaseFieldOfView": 100.0,
      "PercentSampling": 100.0,
      "PerformedProcedureStepStartTime": "164516.605000",
      "PhotometricInterpretation": "MONOCHROME2",
      "PixelBandwidth": 3050.0,
      "PixelRepresentation": 0,
      "PixelSpacing": [2.6829268932343, 2.6829268932343],
      "ProtocolName": "func_run-02_task-social_acq-ap-mb8",
      "RepetitionTime": 460.0,
      "Rows": 656,
      "SAR": 0.09230797047096,
      "SamplesPerPixel": 1,
      "ScanOptions": "FS",
      "ScanningSequence": "EP",
      "SequenceName": "epfid2d1_82",
      "SequenceVariant": [
        "SK",
        "SS"
],
      "SeriesDescription": "func_run-02_task-social_acq-ap-mb8",
      "SeriesNumber": 14,
      "SeriesTime": "173819.859000",
      "SliceLocation": -66.784278282736,
      "SliceThickness": 2.7000000476837,
      "SmallestImagePixelValue": 0,
      "SoftwareVersions": "syngo MR E11",
      "SpacingBetweenSlices": 2.6999999667651,
      "SpecificCharacterSet": "ISO_IR 100",
      "StudyID": "1",
      "StudyTime": "164516.543000",
      "TransmitCoilName": "Body",
      "VariableFlipAngleFlag": "N",
      "WindowCenterWidthExplanation": "Algo1"
    },
    "slices": {}
  },
  "time": {
    "samples": {
      "AcquisitionNumber": [1, 2, 3, 4, 5, 6, 7, 8, 9, 10, 11, 12, 13, 14, 15, 16, 17, 18, 19, 20, 21, 22, 23, 24, 25, 26, 27, 28, 29, 30, 31, 32, 33, 34, 35, 36, 37, 38, 39, 40, 41, 42, 43, 44, 45, 46, 47, 48, 49, 50, 51, 52, 53, 54, 55, 56, 57, 58, 59, 60, 61, 62, 63, 64, 65, 66, 67, 68, 69, 70, 71, 72, 73, 74, 75, 76, 77, 78, 79, 80, 81, 82, 83, 84, 85, 86, 87, 88, 89, 90, 91, 92, 93, 94, 95, 96, 97, 98, 99, 100, 101, 102, 103, 104, 105, 106, 107, 108, 109, 110, 111, 112, 113, 114, 115, 116, 117, 118, 119, 120, 121, 122, 123, 124, 125, 126, 127, 128, 129, 130, 131, 132, 133, 134, 135, 136, 137, 138, 139, 140, 141, 142, 143, 144, 145, 146, 147, 148, 149, 150, 151, 152, 153, 154, 155, 156, 157, 158, 159, 160, 161, 162, 163, 164, 165, 166, 167, 168, 169, 170, 171, 172, 173, 174, 175, 176, 177, 178, 179, 180, 181, 182, 183, 184, 185, 186, 187, 188, 189, 190, 191, 192, 193, 194, 195, 196, 197, 198, 199, 200, 201, 202, 203, 204, 205, 206, 207, 208, 209, 210, 211, 212, 213, 214, 215, 216, 217, 218, 219, 220, 221, 222, 223, 224, 225, 226, 227, 228, 229, 230, 231, 232, 233, 234, 235, 236, 237, 238, 239, 240, 241, 242, 243, 244, 245, 246, 247, 248, 249, 250, 251, 252, 253, 254, 255, 256, 257, 258, 259, 260, 261, 262, 263, 264, 265, 266, 267, 268, 269, 270, 271, 272, 273, 274, 275, 276, 277, 278, 279, 280, 281, 282, 283, 284, 285, 286, 287, 288, 289, 290, 291, 292, 293, 294, 295, 296, 297, 298, 299, 300, 301, 302, 303, 304, 305, 306, 307, 308, 309, 310, 311, 312, 313, 314, 315, 316, 317, 318, 319, 320, 321, 322, 323, 324, 325, 326, 327, 328, 329, 330, 331, 332, 333, 334, 335, 336, 337, 338, 339, 340, 341, 342, 343, 344, 345, 346, 347, 348, 349, 350, 351, 352, 353, 354, 355, 356, 357, 358, 359, 360, 361, 362, 363, 364, 365, 366, 367, 368, 369, 370, 371, 372, 373, 374, 375, 376, 377, 378, 379, 380, 381, 382, 383, 384, 385, 386, 387, 388, 389, 390, 391, 392, 393, 394, 395, 396, 397, 398, 399, 400, 401, 402, 403, 404, 405, 406, 407, 408, 409, 410, 411, 412, 413, 414, 415, 416, 417, 418, 419, 420, 421, 422, 423, 424, 425, 426, 427, 428, 429, 430, 431, 432, 433, 434, 435, 436, 437, 438, 439, 440, 441, 442, 443, 444, 445, 446, 447, 448, 449, 450, 451, 452, 453, 454, 455, 456, 457, 458, 459, 460, 461, 462, 463, 464, 465, 466, 467, 468, 469, 470, 471, 472, 473, 474, 475, 476, 477, 478, 479, 480, 481, 482, 483, 484, 485, 486, 487, 488, 489, 490, 491, 492, 493, 494, 495, 496, 497, 498, 499, 500, 501, 502, 503, 504, 505, 506, 507, 508, 509, 510, 511, 512, 513, 514, 515, 516, 517, 518, 519, 520, 521, 522, 523, 524, 525, 526, 527, 528, 529, 530, 531, 532, 533, 534, 535, 536, 537, 538, 539, 540, 541, 542, 543, 544, 545, 546, 547, 548, 549, 550, 551, 552, 553, 554, 555, 556, 557, 558, 559, 560, 561, 562, 563, 564, 565, 566, 567, 568, 569, 570, 571, 572, 573, 574, 575, 576, 577, 578, 579, 580, 581, 582, 583, 584, 585, 586, 587, 588, 589, 590, 591, 592, 593, 594, 595, 596, 597, 598, 599, 600, 601, 602, 603, 604, 605, 606, 607, 608, 609, 610, 611, 612, 613, 614, 615, 616, 617, 618, 619, 620, 621, 622, 623, 624, 625, 626, 627, 628, 629, 630, 631, 632, 633, 634, 635, 636, 637, 638, 639, 640, 641, 642, 643, 644, 645, 646, 647, 648, 649, 650, 651, 652, 653, 654, 655, 656, 657, 658, 659, 660, 661, 662, 663, 664, 665, 666, 667, 668, 669, 670, 671, 672, 673, 674, 675, 676, 677, 678, 679, 680, 681, 682, 683, 684, 685, 686, 687, 688, 689, 690, 691, 692, 693, 694, 695, 696, 697, 698, 699, 700, 701, 702, 703, 704, 705, 706, 707, 708, 709, 710, 711, 712, 713, 714, 715, 716, 717, 718, 719, 720, 721, 722, 723, 724, 725, 726, 727, 728, 729, 730, 731, 732, 733, 734, 735, 736, 737, 738, 739, 740, 741, 742, 743, 744, 745, 746, 747, 748, 749, 750, 751, 752, 753, 754, 755, 756, 757, 758, 759, 760, 761, 762, 763, 764, 765, 766, 767, 768, 769, 770, 771, 772, 773, 774, 775, 776, 777, 778, 779, 780, 781, 782, 783, 784, 785, 786, 787, 788, 789, 790, 791, 792, 793, 794, 795, 796, 797, 798, 799, 800, 801, 802, 803, 804, 805, 806, 807, 808, 809, 810, 811, 812, 813, 814, 815, 816, 817, 818, 819, 820, 821, 822, 823, 824, 825, 826, 827, 828, 829, 830, 831, 832, 833, 834, 835, 836, 837, 838, 839, 840, 841, 842, 843, 844, 845, 846, 847, 848, 849, 850, 851, 852, 853, 854, 855, 856, 857, 858, 859, 860, 861, 862, 863, 864, 865, 866, 867, 868, 869, 870, 871, 872],
      "AcquisitionTime": ["173755.177500", "173755.637500", "173756.097500", "173756.557500", "173757.017500", "173757.477500", "173757.937500", "173758.397500", "173758.857500", "173759.317500", "173759.777500", "173800.237500", "173800.697500", "173801.157500", "173801.617500", "173802.077500", "173802.537500", "173802.997500", "173803.457500", "173803.917500", "173804.377500", "173804.837500", "173805.297500", "173805.757500", "173806.217500", "173806.677500", "173807.137500", "173807.597500", "173808.057500", "173808.517500", "173808.977500", "173809.437500", "173809.897500", "173810.357500", "173810.817500", "173811.277500", "173811.737500", "173812.197500", "173812.657500", "173813.117500", "173813.577500", "173814.037500", "173814.497500", "173814.957500", "173815.417500", "173815.877500", "173816.337500", "173816.797500", "173817.257500", "173817.717500", "173818.177500", "173818.637500", "173819.097500", "173819.557500", "173820.017500", "173820.477500", "173820.937500", "173821.397500", "173821.857500", "173822.317500", "173822.777500", "173823.237500", "173823.697500", "173824.157500", "173824.617500", "173825.077500", "173825.537500", "173825.997500", "173826.457500", "173826.917500", "173827.377500", "173827.837500", "173828.297500", "173828.757500", "173829.217500", "173829.677500", "173830.137500", "173830.597500", "173831.057500", "173831.517500", "173831.977500", "173832.437500", "173832.897500", "173833.357500", "173833.817500", "173834.277500", "173834.737500", "173835.197500", "173835.657500", "173836.117500", "173836.577500", "173837.037500", "173837.497500", "173837.957500", "173838.417500", "173838.877500", "173839.337500", "173839.797500", "173840.257500", "173840.717500", "173841.177500", "173841.637500", "173842.097500", "173842.557500", "173843.017500", "173843.477500", "173843.937500", "173844.397500", "173844.857500", "173845.317500", "173845.777500", "173846.237500", "173846.697500", "173847.157500", "173847.617500", "173848.077500", "173848.537500", "173848.997500", "173849.457500", "173849.917500", "173850.377500", "173850.837500", "173851.297500", "173851.757500", "173852.217500", "173852.677500", "173853.137500", "173853.597500", "173854.057500", "173854.517500", "173854.977500", "173855.437500", "173855.897500", "173856.357500", "173856.817500", "173857.277500", "173857.737500", "173858.197500", "173858.657500", "173859.117500", "173859.577500", "173900.037500", "173900.497500", "173900.957500", "173901.417500", "173901.877500", "173902.337500", "173902.797500", "173903.257500", "173903.717500", "173904.177500", "173904.637500", "173905.097500", "173905.557500", "173906.017500", "173906.477500", "173906.937500", "173907.397500", "173907.857500", "173908.317500", "173908.777500", "173909.237500", "173909.697500", "173910.157500", "173910.617500", "173911.077500", "173911.537500", "173911.997500", "173912.457500", "173912.917500", "173913.377500", "173913.837500", "173914.297500", "173914.757500", "173915.217500", "173915.677500", "173916.137500", "173916.597500", "173917.057500", "173917.517500", "173917.977500", "173918.437500", "173918.897500", "173919.357500", "173919.817500", "173920.277500", "173920.737500", "173921.197500", "173921.657500", "173922.117500", "173922.577500", "173923.037500", "173923.497500", "173923.957500", "173924.417500", "173924.877500", "173925.337500", "173925.797500", "173926.257500", "173926.717500", "173927.177500", "173927.637500", "173928.097500", "173928.557500", "173929.017500", "173929.477500", "173929.937500", "173930.397500", "173930.857500", "173931.317500", "173931.777500", "173932.237500", "173932.697500", "173933.157500", "173933.617500", "173934.077500", "173934.537500", "173934.997500", "173935.457500", "173935.917500", "173936.377500", "173936.837500", "173937.297500", "173937.757500", "173938.217500", "173938.677500", "173939.137500", "173939.597500", "173940.057500", "173940.517500", "173940.977500", "173941.437500", "173941.897500", "173942.357500", "173942.817500", "173943.277500", "173943.737500", "173944.197500", "173944.657500", "173945.117500", "173945.577500", "173946.037500", "173946.497500", "173946.957500", "173947.417500", "173947.877500", "173948.337500", "173948.797500", "173949.257500", "173949.717500", "173950.177500", "173950.637500", "173951.097500", "173951.557500", "173952.017500", "173952.477500", "173952.937500", "173953.397500", "173953.857500", "173954.317500", "173954.777500", "173955.237500", "173955.697500", "173956.157500", "173956.617500", "173957.077500", "173957.537500", "173957.997500", "173958.457500", "173958.917500", "173959.377500", "173959.837500", "174000.297500", "174000.757500", "174001.217500", "174001.677500", "174002.137500", "174002.597500", "174003.057500", "174003.517500", "174003.977500", "174004.437500", "174004.897500", "174005.357500", "174005.817500", "174006.277500", "174006.737500", "174007.197500", "174007.657500", "174008.117500", "174008.577500", "174009.037500", "174009.497500", "174009.957500", "174010.417500", "174010.877500", "174011.337500", "174011.797500", "174012.257500", "174012.717500", "174013.177500", "174013.637500", "174014.097500", "174014.557500", "174015.017500", "174015.477500", "174015.937500", "174016.397500", "174016.857500", "174017.317500", "174017.777500", "174018.237500", "174018.697500", "174019.157500", "174019.617500", "174020.077500", "174020.537500", "174020.997500", "174021.457500", "174021.917500", "174022.377500", "174022.837500", "174023.297500", "174023.757500", "174024.217500", "174024.677500", "174025.137500", "174025.597500", "174026.057500", "174026.517500", "174026.977500", "174027.437500", "174027.897500", "174028.357500", "174028.817500", "174029.277500", "174029.737500", "174030.197500", "174030.657500", "174031.117500", "174031.577500", "174032.037500", "174032.497500", "174032.957500", "174033.417500", "174033.877500", "174034.337500", "174034.797500", "174035.257500", "174035.717500", "174036.177500", "174036.637500", "174037.097500", "174037.557500", "174038.017500", "174038.477500", "174038.937500", "174039.397500", "174039.857500", "174040.317500", "174040.777500", "174041.237500", "174041.697500", "174042.157500", "174042.617500", "174043.077500", "174043.537500", "174043.997500", "174044.457500", "174044.917500", "174045.377500", "174045.837500", "174046.297500", "174046.757500", "174047.217500", "174047.677500", "174048.137500", "174048.597500", "174049.057500", "174049.517500", "174049.977500", "174050.437500", "174050.897500", "174051.357500", "174051.817500", "174052.277500", "174052.737500", "174053.197500", "174053.657500", "174054.117500", "174054.577500", "174055.037500", "174055.497500", "174055.957500", "174056.417500", "174056.877500", "174057.337500", "174057.797500", "174058.257500", "174058.717500", "174059.177500", "174059.637500", "174100.097500", "174100.557500", "174101.017500", "174101.477500", "174101.937500", "174102.397500", "174102.857500", "174103.317500", "174103.777500", "174104.237500", "174104.697500", "174105.157500", "174105.617500", "174106.077500", "174106.537500", "174106.997500", "174107.457500", "174107.917500", "174108.377500", "174108.837500", "174109.297500", "174109.757500", "174110.217500", "174110.677500", "174111.137500", "174111.597500", "174112.057500", "174112.517500", "174112.977500", "174113.437500", "174113.897500", "174114.357500", "174114.817500", "174115.277500", "174115.737500", "174116.197500", "174116.657500", "174117.117500", "174117.577500", "174118.037500", "174118.497500", "174118.957500", "174119.417500", "174119.877500", "174120.337500", "174120.797500", "174121.257500", "174121.717500", "174122.177500", "174122.637500", "174123.097500", "174123.557500", "174124.017500", "174124.477500", "174124.937500", "174125.397500", "174125.857500", "174126.317500", "174126.777500", "174127.237500", "174127.697500", "174128.157500", "174128.617500", "174129.077500", "174129.537500", "174129.997500", "174130.457500", "174130.917500", "174131.377500", "174131.837500", "174132.297500", "174132.757500", "174133.217500", "174133.677500", "174134.137500", "174134.597500", "174135.057500", "174135.517500", "174135.977500", "174136.437500", "174136.897500", "174137.357500", "174137.817500", "174138.277500", "174138.737500", "174139.197500", "174139.657500", "174140.117500", "174140.577500", "174141.037500", "174141.497500", "174141.957500", "174142.417500", "174142.877500", "174143.337500", "174143.797500", "174144.257500", "174144.717500", "174145.177500", "174145.637500", "174146.097500", "174146.557500", "174147.017500", "174147.477500", "174147.937500", "174148.397500", "174148.857500", "174149.317500", "174149.777500", "174150.237500", "174150.697500", "174151.157500", "174151.617500", "174152.077500", "174152.537500", "174152.997500", "174153.457500", "174153.917500", "174154.377500", "174154.837500", "174155.297500", "174155.757500", "174156.217500", "174156.677500", "174157.137500", "174157.597500", "174158.057500", "174158.517500", "174158.977500", "174159.437500", "174159.897500", "174200.357500", "174200.817500", "174201.277500", "174201.737500", "174202.197500", "174202.657500", "174203.117500", "174203.577500", "174204.037500", "174204.497500", "174204.957500", "174205.417500", "174205.877500", "174206.337500", "174206.797500", "174207.257500", "174207.717500", "174208.177500", "174208.637500", "174209.097500", "174209.557500", "174210.017500", "174210.477500", "174210.937500", "174211.397500", "174211.857500", "174212.317500", "174212.777500", "174213.237500", "174213.697500", "174214.157500", "174214.617500", "174215.077500", "174215.537500", "174215.997500", "174216.457500", "174216.917500", "174217.377500", "174217.837500", "174218.297500", "174218.757500", "174219.217500", "174219.677500", "174220.137500", "174220.597500", "174221.057500", "174221.517500", "174221.977500", "174222.437500", "174222.897500", "174223.357500", "174223.817500", "174224.277500", "174224.737500", "174225.197500", "174225.657500", "174226.117500", "174226.577500", "174227.037500", "174227.497500", "174227.957500", "174228.417500", "174228.877500", "174229.337500", "174229.797500", "174230.257500", "174230.717500", "174231.177500", "174231.637500", "174232.097500", "174232.557500", "174233.017500", "174233.477500", "174233.937500", "174234.397500", "174234.857500", "174235.317500", "174235.777500", "174236.237500", "174236.697500", "174237.157500", "174237.617500", "174238.077500", "174238.537500", "174238.997500", "174239.457500", "174239.917500", "174240.377500", "174240.837500", "174241.297500", "174241.757500", "174242.217500", "174242.677500", "174243.137500", "174243.597500", "174244.057500", "174244.517500", "174244.977500", "174245.437500", "174245.897500", "174246.357500", "174246.817500", "174247.277500", "174247.737500", "174248.197500", "174248.657500", "174249.117500", "174249.577500", "174250.037500", "174250.497500", "174250.957500", "174251.417500", "174251.877500", "174252.337500", "174252.797500", "174253.257500", "174253.717500", "174254.177500", "174254.637500", "174255.097500", "174255.557500", "174256.017500", "174256.477500", "174256.937500", "174257.397500", "174257.857500", "174258.317500", "174258.777500", "174259.237500", "174259.697500", "174300.157500", "174300.617500", "174301.077500", "174301.537500", "174301.997500", "174302.457500", "174302.917500", "174303.377500", "174303.837500", "174304.297500", "174304.757500", "174305.217500", "174305.677500", "174306.137500", "174306.597500", "174307.057500", "174307.517500", "174307.977500", "174308.437500", "174308.897500", "174309.357500", "174309.817500", "174310.277500", "174310.737500", "174311.197500", "174311.657500", "174312.117500", "174312.577500", "174313.037500", "174313.497500", "174313.957500", "174314.417500", "174314.877500", "174315.337500", "174315.797500", "174316.257500", "174316.717500", "174317.177500", "174317.637500", "174318.097500", "174318.557500", "174319.017500", "174319.477500", "174319.937500", "174320.397500", "174320.857500", "174321.317500", "174321.777500", "174322.237500", "174322.697500", "174323.157500", "174323.617500", "174324.077500", "174324.537500", "174324.997500", "174325.457500", "174325.917500", "174326.377500", "174326.837500", "174327.297500", "174327.757500", "174328.217500", "174328.677500", "174329.137500", "174329.597500", "174330.057500", "174330.517500", "174330.977500", "174331.437500", "174331.897500", "174332.357500", "174332.817500", "174333.277500", "174333.737500", "174334.197500", "174334.657500", "174335.117500", "174335.577500", "174336.037500", "174336.497500", "174336.957500", "174337.417500", "174337.877500", "174338.337500", "174338.797500", "174339.257500", "174339.717500", "174340.177500", "174340.637500", "174341.097500", "174341.557500", "174342.017500", "174342.477500", "174342.937500", "174343.397500", "174343.857500", "174344.317500", "174344.777500", "174345.237500", "174345.697500", "174346.157500", "174346.617500", "174347.077500", "174347.537500", "174347.997500", "174348.457500", "174348.917500", "174349.377500", "174349.837500", "174350.297500", "174350.757500", "174351.217500", "174351.677500", "174352.137500", "174352.597500", "174353.057500", "174353.517500", "174353.977500", "174354.437500", "174354.897500", "174355.357500", "174355.817500", "174356.277500", "174356.737500", "174357.197500", "174357.657500", "174358.117500", "174358.577500", "174359.037500", "174359.497500", "174359.957500", "174400.417500", "174400.877500", "174401.337500", "174401.797500", "174402.257500", "174402.717500", "174403.177500", "174403.637500", "174404.097500", "174404.557500", "174405.017500", "174405.477500", "174405.937500", "174406.397500", "174406.857500", "174407.317500", "174407.777500", "174408.237500", "174408.697500", "174409.157500", "174409.617500", "174410.077500", "174410.537500", "174410.997500", "174411.457500", "174411.917500", "174412.377500", "174412.837500", "174413.297500", "174413.757500", "174414.217500", "174414.677500", "174415.137500", "174415.597500", "174416.057500", "174416.517500", "174416.977500", "174417.437500", "174417.897500", "174418.357500", "174418.817500", "174419.277500", "174419.737500", "174420.197500", "174420.657500", "174421.117500", "174421.577500", "174422.037500", "174422.497500", "174422.957500", "174423.417500", "174423.877500", "174424.337500", "174424.797500", "174425.257500", "174425.717500", "174426.177500", "174426.637500", "174427.097500", "174427.557500", "174428.017500", "174428.477500", "174428.937500", "174429.397500", "174429.857500", "174430.317500", "174430.777500", "174431.237500", "174431.697500", "174432.157500", "174432.617500", "174433.077500", "174433.537500", "174433.997500", "174434.457500", "174434.917500", "174435.377500", "174435.837500"],
