{
  "AcquisitionMatrixPE": 140,
  "AcquisitionNumber": 1,
  "AcquisitionTime": "15:03:20.042500",
  "BandwidthPerPixelPhaseEncode": 10.352,
  "BaseResolution": 140,
  "BodyPartExamined": "BRAIN",
  "ConsistencyInfo": "N4_VE11C_LATEST_20160120",
  "ConversionSoftware": "dcm2niix",
  "ConversionSoftwareVersion": "v1.0.20201102",
  "DerivedVendorReportedEchoSpacing": 0.000689998,
  "DeviceSerialNumber": "66112",
  "DiffusionScheme": "Monopolar",
  "DwellTime": 2.1e-06,
  "EchoTime": 0.088,
  "EchoTrainLength": 105,
  "EffectiveEchoSpacing": 0.000689998,
  "FlipAngle": 90,
  "ImageComments": "Unaliased MB3/PE3",
  "ImageOrientationPatientDICOM": [0.999662, 0.0113954, 0.0233849, -0.0108178, 0.999637, -0.0246819],
  "ImageType": [
    "ORIGINAL",
    "PRIMARY",
    "DIFFUSION",
    "NONE",
    "MB",
    "ND"
],
  "ImagingFrequency": 123.252,
  "InPlanePhaseEncodingDirectionDICOM": "COL",
  "InstitutionAddress": "Maynard 3,Hanover,NH,US,03755",
  "InstitutionName": "Dartmouth College - PBS",
  "InstitutionalDepartmentName": "Department",
  "MRAcquisitionType": "2D",
  "MagneticFieldStrength": 3,
  "Manufacturer": "Siemens",
  "ManufacturersModelName": "Prisma",
  "Modality": "MR",
  "MultibandAccelerationFactor": 3,
  "PartialFourier": 0.75,
  "PatientPosition": "HFS",
  "PercentPhaseFOV": 100,
  "PercentSampling": 100,
  "PhaseEncodingDirection": "j-",
  "PhaseEncodingSteps": 105,
  "PhaseResolution": 1,
  "PixelBandwidth": 1700,
  "ProcedureStepDescription": "Wager_Wager^1076_spacetop",
  "ProtocolName": "dwi_acq-discorr-AP",
  "PulseSequenceDetails": "%CustomerSeq%\\cmrr_mbep2d_diff",
  "ReceiveCoilActiveElements": "HEA;HEP",
  "ReceiveCoilName": "Head_32",
  "ReconMatrixPE": 140,
  "RepetitionTime": 4.1,
  "SAR": 0.125785,
  "ScanOptions": "PFP\\FS",
  "ScanningSequence": "EP",
  "SequenceName": "ep_b0",
  "SequenceVariant": "SK\\SS",
  "SeriesDescription": "dwi_acq-discorr-AP",
  "SeriesNumber": 7,
  "ShimSetting": [4149, -7728, -7257, 723, -11, -143, 26, 60],
  "SliceThickness": 1.7,
  "SliceTiming": [0, 2.10938, 0.14062, 2.26562, 0.29688, 2.40625, 0.45312, 2.5625, 0.59375, 2.71875, 0.75, 2.875, 0.90625, 3.01562, 1.04688, 3.17188, 1.20312, 3.32812, 1.35938, 3.46875, 1.51562, 3.625, 1.65625, 3.76562, 1.8125, 3.92188, 1.95312, 0, 2.10938, 0.14062, 2.26562, 0.29688, 2.40625, 0.45312, 2.5625, 0.59375, 2.71875, 0.75, 2.875, 0.90625, 3.01562, 1.04688, 3.17188, 1.20312, 3.32812, 1.35938, 3.46875, 1.51562, 3.625, 1.65625, 3.76562, 1.8125, 3.92188, 1.95312, 0, 2.10938, 0.14062, 2.26562, 0.29688, 2.40625, 0.45312, 2.5625, 0.59375, 2.71875, 0.75, 2.875, 0.90625, 3.01562, 1.04688, 3.17188, 1.20312, 3.32812, 1.35938, 3.46875, 1.51562, 3.625, 1.65625, 3.76562, 1.8125, 3.92188, 1.95312],
  "SoftwareVersions": "syngo MR E11",
  "SpacingBetweenSlices": 1.7,
  "StationName": "AWP66112",
  "TotalReadoutTime": 0.0959097,
  "TxRefAmp": 226.791,
  "WipMemBlock": "606f1f61-c46f-4e9d-bb66-e00523341e21||Sequence: R016 ve11c/master r/e634e98; Dec 19 2017 11:11:25 by eja",
  "dcmmeta_affine": [
    [-1.7137055397033691, -0.018544772639870644, 0.040218353271484375, 125.56099700927734],
    [-0.01953504979610443, 1.713663101196289, -0.041515350341796875, -94.61589813232422],
    [0.0400884710252285, 0.04231175780296326, 1.6990127563476562, -67.65082550048828],
    [0.0, 0.0, 0.0, 1.0]
],
  "dcmmeta_reorient_transform": [
    [0.0, -1.0, 0.0, 139.0],
    [1.0, 0.0, 0.0, 0.0],
    [0.0, 0.0, -1.0, 80.0],
    [0.0, 0.0, 0.0, 1.0]
],
  "dcmmeta_shape": [140, 140, 81],
  "dcmmeta_slice_dim": 2,
  "dcmmeta_version": 0.6,
  "global": {
    "const": {
      "AccessionNumber": "A003468",
      "AcquisitionMatrix": [140, 0, 0, 140],
      "AcquisitionNumber": 1,
      "AngioFlag": "N",
      "BitsAllocated": 16,
      "BitsStored": 16,
      "BodyPartExamined": "BRAIN",
      "Columns": 140,
      "EchoNumbers": 1,
      "EchoTime": 88.0,
      "EchoTrainLength": 105,
      "FlipAngle": 90.0,
      "HighBit": 15,
      "ImageOrientationPatient": [0.99966158688493, 0.01139544579196, 0.02338494220465, -0.0108177842812, 0.99963682474098, -0.0246818590266],
      "ImageType": [
        "ORIGINAL",
        "PRIMARY",
        "DIFFUSION",
        "NONE",
        "MB",
        "ND"
],
      "ImagedNucleus": "1H",
      "ImagingFrequency": 123.252157,
      "InPlanePhaseEncodingDirection": "COL",
      "MRAcquisitionType": "2D",
      "MagneticFieldStrength": 3.0,
      "Manufacturer": "SIEMENS",
      "ManufacturerModelName": "Prisma",
      "Modality": "MR",
      "NumberOfAverages": 1.0,
      "NumberOfPhaseEncodingSteps": 105,
      "PercentPhaseFieldOfView": 100.0,
      "PercentSampling": 100.0,
      "PerformedProcedureStepStartTime": "142114.224000",
      "PhotometricInterpretation": "MONOCHROME2",
      "PixelBandwidth": 1700.0,
      "PixelRepresentation": 0,
      "PixelSpacing": [1.7142857313156, 1.7142857313156],
      "ProtocolName": "dwi_acq-discorr-AP",
      "RepetitionTime": 4100.0,
      "Rows": 140,
      "SAR": 0.12578545976543,
      "SamplesPerPixel": 1,
      "ScanOptions": [
        "PFP",
        "FS"
],
      "ScanningSequence": "EP",
      "SequenceName": "ep_b0",
      "SequenceVariant": [
        "SK",
        "SS"
],
      "SeriesDescription": "dwi_acq-discorr-AP",
      "SeriesNumber": 7,
      "SeriesTime": "150324.228000",
      "SliceThickness": 1.7000000476837,
      "SmallestImagePixelValue": 0,
      "SoftwareVersions": "syngo MR E11",
      "SpacingBetweenSlices": 1.7,
      "SpecificCharacterSet": "ISO_IR 100",
      "StudyID": "1",
      "StudyTime": "142114.141000",
      "TransmitCoilName": "Body",
      "VariableFlipAngleFlag": "N",
      "WindowCenterWidthExplanation": "Algo1",
      "dBdt": 0.0},
    "slices": {
      "AcquisitionTime": ["150320.042500", "150322.157500", "150320.195000", "150322.310000", "150320.345000", "150322.460000", "150320.497500", "150322.612500", "150320.647500", "150322.762500", "150320.797500", "150322.915000", "150320.950000", "150323.065000", "150321.100000", "150323.217500", "150321.252500", "150323.367500", "150321.402500", "150323.517500", "150321.555000", "150323.670000", "150321.705000", "150323.820000", "150321.857500", "150323.972500", "150322.007500", "150320.042500", "150322.157500", "150320.195000", "150322.310000", "150320.345000", "150322.460000", "150320.497500", "150322.612500", "150320.647500", "150322.762500", "150320.797500", "150322.915000", "150320.950000", "150323.065000", "150321.100000", "150323.217500", "150321.252500", "150323.367500", "150321.402500", "150323.517500", "150321.555000", "150323.670000", "150321.705000", "150323.820000", "150321.857500", "150323.972500", "150322.007500", "150320.042500", "150322.157500", "150320.195000", "150322.310000", "150320.345000", "150322.460000", "150320.497500", "150322.612500", "150320.647500", "150322.762500", "150320.797500", "150322.915000", "150320.950000", "150323.065000", "150321.100000", "150323.217500", "150321.252500", "150323.367500", "150321.402500", "150323.517500", "150321.555000", "150323.670000", "150321.705000", "150323.820000", "150321.857500", "150323.972500", "150322.007500"],
      "ContentTime": ["150324.232000", "150324.333000", "150324.241000", "150324.339000", "150324.248000", "150324.346000", "150324.256000", "150324.353000", "150324.263000", "150324.360000", "150324.271000", "150324.366000", "150324.278000", "150324.373000", "150324.284000", "150324.379000", "150324.291000", "150324.386000", "150324.298000", "150324.392000", "150324.307000", "150324.399000", "150324.313000", "150324.405000", "150324.320000", "150324.412000", "150324.326000", "150324.236000", "150324.335000", "150324.244000", "150324.341000", "150324.251000", "150324.349000", "150324.258000", "150324.355000", "150324.266000", "150324.362000", "150324.273000", "150324.369000", "150324.280000", "150324.375000", "150324.287000", "150324.381000", "150324.293000", "150324.388000", "150324.302000", "150324.394000", "150324.309000", "150324.401000", "150324.315000", "150324.407000", "150324.322000", "150324.414000", "150324.328000", "150324.238000", "150324.337000", "150324.246000", "150324.344000", "150324.253000", "150324.351000", "150324.260000", "150324.358000", "150324.269000", "150324.364000", "150324.276000", "150324.371000", "150324.282000", "150324.377000", "150324.289000", "150324.384000", "150324.296000", "150324.390000", "150324.305000", "150324.397000", "150324.311000", "150324.403000", "150324.317000", "150324.410000", "150324.324000", "150324.416000", "150324.331000"],
      "CsaImage.ICE_Dims": [
        "X_1_1_1_1_1_1_1_1_1_1_1_131",
        "X_1_1_1_1_1_1_42_1_1_2_1_131",
        "X_1_1_1_1_1_1_2_1_1_3_1_131",
        "X_1_1_1_1_1_1_43_1_1_4_1_131",
        "X_1_1_1_1_1_1_3_1_1_5_1_131",
        "X_1_1_1_1_1_1_44_1_1_6_1_131",
        "X_1_1_1_1_1_1_4_1_1_7_1_131",
        "X_1_1_1_1_1_1_45_1_1_8_1_131",
        "X_1_1_1_1_1_1_5_1_1_9_1_131",
        "X_1_1_1_1_1_1_46_1_1_10_1_131",
        "X_1_1_1_1_1_1_6_1_1_11_1_131",
        "X_1_1_1_1_1_1_47_1_1_12_1_131",
        "X_1_1_1_1_1_1_7_1_1_13_1_131",
        "X_1_1_1_1_1_1_48_1_1_14_1_131",
        "X_1_1_1_1_1_1_8_1_1_15_1_131",
        "X_1_1_1_1_1_1_49_1_1_16_1_131",
        "X_1_1_1_1_1_1_9_1_1_17_1_131",
        "X_1_1_1_1_1_1_50_1_1_18_1_131",
        "X_1_1_1_1_1_1_10_1_1_19_1_131",
        "X_1_1_1_1_1_1_51_1_1_20_1_131",
        "X_1_1_1_1_1_1_11_1_1_21_1_131",
        "X_1_1_1_1_1_1_52_1_1_22_1_131",
        "X_1_1_1_1_1_1_12_1_1_23_1_131",
        "X_1_1_1_1_1_1_53_1_1_24_1_131",
        "X_1_1_1_1_1_1_13_1_1_25_1_131",
        "X_1_1_1_1_1_1_54_1_1_26_1_131",
        "X_1_1_1_1_1_1_14_1_1_27_1_131",
        "X_1_1_1_1_1_1_55_1_1_28_1_131",
        "X_1_1_1_1_1_1_15_1_1_29_1_131",
        "X_1_1_1_1_1_1_56_1_1_30_1_131",
        "X_1_1_1_1_1_1_16_1_1_31_1_131",
        "X_1_1_1_1_1_1_57_1_1_32_1_131",
        "X_1_1_1_1_1_1_17_1_1_33_1_131",
        "X_1_1_1_1_1_1_58_1_1_34_1_131",
        "X_1_1_1_1_1_1_18_1_1_35_1_131",
        "X_1_1_1_1_1_1_59_1_1_36_1_131",
        "X_1_1_1_1_1_1_19_1_1_37_1_131",
        "X_1_1_1_1_1_1_60_1_1_38_1_131",
        "X_1_1_1_1_1_1_20_1_1_39_1_131",
        "X_1_1_1_1_1_1_61_1_1_40_1_131",
        "X_1_1_1_1_1_1_21_1_1_41_1_131",
        "X_1_1_1_1_1_1_62_1_1_42_1_131",
        "X_1_1_1_1_1_1_22_1_1_43_1_131",
        "X_1_1_1_1_1_1_63_1_1_44_1_131",
        "X_1_1_1_1_1_1_23_1_1_45_1_131",
        "X_1_1_1_1_1_1_64_1_1_46_1_131",
        "X_1_1_1_1_1_1_24_1_1_47_1_131",
        "X_1_1_1_1_1_1_65_1_1_48_1_131",
        "X_1_1_1_1_1_1_25_1_1_49_1_131",
        "X_1_1_1_1_1_1_66_1_1_50_1_131",
        "X_1_1_1_1_1_1_26_1_1_51_1_131",
        "X_1_1_1_1_1_1_67_1_1_52_1_131",
        "X_1_1_1_1_1_1_27_1_1_53_1_131",
        "X_1_1_1_1_1_1_68_1_1_54_1_131",
        "X_1_1_1_1_1_1_28_1_1_55_1_131",
        "X_1_1_1_1_1_1_69_1_1_56_1_131",
        "X_1_1_1_1_1_1_29_1_1_57_1_131",
        "X_1_1_1_1_1_1_70_1_1_58_1_131",
        "X_1_1_1_1_1_1_30_1_1_59_1_131",
        "X_1_1_1_1_1_1_71_1_1_60_1_131",
        "X_1_1_1_1_1_1_31_1_1_61_1_131",
        "X_1_1_1_1_1_1_72_1_1_62_1_131",
        "X_1_1_1_1_1_1_32_1_1_63_1_131",
        "X_1_1_1_1_1_1_73_1_1_64_1_131",
        "X_1_1_1_1_1_1_33_1_1_65_1_131",
        "X_1_1_1_1_1_1_74_1_1_66_1_131",
        "X_1_1_1_1_1_1_34_1_1_67_1_131",
        "X_1_1_1_1_1_1_75_1_1_68_1_131",
        "X_1_1_1_1_1_1_35_1_1_69_1_131",
        "X_1_1_1_1_1_1_76_1_1_70_1_131",
        "X_1_1_1_1_1_1_36_1_1_71_1_131",
        "X_1_1_1_1_1_1_77_1_1_72_1_131",
        "X_1_1_1_1_1_1_37_1_1_73_1_131",
        "X_1_1_1_1_1_1_78_1_1_74_1_131",
        "X_1_1_1_1_1_1_38_1_1_75_1_131",
        "X_1_1_1_1_1_1_79_1_1_76_1_131",
        "X_1_1_1_1_1_1_39_1_1_77_1_131",
        "X_1_1_1_1_1_1_80_1_1_78_1_131",
        "X_1_1_1_1_1_1_40_1_1_79_1_131",
        "X_1_1_1_1_1_1_81_1_1_80_1_131",
        "X_1_1_1_1_1_1_41_1_1_81_1_131"
],
      "CsaImage.ProtocolSliceNumber": [0, 1, 2, 3, 4, 5, 6, 7, 8, 9, 10, 11, 12, 13, 14, 15, 16, 17, 18, 19, 20, 21, 22, 23, 24, 25, 26, 27, 28, 29, 30, 31, 32, 33, 34, 35, 36, 37, 38, 39, 40, 41, 42, 43, 44, 45, 46, 47, 48, 49, 50, 51, 52, 53, 54, 55, 56, 57, 58, 59, 60, 61, 62, 63, 64, 65, 66, 67, 68, 69, 70, 71, 72, 73, 74, 75, 76, 77, 78, 79, 80],
      "CsaImage.RFSWDDataType": [
        "predicted",
        "predicted",
        "predicted",
        "predicted",
        "predicted",
        "predicted",
        "predicted",
        "predicted",
        "predicted",
        "predicted",
        "predicted",
        "predicted",
        "predicted",
        "predicted",
        "predicted",
        "predicted",
        "predicted",
        "predicted",
        "predicted",
        "predicted",
        "predicted",
        "predicted",
        "predicted",
        "predicted",
        "predicted",
        "measured",
        "predicted",
        "predicted",
        "predicted",
        "predicted",
        "predicted",
        "predicted",
        "predicted",
        "predicted",
        "predicted",
        "predicted",
        "predicted",
        "predicted",
        "predicted",
        "predicted",
        "predicted",
        "predicted",
        "predicted",
        "predicted",
        "predicted",
        "predicted",
        "predicted",
        "predicted",
        "predicted",
        "predicted",
        "predicted",
        "predicted",
        "measured",
        "predicted",
        "predicted",
        "predicted",
        "predicted",
        "predicted",
        "predicted",
        "predicted",
        "predicted",
        "predicted",
        "predicted",
        "predicted",
        "predicted",
        "predicted",
        "predicted",
        "predicted",
        "predicted",
        "predicted",
        "predicted",
        "predicted",
        "predicted",
        "predicted",
        "predicted",
        "predicted",
        "predicted",
        "predicted",
        "predicted",
        "measured",
        "predicted"
],
      "CsaImage.SlicePosition_PCS": [
        [-122.9832928, -143.58324638, -61.7698308],
        [-123.02351116, -143.54173103, -60.07081422],
        [-123.06372903, -143.50021568, -58.37179765],
        [-123.10394739, -143.45870033, -56.67278108],
        [-123.14416526, -143.41718498, -54.97376451],
        [-123.18438362, -143.37567154, -53.27474794],
        [-123.22460149, -143.33415619, -51.57573137],
        [-123.26481985, -143.29264084, -49.87671098],
        [-123.30503772, -143.25112548, -48.17769441],
        [-123.34525608, -143.20961204, -46.47867784],
        [-123.38547395, -143.16809669, -44.77966127],
        [-123.42569231, -143.12658134, -43.0806447],
        [-123.46591018, -143.08506599, -41.38162813],
        [-123.50612854, -143.04355255, -39.68261156],
        [-123.54634641, -143.0020372, -37.98359117],
        [-123.58656477, -142.96052185, -36.2845746],
        [-123.62678264, -142.9190065, -34.58555803],
        [-123.66700099, -142.87749305, -32.88654146],
        [-123.70721887, -142.8359777, -31.18752489],
        [-123.74743722, -142.79446235, -29.48850832],
        [-123.7876551, -142.752947, -27.78948984],
        [-123.82787298, -142.71143165, -26.09047327],
        [-123.86809133, -142.66991821, -24.3914567],
        [-123.90830921, -142.62840286, -22.69244012],
        [-123.94852756, -142.58688751, -20.99342165],
        [-123.98874544, -142.54537216, -19.29440508],
        [-124.02896379, -142.50385872, -17.5953885],
        [-124.06918167, -142.46234337, -15.89637193],
        [-124.10940002, -142.42082801, -14.19735345],
        [-124.1496179, -142.37931266, -12.49833688],
        [-124.18983625, -142.33779922, -10.79931936],
        [-124.23005413, -142.29628387, -9.10030279],
        [-124.27027248, -142.25476852, -7.40128574],
        [-124.31049036, -142.21325317, -5.70226869],
        [-124.35070871, -142.17173782, -4.00325164],
        [-124.39092659, -142.13022438, -2.30423436],
        [-124.43114494, -142.08870903, -0.60521731],
        [-124.47136282, -142.04719368, 1.09379974],
        [-124.51158117, -142.00567833, 2.79281679],
        [-124.55179904, -141.96416488, 4.49183407],
        [-124.5920174, -141.92264953, 6.19085112],
        [-124.63223527, -141.88113418, 7.88986817],
        [-124.67245363, -141.83961883, 9.58888522],
        [-124.7126715, -141.79810539, 11.28790179],
        [-124.75288938, -141.75659004, 12.98691931],
        [-124.79310773, -141.71507469, 14.68593588],
        [-124.83332561, -141.67355934, 16.38495436],
        [-124.87354396, -141.6320459, 18.08397093],
        [-124.91376184, -141.59053054, 19.7829875],
        [-124.95398019, -141.54901519, 21.48200407],
        [-124.99419807, -141.50749984, 23.18102255],
        [-125.03441642, -141.46598449, 24.88003912],
        [-125.0746343, -141.42447105, 26.57905569],
        [-125.11485265, -141.3829557, 28.27807227],
        [-125.15507053, -141.34144035, 29.97709074],
        [-125.19528888, -141.299925, 31.67610732],
        [-125.23550676, -141.25841156, 33.37512389],
        [-125.27572511, -141.21689621, 35.07414046],
        [-125.31594299, -141.17538086, 36.77315703],
        [-125.35616134, -141.13386551, 38.4721736],
        [-125.39637922, -141.09235206, 40.17119399],
        [-125.43659757, -141.05083671, 41.87021056],
        [-125.47681545, -141.00932136, 43.56922713],
        [-125.5170338, -140.96780601, 45.2682437],
        [-125.55725168, -140.92629257, 46.96726027],
        [-125.59747003, -140.88477722, 48.66627684],
        [-125.63768791, -140.84326187, 50.36529341],
        [-125.67790626, -140.80174652, 52.0643138],
        [-125.71812414, -140.76023117, 53.76333037],
        [-125.75834201, -140.71871772, 55.46234694],
        [-125.79856037, -140.67720237, 57.16136351],
        [-125.83877824, -140.63568702, 58.86038008],
        [-125.8789966, -140.59417167, 60.55939665],
        [-125.91921447, -140.55265823, 62.25841322],
        [-125.95943283, -140.51114288, 63.95742979],
        [-125.9996507, -140.46962753, 65.65644637],
        [-126.03986906, -140.42811218, 67.35546675],
        [-126.08008693, -140.38659874, 69.05447951],
        [-126.12030529, -140.34508339, 70.75349989],
        [-126.16052316, -140.30356804, 72.45252028],
        [-126.20074152, -140.26205269, 74.15153304]
],
      "CsaImage.TimeAfterStart": [16.4, 18.515, 16.55, 18.6675, 16.7025, 18.8175, 16.8525, 18.97, 17.005, 19.12, 17.155, 19.27, 17.3075, 19.4225, 17.4575, 19.5725, 17.61, 19.725, 17.76, 19.875, 17.91, 20.0275, 18.0625, 20.1775, 18.2125, 20.33, 18.365, 16.4, 18.515, 16.55, 18.6675, 16.7025, 18.8175, 16.8525, 18.97, 17.005, 19.12, 17.155, 19.27, 17.3075, 19.4225, 17.4575, 19.5725, 17.61, 19.725, 17.76, 19.875, 17.91, 20.0275, 18.0625, 20.1775, 18.2125, 20.33, 18.365, 16.4, 18.515, 16.55, 18.6675, 16.7025, 18.8175, 16.8525, 18.97, 17.005, 19.12, 17.155, 19.27, 17.3075, 19.4225, 17.4575, 19.5725, 17.61, 19.725, 17.76, 19.875, 17.91, 20.0275, 18.0625, 20.1775, 18.2125, 20.33, 18.365],
      "ImagePositionPatient": [
        [-122.98329280389, -143.58324638038, -61.769830795251],
        [-123.02351115716, -143.54173103004, -60.070814224206],
        [-123.0637290336, -143.5002156797, -58.371797653161],
        [-123.10394738687, -143.45870032935, -56.672781082116],
        [-123.1441652633, -143.41718497901, -54.973764511071],
        [-123.18438361657, -143.37567153602, -53.274747940026],
        [-123.22460149301, -143.33415618568, -51.575731368981],
        [-123.26481984628, -143.29264083534, -49.876710983239],
        [-123.30503772271, -143.25112548499, -48.177694412194],
        [-123.34525607599, -143.209612042, -46.478677841149],
        [-123.38547395242, -143.16809669166, -44.779661270104],
        [-123.42569230569, -143.12658134132, -43.08064469906],
        [-123.46591018213, -143.08506599097, -41.381628128015],
        [-123.5061285354, -143.04355254798, -39.68261155697],
        [-123.54634641183, -143.00203719764, -37.983591171228],
        [-123.5865647651, -142.9605218473, -36.284574600183],
        [-123.62678264154, -142.91900649696, -34.585558029138],
        [-123.66700099481, -142.87749305396, -32.886541458093],
        [-123.70721887124, -142.83597770362, -31.187524887048],
        [-123.74743722452, -142.79446235328, -29.488508316003],
        [-123.78765510095, -142.75294700294, -27.789489837609],
        [-123.82787297738, -142.7114316526, -26.090473266564],
        [-123.86809133066, -142.6699182096, -24.39145669552],
        [-123.90830920709, -142.62840285926, -22.692440124475],
        [-123.94852756036, -142.58688750892, -20.993421646081],
        [-123.9887454368, -142.54537215858, -19.294405075036],
        [-124.02896379007, -142.50385871558, -17.595388503991],
        [-124.0691816665, -142.46234336524, -15.896371932946],
        [-124.10940001977, -142.4208280149, -14.197353454553],
        [-124.14961789621, -142.37931266456, -12.498336883508],
        [-124.18983624948, -142.33779922157, -10.799319358789],
        [-124.23005412591, -142.29628387122, -9.1003027877436],
        [-124.27027247918, -142.25476852088, -7.4012857398616],
        [-124.31049035562, -142.21325317054, -5.7022686919795],
        [-124.35070870889, -142.1717378202, -4.0032516440974],
        [-124.39092658532, -142.13022437721, -2.3042343577967],
        [-124.4311449386, -142.08870902686, -0.6052173099147],
        [-124.47136281503, -142.04719367652, 1.0937997379674],
        [-124.5115811683, -142.00567832618, 2.7928167858495],
        [-124.55179904474, -141.96416488319, 4.4918340721502],
        [-124.59201739801, -141.92264953284, 6.1908511200322],
        [-124.63223527444, -141.8811341825, 7.8898681679143],
        [-124.67245362771, -141.83961883216, 9.5888852157964],
        [-124.71267150415, -141.79810538917, 11.287901786841],
        [-124.75288938058, -141.75659003883, 12.986919311561],
        [-124.79310773385, -141.71507468848, 14.685935882605],
        [-124.83332561029, -141.67355933814, 16.384954360999],
        [-124.87354396356, -141.63204589515, 18.083970932044],
        [-124.91376183999, -141.59053054481, 19.782987503089],
        [-124.95398019327, -141.54901519447, 21.482004074134],
        [-124.9941980697, -141.50749984412, 23.181022552527],
        [-125.03441642297, -141.46598449378, 24.880039123572],
        [-125.07463429941, -141.42447105079, 26.579055694617],
        [-125.11485265268, -141.38295570045, 28.278072265662],
        [-125.15507052911, -141.34144035011, 29.977090744056],
        [-125.19528888238, -141.29992499976, 31.676107315101],
        [-125.23550675882, -141.25841155677, 33.375123886146],
        [-125.27572511209, -141.21689620643, 35.07414045719],
        [-125.31594298852, -141.17538085609, 36.773157028235],
        [-125.35616134179, -141.13386550575, 38.47217359928],
        [-125.39637921823, -141.09235206275, 40.171193985022],
        [-125.4365975715, -141.05083671241, 41.870210556067],
        [-125.47681544793, -141.00932136207, 43.569227127112],
        [-125.51703380121, -140.96780601173, 45.268243698157],
        [-125.55725167764, -140.92629256873, 46.967260269202],
        [-125.59747003091, -140.88477721839, 48.666276840247],
        [-125.63768790735, -140.84326186805, 50.365293411292],
        [-125.67790626062, -140.80174651771, 52.064313797034],
        [-125.71812413705, -140.76023116737, 53.763330368079],
        [-125.75834201349, -140.71871772437, 55.462346939124],
        [-125.79856036676, -140.67720237403, 57.161363510169],
        [-125.83877824319, -140.63568702369, 58.860380081214],
        [-125.87899659646, -140.59417167335, 60.559396652259],
        [-125.9192144729, -140.55265823035, 62.258413223304],
        [-125.95943282617, -140.51114288001, 63.957429794349],
        [-125.9996507026, -140.46962752967, 65.656446365394],
        [-126.03986905587, -140.42811217933, 67.355466751136],
        [-126.08008693231, -140.38659873634, 69.054479507483],
        [-126.12030528558, -140.34508338599, 70.753499893226],
        [-126.16052316202, -140.30356803565, 72.452520278968],
        [-126.20074151529, -140.26205268531, 74.151533035315]
],
      "InstanceCreationTime": ["150324.232000", "150324.333000", "150324.241000", "150324.339000", "150324.248000", "150324.346000", "150324.256000", "150324.353000", "150324.263000", "150324.360000", "150324.271000", "150324.366000", "150324.278000", "150324.373000", "150324.284000", "150324.379000", "150324.291000", "150324.386000", "150324.298000", "150324.392000", "150324.307000", "150324.399000", "150324.313000", "150324.405000", "150324.320000", "150324.412000", "150324.326000", "150324.236000", "150324.335000", "150324.244000", "150324.341000", "150324.251000", "150324.349000", "150324.258000", "150324.355000", "150324.266000", "150324.362000", "150324.273000", "150324.369000", "150324.280000", "150324.375000", "150324.287000", "150324.381000", "150324.293000", "150324.388000", "150324.302000", "150324.394000", "150324.309000", "150324.401000", "150324.315000", "150324.407000", "150324.322000", "150324.414000", "150324.328000", "150324.238000", "150324.337000", "150324.246000", "150324.344000", "150324.253000", "150324.351000", "150324.260000", "150324.358000", "150324.269000", "150324.364000", "150324.276000", "150324.371000", "150324.282000", "150324.377000", "150324.289000", "150324.384000", "150324.296000", "150324.390000", "150324.305000", "150324.397000", "150324.311000", "150324.403000", "150324.317000", "150324.410000", "150324.324000", "150324.416000", "150324.331000"],
      "InstanceNumber": [1, 2, 3, 4, 5, 6, 7, 8, 9, 10, 11, 12, 13, 14, 15, 16, 17, 18, 19, 20, 21, 22, 23, 24, 25, 26, 27, 28, 29, 30, 31, 32, 33, 34, 35, 36, 37, 38, 39, 40, 41, 42, 43, 44, 45, 46, 47, 48, 49, 50, 51, 52, 53, 54, 55, 56, 57, 58, 59, 60, 61, 62, 63, 64, 65, 66, 67, 68, 69, 70, 71, 72, 73, 74, 75, 76, 77, 78, 79, 80, 81],
      "LargestImagePixelValue": [35598, 31821, 33528, 30610, 28340, 21079, 33674, 20962, 22388, 18843, 16414, 20718, 27944, 24094, 18992, 20962, 20244, 24306, 30532, 21604, 28798, 31430, 38736, 46904, 43713, 48562, 46559, 54589, 37840, 29974, 37974, 38127, 32175, 34877, 43781, 43140, 38572, 43755, 38768, 40802, 34638, 41798, 38572, 48668, 40582, 34329, 36079, 38492, 36627, 35584, 37375, 48201, 46086, 40229, 41748, 49161, 53821, 52061, 44225, 60250, 55684, 51413, 46889, 45014, 59450, 65535, 60848, 52988, 38440, 41187, 41098, 48255, 50860, 43382, 33277, 8521, 7004, 7381, 7564, 7667, 5877],
      "SliceLocation": [-62.330992299001, -60.630992784607, -58.930993281494, -57.2309937671, -55.530994263988, -53.830994796172, -52.13099529306, -50.430991966174, -48.730992463061, -47.030992995246, -45.330993492133, -43.63099397774, -41.930994474627, -40.230995006812, -38.530991691207, -36.830992176813, -35.130992673701, -33.430993205885, -31.730993702772, -30.030994188379, -28.33099277902, -26.630993275907, -24.930993808092, -23.230994304979, -21.53099288434, -19.830993381227, -18.130993913412, -16.430994410299, -14.730992989659, -13.030993486546, -11.330993065608, -9.6309935624954, -7.9309935715403, -6.230993591866, -4.5309936009108, -2.8309934295343, -1.1309934385791, 0.56900654109516, 2.2690065320503, 3.9690067034269, 5.669006694382, 7.3690066740563, 9.0690066650115, 10.769006121546, 12.469006577782, 14.169006092175, 15.869007501534, 17.569006969349, 19.269006472462, 20.969005986856, 22.669007396214, 24.369006910608, 26.069006367142, 27.769005881536, 29.469007290895, 31.169006805289, 32.869006261823, 34.569005776217, 36.269005279329, 37.969004793723, 39.669008062749, 41.369007577143, 43.069007080256, 44.769006594649, 46.469006051184, 48.169005565577, 49.86900506869, 51.569008395576, 53.269007898688, 54.969007355223, 56.669006869617, 58.369006372729, 60.069005887123, 61.769005343657, 63.469004858051, 65.169004361164, 66.869007688049, 68.569003332092, 70.269006658977, 71.969009974582, 73.669005676484],
      "WindowCenter": [6000.0, 5275.0, 5589.0, 5797.0, 5699.0, 5425.0, 5973.0, 5503.0, 5732.0, 5329.0, 5243.0, 5817.0, 6238.0, 6381.0, 6173.0, 6348.0, 6428.0, 6721.0, 7308.0, 7301.0, 7736.0, 7640.0, 7797.0, 7874.0, 7975.0, 8123.0, 8181.0, 8321.0, 8179.0, 8192.0, 8429.0, 8582.0, 8701.0, 8931.0, 9215.0, 9177.0, 8950.0, 9068.0, 8950.0, 9115.0, 9084.0, 9271.0, 9410.0, 9606.0, 9591.0, 9474.0, 9538.0, 9470.0, 9387.0, 9315.0, 9565.0, 9692.0, 9734.0, 9628.0, 9366.0, 9429.0, 9719.0, 9879.0, 9602.0, 9400.0, 9480.0, 9376.0, 9503.0, 9388.0, 9539.0, 9350.0, 9553.0, 9367.0, 9311.0, 9609.0, 9605.0, 9586.0, 9590.0, 7964.0, 5069.0, 1569.0, 1537.0, 1512.0, 1516.0, 1476.0, 1349.0],
      "WindowWidth": [13780.0, 11895.0, 12535.0, 12707.0, 12286.0, 11744.0, 12687.0, 11922.0, 12234.0, 11537.0, 11567.0, 12657.0, 13644.0, 13760.0, 13320.0, 13676.0, 13899.0, 14575.0, 15688.0, 15858.0, 16816.0, 16817.0, 17250.0, 17488.0, 17722.0, 18105.0, 18173.0, 18239.0, 17818.0, 17773.0, 18099.0, 18390.0, 18710.0, 19246.0, 19912.0, 19917.0, 19463.0, 19390.0, 19159.0, 19527.0, 19397.0, 19988.0, 20133.0, 20543.0, 20541.0, 20325.0, 20633.0, 20457.0, 20177.0, 20095.0, 20627.0, 20958.0, 21108.0, 20910.0, 20357.0, 20478.0, 21356.0, 21803.0, 21294.0, 20688.0, 20892.0, 20530.0, 20861.0, 20521.0, 20870.0, 20378.0, 20861.0, 20348.0, 20090.0, 20933.0, 21059.0, 20922.0, 21045.0, 16999.0, 11941.0, 4607.0, 4476.0, 4374.0, 4414.0, 4296.0, 3761.0]
    }
  }
}