{
  "AcquisitionMatrixPE": 82,
  "AcquisitionNumber": 1,
  "AcquisitionTime": "16:58:18.295000",
  "BandwidthPerPixelPhaseEncode": 24.888,
  "BaseResolution": 82,
  "BodyPartExamined": "BRAIN",
  "ConsistencyInfo": "N4_VE11E_LATEST_20181129",
  "ConversionSoftware": "dcm2niix",
  "ConversionSoftwareVersion": "v1.0.20201102",
  "DerivedVendorReportedEchoSpacing": 0.00049,
  "DeviceSerialNumber": "66112",
  "DwellTime": 2e-06,
  "EchoTime": 0.0272,
  "EchoTrainLength": 82,
  "EffectiveEchoSpacing": 0.00049,
  "FlipAngle": 44,
  "ImageComments": "Unaliased MB8/PE3",
  "ImageOrientationPatientDICOM": [0.997992, 0.0627394, 0.00875779, -0.063138, 0.973896, 0.218035],
  "ImageType": [
    "ORIGINAL",
    "PRIMARY",
    "M",
    "MB",
    "ND",
    "NORM",
    "MOSAIC"
],
  "ImagingFrequency": 123.252,
  "InPlanePhaseEncodingDirectionDICOM": "COL",
  "InstitutionAddress": "Maynard 3,Hanover,NH,US,03755",
  "InstitutionName": "Dartmouth College - PBS",
  "InstitutionalDepartmentName": "Department",
  "MRAcquisitionType": "2D",
  "MagneticFieldStrength": 3,
  "Manufacturer": "Siemens",
  "ManufacturersModelName": "Prisma",
  "Modality": "MR",
  "MultibandAccelerationFactor": 8,
  "PartialFourier": 1,
  "PatientPosition": "HFS",
  "PercentPhaseFOV": 100,
  "PercentSampling": 100,
  "PhaseEncodingDirection": "j-",
  "PhaseEncodingSteps": 82,
  "PhaseResolution": 1,
  "PixelBandwidth": 3050,
  "ProcedureStepDescription": "Wager_Wager^1076_spacetop",
  "ProtocolName": "func_run-02_task-social_acq-ap-mb8",
  "PulseSequenceDetails": "%CustomerSeq%\\cmrr_mbep2d_bold",
  "ReceiveCoilActiveElements": "HEA;HEP",
  "ReceiveCoilName": "Head_32",
  "ReconMatrixPE": 82,
  "RepetitionTime": 0.46,
  "SAR": 0.0936151,
  "ScanOptions": "FS",
  "ScanningSequence": "EP",
  "SequenceName": "epfid2d1_82",
  "SequenceVariant": "SK\\SS",
  "SeriesDescription": "func_run-02_task-social_acq-ap-mb8",
  "SeriesNumber": 14,
  "ShimSetting": [4153, -7751, -7293, 770, -52, -37, -26, 72],
  "SliceThickness": 2.7,
  "SliceTiming": [0, 0.25, 0.0625, 0.315, 0.125, 0.3775, 0.1875, 0, 0.25, 0.0625, 0.315, 0.125, 0.3775, 0.1875, 0, 0.25, 0.0625, 0.315, 0.125, 0.3775, 0.1875, 0, 0.25, 0.0625, 0.315, 0.125, 0.3775, 0.1875, 0, 0.25, 0.0625, 0.315, 0.125, 0.3775, 0.1875, 0, 0.25, 0.0625, 0.315, 0.125, 0.3775, 0.1875, 0, 0.25, 0.0625, 0.315, 0.125, 0.3775, 0.1875, 0, 0.25, 0.0625, 0.315, 0.125, 0.3775, 0.1875],
  "SoftwareVersions": "syngo MR E11",
  "SpacingBetweenSlices": 2.7,
  "StationName": "AWP66112",
  "TaskName": "social",
  "TotalReadoutTime": 0.03969,
  "TxRefAmp": 233.487,
  "WipMemBlock": "40b6b88f-e39f-438e-87ef-500a4e12b6af||Sequence: R016 ve11e/master r/434b28f1; Aug  7 2019 18:53:46 by eja",
  "dcmmeta_affine": [
    [-2.6775383949279785, -0.16939468681812286, -0.013905595056712627, 116.53318786621094],
    [-0.168325275182724, 2.6128928661346436, 0.5890057682991028, -101.15373229980469],
    [0.02349652349948883, -0.584972620010376, 2.634934186935425, -47.02948760986328],
    [0.0, 0.0, 0.0, 1.0]
],
  "dcmmeta_reorient_transform": [
    [0.0, -1.0, 0.0, 81.0],
    [1.0, 0.0, 0.0, 0.0],
    [0.0, 0.0, 1.0, 0.0],
    [0.0, 0.0, 0.0, 1.0]
],
  "dcmmeta_shape": [82, 82, 56, 872],
  "dcmmeta_slice_dim": 2,
  "dcmmeta_version": 0.6,
  "global": {
    "const": {
      "AccessionNumber": "A003933",
      "AcquisitionMatrix": [82, 0, 0, 82],
      "AngioFlag": "N",
      "BitsAllocated": 16,
      "BitsStored": 16,
      "BodyPartExamined": "BRAIN",
      "Columns": 656,
      "EchoNumbers": 1,
      "EchoTime": 27.2,
      "EchoTrainLength": 82,
      "FlipAngle": 44.0,
      "HighBit": 15,
      "ImageOrientationPatient": [0.99799151609587, 0.06273942009211, 0.00875779465225, -0.063138015728, 0.97389641141508, 0.21803525128467],
      "ImagePositionPatient": [-822.64942758831, -908.70020272775, -269.04291966766],
      "ImageType": [
        "ORIGINAL",
        "PRIMARY",
        "M",
        "MB",
        "ND",
        "NORM",
        "MOSAIC"
],
      "ImagedNucleus": "1H",
      "ImagingFrequency": 123.252191,
      "InPlanePhaseEncodingDirection": "COL",
      "MRAcquisitionType": "2D",
      "MagneticFieldStrength": 3.0,
      "Manufacturer": "SIEMENS",
      "ManufacturerModelName": "Prisma",
      "Modality": "MR",
      "NumberOfAverages": 1.0,
      "NumberOfPhaseEncodingSteps": 82,
      "PercentPhaseFieldOfView": 100.0,
      "PercentSampling": 100.0,
      "PerformedProcedureStepStartTime": "160058.281000",
      "PhotometricInterpretation": "MONOCHROME2",
      "PixelBandwidth": 3050.0,
      "PixelRepresentation": 0,
      "PixelSpacing": [2.6829268932343, 2.6829268932343],
      "ProtocolName": "func_run-02_task-social_acq-ap-mb8",
      "RepetitionTime": 460.0,
      "Rows": 656,
      "SAR": 0.09361511638018,
      "SamplesPerPixel": 1,
      "ScanOptions": "FS",
      "ScanningSequence": "EP",
      "SequenceName": "epfid2d1_82",
      "SequenceVariant": [
        "SK",
        "SS"
],
      "SeriesDescription": "func_run-02_task-social_acq-ap-mb8",
      "SeriesNumber": 14,
      "SeriesTime": "165836.899000",
      "SliceLocation": -68.563036945481,
      "SliceThickness": 2.7000000476837,
      "SmallestImagePixelValue": 0,
      "SoftwareVersions": "syngo MR E11",
      "SpacingBetweenSlices": 2.69999998285,
      "SpecificCharacterSet": "ISO_IR 100",
      "StudyID": "1",
      "StudyTime": "160058.229000",
      "TransmitCoilName": "Body",
      "VariableFlipAngleFlag": "N",
      "WindowCenterWidthExplanation": "Algo1"
    },
    "slices": {}
  },
  "time": {
    "samples": {
      "AcquisitionNumber": [1, 2, 3, 4, 5, 6, 7, 8, 9, 10, 11, 12, 13, 14, 15, 16, 17, 18, 19, 20, 21, 22, 23, 24, 25, 26, 27, 28, 29, 30, 31, 32, 33, 34, 35, 36, 37, 38, 39, 40, 41, 42, 43, 44, 45, 46, 47, 48, 49, 50, 51, 52, 53, 54, 55, 56, 57, 58, 59, 60, 61, 62, 63, 64, 65, 66, 67, 68, 69, 70, 71, 72, 73, 74, 75, 76, 77, 78, 79, 80, 81, 82, 83, 84, 85, 86, 87, 88, 89, 90, 91, 92, 93, 94, 95, 96, 97, 98, 99, 100, 101, 102, 103, 104, 105, 106, 107, 108, 109, 110, 111, 112, 113, 114, 115, 116, 117, 118, 119, 120, 121, 122, 123, 124, 125, 126, 127, 128, 129, 130, 131, 132, 133, 134, 135, 136, 137, 138, 139, 140, 141, 142, 143, 144, 145, 146, 147, 148, 149, 150, 151, 152, 153, 154, 155, 156, 157, 158, 159, 160, 161, 162, 163, 164, 165, 166, 167, 168, 169, 170, 171, 172, 173, 174, 175, 176, 177, 178, 179, 180, 181, 182, 183, 184, 185, 186, 187, 188, 189, 190, 191, 192, 193, 194, 195, 196, 197, 198, 199, 200, 201, 202, 203, 204, 205, 206, 207, 208, 209, 210, 211, 212, 213, 214, 215, 216, 217, 218, 219, 220, 221, 222, 223, 224, 225, 226, 227, 228, 229, 230, 231, 232, 233, 234, 235, 236, 237, 238, 239, 240, 241, 242, 243, 244, 245, 246, 247, 248, 249, 250, 251, 252, 253, 254, 255, 256, 257, 258, 259, 260, 261, 262, 263, 264, 265, 266, 267, 268, 269, 270, 271, 272, 273, 274, 275, 276, 277, 278, 279, 280, 281, 282, 283, 284, 285, 286, 287, 288, 289, 290, 291, 292, 293, 294, 295, 296, 297, 298, 299, 300, 301, 302, 303, 304, 305, 306, 307, 308, 309, 310, 311, 312, 313, 314, 315, 316, 317, 318, 319, 320, 321, 322, 323, 324, 325, 326, 327, 328, 329, 330, 331, 332, 333, 334, 335, 336, 337, 338, 339, 340, 341, 342, 343, 344, 345, 346, 347, 348, 349, 350, 351, 352, 353, 354, 355, 356, 357, 358, 359, 360, 361, 362, 363, 364, 365, 366, 367, 368, 369, 370, 371, 372, 373, 374, 375, 376, 377, 378, 379, 380, 381, 382, 383, 384, 385, 386, 387, 388, 389, 390, 391, 392, 393, 394, 395, 396, 397, 398, 399, 400, 401, 402, 403, 404, 405, 406, 407, 408, 409, 410, 411, 412, 413, 414, 415, 416, 417, 418, 419, 420, 421, 422, 423, 424, 425, 426, 427, 428, 429, 430, 431, 432, 433, 434, 435, 436, 437, 438, 439, 440, 441, 442, 443, 444, 445, 446, 447, 448, 449, 450, 451, 452, 453, 454, 455, 456, 457, 458, 459, 460, 461, 462, 463, 464, 465, 466, 467, 468, 469, 470, 471, 472, 473, 474, 475, 476, 477, 478, 479, 480, 481, 482, 483, 484, 485, 486, 487, 488, 489, 490, 491, 492, 493, 494, 495, 496, 497, 498, 499, 500, 501, 502, 503, 504, 505, 506, 507, 508, 509, 510, 511, 512, 513, 514, 515, 516, 517, 518, 519, 520, 521, 522, 523, 524, 525, 526, 527, 528, 529, 530, 531, 532, 533, 534, 535, 536, 537, 538, 539, 540, 541, 542, 543, 544, 545, 546, 547, 548, 549, 550, 551, 552, 553, 554, 555, 556, 557, 558, 559, 560, 561, 562, 563, 564, 565, 566, 567, 568, 569, 570, 571, 572, 573, 574, 575, 576, 577, 578, 579, 580, 581, 582, 583, 584, 585, 586, 587, 588, 589, 590, 591, 592, 593, 594, 595, 596, 597, 598, 599, 600, 601, 602, 603, 604, 605, 606, 607, 608, 609, 610, 611, 612, 613, 614, 615, 616, 617, 618, 619, 620, 621, 622, 623, 624, 625, 626, 627, 628, 629, 630, 631, 632, 633, 634, 635, 636, 637, 638, 639, 640, 641, 642, 643, 644, 645, 646, 647, 648, 649, 650, 651, 652, 653, 654, 655, 656, 657, 658, 659, 660, 661, 662, 663, 664, 665, 666, 667, 668, 669, 670, 671, 672, 673, 674, 675, 676, 677, 678, 679, 680, 681, 682, 683, 684, 685, 686, 687, 688, 689, 690, 691, 692, 693, 694, 695, 696, 697, 698, 699, 700, 701, 702, 703, 704, 705, 706, 707, 708, 709, 710, 711, 712, 713, 714, 715, 716, 717, 718, 719, 720, 721, 722, 723, 724, 725, 726, 727, 728, 729, 730, 731, 732, 733, 734, 735, 736, 737, 738, 739, 740, 741, 742, 743, 744, 745, 746, 747, 748, 749, 750, 751, 752, 753, 754, 755, 756, 757, 758, 759, 760, 761, 762, 763, 764, 765, 766, 767, 768, 769, 770, 771, 772, 773, 774, 775, 776, 777, 778, 779, 780, 781, 782, 783, 784, 785, 786, 787, 788, 789, 790, 791, 792, 793, 794, 795, 796, 797, 798, 799, 800, 801, 802, 803, 804, 805, 806, 807, 808, 809, 810, 811, 812, 813, 814, 815, 816, 817, 818, 819, 820, 821, 822, 823, 824, 825, 826, 827, 828, 829, 830, 831, 832, 833, 834, 835, 836, 837, 838, 839, 840, 841, 842, 843, 844, 845, 846, 847, 848, 849, 850, 851, 852, 853, 854, 855, 856, 857, 858, 859, 860, 861, 862, 863, 864, 865, 866, 867, 868, 869, 870, 871, 872],
      "AcquisitionTime": ["165818.295000", "165818.755000", "165819.215000", "165819.675000", "165820.135000", "165820.595000", "165821.055000", "165821.515000", "165821.975000", "165822.435000", "165822.895000", "165823.355000", "165823.815000", "165824.275000", "165824.735000", "165825.195000", "165825.655000", "165826.115000", "165826.575000", "165827.035000", "165827.495000", "165827.955000", "165828.415000", "165828.875000", "165829.335000", "165829.795000", "165830.255000", "165830.715000", "165831.175000", "165831.635000", "165832.095000", "165832.555000", "165833.015000", "165833.475000", "165833.935000", "165834.395000", "165834.855000", "165835.315000", "165835.775000", "165836.235000", "165836.695000", "165837.155000", "165837.615000", "165838.075000", "165838.535000", "165838.995000", "165839.455000", "165839.915000", "165840.375000", "165840.835000", "165841.295000", "165841.755000", "165842.215000", "165842.675000", "165843.135000", "165843.595000", "165844.055000", "165844.515000", "165844.975000", "165845.435000", "165845.895000", "165846.355000", "165846.815000", "165847.275000", "165847.735000", "165848.195000", "165848.655000", "165849.115000", "165849.575000", "165850.035000", "165850.495000", "165850.955000", "165851.415000", "165851.875000", "165852.335000", "165852.795000", "165853.255000", "165853.715000", "165854.175000", "165854.635000", "165855.095000", "165855.555000", "165856.015000", "165856.475000", "165856.935000", "165857.395000", "165857.855000", "165858.315000", "165858.775000", "165859.235000", "165859.695000", "165900.155000", "165900.615000", "165901.075000", "165901.535000", "165901.995000", "165902.455000", "165902.915000", "165903.375000", "165903.835000", "165904.295000", "165904.755000", "165905.215000", "165905.675000", "165906.135000", "165906.595000", "165907.055000", "165907.515000", "165907.975000", "165908.435000", "165908.895000", "165909.355000", "165909.815000", "165910.275000", "165910.735000", "165911.195000", "165911.655000", "165912.115000", "165912.575000", "165913.035000", "165913.495000", "165913.955000", "165914.415000", "165914.875000", "165915.335000", "165915.795000", "165916.255000", "165916.715000", "165917.175000", "165917.635000", "165918.095000", "165918.555000", "165919.015000", "165919.475000", "165919.935000", "165920.395000", "165920.855000", "165921.315000", "165921.775000", "165922.235000", "165922.695000", "165923.155000", "165923.615000", "165924.075000", "165924.535000", "165924.995000", "165925.455000", "165925.915000", "165926.375000", "165926.835000", "165927.295000", "165927.755000", "165928.215000", "165928.675000", "165929.135000", "165929.595000", "165930.055000", "165930.515000", "165930.975000", "165931.435000", "165931.895000", "165932.355000", "165932.815000", "165933.275000", "165933.735000", "165934.195000", "165934.655000", "165935.115000", "165935.575000", "165936.035000", "165936.495000", "165936.955000", "165937.415000", "165937.875000", "165938.335000", "165938.795000", "165939.255000", "165939.715000", "165940.175000", "165940.635000", "165941.095000", "165941.555000", "165942.015000", "165942.475000", "165942.935000", "165943.395000", "165943.855000", "165944.315000", "165944.775000", "165945.235000", "165945.695000", "165946.155000", "165946.615000", "165947.075000", "165947.535000", "165947.995000", "165948.455000", "165948.915000", "165949.375000", "165949.835000", "165950.295000", "165950.755000", "165951.215000", "165951.675000", "165952.135000", "165952.595000", "165953.055000", "165953.515000", "165953.975000", "165954.435000", "165954.895000", "165955.355000", "165955.815000", "165956.275000", "165956.735000", "165957.195000", "165957.655000", "165958.115000", "165958.575000", "165959.035000", "165959.495000", "165959.955000", "170000.415000", "170000.875000", "170001.335000", "170001.795000", "170002.255000", "170002.715000", "170003.175000", "170003.635000", "170004.095000", "170004.555000", "170005.015000", "170005.475000", "170005.935000", "170006.395000", "170006.855000", "170007.315000", "170007.775000", "170008.235000", "170008.695000", "170009.155000", "170009.615000", "170010.075000", "170010.535000", "170010.995000", "170011.455000", "170011.915000", "170012.375000", "170012.835000", "170013.295000", "170013.755000", "170014.215000", "170014.675000", "170015.135000", "170015.595000", "170016.055000", "170016.515000", "170016.975000", "170017.435000", "170017.895000", "170018.355000", "170018.815000", "170019.275000", "170019.735000", "170020.195000", "170020.655000", "170021.115000", "170021.575000", "170022.035000", "170022.495000", "170022.955000", "170023.415000", "170023.875000", "170024.335000", "170024.795000", "170025.255000", "170025.715000", "170026.175000", "170026.635000", "170027.095000", "170027.555000", "170028.015000", "170028.475000", "170028.935000", "170029.395000", "170029.855000", "170030.315000", "170030.775000", "170031.235000", "170031.695000", "170032.155000", "170032.615000", "170033.075000", "170033.535000", "170033.995000", "170034.455000", "170034.915000", "170035.375000", "170035.835000", "170036.295000", "170036.755000", "170037.215000", "170037.675000", "170038.135000", "170038.595000", "170039.055000", "170039.515000", "170039.975000", "170040.435000", "170040.895000", "170041.355000", "170041.815000", "170042.275000", "170042.735000", "170043.195000", "170043.655000", "170044.115000", "170044.575000", "170045.035000", "170045.495000", "170045.955000", "170046.415000", "170046.875000", "170047.335000", "170047.795000", "170048.255000", "170048.715000", "170049.175000", "170049.635000", "170050.095000", "170050.555000", "170051.015000", "170051.475000", "170051.935000", "170052.395000", "170052.855000", "170053.315000", "170053.775000", "170054.235000", "170054.695000", "170055.155000", "170055.615000", "170056.075000", "170056.535000", "170056.995000", "170057.455000", "170057.915000", "170058.375000", "170058.835000", "170059.295000", "170059.755000", "170100.215000", "170100.675000", "170101.135000", "170101.595000", "170102.055000", "170102.515000", "170102.975000", "170103.435000", "170103.895000", "170104.355000", "170104.815000", "170105.275000", "170105.735000", "170106.195000", "170106.655000", "170107.115000", "170107.575000", "170108.035000", "170108.495000", "170108.955000", "170109.415000", "170109.875000", "170110.335000", "170110.795000", "170111.255000", "170111.715000", "170112.175000", "170112.635000", "170113.095000", "170113.555000", "170114.015000", "170114.475000", "170114.935000", "170115.395000", "170115.855000", "170116.315000", "170116.775000", "170117.235000", "170117.695000", "170118.155000", "170118.615000", "170119.075000", "170119.535000", "170119.995000", "170120.455000", "170120.915000", "170121.375000", "170121.835000", "170122.295000", "170122.755000", "170123.215000", "170123.675000", "170124.135000", "170124.595000", "170125.055000", "170125.515000", "170125.975000", "170126.435000", "170126.895000", "170127.355000", "170127.815000", "170128.275000", "170128.735000", "170129.195000", "170129.655000", "170130.115000", "170130.575000", "170131.035000", "170131.495000", "170131.955000", "170132.415000", "170132.875000", "170133.335000", "170133.795000", "170134.255000", "170134.715000", "170135.175000", "170135.635000", "170136.095000", "170136.555000", "170137.015000", "170137.475000", "170137.935000", "170138.395000", "170138.855000", "170139.315000", "170139.775000", "170140.235000", "170140.695000", "170141.155000", "170141.615000", "170142.075000", "170142.535000", "170142.995000", "170143.455000", "170143.915000", "170144.375000", "170144.835000", "170145.295000", "170145.755000", "170146.215000", "170146.675000", "170147.135000", "170147.595000", "170148.055000", "170148.515000", "170148.975000", "170149.435000", "170149.895000", "170150.355000", "170150.815000", "170151.275000", "170151.735000", "170152.195000", "170152.655000", "170153.115000", "170153.575000", "170154.035000", "170154.495000", "170154.955000", "170155.415000", "170155.875000", "170156.335000", "170156.795000", "170157.255000", "170157.715000", "170158.175000", "170158.635000", "170159.095000", "170159.555000", "170200.015000", "170200.475000", "170200.935000", "170201.395000", "170201.855000", "170202.315000", "170202.775000", "170203.235000", "170203.695000", "170204.155000", "170204.615000", "170205.075000", "170205.535000", "170205.995000", "170206.455000", "170206.915000", "170207.375000", "170207.835000", "170208.295000", "170208.755000", "170209.215000", "170209.675000", "170210.135000", "170210.595000", "170211.055000", "170211.515000", "170211.975000", "170212.435000", "170212.895000", "170213.355000", "170213.815000", "170214.275000", "170214.735000", "170215.195000", "170215.655000", "170216.115000", "170216.575000", "170217.035000", "170217.495000", "170217.955000", "170218.415000", "170218.875000", "170219.335000", "170219.795000", "170220.255000", "170220.715000", "170221.175000", "170221.635000", "170222.095000", "170222.555000", "170223.015000", "170223.475000", "170223.935000", "170224.395000", "170224.855000", "170225.315000", "170225.775000", "170226.235000", "170226.695000", "170227.155000", "170227.615000", "170228.075000", "170228.535000", "170228.995000", "170229.455000", "170229.915000", "170230.375000", "170230.835000", "170231.295000", "170231.755000", "170232.215000", "170232.675000", "170233.135000", "170233.595000", "170234.055000", "170234.515000", "170234.975000", "170235.435000", "170235.895000", "170236.355000", "170236.815000", "170237.275000", "170237.735000", "170238.195000", "170238.655000", "170239.115000", "170239.575000", "170240.035000", "170240.495000", "170240.955000", "170241.415000", "170241.875000", "170242.335000", "170242.795000", "170243.255000", "170243.715000", "170244.175000", "170244.635000", "170245.095000", "170245.555000", "170246.015000", "170246.475000", "170246.935000", "170247.395000", "170247.855000", "170248.315000", "170248.775000", "170249.235000", "170249.695000", "170250.155000", "170250.615000", "170251.075000", "170251.535000", "170251.995000", "170252.455000", "170252.915000", "170253.375000", "170253.835000", "170254.295000", "170254.755000", "170255.215000", "170255.675000", "170256.135000", "170256.595000", "170257.055000", "170257.515000", "170257.975000", "170258.435000", "170258.895000", "170259.355000", "170259.815000", "170300.275000", "170300.735000", "170301.195000", "170301.655000", "170302.115000", "170302.575000", "170303.035000", "170303.495000", "170303.955000", "170304.415000", "170304.875000", "170305.335000", "170305.795000", "170306.255000", "170306.715000", "170307.175000", "170307.635000", "170308.095000", "170308.555000", "170309.015000", "170309.475000", "170309.935000", "170310.395000", "170310.855000", "170311.315000", "170311.775000", "170312.235000", "170312.695000", "170313.155000", "170313.615000", "170314.075000", "170314.535000", "170314.995000", "170315.455000", "170315.915000", "170316.375000", "170316.835000", "170317.295000", "170317.755000", "170318.215000", "170318.675000", "170319.135000", "170319.595000", "170320.055000", "170320.515000", "170320.975000", "170321.435000", "170321.895000", "170322.355000", "170322.815000", "170323.275000", "170323.735000", "170324.195000", "170324.655000", "170325.115000", "170325.575000", "170326.035000", "170326.495000", "170326.955000", "170327.415000", "170327.875000", "170328.335000", "170328.795000", "170329.255000", "170329.715000", "170330.175000", "170330.635000", "170331.095000", "170331.555000", "170332.015000", "170332.475000", "170332.935000", "170333.395000", "170333.855000", "170334.315000", "170334.775000", "170335.235000", "170335.695000", "170336.155000", "170336.615000", "170337.075000", "170337.535000", "170337.995000", "170338.455000", "170338.915000", "170339.375000", "170339.835000", "170340.295000", "170340.755000", "170341.215000", "170341.675000", "170342.135000", "170342.595000", "170343.055000", "170343.515000", "170343.975000", "170344.435000", "170344.895000", "170345.355000", "170345.815000", "170346.275000", "170346.735000", "170347.195000", "170347.655000", "170348.115000", "170348.575000", "170349.035000", "170349.495000", "170349.955000", "170350.415000", "170350.875000", "170351.335000", "170351.795000", "170352.255000", "170352.715000", "170353.175000", "170353.635000", "170354.095000", "170354.555000", "170355.015000", "170355.475000", "170355.935000", "170356.395000", "170356.855000", "170357.315000", "170357.775000", "170358.235000", "170358.695000", "170359.155000", "170359.615000", "170400.075000", "170400.535000", "170400.995000", "170401.455000", "170401.915000", "170402.375000", "170402.835000", "170403.295000", "170403.755000", "170404.215000", "170404.675000", "170405.135000", "170405.595000", "170406.055000", "170406.515000", "170406.975000", "170407.435000", "170407.895000", "170408.355000", "170408.815000", "170409.275000", "170409.735000", "170410.195000", "170410.655000", "170411.115000", "170411.575000", "170412.035000", "170412.495000", "170412.955000", "170413.415000", "170413.875000", "170414.335000", "170414.795000", "170415.255000", "170415.715000", "170416.175000", "170416.635000", "170417.095000", "170417.555000", "170418.015000", "170418.475000", "170418.935000", "170419.395000", "170419.855000", "170420.315000", "170420.775000", "170421.235000", "170421.695000", "170422.155000", "170422.615000", "170423.075000", "170423.535000", "170423.995000", "170424.455000", "170424.915000", "170425.375000", "170425.835000", "170426.295000", "170426.755000", "170427.215000", "170427.675000", "170428.135000", "170428.595000", "170429.055000", "170429.515000", "170429.975000", "170430.435000", "170430.895000", "170431.355000", "170431.815000", "170432.275000", "170432.735000", "170433.195000", "170433.655000", "170434.115000", "170434.575000", "170435.035000", "170435.495000", "170435.955000", "170436.415000", "170436.875000", "170437.335000", "170437.795000", "170438.255000", "170438.715000", "170439.175000", "170439.635000", "170440.095000", "170440.555000", "170441.015000", "170441.475000", "170441.935000", "170442.395000", "170442.855000", "170443.315000", "170443.775000", "170444.235000", "170444.695000", "170445.155000", "170445.615000", "170446.075000", "170446.535000", "170446.995000", "170447.455000", "170447.915000", "170448.375000", "170448.835000", "170449.295000", "170449.755000", "170450.215000", "170450.675000", "170451.135000", "170451.595000", "170452.055000", "170452.515000", "170452.975000", "170453.435000", "170453.895000", "170454.355000", "170454.815000", "170455.275000", "170455.735000", "170456.195000", "170456.655000", "170457.115000", "170457.575000", "170458.035000", "170458.495000", "170458.955000"],
