{
  "AcquisitionMatrixPE": 82,
  "AcquisitionNumber": 1,
  "AcquisitionTime": "17:19:10.235000",
  "BandwidthPerPixelPhaseEncode": 24.888,
  "BaseResolution": 82,
  "BodyPartExamined": "BRAIN",
  "ConsistencyInfo": "N4_VE11E_LATEST_20181129",
  "ConversionSoftware": "dcm2niix",
  "ConversionSoftwareVersion": "v1.0.20201102",
  "DerivedVendorReportedEchoSpacing": 0.00049,
  "DeviceSerialNumber": "66112",
  "DwellTime": 2e-06,
  "EchoTime": 0.0272,
  "EchoTrainLength": 82,
  "EffectiveEchoSpacing": 0.00049,
  "FlipAngle": 44,
  "ImageComments": "Unaliased MB8/PE3",
  "ImageOrientationPatientDICOM": [0.997992, 0.0627394, 0.00875779, -0.063138, 0.973896, 0.218035],
  "ImageType": [
    "ORIGINAL",
    "PRIMARY",
    "M",
    "MB",
    "ND",
    "NORM",
    "MOSAIC"
],
  "ImagingFrequency": 123.252,
  "InPlanePhaseEncodingDirectionDICOM": "COL",
  "InstitutionAddress": "Maynard 3,Hanover,NH,US,03755",
  "InstitutionName": "Dartmouth College - PBS",
  "InstitutionalDepartmentName": "Department",
  "MRAcquisitionType": "2D",
  "MagneticFieldStrength": 3,
  "Manufacturer": "Siemens",
  "ManufacturersModelName": "Prisma",
  "Modality": "MR",
  "MultibandAccelerationFactor": 8,
  "PartialFourier": 1,
  "PatientPosition": "HFS",
  "PercentPhaseFOV": 100,
  "PercentSampling": 100,
  "PhaseEncodingDirection": "j-",
  "PhaseEncodingSteps": 82,
  "PhaseResolution": 1,
  "PixelBandwidth": 3050,
  "ProcedureStepDescription": "Wager_Wager^1076_spacetop",
  "ProtocolName": "func_run-05_task-social_acq-ap-mb8",
  "PulseSequenceDetails": "%CustomerSeq%\\cmrr_mbep2d_bold",
  "ReceiveCoilActiveElements": "HEA;HEP",
  "ReceiveCoilName": "Head_32",
  "ReconMatrixPE": 82,
  "RepetitionTime": 0.46,
  "SAR": 0.0936151,
  "ScanOptions": "FS",
  "ScanningSequence": "EP",
  "SequenceName": "epfid2d1_82",
  "SequenceVariant": "SK\\SS",
  "SeriesDescription": "func_run-05_task-social_acq-ap-mb8",
  "SeriesNumber": 20,
  "ShimSetting": [4153, -7751, -7293, 770, -52, -37, -26, 72],
  "SliceThickness": 2.7,
  "SliceTiming": [0, 0.2525, 0.0625, 0.315, 0.1275, 0.3775, 0.19, 0, 0.2525, 0.0625, 0.315, 0.1275, 0.3775, 0.19, 0, 0.2525, 0.0625, 0.315, 0.1275, 0.3775, 0.19, 0, 0.2525, 0.0625, 0.315, 0.1275, 0.3775, 0.19, 0, 0.2525, 0.0625, 0.315, 0.1275, 0.3775, 0.19, 0, 0.2525, 0.0625, 0.315, 0.1275, 0.3775, 0.19, 0, 0.2525, 0.0625, 0.315, 0.1275, 0.3775, 0.19, 0, 0.2525, 0.0625, 0.315, 0.1275, 0.3775, 0.19],
  "SoftwareVersions": "syngo MR E11",
  "SpacingBetweenSlices": 2.7,
  "StationName": "AWP66112",
  "TaskName": "social",
  "TotalReadoutTime": 0.03969,
  "TxRefAmp": 233.487,
  "WipMemBlock": "0e44843e-5bb5-4c85-9c6f-aaef7c78f4cf||Sequence: R016 ve11e/master r/434b28f1; Aug  7 2019 18:53:46 by eja",
  "dcmmeta_affine": [
    [-2.6775383949279785, -0.16939468681812286, -0.013905595056712627, 116.53318786621094],
    [-0.168325275182724, 2.6128928661346436, 0.5890057682991028, -101.15373229980469],
    [0.02349652349948883, -0.584972620010376, 2.634934186935425, -47.02948760986328],
    [0.0, 0.0, 0.0, 1.0]
],
  "dcmmeta_reorient_transform": [
    [0.0, -1.0, 0.0, 81.0],
    [1.0, 0.0, 0.0, 0.0],
    [0.0, 0.0, 1.0, 0.0],
    [0.0, 0.0, 0.0, 1.0]
],
  "dcmmeta_shape": [82, 82, 56, 872],
  "dcmmeta_slice_dim": 2,
  "dcmmeta_version": 0.6,
  "global": {
    "const": {
      "AccessionNumber": "A003933",
      "AcquisitionMatrix": [82, 0, 0, 82],
      "AngioFlag": "N",
      "BitsAllocated": 16,
      "BitsStored": 16,
      "BodyPartExamined": "BRAIN",
      "Columns": 656,
      "EchoNumbers": 1,
      "EchoTime": 27.2,
      "EchoTrainLength": 82,
      "FlipAngle": 44.0,
      "HighBit": 15,
      "ImageOrientationPatient": [0.99799151609587, 0.06273942009211, 0.00875779465225, -0.063138015728, 0.97389641141508, 0.21803525128467],
      "ImagePositionPatient": [-822.64942758831, -908.70020272775, -269.04291966766],
      "ImageType": [
        "ORIGINAL",
        "PRIMARY",
        "M",
        "MB",
        "ND",
        "NORM",
        "MOSAIC"
],
      "ImagedNucleus": "1H",
      "ImagingFrequency": 123.252203,
      "InPlanePhaseEncodingDirection": "COL",
      "MRAcquisitionType": "2D",
      "MagneticFieldStrength": 3.0,
      "Manufacturer": "SIEMENS",
      "ManufacturerModelName": "Prisma",
      "Modality": "MR",
      "NumberOfAverages": 1.0,
      "NumberOfPhaseEncodingSteps": 82,
      "PercentPhaseFieldOfView": 100.0,
      "PercentSampling": 100.0,
      "PerformedProcedureStepStartTime": "160058.281000",
      "PhotometricInterpretation": "MONOCHROME2",
      "PixelBandwidth": 3050.0,
      "PixelRepresentation": 0,
      "PixelSpacing": [2.6829268932343, 2.6829268932343],
      "ProtocolName": "func_run-05_task-social_acq-ap-mb8",
      "RepetitionTime": 460.0,
      "Rows": 656,
      "SAR": 0.09361511638018,
      "SamplesPerPixel": 1,
      "ScanOptions": "FS",
      "ScanningSequence": "EP",
      "SequenceName": "epfid2d1_82",
      "SequenceVariant": [
        "SK",
        "SS"
],
      "SeriesDescription": "func_run-05_task-social_acq-ap-mb8",
      "SeriesNumber": 20,
      "SeriesTime": "171936.891000",
      "SliceLocation": -68.563036945481,
      "SliceThickness": 2.7000000476837,
      "SmallestImagePixelValue": 0,
      "SoftwareVersions": "syngo MR E11",
      "SpacingBetweenSlices": 2.69999998285,
      "SpecificCharacterSet": "ISO_IR 100",
      "StudyID": "1",
      "StudyTime": "160058.229000",
      "TransmitCoilName": "Body",
      "VariableFlipAngleFlag": "N",
      "WindowCenterWidthExplanation": "Algo1"
    },
    "slices": {}
  },
  "time": {
    "samples": {
      "AcquisitionNumber": [1, 2, 3, 4, 5, 6, 7, 8, 9, 10, 11, 12, 13, 14, 15, 16, 17, 18, 19, 20, 21, 22, 23, 24, 25, 26, 27, 28, 29, 30, 31, 32, 33, 34, 35, 36, 37, 38, 39, 40, 41, 42, 43, 44, 45, 46, 47, 48, 49, 50, 51, 52, 53, 54, 55, 56, 57, 58, 59, 60, 61, 62, 63, 64, 65, 66, 67, 68, 69, 70, 71, 72, 73, 74, 75, 76, 77, 78, 79, 80, 81, 82, 83, 84, 85, 86, 87, 88, 89, 90, 91, 92, 93, 94, 95, 96, 97, 98, 99, 100, 101, 102, 103, 104, 105, 106, 107, 108, 109, 110, 111, 112, 113, 114, 115, 116, 117, 118, 119, 120, 121, 122, 123, 124, 125, 126, 127, 128, 129, 130, 131, 132, 133, 134, 135, 136, 137, 138, 139, 140, 141, 142, 143, 144, 145, 146, 147, 148, 149, 150, 151, 152, 153, 154, 155, 156, 157, 158, 159, 160, 161, 162, 163, 164, 165, 166, 167, 168, 169, 170, 171, 172, 173, 174, 175, 176, 177, 178, 179, 180, 181, 182, 183, 184, 185, 186, 187, 188, 189, 190, 191, 192, 193, 194, 195, 196, 197, 198, 199, 200, 201, 202, 203, 204, 205, 206, 207, 208, 209, 210, 211, 212, 213, 214, 215, 216, 217, 218, 219, 220, 221, 222, 223, 224, 225, 226, 227, 228, 229, 230, 231, 232, 233, 234, 235, 236, 237, 238, 239, 240, 241, 242, 243, 244, 245, 246, 247, 248, 249, 250, 251, 252, 253, 254, 255, 256, 257, 258, 259, 260, 261, 262, 263, 264, 265, 266, 267, 268, 269, 270, 271, 272, 273, 274, 275, 276, 277, 278, 279, 280, 281, 282, 283, 284, 285, 286, 287, 288, 289, 290, 291, 292, 293, 294, 295, 296, 297, 298, 299, 300, 301, 302, 303, 304, 305, 306, 307, 308, 309, 310, 311, 312, 313, 314, 315, 316, 317, 318, 319, 320, 321, 322, 323, 324, 325, 326, 327, 328, 329, 330, 331, 332, 333, 334, 335, 336, 337, 338, 339, 340, 341, 342, 343, 344, 345, 346, 347, 348, 349, 350, 351, 352, 353, 354, 355, 356, 357, 358, 359, 360, 361, 362, 363, 364, 365, 366, 367, 368, 369, 370, 371, 372, 373, 374, 375, 376, 377, 378, 379, 380, 381, 382, 383, 384, 385, 386, 387, 388, 389, 390, 391, 392, 393, 394, 395, 396, 397, 398, 399, 400, 401, 402, 403, 404, 405, 406, 407, 408, 409, 410, 411, 412, 413, 414, 415, 416, 417, 418, 419, 420, 421, 422, 423, 424, 425, 426, 427, 428, 429, 430, 431, 432, 433, 434, 435, 436, 437, 438, 439, 440, 441, 442, 443, 444, 445, 446, 447, 448, 449, 450, 451, 452, 453, 454, 455, 456, 457, 458, 459, 460, 461, 462, 463, 464, 465, 466, 467, 468, 469, 470, 471, 472, 473, 474, 475, 476, 477, 478, 479, 480, 481, 482, 483, 484, 485, 486, 487, 488, 489, 490, 491, 492, 493, 494, 495, 496, 497, 498, 499, 500, 501, 502, 503, 504, 505, 506, 507, 508, 509, 510, 511, 512, 513, 514, 515, 516, 517, 518, 519, 520, 521, 522, 523, 524, 525, 526, 527, 528, 529, 530, 531, 532, 533, 534, 535, 536, 537, 538, 539, 540, 541, 542, 543, 544, 545, 546, 547, 548, 549, 550, 551, 552, 553, 554, 555, 556, 557, 558, 559, 560, 561, 562, 563, 564, 565, 566, 567, 568, 569, 570, 571, 572, 573, 574, 575, 576, 577, 578, 579, 580, 581, 582, 583, 584, 585, 586, 587, 588, 589, 590, 591, 592, 593, 594, 595, 596, 597, 598, 599, 600, 601, 602, 603, 604, 605, 606, 607, 608, 609, 610, 611, 612, 613, 614, 615, 616, 617, 618, 619, 620, 621, 622, 623, 624, 625, 626, 627, 628, 629, 630, 631, 632, 633, 634, 635, 636, 637, 638, 639, 640, 641, 642, 643, 644, 645, 646, 647, 648, 649, 650, 651, 652, 653, 654, 655, 656, 657, 658, 659, 660, 661, 662, 663, 664, 665, 666, 667, 668, 669, 670, 671, 672, 673, 674, 675, 676, 677, 678, 679, 680, 681, 682, 683, 684, 685, 686, 687, 688, 689, 690, 691, 692, 693, 694, 695, 696, 697, 698, 699, 700, 701, 702, 703, 704, 705, 706, 707, 708, 709, 710, 711, 712, 713, 714, 715, 716, 717, 718, 719, 720, 721, 722, 723, 724, 725, 726, 727, 728, 729, 730, 731, 732, 733, 734, 735, 736, 737, 738, 739, 740, 741, 742, 743, 744, 745, 746, 747, 748, 749, 750, 751, 752, 753, 754, 755, 756, 757, 758, 759, 760, 761, 762, 763, 764, 765, 766, 767, 768, 769, 770, 771, 772, 773, 774, 775, 776, 777, 778, 779, 780, 781, 782, 783, 784, 785, 786, 787, 788, 789, 790, 791, 792, 793, 794, 795, 796, 797, 798, 799, 800, 801, 802, 803, 804, 805, 806, 807, 808, 809, 810, 811, 812, 813, 814, 815, 816, 817, 818, 819, 820, 821, 822, 823, 824, 825, 826, 827, 828, 829, 830, 831, 832, 833, 834, 835, 836, 837, 838, 839, 840, 841, 842, 843, 844, 845, 846, 847, 848, 849, 850, 851, 852, 853, 854, 855, 856, 857, 858, 859, 860, 861, 862, 863, 864, 865, 866, 867, 868, 869, 870, 871, 872],
      "AcquisitionTime": ["171910.235000", "171910.695000", "171911.155000", "171911.615000", "171912.075000", "171912.535000", "171912.995000", "171913.455000", "171913.915000", "171914.375000", "171914.835000", "171915.295000", "171915.755000", "171916.215000", "171916.675000", "171917.135000", "171917.595000", "171918.055000", "171918.515000", "171918.975000", "171919.435000", "171919.895000", "171920.355000", "171920.815000", "171921.275000", "171921.735000", "171922.195000", "171922.655000", "171923.115000", "171923.575000", "171924.035000", "171924.495000", "171924.955000", "171925.415000", "171925.875000", "171926.335000", "171926.795000", "171927.255000", "171927.715000", "171928.175000", "171928.635000", "171929.095000", "171929.555000", "171930.015000", "171930.475000", "171930.935000", "171931.395000", "171931.855000", "171932.315000", "171932.775000", "171933.235000", "171933.695000", "171934.155000", "171934.615000", "171935.075000", "171935.535000", "171935.995000", "171936.455000", "171936.915000", "171937.375000", "171937.835000", "171938.295000", "171938.755000", "171939.215000", "171939.675000", "171940.135000", "171940.595000", "171941.055000", "171941.515000", "171941.975000", "171942.435000", "171942.895000", "171943.355000", "171943.815000", "171944.275000", "171944.735000", "171945.195000", "171945.655000", "171946.115000", "171946.575000", "171947.035000", "171947.495000", "171947.955000", "171948.415000", "171948.875000", "171949.335000", "171949.795000", "171950.255000", "171950.715000", "171951.175000", "171951.635000", "171952.095000", "171952.555000", "171953.015000", "171953.475000", "171953.935000", "171954.395000", "171954.855000", "171955.315000", "171955.775000", "171956.235000", "171956.695000", "171957.155000", "171957.615000", "171958.075000", "171958.535000", "171958.995000", "171959.455000", "171959.915000", "172000.375000", "172000.835000", "172001.295000", "172001.755000", "172002.215000", "172002.675000", "172003.135000", "172003.595000", "172004.055000", "172004.515000", "172004.975000", "172005.435000", "172005.895000", "172006.355000", "172006.815000", "172007.275000", "172007.735000", "172008.195000", "172008.655000", "172009.115000", "172009.575000", "172010.035000", "172010.495000", "172010.955000", "172011.415000", "172011.875000", "172012.335000", "172012.795000", "172013.255000", "172013.715000", "172014.175000", "172014.635000", "172015.095000", "172015.555000", "172016.015000", "172016.475000", "172016.935000", "172017.395000", "172017.855000", "172018.315000", "172018.775000", "172019.235000", "172019.695000", "172020.155000", "172020.615000", "172021.075000", "172021.535000", "172021.995000", "172022.455000", "172022.915000", "172023.375000", "172023.835000", "172024.295000", "172024.755000", "172025.215000", "172025.675000", "172026.135000", "172026.595000", "172027.055000", "172027.515000", "172027.975000", "172028.435000", "172028.895000", "172029.355000", "172029.815000", "172030.275000", "172030.735000", "172031.195000", "172031.655000", "172032.115000", "172032.575000", "172033.035000", "172033.495000", "172033.955000", "172034.415000", "172034.875000", "172035.335000", "172035.795000", "172036.255000", "172036.715000", "172037.175000", "172037.635000", "172038.095000", "172038.555000", "172039.015000", "172039.475000", "172039.935000", "172040.395000", "172040.855000", "172041.315000", "172041.775000", "172042.235000", "172042.695000", "172043.155000", "172043.615000", "172044.075000", "172044.535000", "172044.995000", "172045.455000", "172045.915000", "172046.375000", "172046.835000", "172047.295000", "172047.755000", "172048.215000", "172048.675000", "172049.135000", "172049.595000", "172050.055000", "172050.515000", "172050.975000", "172051.435000", "172051.895000", "172052.355000", "172052.815000", "172053.275000", "172053.735000", "172054.195000", "172054.655000", "172055.115000", "172055.575000", "172056.035000", "172056.495000", "172056.955000", "172057.415000", "172057.875000", "172058.335000", "172058.795000", "172059.255000", "172059.715000", "172100.175000", "172100.635000", "172101.095000", "172101.555000", "172102.015000", "172102.475000", "172102.935000", "172103.395000", "172103.855000", "172104.315000", "172104.775000", "172105.235000", "172105.695000", "172106.155000", "172106.615000", "172107.075000", "172107.535000", "172107.995000", "172108.455000", "172108.915000", "172109.375000", "172109.835000", "172110.295000", "172110.755000", "172111.215000", "172111.675000", "172112.135000", "172112.595000", "172113.055000", "172113.515000", "172113.975000", "172114.435000", "172114.895000", "172115.355000", "172115.815000", "172116.275000", "172116.735000", "172117.195000", "172117.655000", "172118.115000", "172118.575000", "172119.035000", "172119.495000", "172119.955000", "172120.415000", "172120.875000", "172121.335000", "172121.795000", "172122.255000", "172122.715000", "172123.175000", "172123.635000", "172124.095000", "172124.555000", "172125.015000", "172125.475000", "172125.935000", "172126.395000", "172126.855000", "172127.315000", "172127.775000", "172128.235000", "172128.695000", "172129.155000", "172129.615000", "172130.075000", "172130.535000", "172130.995000", "172131.455000", "172131.915000", "172132.375000", "172132.835000", "172133.295000", "172133.755000", "172134.215000", "172134.675000", "172135.135000", "172135.595000", "172136.055000", "172136.515000", "172136.975000", "172137.435000", "172137.895000", "172138.355000", "172138.815000", "172139.275000", "172139.735000", "172140.195000", "172140.655000", "172141.115000", "172141.575000", "172142.035000", "172142.495000", "172142.955000", "172143.415000", "172143.875000", "172144.335000", "172144.795000", "172145.255000", "172145.715000", "172146.175000", "172146.635000", "172147.095000", "172147.555000", "172148.015000", "172148.475000", "172148.935000", "172149.395000", "172149.855000", "172150.315000", "172150.775000", "172151.235000", "172151.695000", "172152.155000", "172152.615000", "172153.075000", "172153.535000", "172153.995000", "172154.455000", "172154.915000", "172155.375000", "172155.835000", "172156.295000", "172156.755000", "172157.215000", "172157.675000", "172158.135000", "172158.595000", "172159.055000", "172159.515000", "172159.975000", "172200.435000", "172200.895000", "172201.355000", "172201.815000", "172202.275000", "172202.735000", "172203.195000", "172203.655000", "172204.115000", "172204.575000", "172205.035000", "172205.495000", "172205.955000", "172206.415000", "172206.875000", "172207.335000", "172207.795000", "172208.255000", "172208.715000", "172209.175000", "172209.635000", "172210.095000", "172210.555000", "172211.015000", "172211.475000", "172211.935000", "172212.395000", "172212.855000", "172213.315000", "172213.775000", "172214.235000", "172214.695000", "172215.155000", "172215.615000", "172216.075000", "172216.535000", "172216.995000", "172217.455000", "172217.915000", "172218.375000", "172218.835000", "172219.295000", "172219.755000", "172220.215000", "172220.675000", "172221.135000", "172221.595000", "172222.055000", "172222.515000", "172222.975000", "172223.435000", "172223.895000", "172224.355000", "172224.815000", "172225.275000", "172225.735000", "172226.195000", "172226.655000", "172227.115000", "172227.575000", "172228.035000", "172228.495000", "172228.955000", "172229.415000", "172229.875000", "172230.335000", "172230.795000", "172231.255000", "172231.715000", "172232.175000", "172232.635000", "172233.095000", "172233.555000", "172234.015000", "172234.475000", "172234.935000", "172235.395000", "172235.855000", "172236.315000", "172236.775000", "172237.235000", "172237.695000", "172238.155000", "172238.615000", "172239.075000", "172239.535000", "172239.995000", "172240.455000", "172240.915000", "172241.375000", "172241.835000", "172242.295000", "172242.755000", "172243.215000", "172243.675000", "172244.135000", "172244.595000", "172245.055000", "172245.515000", "172245.975000", "172246.435000", "172246.895000", "172247.355000", "172247.815000", "172248.275000", "172248.735000", "172249.195000", "172249.655000", "172250.115000", "172250.575000", "172251.035000", "172251.495000", "172251.955000", "172252.415000", "172252.875000", "172253.335000", "172253.795000", "172254.255000", "172254.715000", "172255.175000", "172255.635000", "172256.095000", "172256.555000", "172257.015000", "172257.475000", "172257.935000", "172258.395000", "172258.855000", "172259.315000", "172259.775000", "172300.235000", "172300.695000", "172301.155000", "172301.615000", "172302.075000", "172302.535000", "172302.995000", "172303.455000", "172303.915000", "172304.375000", "172304.835000", "172305.295000", "172305.755000", "172306.215000", "172306.675000", "172307.135000", "172307.595000", "172308.055000", "172308.515000", "172308.975000", "172309.435000", "172309.895000", "172310.355000", "172310.815000", "172311.275000", "172311.735000", "172312.195000", "172312.655000", "172313.115000", "172313.575000", "172314.035000", "172314.495000", "172314.955000", "172315.415000", "172315.875000", "172316.335000", "172316.795000", "172317.255000", "172317.715000", "172318.175000", "172318.635000", "172319.095000", "172319.555000", "172320.015000", "172320.475000", "172320.935000", "172321.395000", "172321.855000", "172322.315000", "172322.775000", "172323.235000", "172323.695000", "172324.155000", "172324.615000", "172325.075000", "172325.535000", "172325.995000", "172326.455000", "172326.915000", "172327.375000", "172327.835000", "172328.295000", "172328.755000", "172329.215000", "172329.675000", "172330.135000", "172330.595000", "172331.055000", "172331.515000", "172331.975000", "172332.435000", "172332.895000", "172333.355000", "172333.815000", "172334.275000", "172334.735000", "172335.195000", "172335.655000", "172336.115000", "172336.575000", "172337.035000", "172337.495000", "172337.955000", "172338.415000", "172338.875000", "172339.335000", "172339.795000", "172340.255000", "172340.715000", "172341.175000", "172341.635000", "172342.095000", "172342.555000", "172343.015000", "172343.475000", "172343.935000", "172344.395000", "172344.855000", "172345.315000", "172345.775000", "172346.235000", "172346.695000", "172347.155000", "172347.615000", "172348.075000", "172348.535000", "172348.995000", "172349.455000", "172349.915000", "172350.375000", "172350.835000", "172351.295000", "172351.755000", "172352.215000", "172352.675000", "172353.135000", "172353.595000", "172354.055000", "172354.515000", "172354.975000", "172355.435000", "172355.895000", "172356.355000", "172356.815000", "172357.275000", "172357.735000", "172358.195000", "172358.655000", "172359.115000", "172359.575000", "172400.035000", "172400.495000", "172400.955000", "172401.415000", "172401.875000", "172402.335000", "172402.795000", "172403.255000", "172403.715000", "172404.175000", "172404.635000", "172405.095000", "172405.555000", "172406.015000", "172406.475000", "172406.935000", "172407.395000", "172407.855000", "172408.315000", "172408.775000", "172409.235000", "172409.695000", "172410.155000", "172410.615000", "172411.075000", "172411.535000", "172411.995000", "172412.455000", "172412.915000", "172413.375000", "172413.835000", "172414.295000", "172414.755000", "172415.215000", "172415.675000", "172416.135000", "172416.595000", "172417.055000", "172417.515000", "172417.975000", "172418.435000", "172418.895000", "172419.355000", "172419.815000", "172420.275000", "172420.735000", "172421.195000", "172421.655000", "172422.115000", "172422.575000", "172423.035000", "172423.495000", "172423.955000", "172424.415000", "172424.875000", "172425.335000", "172425.795000", "172426.255000", "172426.715000", "172427.175000", "172427.635000", "172428.095000", "172428.555000", "172429.015000", "172429.475000", "172429.935000", "172430.395000", "172430.855000", "172431.315000", "172431.775000", "172432.235000", "172432.695000", "172433.155000", "172433.615000", "172434.075000", "172434.535000", "172434.995000", "172435.455000", "172435.915000", "172436.375000", "172436.835000", "172437.295000", "172437.755000", "172438.215000", "172438.675000", "172439.135000", "172439.595000", "172440.055000", "172440.515000", "172440.975000", "172441.435000", "172441.895000", "172442.355000", "172442.815000", "172443.275000", "172443.735000", "172444.195000", "172444.655000", "172445.115000", "172445.575000", "172446.035000", "172446.495000", "172446.955000", "172447.415000", "172447.875000", "172448.335000", "172448.795000", "172449.255000", "172449.715000", "172450.175000", "172450.635000", "172451.095000", "172451.555000", "172452.015000", "172452.475000", "172452.935000", "172453.395000", "172453.855000", "172454.315000", "172454.775000", "172455.235000", "172455.695000", "172456.155000", "172456.615000", "172457.075000", "172457.535000", "172457.995000", "172458.455000", "172458.915000", "172459.375000", "172459.835000", "172500.295000", "172500.755000", "172501.215000", "172501.675000", "172502.135000", "172502.595000", "172503.055000", "172503.515000", "172503.975000", "172504.435000", "172504.895000", "172505.355000", "172505.815000", "172506.275000", "172506.735000", "172507.195000", "172507.655000", "172508.115000", "172508.575000", "172509.035000", "172509.495000", "172509.955000", "172510.415000", "172510.875000", "172511.335000", "172511.795000", "172512.255000", "172512.715000", "172513.175000", "172513.635000", "172514.095000", "172514.555000", "172515.015000", "172515.475000", "172515.935000", "172516.395000", "172516.855000", "172517.315000", "172517.775000", "172518.235000", "172518.695000", "172519.155000", "172519.615000", "172520.075000", "172520.535000", "172520.995000", "172521.455000", "172521.915000", "172522.375000", "172522.835000", "172523.295000", "172523.755000", "172524.215000", "172524.675000", "172525.135000", "172525.595000", "172526.055000", "172526.515000", "172526.975000", "172527.435000", "172527.895000", "172528.355000", "172528.815000", "172529.275000", "172529.735000", "172530.195000", "172530.655000", "172531.115000", "172531.575000", "172532.035000", "172532.495000", "172532.955000", "172533.415000", "172533.875000", "172534.335000", "172534.795000", "172535.255000", "172535.715000", "172536.175000", "172536.635000", "172537.095000", "172537.555000", "172538.015000", "172538.475000", "172538.935000", "172539.395000", "172539.855000", "172540.315000", "172540.775000", "172541.235000", "172541.695000", "172542.155000", "172542.615000", "172543.075000", "172543.535000", "172543.995000", "172544.455000", "172544.915000", "172545.375000", "172545.835000", "172546.295000", "172546.755000", "172547.215000", "172547.675000", "172548.135000", "172548.595000", "172549.055000", "172549.515000", "172549.975000", "172550.435000", "172550.895000"],
