{
  "AcquisitionMatrixPE": 82,
  "AcquisitionNumber": 1,
  "AcquisitionTime": "09:49:47.770000",
  "BandwidthPerPixelPhaseEncode": 24.888,
  "BaseResolution": 82,
  "BodyPartExamined": "BRAIN",
  "ConsistencyInfo": "N4_VE11C_LATEST_20160120",
  "ConversionSoftware": "dcm2niix",
  "ConversionSoftwareVersion": "v1.0.20201102",
  "DerivedVendorReportedEchoSpacing": 0.00049,
  "DeviceSerialNumber": "66112",
  "DwellTime": 2e-06,
  "EchoTime": 0.0272,
  "EchoTrainLength": 82,
  "EffectiveEchoSpacing": 0.00049,
  "FlipAngle": 44,
  "ImageComments": "Unaliased MB8/PE3",
  "ImageOrientationPatientDICOM": [0.998058, 0.0622678, -0.00176523, -0.0622679, 0.998059, 3.10083e-05],
  "ImageType": [
    "ORIGINAL",
    "PRIMARY",
    "M",
    "MB",
    "ND",
    "NORM",
    "MOSAIC"
],
  "ImagingFrequency": 123.252,
  "InPlanePhaseEncodingDirectionDICOM": "COL",
  "InstitutionAddress": "Maynard 3,Hanover,NH,US,03755",
  "InstitutionName": "Dartmouth College - PBS",
  "InstitutionalDepartmentName": "Department",
  "MRAcquisitionType": "2D",
  "MagneticFieldStrength": 3,
  "Manufacturer": "Siemens",
  "ManufacturersModelName": "Prisma",
  "Modality": "MR",
  "MultibandAccelerationFactor": 8,
  "PartialFourier": 1,
  "PatientPosition": "HFS",
  "PercentPhaseFOV": 100,
  "PercentSampling": 100,
  "PhaseEncodingDirection": "j-",
  "PhaseEncodingSteps": 82,
  "PhaseResolution": 1,
  "PixelBandwidth": 3050,
  "ProcedureStepDescription": "Wager_Wager^1076_spacetop",
  "ProtocolName": "func_run-06_task-social_acq-ap-mb8",
  "PulseSequenceDetails": "%CustomerSeq%\\cmrr_mbep2d_bold",
  "ReceiveCoilActiveElements": "HEA;HEP",
  "ReceiveCoilName": "Head_32",
  "ReconMatrixPE": 82,
  "RepetitionTime": 0.46,
  "SAR": 0.141833,
  "ScanOptions": "FS",
  "ScanningSequence": "EP",
  "SequenceName": "epfid2d1_82",
  "SequenceVariant": "SK\\SS",
  "SeriesDescription": "func_run-06_task-social_acq-ap-mb8",
  "SeriesNumber": 22,
  "ShimSetting": [4148, -7715, -7174, 535, -68, -41, 85, 71],
  "SliceThickness": 2.7,
  "SliceTiming": [0, 0.2525, 0.0625, 0.315, 0.125, 0.3775, 0.19, 0, 0.2525, 0.0625, 0.315, 0.125, 0.3775, 0.19, 0, 0.2525, 0.0625, 0.315, 0.125, 0.3775, 0.19, 0, 0.2525, 0.0625, 0.315, 0.125, 0.3775, 0.19, 0, 0.2525, 0.0625, 0.315, 0.125, 0.3775, 0.19, 0, 0.2525, 0.0625, 0.315, 0.125, 0.3775, 0.19, 0, 0.2525, 0.0625, 0.315, 0.125, 0.3775, 0.19, 0, 0.2525, 0.0625, 0.315, 0.125, 0.3775, 0.19],
  "SoftwareVersions": "syngo MR E11",
  "SpacingBetweenSlices": 2.7,
  "StationName": "AWP66112",
  "TaskName": "social",
  "TotalReadoutTime": 0.03969,
  "TxRefAmp": 323.927,
  "WipMemBlock": "b0d29622-4195-4dce-a4ca-a7a44acb63b1||Sequence: R016 ve11c/master r/e634e98; Dec 19 2017 11:00:25 by eja",
  "dcmmeta_affine": [
    [-2.6777164936065674, -0.16706013679504395, -0.004762074910104275, 122.21985626220703],
    [-0.1670600175857544, 2.677720546722412, -0.00021321581152733415, -74.5042724609375],
    [-0.004735972266644239, -8.319289918290451e-05, 2.699995756149292, -29.525524139404297],
    [0.0, 0.0, 0.0, 1.0]
],
  "dcmmeta_reorient_transform": [
    [0.0, -1.0, 0.0, 81.0],
    [1.0, 0.0, 0.0, 0.0],
    [0.0, 0.0, 1.0, 0.0],
    [0.0, 0.0, 0.0, 1.0]
],
  "dcmmeta_shape": [82, 82, 56, 872],
  "dcmmeta_slice_dim": 2,
  "dcmmeta_version": 0.6,
  "global": {
    "const": {
      "AccessionNumber": "A003800",
      "AcquisitionMatrix": [82, 0, 0, 82],
      "AngioFlag": "N",
      "BitsAllocated": 16,
      "BitsStored": 16,
      "BodyPartExamined": "BRAIN",
      "Columns": 656,
      "EchoNumbers": 1,
      "EchoTime": 27.2,
      "EchoTrainLength": 82,
      "FlipAngle": 44.0,
      "HighBit": 15,
      "ImageOrientationPatient": [0.99805791520355, 0.06226782376564, -0.0017652260597, -0.0622678661195, 0.99805947312143, 3.1008263e-05],
      "ImagePositionPatient": [-829.24634143331, -958.84313612802, -28.196914578171],
      "ImageType": [
        "ORIGINAL",
        "PRIMARY",
        "M",
        "MB",
        "ND",
        "NORM",
        "MOSAIC"
],
      "ImagedNucleus": "1H",
      "ImagingFrequency": 123.252125,
      "InPlanePhaseEncodingDirection": "COL",
      "MRAcquisitionType": "2D",
      "MagneticFieldStrength": 3.0,
      "Manufacturer": "SIEMENS",
      "ManufacturerModelName": "Prisma",
      "Modality": "MR",
      "NumberOfAverages": 1.0,
      "NumberOfPhaseEncodingSteps": 82,
      "PercentPhaseFieldOfView": 100.0,
      "PercentSampling": 100.0,
      "PerformedProcedureStepStartTime": "084606.338000",
      "PhotometricInterpretation": "MONOCHROME2",
      "PixelBandwidth": 3050.0,
      "PixelRepresentation": 0,
      "PixelSpacing": [2.6829268932343, 2.6829268932343],
      "ProtocolName": "func_run-06_task-social_acq-ap-mb8",
      "RepetitionTime": 460.0,
      "Rows": 656,
      "SAR": 0.14183291195766,
      "SamplesPerPixel": 1,
      "ScanOptions": "FS",
      "ScanningSequence": "EP",
      "SequenceName": "epfid2d1_82",
      "SequenceVariant": [
        "SK",
        "SS"
],
      "SeriesDescription": "func_run-06_task-social_acq-ap-mb8",
      "SeriesNumber": 22,
      "SeriesTime": "095015.153000",
      "SliceLocation": -29.735157159671,
      "SliceThickness": 2.7000000476837,
      "SmallestImagePixelValue": 0,
      "SoftwareVersions": "syngo MR E11",
      "SpacingBetweenSlices": 2.6999999770902,
      "SpecificCharacterSet": "ISO_IR 100",
      "StudyID": "1",
      "StudyTime": "084605.843000",
      "TransmitCoilName": "Body",
      "VariableFlipAngleFlag": "N",
      "WindowCenterWidthExplanation": "Algo1",
      "dBdt": 0.0},
    "slices": {}
  },
  "time": {
    "samples": {
      "AcquisitionNumber": [1, 2, 3, 4, 5, 6, 7, 8, 9, 10, 11, 12, 13, 14, 15, 16, 17, 18, 19, 20, 21, 22, 23, 24, 25, 26, 27, 28, 29, 30, 31, 32, 33, 34, 35, 36, 37, 38, 39, 40, 41, 42, 43, 44, 45, 46, 47, 48, 49, 50, 51, 52, 53, 54, 55, 56, 57, 58, 59, 60, 61, 62, 63, 64, 65, 66, 67, 68, 69, 70, 71, 72, 73, 74, 75, 76, 77, 78, 79, 80, 81, 82, 83, 84, 85, 86, 87, 88, 89, 90, 91, 92, 93, 94, 95, 96, 97, 98, 99, 100, 101, 102, 103, 104, 105, 106, 107, 108, 109, 110, 111, 112, 113, 114, 115, 116, 117, 118, 119, 120, 121, 122, 123, 124, 125, 126, 127, 128, 129, 130, 131, 132, 133, 134, 135, 136, 137, 138, 139, 140, 141, 142, 143, 144, 145, 146, 147, 148, 149, 150, 151, 152, 153, 154, 155, 156, 157, 158, 159, 160, 161, 162, 163, 164, 165, 166, 167, 168, 169, 170, 171, 172, 173, 174, 175, 176, 177, 178, 179, 180, 181, 182, 183, 184, 185, 186, 187, 188, 189, 190, 191, 192, 193, 194, 195, 196, 197, 198, 199, 200, 201, 202, 203, 204, 205, 206, 207, 208, 209, 210, 211, 212, 213, 214, 215, 216, 217, 218, 219, 220, 221, 222, 223, 224, 225, 226, 227, 228, 229, 230, 231, 232, 233, 234, 235, 236, 237, 238, 239, 240, 241, 242, 243, 244, 245, 246, 247, 248, 249, 250, 251, 252, 253, 254, 255, 256, 257, 258, 259, 260, 261, 262, 263, 264, 265, 266, 267, 268, 269, 270, 271, 272, 273, 274, 275, 276, 277, 278, 279, 280, 281, 282, 283, 284, 285, 286, 287, 288, 289, 290, 291, 292, 293, 294, 295, 296, 297, 298, 299, 300, 301, 302, 303, 304, 305, 306, 307, 308, 309, 310, 311, 312, 313, 314, 315, 316, 317, 318, 319, 320, 321, 322, 323, 324, 325, 326, 327, 328, 329, 330, 331, 332, 333, 334, 335, 336, 337, 338, 339, 340, 341, 342, 343, 344, 345, 346, 347, 348, 349, 350, 351, 352, 353, 354, 355, 356, 357, 358, 359, 360, 361, 362, 363, 364, 365, 366, 367, 368, 369, 370, 371, 372, 373, 374, 375, 376, 377, 378, 379, 380, 381, 382, 383, 384, 385, 386, 387, 388, 389, 390, 391, 392, 393, 394, 395, 396, 397, 398, 399, 400, 401, 402, 403, 404, 405, 406, 407, 408, 409, 410, 411, 412, 413, 414, 415, 416, 417, 418, 419, 420, 421, 422, 423, 424, 425, 426, 427, 428, 429, 430, 431, 432, 433, 434, 435, 436, 437, 438, 439, 440, 441, 442, 443, 444, 445, 446, 447, 448, 449, 450, 451, 452, 453, 454, 455, 456, 457, 458, 459, 460, 461, 462, 463, 464, 465, 466, 467, 468, 469, 470, 471, 472, 473, 474, 475, 476, 477, 478, 479, 480, 481, 482, 483, 484, 485, 486, 487, 488, 489, 490, 491, 492, 493, 494, 495, 496, 497, 498, 499, 500, 501, 502, 503, 504, 505, 506, 507, 508, 509, 510, 511, 512, 513, 514, 515, 516, 517, 518, 519, 520, 521, 522, 523, 524, 525, 526, 527, 528, 529, 530, 531, 532, 533, 534, 535, 536, 537, 538, 539, 540, 541, 542, 543, 544, 545, 546, 547, 548, 549, 550, 551, 552, 553, 554, 555, 556, 557, 558, 559, 560, 561, 562, 563, 564, 565, 566, 567, 568, 569, 570, 571, 572, 573, 574, 575, 576, 577, 578, 579, 580, 581, 582, 583, 584, 585, 586, 587, 588, 589, 590, 591, 592, 593, 594, 595, 596, 597, 598, 599, 600, 601, 602, 603, 604, 605, 606, 607, 608, 609, 610, 611, 612, 613, 614, 615, 616, 617, 618, 619, 620, 621, 622, 623, 624, 625, 626, 627, 628, 629, 630, 631, 632, 633, 634, 635, 636, 637, 638, 639, 640, 641, 642, 643, 644, 645, 646, 647, 648, 649, 650, 651, 652, 653, 654, 655, 656, 657, 658, 659, 660, 661, 662, 663, 664, 665, 666, 667, 668, 669, 670, 671, 672, 673, 674, 675, 676, 677, 678, 679, 680, 681, 682, 683, 684, 685, 686, 687, 688, 689, 690, 691, 692, 693, 694, 695, 696, 697, 698, 699, 700, 701, 702, 703, 704, 705, 706, 707, 708, 709, 710, 711, 712, 713, 714, 715, 716, 717, 718, 719, 720, 721, 722, 723, 724, 725, 726, 727, 728, 729, 730, 731, 732, 733, 734, 735, 736, 737, 738, 739, 740, 741, 742, 743, 744, 745, 746, 747, 748, 749, 750, 751, 752, 753, 754, 755, 756, 757, 758, 759, 760, 761, 762, 763, 764, 765, 766, 767, 768, 769, 770, 771, 772, 773, 774, 775, 776, 777, 778, 779, 780, 781, 782, 783, 784, 785, 786, 787, 788, 789, 790, 791, 792, 793, 794, 795, 796, 797, 798, 799, 800, 801, 802, 803, 804, 805, 806, 807, 808, 809, 810, 811, 812, 813, 814, 815, 816, 817, 818, 819, 820, 821, 822, 823, 824, 825, 826, 827, 828, 829, 830, 831, 832, 833, 834, 835, 836, 837, 838, 839, 840, 841, 842, 843, 844, 845, 846, 847, 848, 849, 850, 851, 852, 853, 854, 855, 856, 857, 858, 859, 860, 861, 862, 863, 864, 865, 866, 867, 868, 869, 870, 871, 872],
      "AcquisitionTime": ["094947.770000", "094948.230000", "094948.690000", "094949.150000", "094949.610000", "094950.070000", "094950.530000", "094950.990000", "094951.450000", "094951.910000", "094952.370000", "094952.830000", "094953.290000", "094953.750000", "094954.210000", "094954.670000", "094955.130000", "094955.590000", "094956.050000", "094956.510000", "094956.970000", "094957.430000", "094957.890000", "094958.350000", "094958.810000", "094959.270000", "094959.730000", "095000.190000", "095000.650000", "095001.110000", "095001.570000", "095002.030000", "095002.490000", "095002.950000", "095003.410000", "095003.870000", "095004.330000", "095004.790000", "095005.250000", "095005.710000", "095006.170000", "095006.630000", "095007.090000", "095007.550000", "095008.010000", "095008.470000", "095008.930000", "095009.390000", "095009.850000", "095010.310000", "095010.770000", "095011.230000", "095011.690000", "095012.150000", "095012.610000", "095013.070000", "095013.530000", "095013.990000", "095014.450000", "095014.910000", "095015.370000", "095015.830000", "095016.290000", "095016.750000", "095017.210000", "095017.670000", "095018.130000", "095018.590000", "095019.050000", "095019.510000", "095019.970000", "095020.430000", "095020.890000", "095021.350000", "095021.810000", "095022.270000", "095022.730000", "095023.190000", "095023.650000", "095024.110000", "095024.570000", "095025.030000", "095025.490000", "095025.950000", "095026.410000", "095026.870000", "095027.330000", "095027.790000", "095028.250000", "095028.710000", "095029.170000", "095029.630000", "095030.090000", "095030.550000", "095031.010000", "095031.470000", "095031.930000", "095032.390000", "095032.850000", "095033.310000", "095033.770000", "095034.230000", "095034.690000", "095035.150000", "095035.610000", "095036.070000", "095036.530000", "095036.990000", "095037.450000", "095037.910000", "095038.370000", "095038.830000", "095039.290000", "095039.750000", "095040.210000", "095040.670000", "095041.130000", "095041.590000", "095042.050000", "095042.510000", "095042.970000", "095043.430000", "095043.890000", "095044.350000", "095044.810000", "095045.270000", "095045.730000", "095046.190000", "095046.650000", "095047.110000", "095047.570000", "095048.030000", "095048.490000", "095048.950000", "095049.410000", "095049.870000", "095050.330000", "095050.790000", "095051.250000", "095051.710000", "095052.170000", "095052.630000", "095053.090000", "095053.550000", "095054.010000", "095054.470000", "095054.930000", "095055.390000", "095055.850000", "095056.310000", "095056.770000", "095057.230000", "095057.690000", "095058.150000", "095058.610000", "095059.070000", "095059.530000", "095059.990000", "095100.450000", "095100.910000", "095101.370000", "095101.830000", "095102.290000", "095102.750000", "095103.210000", "095103.670000", "095104.130000", "095104.590000", "095105.050000", "095105.510000", "095105.970000", "095106.430000", "095106.890000", "095107.350000", "095107.810000", "095108.270000", "095108.730000", "095109.190000", "095109.650000", "095110.110000", "095110.570000", "095111.030000", "095111.490000", "095111.950000", "095112.410000", "095112.870000", "095113.330000", "095113.790000", "095114.250000", "095114.710000", "095115.170000", "095115.630000", "095116.090000", "095116.550000", "095117.010000", "095117.470000", "095117.930000", "095118.390000", "095118.850000", "095119.310000", "095119.770000", "095120.230000", "095120.690000", "095121.150000", "095121.610000", "095122.070000", "095122.530000", "095122.990000", "095123.450000", "095123.910000", "095124.370000", "095124.830000", "095125.290000", "095125.750000", "095126.210000", "095126.670000", "095127.130000", "095127.590000", "095128.050000", "095128.510000", "095128.970000", "095129.430000", "095129.890000", "095130.350000", "095130.810000", "095131.270000", "095131.730000", "095132.190000", "095132.650000", "095133.110000", "095133.570000", "095134.030000", "095134.490000", "095134.950000", "095135.410000", "095135.870000", "095136.330000", "095136.790000", "095137.250000", "095137.710000", "095138.170000", "095138.630000", "095139.090000", "095139.550000", "095140.010000", "095140.470000", "095140.930000", "095141.390000", "095141.850000", "095142.310000", "095142.770000", "095143.230000", "095143.690000", "095144.150000", "095144.610000", "095145.070000", "095145.530000", "095145.990000", "095146.450000", "095146.910000", "095147.370000", "095147.830000", "095148.290000", "095148.750000", "095149.210000", "095149.670000", "095150.130000", "095150.590000", "095151.050000", "095151.510000", "095151.970000", "095152.430000", "095152.890000", "095153.350000", "095153.810000", "095154.270000", "095154.730000", "095155.190000", "095155.650000", "095156.110000", "095156.570000", "095157.030000", "095157.490000", "095157.950000", "095158.410000", "095158.870000", "095159.330000", "095159.790000", "095200.250000", "095200.710000", "095201.170000", "095201.630000", "095202.090000", "095202.550000", "095203.010000", "095203.470000", "095203.930000", "095204.390000", "095204.850000", "095205.310000", "095205.770000", "095206.230000", "095206.690000", "095207.150000", "095207.610000", "095208.070000", "095208.530000", "095208.990000", "095209.450000", "095209.910000", "095210.370000", "095210.830000", "095211.290000", "095211.750000", "095212.210000", "095212.670000", "095213.130000", "095213.590000", "095214.050000", "095214.510000", "095214.970000", "095215.430000", "095215.890000", "095216.350000", "095216.810000", "095217.270000", "095217.730000", "095218.190000", "095218.650000", "095219.110000", "095219.570000", "095220.030000", "095220.490000", "095220.950000", "095221.410000", "095221.870000", "095222.330000", "095222.790000", "095223.250000", "095223.710000", "095224.170000", "095224.630000", "095225.090000", "095225.550000", "095226.010000", "095226.470000", "095226.930000", "095227.390000", "095227.850000", "095228.310000", "095228.770000", "095229.230000", "095229.690000", "095230.150000", "095230.610000", "095231.070000", "095231.530000", "095231.990000", "095232.450000", "095232.910000", "095233.370000", "095233.830000", "095234.290000", "095234.750000", "095235.210000", "095235.670000", "095236.130000", "095236.590000", "095237.050000", "095237.510000", "095237.970000", "095238.430000", "095238.890000", "095239.350000", "095239.810000", "095240.270000", "095240.730000", "095241.190000", "095241.650000", "095242.110000", "095242.570000", "095243.030000", "095243.490000", "095243.950000", "095244.410000", "095244.870000", "095245.330000", "095245.790000", "095246.250000", "095246.710000", "095247.170000", "095247.630000", "095248.090000", "095248.550000", "095249.010000", "095249.470000", "095249.930000", "095250.390000", "095250.850000", "095251.310000", "095251.770000", "095252.230000", "095252.690000", "095253.150000", "095253.610000", "095254.070000", "095254.530000", "095254.990000", "095255.450000", "095255.910000", "095256.370000", "095256.830000", "095257.290000", "095257.750000", "095258.210000", "095258.670000", "095259.130000", "095259.590000", "095300.050000", "095300.510000", "095300.970000", "095301.430000", "095301.890000", "095302.350000", "095302.810000", "095303.270000", "095303.730000", "095304.190000", "095304.650000", "095305.110000", "095305.570000", "095306.030000", "095306.490000", "095306.950000", "095307.410000", "095307.870000", "095308.330000", "095308.790000", "095309.250000", "095309.710000", "095310.170000", "095310.630000", "095311.090000", "095311.550000", "095312.010000", "095312.470000", "095312.930000", "095313.390000", "095313.850000", "095314.310000", "095314.770000", "095315.230000", "095315.690000", "095316.150000", "095316.610000", "095317.070000", "095317.530000", "095317.990000", "095318.450000", "095318.910000", "095319.370000", "095319.830000", "095320.290000", "095320.750000", "095321.210000", "095321.670000", "095322.130000", "095322.590000", "095323.050000", "095323.510000", "095323.970000", "095324.430000", "095324.890000", "095325.350000", "095325.810000", "095326.270000", "095326.730000", "095327.190000", "095327.650000", "095328.110000", "095328.570000", "095329.030000", "095329.490000", "095329.950000", "095330.410000", "095330.870000", "095331.330000", "095331.790000", "095332.250000", "095332.710000", "095333.170000", "095333.630000", "095334.090000", "095334.550000", "095335.010000", "095335.470000", "095335.930000", "095336.390000", "095336.850000", "095337.310000", "095337.770000", "095338.230000", "095338.690000", "095339.150000", "095339.610000", "095340.070000", "095340.530000", "095340.990000", "095341.450000", "095341.910000", "095342.370000", "095342.830000", "095343.290000", "095343.750000", "095344.210000", "095344.670000", "095345.130000", "095345.590000", "095346.050000", "095346.510000", "095346.970000", "095347.430000", "095347.890000", "095348.350000", "095348.810000", "095349.270000", "095349.730000", "095350.190000", "095350.650000", "095351.110000", "095351.570000", "095352.030000", "095352.490000", "095352.950000", "095353.410000", "095353.870000", "095354.330000", "095354.790000", "095355.250000", "095355.710000", "095356.170000", "095356.630000", "095357.090000", "095357.550000", "095358.010000", "095358.470000", "095358.930000", "095359.390000", "095359.850000", "095400.310000", "095400.770000", "095401.230000", "095401.690000", "095402.150000", "095402.610000", "095403.070000", "095403.530000", "095403.990000", "095404.450000", "095404.910000", "095405.370000", "095405.830000", "095406.290000", "095406.750000", "095407.210000", "095407.670000", "095408.130000", "095408.590000", "095409.050000", "095409.510000", "095409.970000", "095410.430000", "095410.890000", "095411.350000", "095411.810000", "095412.270000", "095412.730000", "095413.190000", "095413.650000", "095414.110000", "095414.570000", "095415.030000", "095415.490000", "095415.950000", "095416.410000", "095416.870000", "095417.330000", "095417.790000", "095418.250000", "095418.710000", "095419.170000", "095419.630000", "095420.090000", "095420.550000", "095421.010000", "095421.470000", "095421.930000", "095422.390000", "095422.850000", "095423.310000", "095423.770000", "095424.230000", "095424.690000", "095425.150000", "095425.610000", "095426.070000", "095426.530000", "095426.990000", "095427.450000", "095427.910000", "095428.370000", "095428.830000", "095429.290000", "095429.750000", "095430.210000", "095430.670000", "095431.130000", "095431.590000", "095432.050000", "095432.510000", "095432.970000", "095433.430000", "095433.890000", "095434.350000", "095434.810000", "095435.270000", "095435.730000", "095436.190000", "095436.650000", "095437.110000", "095437.570000", "095438.030000", "095438.490000", "095438.950000", "095439.410000", "095439.870000", "095440.330000", "095440.790000", "095441.250000", "095441.710000", "095442.170000", "095442.630000", "095443.090000", "095443.550000", "095444.010000", "095444.470000", "095444.930000", "095445.390000", "095445.850000", "095446.310000", "095446.770000", "095447.230000", "095447.690000", "095448.150000", "095448.610000", "095449.070000", "095449.530000", "095449.990000", "095450.450000", "095450.910000", "095451.370000", "095451.830000", "095452.290000", "095452.750000", "095453.210000", "095453.670000", "095454.130000", "095454.590000", "095455.050000", "095455.510000", "095455.970000", "095456.430000", "095456.890000", "095457.350000", "095457.810000", "095458.270000", "095458.730000", "095459.190000", "095459.650000", "095500.110000", "095500.570000", "095501.030000", "095501.490000", "095501.950000", "095502.410000", "095502.870000", "095503.330000", "095503.790000", "095504.250000", "095504.710000", "095505.170000", "095505.630000", "095506.090000", "095506.550000", "095507.010000", "095507.470000", "095507.930000", "095508.390000", "095508.850000", "095509.310000", "095509.770000", "095510.230000", "095510.690000", "095511.150000", "095511.610000", "095512.070000", "095512.530000", "095512.990000", "095513.450000", "095513.910000", "095514.370000", "095514.830000", "095515.290000", "095515.750000", "095516.210000", "095516.670000", "095517.130000", "095517.590000", "095518.050000", "095518.510000", "095518.970000", "095519.430000", "095519.890000", "095520.350000", "095520.810000", "095521.270000", "095521.730000", "095522.190000", "095522.650000", "095523.110000", "095523.570000", "095524.030000", "095524.490000", "095524.950000", "095525.410000", "095525.870000", "095526.330000", "095526.790000", "095527.250000", "095527.710000", "095528.170000", "095528.630000", "095529.090000", "095529.550000", "095530.010000", "095530.470000", "095530.930000", "095531.390000", "095531.850000", "095532.310000", "095532.770000", "095533.230000", "095533.690000", "095534.150000", "095534.610000", "095535.070000", "095535.530000", "095535.990000", "095536.450000", "095536.910000", "095537.370000", "095537.830000", "095538.290000", "095538.750000", "095539.210000", "095539.670000", "095540.130000", "095540.590000", "095541.050000", "095541.510000", "095541.970000", "095542.430000", "095542.890000", "095543.350000", "095543.810000", "095544.270000", "095544.730000", "095545.190000", "095545.650000", "095546.110000", "095546.570000", "095547.030000", "095547.490000", "095547.950000", "095548.410000", "095548.870000", "095549.330000", "095549.790000", "095550.250000", "095550.710000", "095551.170000", "095551.630000", "095552.090000", "095552.550000", "095553.010000", "095553.470000", "095553.930000", "095554.390000", "095554.850000", "095555.310000", "095555.770000", "095556.230000", "095556.690000", "095557.150000", "095557.610000", "095558.070000", "095558.530000", "095558.990000", "095559.450000", "095559.910000", "095600.370000", "095600.830000", "095601.290000", "095601.750000", "095602.210000", "095602.670000", "095603.130000", "095603.590000", "095604.050000", "095604.510000", "095604.970000", "095605.430000", "095605.890000", "095606.350000", "095606.810000", "095607.270000", "095607.730000", "095608.190000", "095608.650000", "095609.110000", "095609.570000", "095610.030000", "095610.490000", "095610.950000", "095611.410000", "095611.870000", "095612.330000", "095612.790000", "095613.250000", "095613.710000", "095614.170000", "095614.630000", "095615.090000", "095615.550000", "095616.010000", "095616.470000", "095616.930000", "095617.390000", "095617.850000", "095618.310000", "095618.770000", "095619.230000", "095619.690000", "095620.150000", "095620.610000", "095621.070000", "095621.530000", "095621.990000", "095622.450000", "095622.910000", "095623.370000", "095623.830000", "095624.290000", "095624.750000", "095625.210000", "095625.670000", "095626.130000", "095626.590000", "095627.050000", "095627.510000", "095627.970000", "095628.430000"],
