{
  "AcquisitionMatrixPE": 82,
  "AcquisitionNumber": 1,
  "AcquisitionTime": "09:42:51.952500",
  "BandwidthPerPixelPhaseEncode": 24.888,
  "BaseResolution": 82,
  "BodyPartExamined": "BRAIN",
  "ConsistencyInfo": "N4_VE11C_LATEST_20160120",
  "ConversionSoftware": "dcm2niix",
  "ConversionSoftwareVersion": "v1.0.20201102",
  "DerivedVendorReportedEchoSpacing": 0.00049,
  "DeviceSerialNumber": "66112",
  "DwellTime": 2e-06,
  "EchoTime": 0.0272,
  "EchoTrainLength": 82,
  "EffectiveEchoSpacing": 0.00049,
  "FlipAngle": 44,
  "ImageComments": "Unaliased MB8/PE3",
  "ImageOrientationPatientDICOM": [0.998058, 0.0622678, -0.00176523, -0.0622679, 0.998059, 3.10083e-05],
  "ImageType": [
    "ORIGINAL",
    "PRIMARY",
    "M",
    "MB",
    "ND",
    "NORM",
    "MOSAIC"
],
  "ImagingFrequency": 123.252,
  "InPlanePhaseEncodingDirectionDICOM": "COL",
  "InstitutionAddress": "Maynard 3,Hanover,NH,US,03755",
  "InstitutionName": "Dartmouth College - PBS",
  "InstitutionalDepartmentName": "Department",
  "MRAcquisitionType": "2D",
  "MagneticFieldStrength": 3,
  "Manufacturer": "Siemens",
  "ManufacturersModelName": "Prisma",
  "Modality": "MR",
  "MultibandAccelerationFactor": 8,
  "PartialFourier": 1,
  "PatientPosition": "HFS",
  "PercentPhaseFOV": 100,
  "PercentSampling": 100,
  "PhaseEncodingDirection": "j-",
  "PhaseEncodingSteps": 82,
  "PhaseResolution": 1,
  "PixelBandwidth": 3050,
  "ProcedureStepDescription": "Wager_Wager^1076_spacetop",
  "ProtocolName": "func_run-05_task-social_acq-ap-mb8",
  "PulseSequenceDetails": "%CustomerSeq%\\cmrr_mbep2d_bold",
  "ReceiveCoilActiveElements": "HEA;HEP",
  "ReceiveCoilName": "Head_32",
  "ReconMatrixPE": 82,
  "RepetitionTime": 0.46,
  "SAR": 0.141833,
  "ScanOptions": "FS",
  "ScanningSequence": "EP",
  "SequenceName": "epfid2d1_82",
  "SequenceVariant": "SK\\SS",
  "SeriesDescription": "func_run-05_task-social_acq-ap-mb8",
  "SeriesNumber": 20,
  "ShimSetting": [4148, -7715, -7174, 535, -68, -41, 85, 71],
  "SliceThickness": 2.7,
  "SliceTiming": [0, 0.25, 0.0625, 0.3125, 0.125, 0.3775, 0.1875, 0, 0.25, 0.0625, 0.3125, 0.125, 0.3775, 0.1875, 0, 0.25, 0.0625, 0.3125, 0.125, 0.3775, 0.1875, 0, 0.25, 0.0625, 0.3125, 0.125, 0.3775, 0.1875, 0, 0.25, 0.0625, 0.3125, 0.125, 0.3775, 0.1875, 0, 0.25, 0.0625, 0.3125, 0.125, 0.3775, 0.1875, 0, 0.25, 0.0625, 0.3125, 0.125, 0.3775, 0.1875, 0, 0.25, 0.0625, 0.3125, 0.125, 0.3775, 0.1875],
  "SoftwareVersions": "syngo MR E11",
  "SpacingBetweenSlices": 2.7,
  "StationName": "AWP66112",
  "TaskName": "social",
  "TotalReadoutTime": 0.03969,
  "TxRefAmp": 323.927,
  "WipMemBlock": "5a1ee8be-9df9-4924-bdcb-54a17cacb74c||Sequence: R016 ve11c/master r/e634e98; Dec 19 2017 11:00:25 by eja",
  "dcmmeta_affine": [
    [-2.6777164936065674, -0.16706013679504395, -0.004762074910104275, 122.21985626220703],
    [-0.1670600175857544, 2.677720546722412, -0.00021321581152733415, -74.5042724609375],
    [-0.004735972266644239, -8.319289918290451e-05, 2.699995756149292, -29.525524139404297],
    [0.0, 0.0, 0.0, 1.0]
],
  "dcmmeta_reorient_transform": [
    [0.0, -1.0, 0.0, 81.0],
    [1.0, 0.0, 0.0, 0.0],
    [0.0, 0.0, 1.0, 0.0],
    [0.0, 0.0, 0.0, 1.0]
],
  "dcmmeta_shape": [82, 82, 56, 872],
  "dcmmeta_slice_dim": 2,
  "dcmmeta_version": 0.6,
  "global": {
    "const": {
      "AccessionNumber": "A003800",
      "AcquisitionMatrix": [82, 0, 0, 82],
      "AngioFlag": "N",
      "BitsAllocated": 16,
      "BitsStored": 16,
      "BodyPartExamined": "BRAIN",
      "Columns": 656,
      "EchoNumbers": 1,
      "EchoTime": 27.2,
      "EchoTrainLength": 82,
      "FlipAngle": 44.0,
      "HighBit": 15,
      "ImageOrientationPatient": [0.99805791520355, 0.06226782376564, -0.0017652260597, -0.0622678661195, 0.99805947312143, 3.1008263e-05],
      "ImagePositionPatient": [-829.24634143331, -958.84313612802, -28.196914578171],
      "ImageType": [
        "ORIGINAL",
        "PRIMARY",
        "M",
        "MB",
        "ND",
        "NORM",
        "MOSAIC"
],
      "ImagedNucleus": "1H",
      "ImagingFrequency": 123.252122,
      "InPlanePhaseEncodingDirection": "COL",
      "MRAcquisitionType": "2D",
      "MagneticFieldStrength": 3.0,
      "Manufacturer": "SIEMENS",
      "ManufacturerModelName": "Prisma",
      "Modality": "MR",
      "NumberOfAverages": 1.0,
      "NumberOfPhaseEncodingSteps": 82,
      "PercentPhaseFieldOfView": 100.0,
      "PercentSampling": 100.0,
      "PerformedProcedureStepStartTime": "084606.338000",
      "PhotometricInterpretation": "MONOCHROME2",
      "PixelBandwidth": 3050.0,
      "PixelRepresentation": 0,
      "PixelSpacing": [2.6829268932343, 2.6829268932343],
      "ProtocolName": "func_run-05_task-social_acq-ap-mb8",
      "RepetitionTime": 460.0,
      "Rows": 656,
      "SAR": 0.14183291195766,
      "SamplesPerPixel": 1,
      "ScanOptions": "FS",
      "ScanningSequence": "EP",
      "SequenceName": "epfid2d1_82",
      "SequenceVariant": [
        "SK",
        "SS"
],
      "SeriesDescription": "func_run-05_task-social_acq-ap-mb8",
      "SeriesNumber": 20,
      "SeriesTime": "094315.125000",
      "SliceLocation": -29.735157159671,
      "SliceThickness": 2.7000000476837,
      "SmallestImagePixelValue": 0,
      "SoftwareVersions": "syngo MR E11",
      "SpacingBetweenSlices": 2.6999999770902,
      "SpecificCharacterSet": "ISO_IR 100",
      "StudyID": "1",
      "StudyTime": "084605.843000",
      "TransmitCoilName": "Body",
      "VariableFlipAngleFlag": "N",
      "WindowCenterWidthExplanation": "Algo1",
      "dBdt": 0.0},
    "slices": {}
  },
  "time": {
    "samples": {
      "AcquisitionNumber": [1, 2, 3, 4, 5, 6, 7, 8, 9, 10, 11, 12, 13, 14, 15, 16, 17, 18, 19, 20, 21, 22, 23, 24, 25, 26, 27, 28, 29, 30, 31, 32, 33, 34, 35, 36, 37, 38, 39, 40, 41, 42, 43, 44, 45, 46, 47, 48, 49, 50, 51, 52, 53, 54, 55, 56, 57, 58, 59, 60, 61, 62, 63, 64, 65, 66, 67, 68, 69, 70, 71, 72, 73, 74, 75, 76, 77, 78, 79, 80, 81, 82, 83, 84, 85, 86, 87, 88, 89, 90, 91, 92, 93, 94, 95, 96, 97, 98, 99, 100, 101, 102, 103, 104, 105, 106, 107, 108, 109, 110, 111, 112, 113, 114, 115, 116, 117, 118, 119, 120, 121, 122, 123, 124, 125, 126, 127, 128, 129, 130, 131, 132, 133, 134, 135, 136, 137, 138, 139, 140, 141, 142, 143, 144, 145, 146, 147, 148, 149, 150, 151, 152, 153, 154, 155, 156, 157, 158, 159, 160, 161, 162, 163, 164, 165, 166, 167, 168, 169, 170, 171, 172, 173, 174, 175, 176, 177, 178, 179, 180, 181, 182, 183, 184, 185, 186, 187, 188, 189, 190, 191, 192, 193, 194, 195, 196, 197, 198, 199, 200, 201, 202, 203, 204, 205, 206, 207, 208, 209, 210, 211, 212, 213, 214, 215, 216, 217, 218, 219, 220, 221, 222, 223, 224, 225, 226, 227, 228, 229, 230, 231, 232, 233, 234, 235, 236, 237, 238, 239, 240, 241, 242, 243, 244, 245, 246, 247, 248, 249, 250, 251, 252, 253, 254, 255, 256, 257, 258, 259, 260, 261, 262, 263, 264, 265, 266, 267, 268, 269, 270, 271, 272, 273, 274, 275, 276, 277, 278, 279, 280, 281, 282, 283, 284, 285, 286, 287, 288, 289, 290, 291, 292, 293, 294, 295, 296, 297, 298, 299, 300, 301, 302, 303, 304, 305, 306, 307, 308, 309, 310, 311, 312, 313, 314, 315, 316, 317, 318, 319, 320, 321, 322, 323, 324, 325, 326, 327, 328, 329, 330, 331, 332, 333, 334, 335, 336, 337, 338, 339, 340, 341, 342, 343, 344, 345, 346, 347, 348, 349, 350, 351, 352, 353, 354, 355, 356, 357, 358, 359, 360, 361, 362, 363, 364, 365, 366, 367, 368, 369, 370, 371, 372, 373, 374, 375, 376, 377, 378, 379, 380, 381, 382, 383, 384, 385, 386, 387, 388, 389, 390, 391, 392, 393, 394, 395, 396, 397, 398, 399, 400, 401, 402, 403, 404, 405, 406, 407, 408, 409, 410, 411, 412, 413, 414, 415, 416, 417, 418, 419, 420, 421, 422, 423, 424, 425, 426, 427, 428, 429, 430, 431, 432, 433, 434, 435, 436, 437, 438, 439, 440, 441, 442, 443, 444, 445, 446, 447, 448, 449, 450, 451, 452, 453, 454, 455, 456, 457, 458, 459, 460, 461, 462, 463, 464, 465, 466, 467, 468, 469, 470, 471, 472, 473, 474, 475, 476, 477, 478, 479, 480, 481, 482, 483, 484, 485, 486, 487, 488, 489, 490, 491, 492, 493, 494, 495, 496, 497, 498, 499, 500, 501, 502, 503, 504, 505, 506, 507, 508, 509, 510, 511, 512, 513, 514, 515, 516, 517, 518, 519, 520, 521, 522, 523, 524, 525, 526, 527, 528, 529, 530, 531, 532, 533, 534, 535, 536, 537, 538, 539, 540, 541, 542, 543, 544, 545, 546, 547, 548, 549, 550, 551, 552, 553, 554, 555, 556, 557, 558, 559, 560, 561, 562, 563, 564, 565, 566, 567, 568, 569, 570, 571, 572, 573, 574, 575, 576, 577, 578, 579, 580, 581, 582, 583, 584, 585, 586, 587, 588, 589, 590, 591, 592, 593, 594, 595, 596, 597, 598, 599, 600, 601, 602, 603, 604, 605, 606, 607, 608, 609, 610, 611, 612, 613, 614, 615, 616, 617, 618, 619, 620, 621, 622, 623, 624, 625, 626, 627, 628, 629, 630, 631, 632, 633, 634, 635, 636, 637, 638, 639, 640, 641, 642, 643, 644, 645, 646, 647, 648, 649, 650, 651, 652, 653, 654, 655, 656, 657, 658, 659, 660, 661, 662, 663, 664, 665, 666, 667, 668, 669, 670, 671, 672, 673, 674, 675, 676, 677, 678, 679, 680, 681, 682, 683, 684, 685, 686, 687, 688, 689, 690, 691, 692, 693, 694, 695, 696, 697, 698, 699, 700, 701, 702, 703, 704, 705, 706, 707, 708, 709, 710, 711, 712, 713, 714, 715, 716, 717, 718, 719, 720, 721, 722, 723, 724, 725, 726, 727, 728, 729, 730, 731, 732, 733, 734, 735, 736, 737, 738, 739, 740, 741, 742, 743, 744, 745, 746, 747, 748, 749, 750, 751, 752, 753, 754, 755, 756, 757, 758, 759, 760, 761, 762, 763, 764, 765, 766, 767, 768, 769, 770, 771, 772, 773, 774, 775, 776, 777, 778, 779, 780, 781, 782, 783, 784, 785, 786, 787, 788, 789, 790, 791, 792, 793, 794, 795, 796, 797, 798, 799, 800, 801, 802, 803, 804, 805, 806, 807, 808, 809, 810, 811, 812, 813, 814, 815, 816, 817, 818, 819, 820, 821, 822, 823, 824, 825, 826, 827, 828, 829, 830, 831, 832, 833, 834, 835, 836, 837, 838, 839, 840, 841, 842, 843, 844, 845, 846, 847, 848, 849, 850, 851, 852, 853, 854, 855, 856, 857, 858, 859, 860, 861, 862, 863, 864, 865, 866, 867, 868, 869, 870, 871, 872],
      "AcquisitionTime": ["094251.952500", "094252.412500", "094252.872500", "094253.332500", "094253.792500", "094254.252500", "094254.712500", "094255.172500", "094255.632500", "094256.092500", "094256.552500", "094257.012500", "094257.472500", "094257.932500", "094258.392500", "094258.852500", "094259.312500", "094259.772500", "094300.232500", "094300.692500", "094301.152500", "094301.612500", "094302.072500", "094302.532500", "094302.992500", "094303.452500", "094303.912500", "094304.372500", "094304.832500", "094305.292500", "094305.752500", "094306.212500", "094306.672500", "094307.132500", "094307.592500", "094308.052500", "094308.512500", "094308.972500", "094309.432500", "094309.892500", "094310.352500", "094310.812500", "094311.272500", "094311.732500", "094312.192500", "094312.652500", "094313.112500", "094313.572500", "094314.032500", "094314.492500", "094314.952500", "094315.412500", "094315.872500", "094316.332500", "094316.792500", "094317.252500", "094317.712500", "094318.172500", "094318.632500", "094319.092500", "094319.552500", "094320.012500", "094320.472500", "094320.932500", "094321.392500", "094321.852500", "094322.312500", "094322.772500", "094323.232500", "094323.692500", "094324.152500", "094324.612500", "094325.072500", "094325.532500", "094325.992500", "094326.452500", "094326.912500", "094327.372500", "094327.832500", "094328.292500", "094328.752500", "094329.212500", "094329.672500", "094330.132500", "094330.592500", "094331.052500", "094331.512500", "094331.972500", "094332.432500", "094332.892500", "094333.352500", "094333.812500", "094334.272500", "094334.732500", "094335.192500", "094335.652500", "094336.112500", "094336.572500", "094337.032500", "094337.492500", "094337.952500", "094338.412500", "094338.872500", "094339.332500", "094339.792500", "094340.252500", "094340.712500", "094341.172500", "094341.632500", "094342.092500", "094342.552500", "094343.012500", "094343.472500", "094343.932500", "094344.392500", "094344.852500", "094345.312500", "094345.772500", "094346.232500", "094346.692500", "094347.152500", "094347.612500", "094348.072500", "094348.532500", "094348.992500", "094349.452500", "094349.912500", "094350.372500", "094350.832500", "094351.292500", "094351.752500", "094352.212500", "094352.672500", "094353.132500", "094353.592500", "094354.052500", "094354.512500", "094354.972500", "094355.432500", "094355.892500", "094356.352500", "094356.812500", "094357.272500", "094357.732500", "094358.192500", "094358.652500", "094359.112500", "094359.572500", "094400.032500", "094400.492500", "094400.952500", "094401.412500", "094401.872500", "094402.332500", "094402.792500", "094403.252500", "094403.712500", "094404.172500", "094404.632500", "094405.092500", "094405.552500", "094406.012500", "094406.472500", "094406.932500", "094407.392500", "094407.852500", "094408.312500", "094408.772500", "094409.232500", "094409.692500", "094410.152500", "094410.612500", "094411.072500", "094411.532500", "094411.992500", "094412.452500", "094412.912500", "094413.372500", "094413.832500", "094414.292500", "094414.752500", "094415.212500", "094415.672500", "094416.132500", "094416.592500", "094417.052500", "094417.512500", "094417.972500", "094418.432500", "094418.892500", "094419.352500", "094419.812500", "094420.272500", "094420.732500", "094421.192500", "094421.652500", "094422.112500", "094422.572500", "094423.032500", "094423.492500", "094423.952500", "094424.412500", "094424.872500", "094425.332500", "094425.792500", "094426.252500", "094426.712500", "094427.172500", "094427.632500", "094428.092500", "094428.552500", "094429.012500", "094429.472500", "094429.932500", "094430.392500", "094430.852500", "094431.312500", "094431.772500", "094432.232500", "094432.692500", "094433.152500", "094433.612500", "094434.072500", "094434.532500", "094434.992500", "094435.452500", "094435.912500", "094436.372500", "094436.832500", "094437.292500", "094437.752500", "094438.212500", "094438.672500", "094439.132500", "094439.592500", "094440.052500", "094440.512500", "094440.972500", "094441.432500", "094441.892500", "094442.352500", "094442.812500", "094443.272500", "094443.732500", "094444.192500", "094444.652500", "094445.112500", "094445.572500", "094446.032500", "094446.492500", "094446.952500", "094447.412500", "094447.872500", "094448.332500", "094448.792500", "094449.252500", "094449.712500", "094450.172500", "094450.632500", "094451.092500", "094451.552500", "094452.012500", "094452.472500", "094452.932500", "094453.392500", "094453.852500", "094454.312500", "094454.772500", "094455.232500", "094455.692500", "094456.152500", "094456.612500", "094457.072500", "094457.532500", "094457.992500", "094458.452500", "094458.912500", "094459.372500", "094459.832500", "094500.292500", "094500.752500", "094501.212500", "094501.672500", "094502.132500", "094502.592500", "094503.052500", "094503.512500", "094503.972500", "094504.432500", "094504.892500", "094505.352500", "094505.812500", "094506.272500", "094506.732500", "094507.192500", "094507.652500", "094508.112500", "094508.572500", "094509.032500", "094509.492500", "094509.952500", "094510.412500", "094510.872500", "094511.332500", "094511.792500", "094512.252500", "094512.712500", "094513.172500", "094513.632500", "094514.092500", "094514.552500", "094515.012500", "094515.472500", "094515.932500", "094516.392500", "094516.852500", "094517.312500", "094517.772500", "094518.232500", "094518.692500", "094519.152500", "094519.612500", "094520.072500", "094520.532500", "094520.992500", "094521.452500", "094521.912500", "094522.372500", "094522.832500", "094523.292500", "094523.752500", "094524.212500", "094524.672500", "094525.132500", "094525.592500", "094526.052500", "094526.512500", "094526.972500", "094527.432500", "094527.892500", "094528.352500", "094528.812500", "094529.272500", "094529.732500", "094530.192500", "094530.652500", "094531.112500", "094531.572500", "094532.032500", "094532.492500", "094532.952500", "094533.412500", "094533.872500", "094534.332500", "094534.792500", "094535.252500", "094535.712500", "094536.172500", "094536.632500", "094537.092500", "094537.552500", "094538.012500", "094538.472500", "094538.932500", "094539.392500", "094539.852500", "094540.312500", "094540.772500", "094541.232500", "094541.692500", "094542.152500", "094542.612500", "094543.072500", "094543.532500", "094543.992500", "094544.452500", "094544.912500", "094545.372500", "094545.832500", "094546.292500", "094546.752500", "094547.212500", "094547.672500", "094548.132500", "094548.592500", "094549.052500", "094549.512500", "094549.972500", "094550.432500", "094550.892500", "094551.352500", "094551.812500", "094552.272500", "094552.732500", "094553.192500", "094553.652500", "094554.112500", "094554.572500", "094555.032500", "094555.492500", "094555.952500", "094556.412500", "094556.872500", "094557.332500", "094557.792500", "094558.252500", "094558.712500", "094559.172500", "094559.632500", "094600.092500", "094600.552500", "094601.012500", "094601.472500", "094601.932500", "094602.392500", "094602.852500", "094603.312500", "094603.772500", "094604.232500", "094604.692500", "094605.152500", "094605.612500", "094606.072500", "094606.532500", "094606.992500", "094607.452500", "094607.912500", "094608.372500", "094608.832500", "094609.292500", "094609.752500", "094610.212500", "094610.672500", "094611.132500", "094611.592500", "094612.052500", "094612.512500", "094612.972500", "094613.432500", "094613.892500", "094614.352500", "094614.812500", "094615.272500", "094615.732500", "094616.192500", "094616.652500", "094617.112500", "094617.572500", "094618.032500", "094618.492500", "094618.952500", "094619.412500", "094619.872500", "094620.332500", "094620.792500", "094621.252500", "094621.712500", "094622.172500", "094622.632500", "094623.092500", "094623.552500", "094624.012500", "094624.472500", "094624.932500", "094625.392500", "094625.852500", "094626.312500", "094626.772500", "094627.232500", "094627.692500", "094628.152500", "094628.612500", "094629.072500", "094629.532500", "094629.992500", "094630.452500", "094630.912500", "094631.372500", "094631.832500", "094632.292500", "094632.752500", "094633.212500", "094633.672500", "094634.132500", "094634.592500", "094635.052500", "094635.512500", "094635.972500", "094636.432500", "094636.892500", "094637.352500", "094637.812500", "094638.272500", "094638.732500", "094639.192500", "094639.652500", "094640.112500", "094640.572500", "094641.032500", "094641.492500", "094641.952500", "094642.412500", "094642.872500", "094643.332500", "094643.792500", "094644.252500", "094644.712500", "094645.172500", "094645.632500", "094646.092500", "094646.552500", "094647.012500", "094647.472500", "094647.932500", "094648.392500", "094648.852500", "094649.312500", "094649.772500", "094650.232500", "094650.692500", "094651.152500", "094651.612500", "094652.072500", "094652.532500", "094652.992500", "094653.452500", "094653.912500", "094654.372500", "094654.832500", "094655.292500", "094655.752500", "094656.212500", "094656.672500", "094657.132500", "094657.592500", "094658.052500", "094658.512500", "094658.972500", "094659.432500", "094659.892500", "094700.352500", "094700.812500", "094701.272500", "094701.732500", "094702.192500", "094702.652500", "094703.112500", "094703.572500", "094704.032500", "094704.492500", "094704.952500", "094705.412500", "094705.872500", "094706.332500", "094706.792500", "094707.252500", "094707.712500", "094708.172500", "094708.632500", "094709.092500", "094709.552500", "094710.012500", "094710.472500", "094710.932500", "094711.392500", "094711.852500", "094712.312500", "094712.772500", "094713.232500", "094713.692500", "094714.152500", "094714.612500", "094715.072500", "094715.532500", "094715.992500", "094716.452500", "094716.912500", "094717.372500", "094717.832500", "094718.292500", "094718.752500", "094719.212500", "094719.672500", "094720.132500", "094720.592500", "094721.052500", "094721.512500", "094721.972500", "094722.432500", "094722.892500", "094723.352500", "094723.812500", "094724.272500", "094724.732500", "094725.192500", "094725.652500", "094726.112500", "094726.572500", "094727.032500", "094727.492500", "094727.952500", "094728.412500", "094728.872500", "094729.332500", "094729.792500", "094730.252500", "094730.712500", "094731.172500", "094731.632500", "094732.092500", "094732.552500", "094733.012500", "094733.472500", "094733.932500", "094734.392500", "094734.852500", "094735.312500", "094735.772500", "094736.232500", "094736.692500", "094737.152500", "094737.612500", "094738.072500", "094738.532500", "094738.992500", "094739.452500", "094739.912500", "094740.372500", "094740.832500", "094741.292500", "094741.752500", "094742.212500", "094742.672500", "094743.132500", "094743.592500", "094744.052500", "094744.512500", "094744.972500", "094745.432500", "094745.892500", "094746.352500", "094746.812500", "094747.272500", "094747.732500", "094748.192500", "094748.652500", "094749.112500", "094749.572500", "094750.032500", "094750.492500", "094750.952500", "094751.412500", "094751.872500", "094752.332500", "094752.792500", "094753.252500", "094753.712500", "094754.172500", "094754.632500", "094755.092500", "094755.552500", "094756.012500", "094756.472500", "094756.932500", "094757.392500", "094757.852500", "094758.312500", "094758.772500", "094759.232500", "094759.692500", "094800.152500", "094800.612500", "094801.072500", "094801.532500", "094801.992500", "094802.452500", "094802.912500", "094803.372500", "094803.832500", "094804.292500", "094804.752500", "094805.212500", "094805.672500", "094806.132500", "094806.592500", "094807.052500", "094807.512500", "094807.972500", "094808.432500", "094808.892500", "094809.352500", "094809.812500", "094810.272500", "094810.732500", "094811.192500", "094811.652500", "094812.112500", "094812.572500", "094813.032500", "094813.492500", "094813.952500", "094814.412500", "094814.872500", "094815.332500", "094815.792500", "094816.252500", "094816.712500", "094817.172500", "094817.632500", "094818.092500", "094818.552500", "094819.012500", "094819.472500", "094819.932500", "094820.392500", "094820.852500", "094821.312500", "094821.772500", "094822.232500", "094822.692500", "094823.152500", "094823.612500", "094824.072500", "094824.532500", "094824.992500", "094825.452500", "094825.912500", "094826.372500", "094826.832500", "094827.292500", "094827.752500", "094828.212500", "094828.672500", "094829.132500", "094829.592500", "094830.052500", "094830.512500", "094830.972500", "094831.432500", "094831.892500", "094832.352500", "094832.812500", "094833.272500", "094833.732500", "094834.192500", "094834.652500", "094835.112500", "094835.572500", "094836.032500", "094836.492500", "094836.952500", "094837.412500", "094837.872500", "094838.332500", "094838.792500", "094839.252500", "094839.712500", "094840.172500", "094840.632500", "094841.092500", "094841.552500", "094842.012500", "094842.472500", "094842.932500", "094843.392500", "094843.852500", "094844.312500", "094844.772500", "094845.232500", "094845.692500", "094846.152500", "094846.612500", "094847.072500", "094847.532500", "094847.992500", "094848.452500", "094848.912500", "094849.372500", "094849.832500", "094850.292500", "094850.752500", "094851.212500", "094851.672500", "094852.132500", "094852.592500", "094853.052500", "094853.512500", "094853.972500", "094854.432500", "094854.892500", "094855.352500", "094855.812500", "094856.272500", "094856.732500", "094857.192500", "094857.652500", "094858.112500", "094858.572500", "094859.032500", "094859.492500", "094859.952500", "094900.412500", "094900.872500", "094901.332500", "094901.792500", "094902.252500", "094902.712500", "094903.172500", "094903.632500", "094904.092500", "094904.552500", "094905.012500", "094905.472500", "094905.932500", "094906.392500", "094906.852500", "094907.312500", "094907.772500", "094908.232500", "094908.692500", "094909.152500", "094909.612500", "094910.072500", "094910.532500", "094910.992500", "094911.452500", "094911.912500", "094912.372500", "094912.832500", "094913.292500", "094913.752500", "094914.212500", "094914.672500", "094915.132500", "094915.592500", "094916.052500", "094916.512500", "094916.972500", "094917.432500", "094917.892500", "094918.352500", "094918.812500", "094919.272500", "094919.732500", "094920.192500", "094920.652500", "094921.112500", "094921.572500", "094922.032500", "094922.492500", "094922.952500", "094923.412500", "094923.872500", "094924.332500", "094924.792500", "094925.252500", "094925.712500", "094926.172500", "094926.632500", "094927.092500", "094927.552500", "094928.012500", "094928.472500", "094928.932500", "094929.392500", "094929.852500", "094930.312500", "094930.772500", "094931.232500", "094931.692500", "094932.152500", "094932.612500"],
