{
  "AcquisitionMatrixPE": 82,
  "AcquisitionNumber": 1,
  "AcquisitionTime": "09:44:11.277500",
  "BandwidthPerPixelPhaseEncode": 24.888,
  "BaseResolution": 82,
  "BodyPartExamined": "BRAIN",
  "ConsistencyInfo": "N4_VE11C_LATEST_20160120",
  "ConversionSoftware": "dcm2niix",
  "ConversionSoftwareVersion": "v1.0.20201102",
  "DerivedVendorReportedEchoSpacing": 0.00049,
  "DeviceSerialNumber": "66112",
  "DwellTime": 2e-06,
  "EchoTime": 0.0272,
  "EchoTrainLength": 82,
  "EffectiveEchoSpacing": 0.00049,
  "FlipAngle": 44,
  "ImageComments": "Unaliased MB8/PE3",
  "ImageOrientationPatientDICOM": [0.993313, 0.0187448, 0.113918, -0.0353816, 0.988677, 0.145827],
  "ImageType": [
    "ORIGINAL",
    "PRIMARY",
    "M",
    "MB",
    "ND",
    "NORM",
    "MOSAIC"
],
  "ImagingFrequency": 123.252,
  "InPlanePhaseEncodingDirectionDICOM": "COL",
  "InstitutionAddress": "Maynard 3,Hanover,NH,US,03755",
  "InstitutionName": "Dartmouth College - PBS",
  "InstitutionalDepartmentName": "Department",
  "MRAcquisitionType": "2D",
  "MagneticFieldStrength": 3,
  "Manufacturer": "Siemens",
  "ManufacturersModelName": "Prisma",
  "Modality": "MR",
  "MultibandAccelerationFactor": 8,
  "PartialFourier": 1,
  "PatientPosition": "HFS",
  "PercentPhaseFOV": 100,
  "PercentSampling": 100,
  "PhaseEncodingDirection": "j-",
  "PhaseEncodingSteps": 82,
  "PhaseResolution": 1,
  "PixelBandwidth": 3050,
  "ProcedureStepDescription": "Wager_Wager^1076_spacetop",
  "ProtocolName": "func_run-01_task-social_acq-ap-mb8",
  "PulseSequenceDetails": "%CustomerSeq%\\cmrr_mbep2d_bold",
  "ReceiveCoilActiveElements": "HEA;HEP",
  "ReceiveCoilName": "Head_32",
  "ReconMatrixPE": 82,
  "RepetitionTime": 0.46,
  "SAR": 0.0945946,
  "ScanOptions": "FS",
  "ScanningSequence": "EP",
  "SequenceName": "epfid2d1_82",
  "SequenceVariant": "SK\\SS",
  "SeriesDescription": "func_run-01_task-social_acq-ap-mb8",
  "SeriesNumber": 12,
  "ShimSetting": [4174, -7757, -7287, 656, 17, -142, 47, 49],
  "SliceThickness": 2.7,
  "SliceTiming": [0, 0.25, 0.0625, 0.3125, 0.125, 0.3775, 0.1875, 0, 0.25, 0.0625, 0.3125, 0.125, 0.3775, 0.1875, 0, 0.25, 0.0625, 0.3125, 0.125, 0.3775, 0.1875, 0, 0.25, 0.0625, 0.3125, 0.125, 0.3775, 0.1875, 0, 0.25, 0.0625, 0.3125, 0.125, 0.3775, 0.1875, 0, 0.25, 0.0625, 0.3125, 0.125, 0.3775, 0.1875, 0, 0.25, 0.0625, 0.3125, 0.125, 0.3775, 0.1875, 0, 0.25, 0.0625, 0.3125, 0.125, 0.3775, 0.1875],
  "SoftwareVersions": "syngo MR E11",
  "SpacingBetweenSlices": 2.7,
  "StationName": "AWP66112",
  "TaskName": "social",
  "TotalReadoutTime": 0.03969,
  "TxRefAmp": 260.362,
  "WipMemBlock": "379972a8-23eb-4548-b88d-02f019346277||Sequence: R016 ve11c/master r/e634e98; Dec 19 2017 11:00:25 by eja",
  "dcmmeta_affine": [
    [-2.6649868488311768, -0.09492626041173935, 0.29671674966812134, 110.30409240722656],
    [-0.0502910353243351, 2.6525485515594482, 0.4019835293292999, -99.29570007324219],
    [0.3056349754333496, -0.39124393463134766, 2.653369188308716, -60.849605560302734],
    [0.0, 0.0, 0.0, 1.0]
],
  "dcmmeta_reorient_transform": [
    [0.0, -1.0, 0.0, 81.0],
    [1.0, 0.0, 0.0, 0.0],
    [0.0, 0.0, 1.0, 0.0],
    [0.0, 0.0, 0.0, 1.0]
],
  "dcmmeta_shape": [82, 82, 56, 872],
  "dcmmeta_slice_dim": 2,
  "dcmmeta_version": 0.6,
  "global": {
    "const": {
      "AccessionNumber": "A003773",
      "AcquisitionMatrix": [82, 0, 0, 82],
      "AngioFlag": "N",
      "BitsAllocated": 16,
      "BitsStored": 16,
      "BodyPartExamined": "BRAIN",
      "Columns": 656,
      "EchoNumbers": 1,
      "EchoTime": 27.2,
      "EchoTrainLength": 82,
      "FlipAngle": 44.0,
      "HighBit": 15,
      "ImageOrientationPatient": [0.99331324877383, 0.01874484051424, 0.11391848298008, -0.0353816064067, 0.98867716989887, 0.14582728019424],
      "ImagePositionPatient": [-840.22244579511, -891.27570163279, -292.54460742639],
      "ImageType": [
        "ORIGINAL",
        "PRIMARY",
        "M",
        "MB",
        "ND",
        "NORM",
        "MOSAIC"
],
      "ImagedNucleus": "1H",
      "ImagingFrequency": 123.252176,
      "InPlanePhaseEncodingDirection": "COL",
      "MRAcquisitionType": "2D",
      "MagneticFieldStrength": 3.0,
      "Manufacturer": "SIEMENS",
      "ManufacturerModelName": "Prisma",
      "Modality": "MR",
      "NumberOfAverages": 1.0,
      "NumberOfPhaseEncodingSteps": 82,
      "PercentPhaseFieldOfView": 100.0,
      "PercentSampling": 100.0,
      "PerformedProcedureStepStartTime": "090619.618000",
      "PhotometricInterpretation": "MONOCHROME2",
      "PixelBandwidth": 3050.0,
      "PixelRepresentation": 0,
      "PixelSpacing": [2.6829268932343, 2.6829268932343],
      "ProtocolName": "func_run-01_task-social_acq-ap-mb8",
      "RepetitionTime": 460.0,
      "Rows": 656,
      "SAR": 0.09459460196875,
      "SamplesPerPixel": 1,
      "ScanOptions": "FS",
      "ScanningSequence": "EP",
      "SequenceName": "epfid2d1_82",
      "SequenceVariant": [
        "SK",
        "SS"
],
      "SeriesDescription": "func_run-01_task-social_acq-ap-mb8",
      "SeriesNumber": 12,
      "SeriesTime": "094429.929000",
      "SliceLocation": -62.460236591341,
      "SliceThickness": 2.7000000476837,
      "SmallestImagePixelValue": 0,
      "SoftwareVersions": "syngo MR E11",
      "SpacingBetweenSlices": 2.700000023978,
      "SpecificCharacterSet": "ISO_IR 100",
      "StudyID": "5",
      "StudyTime": "090619.493000",
      "TransmitCoilName": "Body",
      "VariableFlipAngleFlag": "N",
      "WindowCenterWidthExplanation": "Algo1",
      "dBdt": 0.0},
    "slices": {}
  },
  "time": {
    "samples": {
      "AcquisitionNumber": [1, 2, 3, 4, 5, 6, 7, 8, 9, 10, 11, 12, 13, 14, 15, 16, 17, 18, 19, 20, 21, 22, 23, 24, 25, 26, 27, 28, 29, 30, 31, 32, 33, 34, 35, 36, 37, 38, 39, 40, 41, 42, 43, 44, 45, 46, 47, 48, 49, 50, 51, 52, 53, 54, 55, 56, 57, 58, 59, 60, 61, 62, 63, 64, 65, 66, 67, 68, 69, 70, 71, 72, 73, 74, 75, 76, 77, 78, 79, 80, 81, 82, 83, 84, 85, 86, 87, 88, 89, 90, 91, 92, 93, 94, 95, 96, 97, 98, 99, 100, 101, 102, 103, 104, 105, 106, 107, 108, 109, 110, 111, 112, 113, 114, 115, 116, 117, 118, 119, 120, 121, 122, 123, 124, 125, 126, 127, 128, 129, 130, 131, 132, 133, 134, 135, 136, 137, 138, 139, 140, 141, 142, 143, 144, 145, 146, 147, 148, 149, 150, 151, 152, 153, 154, 155, 156, 157, 158, 159, 160, 161, 162, 163, 164, 165, 166, 167, 168, 169, 170, 171, 172, 173, 174, 175, 176, 177, 178, 179, 180, 181, 182, 183, 184, 185, 186, 187, 188, 189, 190, 191, 192, 193, 194, 195, 196, 197, 198, 199, 200, 201, 202, 203, 204, 205, 206, 207, 208, 209, 210, 211, 212, 213, 214, 215, 216, 217, 218, 219, 220, 221, 222, 223, 224, 225, 226, 227, 228, 229, 230, 231, 232, 233, 234, 235, 236, 237, 238, 239, 240, 241, 242, 243, 244, 245, 246, 247, 248, 249, 250, 251, 252, 253, 254, 255, 256, 257, 258, 259, 260, 261, 262, 263, 264, 265, 266, 267, 268, 269, 270, 271, 272, 273, 274, 275, 276, 277, 278, 279, 280, 281, 282, 283, 284, 285, 286, 287, 288, 289, 290, 291, 292, 293, 294, 295, 296, 297, 298, 299, 300, 301, 302, 303, 304, 305, 306, 307, 308, 309, 310, 311, 312, 313, 314, 315, 316, 317, 318, 319, 320, 321, 322, 323, 324, 325, 326, 327, 328, 329, 330, 331, 332, 333, 334, 335, 336, 337, 338, 339, 340, 341, 342, 343, 344, 345, 346, 347, 348, 349, 350, 351, 352, 353, 354, 355, 356, 357, 358, 359, 360, 361, 362, 363, 364, 365, 366, 367, 368, 369, 370, 371, 372, 373, 374, 375, 376, 377, 378, 379, 380, 381, 382, 383, 384, 385, 386, 387, 388, 389, 390, 391, 392, 393, 394, 395, 396, 397, 398, 399, 400, 401, 402, 403, 404, 405, 406, 407, 408, 409, 410, 411, 412, 413, 414, 415, 416, 417, 418, 419, 420, 421, 422, 423, 424, 425, 426, 427, 428, 429, 430, 431, 432, 433, 434, 435, 436, 437, 438, 439, 440, 441, 442, 443, 444, 445, 446, 447, 448, 449, 450, 451, 452, 453, 454, 455, 456, 457, 458, 459, 460, 461, 462, 463, 464, 465, 466, 467, 468, 469, 470, 471, 472, 473, 474, 475, 476, 477, 478, 479, 480, 481, 482, 483, 484, 485, 486, 487, 488, 489, 490, 491, 492, 493, 494, 495, 496, 497, 498, 499, 500, 501, 502, 503, 504, 505, 506, 507, 508, 509, 510, 511, 512, 513, 514, 515, 516, 517, 518, 519, 520, 521, 522, 523, 524, 525, 526, 527, 528, 529, 530, 531, 532, 533, 534, 535, 536, 537, 538, 539, 540, 541, 542, 543, 544, 545, 546, 547, 548, 549, 550, 551, 552, 553, 554, 555, 556, 557, 558, 559, 560, 561, 562, 563, 564, 565, 566, 567, 568, 569, 570, 571, 572, 573, 574, 575, 576, 577, 578, 579, 580, 581, 582, 583, 584, 585, 586, 587, 588, 589, 590, 591, 592, 593, 594, 595, 596, 597, 598, 599, 600, 601, 602, 603, 604, 605, 606, 607, 608, 609, 610, 611, 612, 613, 614, 615, 616, 617, 618, 619, 620, 621, 622, 623, 624, 625, 626, 627, 628, 629, 630, 631, 632, 633, 634, 635, 636, 637, 638, 639, 640, 641, 642, 643, 644, 645, 646, 647, 648, 649, 650, 651, 652, 653, 654, 655, 656, 657, 658, 659, 660, 661, 662, 663, 664, 665, 666, 667, 668, 669, 670, 671, 672, 673, 674, 675, 676, 677, 678, 679, 680, 681, 682, 683, 684, 685, 686, 687, 688, 689, 690, 691, 692, 693, 694, 695, 696, 697, 698, 699, 700, 701, 702, 703, 704, 705, 706, 707, 708, 709, 710, 711, 712, 713, 714, 715, 716, 717, 718, 719, 720, 721, 722, 723, 724, 725, 726, 727, 728, 729, 730, 731, 732, 733, 734, 735, 736, 737, 738, 739, 740, 741, 742, 743, 744, 745, 746, 747, 748, 749, 750, 751, 752, 753, 754, 755, 756, 757, 758, 759, 760, 761, 762, 763, 764, 765, 766, 767, 768, 769, 770, 771, 772, 773, 774, 775, 776, 777, 778, 779, 780, 781, 782, 783, 784, 785, 786, 787, 788, 789, 790, 791, 792, 793, 794, 795, 796, 797, 798, 799, 800, 801, 802, 803, 804, 805, 806, 807, 808, 809, 810, 811, 812, 813, 814, 815, 816, 817, 818, 819, 820, 821, 822, 823, 824, 825, 826, 827, 828, 829, 830, 831, 832, 833, 834, 835, 836, 837, 838, 839, 840, 841, 842, 843, 844, 845, 846, 847, 848, 849, 850, 851, 852, 853, 854, 855, 856, 857, 858, 859, 860, 861, 862, 863, 864, 865, 866, 867, 868, 869, 870, 871, 872],
      "AcquisitionTime": ["094411.277500", "094411.737500", "094412.197500", "094412.657500", "094413.117500", "094413.577500", "094414.037500", "094414.497500", "094414.957500", "094415.417500", "094415.877500", "094416.337500", "094416.797500", "094417.257500", "094417.717500", "094418.177500", "094418.637500", "094419.097500", "094419.557500", "094420.017500", "094420.477500", "094420.937500", "094421.397500", "094421.857500", "094422.317500", "094422.777500", "094423.237500", "094423.697500", "094424.157500", "094424.617500", "094425.077500", "094425.537500", "094425.997500", "094426.457500", "094426.917500", "094427.377500", "094427.837500", "094428.297500", "094428.757500", "094429.217500", "094429.677500", "094430.137500", "094430.597500", "094431.057500", "094431.517500", "094431.977500", "094432.437500", "094432.897500", "094433.357500", "094433.817500", "094434.277500", "094434.737500", "094435.197500", "094435.657500", "094436.117500", "094436.577500", "094437.037500", "094437.497500", "094437.957500", "094438.417500", "094438.877500", "094439.337500", "094439.797500", "094440.257500", "094440.717500", "094441.177500", "094441.637500", "094442.097500", "094442.557500", "094443.017500", "094443.477500", "094443.937500", "094444.397500", "094444.857500", "094445.317500", "094445.777500", "094446.237500", "094446.697500", "094447.157500", "094447.617500", "094448.077500", "094448.537500", "094448.997500", "094449.457500", "094449.917500", "094450.377500", "094450.837500", "094451.297500", "094451.757500", "094452.217500", "094452.677500", "094453.137500", "094453.597500", "094454.057500", "094454.517500", "094454.977500", "094455.437500", "094455.897500", "094456.357500", "094456.817500", "094457.277500", "094457.737500", "094458.197500", "094458.657500", "094459.117500", "094459.577500", "094500.037500", "094500.497500", "094500.957500", "094501.417500", "094501.877500", "094502.337500", "094502.797500", "094503.257500", "094503.717500", "094504.177500", "094504.637500", "094505.097500", "094505.557500", "094506.017500", "094506.477500", "094506.937500", "094507.397500", "094507.857500", "094508.317500", "094508.777500", "094509.237500", "094509.697500", "094510.157500", "094510.617500", "094511.077500", "094511.537500", "094511.997500", "094512.457500", "094512.917500", "094513.377500", "094513.837500", "094514.297500", "094514.757500", "094515.217500", "094515.677500", "094516.137500", "094516.597500", "094517.057500", "094517.517500", "094517.977500", "094518.437500", "094518.897500", "094519.357500", "094519.817500", "094520.277500", "094520.737500", "094521.197500", "094521.657500", "094522.117500", "094522.577500", "094523.037500", "094523.497500", "094523.957500", "094524.417500", "094524.877500", "094525.337500", "094525.797500", "094526.257500", "094526.717500", "094527.177500", "094527.637500", "094528.097500", "094528.557500", "094529.017500", "094529.477500", "094529.937500", "094530.397500", "094530.857500", "094531.317500", "094531.777500", "094532.237500", "094532.697500", "094533.157500", "094533.617500", "094534.077500", "094534.537500", "094534.997500", "094535.457500", "094535.917500", "094536.377500", "094536.837500", "094537.297500", "094537.757500", "094538.217500", "094538.677500", "094539.137500", "094539.597500", "094540.057500", "094540.517500", "094540.977500", "094541.437500", "094541.897500", "094542.357500", "094542.817500", "094543.277500", "094543.737500", "094544.197500", "094544.657500", "094545.117500", "094545.577500", "094546.037500", "094546.497500", "094546.957500", "094547.417500", "094547.877500", "094548.337500", "094548.797500", "094549.257500", "094549.717500", "094550.177500", "094550.637500", "094551.097500", "094551.557500", "094552.017500", "094552.477500", "094552.937500", "094553.397500", "094553.857500", "094554.317500", "094554.777500", "094555.237500", "094555.697500", "094556.157500", "094556.617500", "094557.077500", "094557.537500", "094557.997500", "094558.457500", "094558.917500", "094559.377500", "094559.837500", "094600.297500", "094600.757500", "094601.217500", "094601.677500", "094602.137500", "094602.597500", "094603.057500", "094603.517500", "094603.977500", "094604.437500", "094604.897500", "094605.357500", "094605.817500", "094606.277500", "094606.737500", "094607.197500", "094607.657500", "094608.117500", "094608.577500", "094609.037500", "094609.497500", "094609.957500", "094610.417500", "094610.877500", "094611.337500", "094611.797500", "094612.257500", "094612.717500", "094613.177500", "094613.637500", "094614.097500", "094614.557500", "094615.017500", "094615.477500", "094615.937500", "094616.397500", "094616.857500", "094617.317500", "094617.777500", "094618.237500", "094618.697500", "094619.157500", "094619.617500", "094620.077500", "094620.537500", "094620.997500", "094621.457500", "094621.917500", "094622.377500", "094622.837500", "094623.297500", "094623.757500", "094624.217500", "094624.677500", "094625.137500", "094625.597500", "094626.057500", "094626.517500", "094626.977500", "094627.437500", "094627.897500", "094628.357500", "094628.817500", "094629.277500", "094629.737500", "094630.197500", "094630.657500", "094631.117500", "094631.577500", "094632.037500", "094632.497500", "094632.957500", "094633.417500", "094633.877500", "094634.337500", "094634.797500", "094635.257500", "094635.717500", "094636.177500", "094636.637500", "094637.097500", "094637.557500", "094638.017500", "094638.477500", "094638.937500", "094639.397500", "094639.857500", "094640.317500", "094640.777500", "094641.237500", "094641.697500", "094642.157500", "094642.617500", "094643.077500", "094643.537500", "094643.997500", "094644.457500", "094644.917500", "094645.377500", "094645.837500", "094646.297500", "094646.757500", "094647.217500", "094647.677500", "094648.137500", "094648.597500", "094649.057500", "094649.517500", "094649.977500", "094650.437500", "094650.897500", "094651.357500", "094651.817500", "094652.277500", "094652.737500", "094653.197500", "094653.657500", "094654.117500", "094654.577500", "094655.037500", "094655.497500", "094655.957500", "094656.417500", "094656.877500", "094657.337500", "094657.797500", "094658.257500", "094658.717500", "094659.177500", "094659.637500", "094700.097500", "094700.557500", "094701.017500", "094701.477500", "094701.937500", "094702.397500", "094702.857500", "094703.317500", "094703.777500", "094704.237500", "094704.697500", "094705.157500", "094705.617500", "094706.077500", "094706.537500", "094706.997500", "094707.457500", "094707.917500", "094708.377500", "094708.837500", "094709.297500", "094709.757500", "094710.217500", "094710.677500", "094711.137500", "094711.597500", "094712.057500", "094712.517500", "094712.977500", "094713.437500", "094713.897500", "094714.357500", "094714.817500", "094715.277500", "094715.737500", "094716.197500", "094716.657500", "094717.117500", "094717.577500", "094718.037500", "094718.497500", "094718.957500", "094719.417500", "094719.877500", "094720.337500", "094720.797500", "094721.257500", "094721.717500", "094722.177500", "094722.637500", "094723.097500", "094723.557500", "094724.017500", "094724.477500", "094724.937500", "094725.397500", "094725.857500", "094726.317500", "094726.777500", "094727.237500", "094727.697500", "094728.157500", "094728.617500", "094729.077500", "094729.537500", "094729.997500", "094730.457500", "094730.917500", "094731.377500", "094731.837500", "094732.297500", "094732.757500", "094733.217500", "094733.677500", "094734.137500", "094734.597500", "094735.057500", "094735.517500", "094735.977500", "094736.437500", "094736.897500", "094737.357500", "094737.817500", "094738.277500", "094738.737500", "094739.197500", "094739.657500", "094740.117500", "094740.577500", "094741.037500", "094741.497500", "094741.957500", "094742.417500", "094742.877500", "094743.337500", "094743.797500", "094744.257500", "094744.717500", "094745.177500", "094745.637500", "094746.097500", "094746.557500", "094747.017500", "094747.477500", "094747.937500", "094748.397500", "094748.857500", "094749.317500", "094749.777500", "094750.237500", "094750.697500", "094751.157500", "094751.617500", "094752.077500", "094752.537500", "094752.997500", "094753.457500", "094753.917500", "094754.377500", "094754.837500", "094755.297500", "094755.757500", "094756.217500", "094756.677500", "094757.137500", "094757.597500", "094758.057500", "094758.517500", "094758.977500", "094759.437500", "094759.897500", "094800.357500", "094800.817500", "094801.277500", "094801.737500", "094802.197500", "094802.657500", "094803.117500", "094803.577500", "094804.037500", "094804.497500", "094804.957500", "094805.417500", "094805.877500", "094806.337500", "094806.797500", "094807.257500", "094807.717500", "094808.177500", "094808.637500", "094809.097500", "094809.557500", "094810.017500", "094810.477500", "094810.937500", "094811.397500", "094811.857500", "094812.317500", "094812.777500", "094813.237500", "094813.697500", "094814.157500", "094814.617500", "094815.077500", "094815.537500", "094815.997500", "094816.457500", "094816.917500", "094817.377500", "094817.837500", "094818.297500", "094818.757500", "094819.217500", "094819.677500", "094820.137500", "094820.597500", "094821.057500", "094821.517500", "094821.977500", "094822.437500", "094822.897500", "094823.357500", "094823.817500", "094824.277500", "094824.737500", "094825.197500", "094825.657500", "094826.117500", "094826.577500", "094827.037500", "094827.497500", "094827.957500", "094828.417500", "094828.877500", "094829.337500", "094829.797500", "094830.257500", "094830.717500", "094831.177500", "094831.637500", "094832.097500", "094832.557500", "094833.017500", "094833.477500", "094833.937500", "094834.397500", "094834.857500", "094835.317500", "094835.777500", "094836.237500", "094836.697500", "094837.157500", "094837.617500", "094838.077500", "094838.537500", "094838.997500", "094839.457500", "094839.917500", "094840.377500", "094840.837500", "094841.297500", "094841.757500", "094842.217500", "094842.677500", "094843.137500", "094843.597500", "094844.057500", "094844.517500", "094844.977500", "094845.437500", "094845.897500", "094846.357500", "094846.817500", "094847.277500", "094847.737500", "094848.197500", "094848.657500", "094849.117500", "094849.577500", "094850.037500", "094850.497500", "094850.957500", "094851.417500", "094851.877500", "094852.337500", "094852.797500", "094853.257500", "094853.717500", "094854.177500", "094854.637500", "094855.097500", "094855.557500", "094856.017500", "094856.477500", "094856.937500", "094857.397500", "094857.857500", "094858.317500", "094858.777500", "094859.237500", "094859.697500", "094900.157500", "094900.617500", "094901.077500", "094901.537500", "094901.997500", "094902.457500", "094902.917500", "094903.377500", "094903.837500", "094904.297500", "094904.757500", "094905.217500", "094905.677500", "094906.137500", "094906.597500", "094907.057500", "094907.517500", "094907.977500", "094908.437500", "094908.897500", "094909.357500", "094909.817500", "094910.277500", "094910.737500", "094911.197500", "094911.657500", "094912.117500", "094912.577500", "094913.037500", "094913.497500", "094913.957500", "094914.417500", "094914.877500", "094915.337500", "094915.797500", "094916.257500", "094916.717500", "094917.177500", "094917.637500", "094918.097500", "094918.557500", "094919.017500", "094919.477500", "094919.937500", "094920.397500", "094920.857500", "094921.317500", "094921.777500", "094922.237500", "094922.697500", "094923.157500", "094923.617500", "094924.077500", "094924.537500", "094924.997500", "094925.457500", "094925.917500", "094926.377500", "094926.837500", "094927.297500", "094927.757500", "094928.217500", "094928.677500", "094929.137500", "094929.597500", "094930.057500", "094930.517500", "094930.977500", "094931.437500", "094931.897500", "094932.357500", "094932.817500", "094933.277500", "094933.737500", "094934.197500", "094934.657500", "094935.117500", "094935.577500", "094936.037500", "094936.497500", "094936.957500", "094937.417500", "094937.877500", "094938.337500", "094938.797500", "094939.257500", "094939.717500", "094940.177500", "094940.637500", "094941.097500", "094941.557500", "094942.017500", "094942.477500", "094942.937500", "094943.397500", "094943.857500", "094944.317500", "094944.777500", "094945.237500", "094945.697500", "094946.157500", "094946.617500", "094947.077500", "094947.537500", "094947.997500", "094948.457500", "094948.917500", "094949.377500", "094949.837500", "094950.297500", "094950.757500", "094951.217500", "094951.677500", "094952.137500", "094952.597500", "094953.057500", "094953.517500", "094953.977500", "094954.437500", "094954.897500", "094955.357500", "094955.817500", "094956.277500", "094956.737500", "094957.197500", "094957.657500", "094958.117500", "094958.577500", "094959.037500", "094959.497500", "094959.957500", "095000.417500", "095000.877500", "095001.337500", "095001.797500", "095002.257500", "095002.717500", "095003.177500", "095003.637500", "095004.097500", "095004.557500", "095005.017500", "095005.477500", "095005.937500", "095006.397500", "095006.857500", "095007.317500", "095007.777500", "095008.237500", "095008.697500", "095009.157500", "095009.617500", "095010.077500", "095010.537500", "095010.997500", "095011.457500", "095011.917500", "095012.377500", "095012.837500", "095013.297500", "095013.757500", "095014.217500", "095014.677500", "095015.137500", "095015.597500", "095016.057500", "095016.517500", "095016.977500", "095017.437500", "095017.897500", "095018.357500", "095018.817500", "095019.277500", "095019.737500", "095020.197500", "095020.657500", "095021.117500", "095021.577500", "095022.037500", "095022.497500", "095022.957500", "095023.417500", "095023.877500", "095024.337500", "095024.797500", "095025.257500", "095025.717500", "095026.177500", "095026.637500", "095027.097500", "095027.557500", "095028.017500", "095028.477500", "095028.937500", "095029.397500", "095029.857500", "095030.317500", "095030.777500", "095031.237500", "095031.697500", "095032.157500", "095032.617500", "095033.077500", "095033.537500", "095033.997500", "095034.457500", "095034.917500", "095035.377500", "095035.837500", "095036.297500", "095036.757500", "095037.217500", "095037.677500", "095038.137500", "095038.597500", "095039.057500", "095039.517500", "095039.977500", "095040.437500", "095040.897500", "095041.357500", "095041.817500", "095042.277500", "095042.737500", "095043.197500", "095043.657500", "095044.117500", "095044.577500", "095045.037500", "095045.497500", "095045.957500", "095046.417500", "095046.877500", "095047.337500", "095047.797500", "095048.257500", "095048.717500", "095049.177500", "095049.637500", "095050.097500", "095050.557500", "095051.017500", "095051.477500", "095051.937500"],
