{
  "AcquisitionMatrixPE": 82,
  "AcquisitionNumber": 1,
  "AcquisitionTime": "10:05:23.757500",
  "BandwidthPerPixelPhaseEncode": 24.888,
  "BaseResolution": 82,
  "BodyPartExamined": "BRAIN",
  "ConsistencyInfo": "N4_VE11C_LATEST_20160120",
  "ConversionSoftware": "dcm2niix",
  "ConversionSoftwareVersion": "v1.0.20201102",
  "DerivedVendorReportedEchoSpacing": 0.00049,
  "DeviceSerialNumber": "66112",
  "DwellTime": 2e-06,
  "EchoTime": 0.0272,
  "EchoTrainLength": 82,
  "EffectiveEchoSpacing": 0.00049,
  "FlipAngle": 44,
  "ImageComments": "Unaliased MB8/PE3",
  "ImageOrientationPatientDICOM": [0.993313, 0.0187448, 0.113918, -0.0353816, 0.988677, 0.145827],
  "ImageType": [
    "ORIGINAL",
    "PRIMARY",
    "M",
    "MB",
    "ND",
    "NORM",
    "MOSAIC"
],
  "ImagingFrequency": 123.252,
  "InPlanePhaseEncodingDirectionDICOM": "COL",
  "InstitutionAddress": "Maynard 3,Hanover,NH,US,03755",
  "InstitutionName": "Dartmouth College - PBS",
  "InstitutionalDepartmentName": "Department",
  "MRAcquisitionType": "2D",
  "MagneticFieldStrength": 3,
  "Manufacturer": "Siemens",
  "ManufacturersModelName": "Prisma",
  "Modality": "MR",
  "MultibandAccelerationFactor": 8,
  "PartialFourier": 1,
  "PatientPosition": "HFS",
  "PercentPhaseFOV": 100,
  "PercentSampling": 100,
  "PhaseEncodingDirection": "j-",
  "PhaseEncodingSteps": 82,
  "PhaseResolution": 1,
  "PixelBandwidth": 3050,
  "ProcedureStepDescription": "Wager_Wager^1076_spacetop",
  "ProtocolName": "func_run-04_task-social_acq-ap-mb8",
  "PulseSequenceDetails": "%CustomerSeq%\\cmrr_mbep2d_bold",
  "ReceiveCoilActiveElements": "HEA;HEP",
  "ReceiveCoilName": "Head_32",
  "ReconMatrixPE": 82,
  "RepetitionTime": 0.46,
  "SAR": 0.0945946,
  "ScanOptions": "FS",
  "ScanningSequence": "EP",
  "SequenceName": "epfid2d1_82",
  "SequenceVariant": "SK\\SS",
  "SeriesDescription": "func_run-04_task-social_acq-ap-mb8",
  "SeriesNumber": 18,
  "ShimSetting": [4174, -7757, -7287, 656, 17, -142, 47, 49],
  "SliceThickness": 2.7,
  "SliceTiming": [0, 0.2525, 0.065, 0.315, 0.1275, 0.3775, 0.19, 0, 0.2525, 0.065, 0.315, 0.1275, 0.3775, 0.19, 0, 0.2525, 0.065, 0.315, 0.1275, 0.3775, 0.19, 0, 0.2525, 0.065, 0.315, 0.1275, 0.3775, 0.19, 0, 0.2525, 0.065, 0.315, 0.1275, 0.3775, 0.19, 0, 0.2525, 0.065, 0.315, 0.1275, 0.3775, 0.19, 0, 0.2525, 0.065, 0.315, 0.1275, 0.3775, 0.19, 0, 0.2525, 0.065, 0.315, 0.1275, 0.3775, 0.19],
  "SoftwareVersions": "syngo MR E11",
  "SpacingBetweenSlices": 2.7,
  "StationName": "AWP66112",
  "TaskName": "social",
  "TotalReadoutTime": 0.03969,
  "TxRefAmp": 260.362,
  "WipMemBlock": "5731d866-f229-4a4f-8780-304de8a9b4ce||Sequence: R016 ve11c/master r/e634e98; Dec 19 2017 11:00:25 by eja",
  "dcmmeta_affine": [
    [-2.6649868488311768, -0.09492626041173935, 0.29671674966812134, 110.30409240722656],
    [-0.0502910353243351, 2.6525485515594482, 0.4019835293292999, -99.29570007324219],
    [0.3056349754333496, -0.39124393463134766, 2.653369188308716, -60.849605560302734],
    [0.0, 0.0, 0.0, 1.0]
],
  "dcmmeta_reorient_transform": [
    [0.0, -1.0, 0.0, 81.0],
    [1.0, 0.0, 0.0, 0.0],
    [0.0, 0.0, 1.0, 0.0],
    [0.0, 0.0, 0.0, 1.0]
],
  "dcmmeta_shape": [82, 82, 56, 872],
  "dcmmeta_slice_dim": 2,
  "dcmmeta_version": 0.6,
  "global": {
    "const": {
      "AccessionNumber": "A003773",
      "AcquisitionMatrix": [82, 0, 0, 82],
      "AngioFlag": "N",
      "BitsAllocated": 16,
      "BitsStored": 16,
      "BodyPartExamined": "BRAIN",
      "Columns": 656,
      "EchoNumbers": 1,
      "EchoTime": 27.2,
      "EchoTrainLength": 82,
      "FlipAngle": 44.0,
      "HighBit": 15,
      "ImageOrientationPatient": [0.99331324877383, 0.01874484051424, 0.11391848298008, -0.0353816064067, 0.98867716989887, 0.14582728019424],
      "ImagePositionPatient": [-840.22244579511, -891.27570163279, -292.54460742639],
      "ImageType": [
        "ORIGINAL",
        "PRIMARY",
        "M",
        "MB",
        "ND",
        "NORM",
        "MOSAIC"
],
      "ImagedNucleus": "1H",
      "ImagingFrequency": 123.252183,
      "InPlanePhaseEncodingDirection": "COL",
      "MRAcquisitionType": "2D",
      "MagneticFieldStrength": 3.0,
      "Manufacturer": "SIEMENS",
      "ManufacturerModelName": "Prisma",
      "Modality": "MR",
      "NumberOfAverages": 1.0,
      "NumberOfPhaseEncodingSteps": 82,
      "PercentPhaseFieldOfView": 100.0,
      "PercentSampling": 100.0,
      "PerformedProcedureStepStartTime": "090619.618000",
      "PhotometricInterpretation": "MONOCHROME2",
      "PixelBandwidth": 3050.0,
      "PixelRepresentation": 0,
      "PixelSpacing": [2.6829268932343, 2.6829268932343],
      "ProtocolName": "func_run-04_task-social_acq-ap-mb8",
      "RepetitionTime": 460.0,
      "Rows": 656,
      "SAR": 0.09459460196875,
      "SamplesPerPixel": 1,
      "ScanOptions": "FS",
      "ScanningSequence": "EP",
      "SequenceName": "epfid2d1_82",
      "SequenceVariant": [
        "SK",
        "SS"
],
      "SeriesDescription": "func_run-04_task-social_acq-ap-mb8",
      "SeriesNumber": 18,
      "SeriesTime": "100549.941000",
      "SliceLocation": -62.460236591341,
      "SliceThickness": 2.7000000476837,
      "SmallestImagePixelValue": 0,
      "SoftwareVersions": "syngo MR E11",
      "SpacingBetweenSlices": 2.700000023978,
      "SpecificCharacterSet": "ISO_IR 100",
      "StudyID": "5",
      "StudyTime": "090619.493000",
      "TransmitCoilName": "Body",
      "VariableFlipAngleFlag": "N",
      "WindowCenterWidthExplanation": "Algo1",
      "dBdt": 0.0},
    "slices": {}
  },
  "time": {
    "samples": {
      "AcquisitionNumber": [1, 2, 3, 4, 5, 6, 7, 8, 9, 10, 11, 12, 13, 14, 15, 16, 17, 18, 19, 20, 21, 22, 23, 24, 25, 26, 27, 28, 29, 30, 31, 32, 33, 34, 35, 36, 37, 38, 39, 40, 41, 42, 43, 44, 45, 46, 47, 48, 49, 50, 51, 52, 53, 54, 55, 56, 57, 58, 59, 60, 61, 62, 63, 64, 65, 66, 67, 68, 69, 70, 71, 72, 73, 74, 75, 76, 77, 78, 79, 80, 81, 82, 83, 84, 85, 86, 87, 88, 89, 90, 91, 92, 93, 94, 95, 96, 97, 98, 99, 100, 101, 102, 103, 104, 105, 106, 107, 108, 109, 110, 111, 112, 113, 114, 115, 116, 117, 118, 119, 120, 121, 122, 123, 124, 125, 126, 127, 128, 129, 130, 131, 132, 133, 134, 135, 136, 137, 138, 139, 140, 141, 142, 143, 144, 145, 146, 147, 148, 149, 150, 151, 152, 153, 154, 155, 156, 157, 158, 159, 160, 161, 162, 163, 164, 165, 166, 167, 168, 169, 170, 171, 172, 173, 174, 175, 176, 177, 178, 179, 180, 181, 182, 183, 184, 185, 186, 187, 188, 189, 190, 191, 192, 193, 194, 195, 196, 197, 198, 199, 200, 201, 202, 203, 204, 205, 206, 207, 208, 209, 210, 211, 212, 213, 214, 215, 216, 217, 218, 219, 220, 221, 222, 223, 224, 225, 226, 227, 228, 229, 230, 231, 232, 233, 234, 235, 236, 237, 238, 239, 240, 241, 242, 243, 244, 245, 246, 247, 248, 249, 250, 251, 252, 253, 254, 255, 256, 257, 258, 259, 260, 261, 262, 263, 264, 265, 266, 267, 268, 269, 270, 271, 272, 273, 274, 275, 276, 277, 278, 279, 280, 281, 282, 283, 284, 285, 286, 287, 288, 289, 290, 291, 292, 293, 294, 295, 296, 297, 298, 299, 300, 301, 302, 303, 304, 305, 306, 307, 308, 309, 310, 311, 312, 313, 314, 315, 316, 317, 318, 319, 320, 321, 322, 323, 324, 325, 326, 327, 328, 329, 330, 331, 332, 333, 334, 335, 336, 337, 338, 339, 340, 341, 342, 343, 344, 345, 346, 347, 348, 349, 350, 351, 352, 353, 354, 355, 356, 357, 358, 359, 360, 361, 362, 363, 364, 365, 366, 367, 368, 369, 370, 371, 372, 373, 374, 375, 376, 377, 378, 379, 380, 381, 382, 383, 384, 385, 386, 387, 388, 389, 390, 391, 392, 393, 394, 395, 396, 397, 398, 399, 400, 401, 402, 403, 404, 405, 406, 407, 408, 409, 410, 411, 412, 413, 414, 415, 416, 417, 418, 419, 420, 421, 422, 423, 424, 425, 426, 427, 428, 429, 430, 431, 432, 433, 434, 435, 436, 437, 438, 439, 440, 441, 442, 443, 444, 445, 446, 447, 448, 449, 450, 451, 452, 453, 454, 455, 456, 457, 458, 459, 460, 461, 462, 463, 464, 465, 466, 467, 468, 469, 470, 471, 472, 473, 474, 475, 476, 477, 478, 479, 480, 481, 482, 483, 484, 485, 486, 487, 488, 489, 490, 491, 492, 493, 494, 495, 496, 497, 498, 499, 500, 501, 502, 503, 504, 505, 506, 507, 508, 509, 510, 511, 512, 513, 514, 515, 516, 517, 518, 519, 520, 521, 522, 523, 524, 525, 526, 527, 528, 529, 530, 531, 532, 533, 534, 535, 536, 537, 538, 539, 540, 541, 542, 543, 544, 545, 546, 547, 548, 549, 550, 551, 552, 553, 554, 555, 556, 557, 558, 559, 560, 561, 562, 563, 564, 565, 566, 567, 568, 569, 570, 571, 572, 573, 574, 575, 576, 577, 578, 579, 580, 581, 582, 583, 584, 585, 586, 587, 588, 589, 590, 591, 592, 593, 594, 595, 596, 597, 598, 599, 600, 601, 602, 603, 604, 605, 606, 607, 608, 609, 610, 611, 612, 613, 614, 615, 616, 617, 618, 619, 620, 621, 622, 623, 624, 625, 626, 627, 628, 629, 630, 631, 632, 633, 634, 635, 636, 637, 638, 639, 640, 641, 642, 643, 644, 645, 646, 647, 648, 649, 650, 651, 652, 653, 654, 655, 656, 657, 658, 659, 660, 661, 662, 663, 664, 665, 666, 667, 668, 669, 670, 671, 672, 673, 674, 675, 676, 677, 678, 679, 680, 681, 682, 683, 684, 685, 686, 687, 688, 689, 690, 691, 692, 693, 694, 695, 696, 697, 698, 699, 700, 701, 702, 703, 704, 705, 706, 707, 708, 709, 710, 711, 712, 713, 714, 715, 716, 717, 718, 719, 720, 721, 722, 723, 724, 725, 726, 727, 728, 729, 730, 731, 732, 733, 734, 735, 736, 737, 738, 739, 740, 741, 742, 743, 744, 745, 746, 747, 748, 749, 750, 751, 752, 753, 754, 755, 756, 757, 758, 759, 760, 761, 762, 763, 764, 765, 766, 767, 768, 769, 770, 771, 772, 773, 774, 775, 776, 777, 778, 779, 780, 781, 782, 783, 784, 785, 786, 787, 788, 789, 790, 791, 792, 793, 794, 795, 796, 797, 798, 799, 800, 801, 802, 803, 804, 805, 806, 807, 808, 809, 810, 811, 812, 813, 814, 815, 816, 817, 818, 819, 820, 821, 822, 823, 824, 825, 826, 827, 828, 829, 830, 831, 832, 833, 834, 835, 836, 837, 838, 839, 840, 841, 842, 843, 844, 845, 846, 847, 848, 849, 850, 851, 852, 853, 854, 855, 856, 857, 858, 859, 860, 861, 862, 863, 864, 865, 866, 867, 868, 869, 870, 871, 872],
      "AcquisitionTime": ["100523.757500", "100524.217500", "100524.677500", "100525.137500", "100525.597500", "100526.057500", "100526.517500", "100526.977500", "100527.437500", "100527.897500", "100528.357500", "100528.817500", "100529.277500", "100529.737500", "100530.197500", "100530.657500", "100531.117500", "100531.577500", "100532.037500", "100532.497500", "100532.957500", "100533.417500", "100533.877500", "100534.337500", "100534.797500", "100535.257500", "100535.717500", "100536.177500", "100536.637500", "100537.097500", "100537.557500", "100538.017500", "100538.477500", "100538.937500", "100539.397500", "100539.857500", "100540.317500", "100540.777500", "100541.237500", "100541.697500", "100542.157500", "100542.617500", "100543.077500", "100543.537500", "100543.997500", "100544.457500", "100544.917500", "100545.377500", "100545.837500", "100546.297500", "100546.757500", "100547.217500", "100547.677500", "100548.137500", "100548.597500", "100549.057500", "100549.517500", "100549.977500", "100550.437500", "100550.897500", "100551.357500", "100551.817500", "100552.277500", "100552.737500", "100553.197500", "100553.657500", "100554.117500", "100554.577500", "100555.037500", "100555.497500", "100555.957500", "100556.417500", "100556.877500", "100557.337500", "100557.797500", "100558.257500", "100558.717500", "100559.177500", "100559.637500", "100600.097500", "100600.557500", "100601.017500", "100601.477500", "100601.937500", "100602.397500", "100602.857500", "100603.317500", "100603.777500", "100604.237500", "100604.697500", "100605.157500", "100605.617500", "100606.077500", "100606.537500", "100606.997500", "100607.457500", "100607.917500", "100608.377500", "100608.837500", "100609.297500", "100609.757500", "100610.217500", "100610.677500", "100611.137500", "100611.597500", "100612.057500", "100612.517500", "100612.977500", "100613.437500", "100613.897500", "100614.357500", "100614.817500", "100615.277500", "100615.737500", "100616.197500", "100616.657500", "100617.117500", "100617.577500", "100618.037500", "100618.497500", "100618.957500", "100619.417500", "100619.877500", "100620.337500", "100620.797500", "100621.257500", "100621.717500", "100622.177500", "100622.637500", "100623.097500", "100623.557500", "100624.017500", "100624.477500", "100624.937500", "100625.397500", "100625.857500", "100626.317500", "100626.777500", "100627.237500", "100627.697500", "100628.157500", "100628.617500", "100629.077500", "100629.537500", "100629.997500", "100630.457500", "100630.917500", "100631.377500", "100631.837500", "100632.297500", "100632.757500", "100633.217500", "100633.677500", "100634.137500", "100634.597500", "100635.057500", "100635.517500", "100635.977500", "100636.437500", "100636.897500", "100637.357500", "100637.817500", "100638.277500", "100638.737500", "100639.197500", "100639.657500", "100640.117500", "100640.577500", "100641.037500", "100641.497500", "100641.957500", "100642.417500", "100642.877500", "100643.337500", "100643.797500", "100644.257500", "100644.717500", "100645.177500", "100645.637500", "100646.097500", "100646.557500", "100647.017500", "100647.477500", "100647.937500", "100648.397500", "100648.857500", "100649.317500", "100649.777500", "100650.237500", "100650.697500", "100651.157500", "100651.617500", "100652.077500", "100652.537500", "100652.997500", "100653.457500", "100653.917500", "100654.377500", "100654.837500", "100655.297500", "100655.757500", "100656.217500", "100656.677500", "100657.137500", "100657.597500", "100658.057500", "100658.517500", "100658.977500", "100659.437500", "100659.897500", "100700.357500", "100700.817500", "100701.277500", "100701.737500", "100702.197500", "100702.657500", "100703.117500", "100703.577500", "100704.037500", "100704.497500", "100704.957500", "100705.417500", "100705.877500", "100706.337500", "100706.797500", "100707.257500", "100707.717500", "100708.177500", "100708.637500", "100709.097500", "100709.557500", "100710.017500", "100710.477500", "100710.937500", "100711.397500", "100711.857500", "100712.317500", "100712.777500", "100713.237500", "100713.697500", "100714.157500", "100714.617500", "100715.077500", "100715.537500", "100715.997500", "100716.457500", "100716.917500", "100717.377500", "100717.837500", "100718.297500", "100718.757500", "100719.217500", "100719.677500", "100720.137500", "100720.597500", "100721.057500", "100721.517500", "100721.977500", "100722.437500", "100722.897500", "100723.357500", "100723.817500", "100724.277500", "100724.737500", "100725.197500", "100725.657500", "100726.117500", "100726.577500", "100727.037500", "100727.497500", "100727.957500", "100728.417500", "100728.877500", "100729.337500", "100729.797500", "100730.257500", "100730.717500", "100731.177500", "100731.637500", "100732.097500", "100732.557500", "100733.017500", "100733.477500", "100733.937500", "100734.397500", "100734.857500", "100735.317500", "100735.777500", "100736.237500", "100736.697500", "100737.157500", "100737.617500", "100738.077500", "100738.537500", "100738.997500", "100739.457500", "100739.917500", "100740.377500", "100740.837500", "100741.297500", "100741.757500", "100742.217500", "100742.677500", "100743.137500", "100743.597500", "100744.057500", "100744.517500", "100744.977500", "100745.437500", "100745.897500", "100746.357500", "100746.817500", "100747.277500", "100747.737500", "100748.197500", "100748.657500", "100749.117500", "100749.577500", "100750.037500", "100750.497500", "100750.957500", "100751.417500", "100751.877500", "100752.337500", "100752.797500", "100753.257500", "100753.717500", "100754.177500", "100754.637500", "100755.097500", "100755.557500", "100756.017500", "100756.477500", "100756.937500", "100757.397500", "100757.857500", "100758.317500", "100758.777500", "100759.237500", "100759.697500", "100800.157500", "100800.617500", "100801.077500", "100801.537500", "100801.997500", "100802.457500", "100802.917500", "100803.377500", "100803.837500", "100804.297500", "100804.757500", "100805.217500", "100805.677500", "100806.137500", "100806.597500", "100807.057500", "100807.517500", "100807.977500", "100808.437500", "100808.897500", "100809.357500", "100809.817500", "100810.277500", "100810.737500", "100811.197500", "100811.657500", "100812.117500", "100812.577500", "100813.037500", "100813.497500", "100813.957500", "100814.417500", "100814.877500", "100815.337500", "100815.797500", "100816.257500", "100816.717500", "100817.177500", "100817.637500", "100818.097500", "100818.557500", "100819.017500", "100819.477500", "100819.937500", "100820.397500", "100820.857500", "100821.317500", "100821.777500", "100822.237500", "100822.697500", "100823.157500", "100823.617500", "100824.077500", "100824.537500", "100824.997500", "100825.457500", "100825.917500", "100826.377500", "100826.837500", "100827.297500", "100827.757500", "100828.217500", "100828.677500", "100829.137500", "100829.597500", "100830.057500", "100830.517500", "100830.977500", "100831.437500", "100831.897500", "100832.357500", "100832.817500", "100833.277500", "100833.737500", "100834.197500", "100834.657500", "100835.117500", "100835.577500", "100836.037500", "100836.497500", "100836.957500", "100837.417500", "100837.877500", "100838.337500", "100838.797500", "100839.257500", "100839.717500", "100840.177500", "100840.637500", "100841.097500", "100841.557500", "100842.017500", "100842.477500", "100842.937500", "100843.397500", "100843.857500", "100844.317500", "100844.777500", "100845.237500", "100845.697500", "100846.157500", "100846.617500", "100847.077500", "100847.537500", "100847.997500", "100848.457500", "100848.917500", "100849.377500", "100849.837500", "100850.297500", "100850.757500", "100851.217500", "100851.677500", "100852.137500", "100852.597500", "100853.057500", "100853.517500", "100853.977500", "100854.437500", "100854.897500", "100855.357500", "100855.817500", "100856.277500", "100856.737500", "100857.197500", "100857.657500", "100858.117500", "100858.577500", "100859.037500", "100859.497500", "100859.957500", "100900.417500", "100900.877500", "100901.337500", "100901.797500", "100902.257500", "100902.717500", "100903.177500", "100903.637500", "100904.097500", "100904.557500", "100905.017500", "100905.477500", "100905.937500", "100906.397500", "100906.857500", "100907.317500", "100907.777500", "100908.237500", "100908.697500", "100909.157500", "100909.617500", "100910.077500", "100910.537500", "100910.997500", "100911.457500", "100911.917500", "100912.377500", "100912.837500", "100913.297500", "100913.757500", "100914.217500", "100914.677500", "100915.137500", "100915.597500", "100916.057500", "100916.517500", "100916.977500", "100917.437500", "100917.897500", "100918.357500", "100918.817500", "100919.277500", "100919.737500", "100920.197500", "100920.657500", "100921.117500", "100921.577500", "100922.037500", "100922.497500", "100922.957500", "100923.417500", "100923.877500", "100924.337500", "100924.797500", "100925.257500", "100925.717500", "100926.177500", "100926.637500", "100927.097500", "100927.557500", "100928.017500", "100928.477500", "100928.937500", "100929.397500", "100929.857500", "100930.317500", "100930.777500", "100931.237500", "100931.697500", "100932.157500", "100932.617500", "100933.077500", "100933.537500", "100933.997500", "100934.457500", "100934.917500", "100935.377500", "100935.837500", "100936.297500", "100936.757500", "100937.217500", "100937.677500", "100938.137500", "100938.597500", "100939.057500", "100939.517500", "100939.977500", "100940.437500", "100940.897500", "100941.357500", "100941.817500", "100942.277500", "100942.737500", "100943.197500", "100943.657500", "100944.117500", "100944.577500", "100945.037500", "100945.497500", "100945.957500", "100946.417500", "100946.877500", "100947.337500", "100947.797500", "100948.257500", "100948.717500", "100949.177500", "100949.637500", "100950.097500", "100950.557500", "100951.017500", "100951.477500", "100951.937500", "100952.397500", "100952.857500", "100953.317500", "100953.777500", "100954.237500", "100954.697500", "100955.157500", "100955.617500", "100956.077500", "100956.537500", "100956.997500", "100957.457500", "100957.917500", "100958.377500", "100958.837500", "100959.297500", "100959.757500", "101000.217500", "101000.677500", "101001.137500", "101001.597500", "101002.057500", "101002.517500", "101002.977500", "101003.437500", "101003.897500", "101004.357500", "101004.817500", "101005.277500", "101005.737500", "101006.197500", "101006.657500", "101007.117500", "101007.577500", "101008.037500", "101008.497500", "101008.957500", "101009.417500", "101009.877500", "101010.337500", "101010.797500", "101011.257500", "101011.717500", "101012.177500", "101012.637500", "101013.097500", "101013.557500", "101014.017500", "101014.477500", "101014.937500", "101015.397500", "101015.857500", "101016.317500", "101016.777500", "101017.237500", "101017.697500", "101018.157500", "101018.617500", "101019.077500", "101019.537500", "101019.997500", "101020.457500", "101020.917500", "101021.377500", "101021.837500", "101022.297500", "101022.757500", "101023.217500", "101023.677500", "101024.137500", "101024.597500", "101025.057500", "101025.517500", "101025.977500", "101026.437500", "101026.897500", "101027.357500", "101027.817500", "101028.277500", "101028.737500", "101029.197500", "101029.657500", "101030.117500", "101030.577500", "101031.037500", "101031.497500", "101031.957500", "101032.417500", "101032.877500", "101033.337500", "101033.797500", "101034.257500", "101034.717500", "101035.177500", "101035.637500", "101036.097500", "101036.557500", "101037.017500", "101037.477500", "101037.937500", "101038.397500", "101038.857500", "101039.317500", "101039.777500", "101040.237500", "101040.697500", "101041.157500", "101041.617500", "101042.077500", "101042.537500", "101042.997500", "101043.457500", "101043.917500", "101044.377500", "101044.837500", "101045.297500", "101045.757500", "101046.217500", "101046.677500", "101047.137500", "101047.597500", "101048.057500", "101048.517500", "101048.977500", "101049.437500", "101049.897500", "101050.357500", "101050.817500", "101051.277500", "101051.737500", "101052.197500", "101052.657500", "101053.117500", "101053.577500", "101054.037500", "101054.497500", "101054.957500", "101055.417500", "101055.877500", "101056.337500", "101056.797500", "101057.257500", "101057.717500", "101058.177500", "101058.637500", "101059.097500", "101059.557500", "101100.017500", "101100.477500", "101100.937500", "101101.397500", "101101.857500", "101102.317500", "101102.777500", "101103.237500", "101103.697500", "101104.157500", "101104.617500", "101105.077500", "101105.537500", "101105.997500", "101106.457500", "101106.917500", "101107.377500", "101107.837500", "101108.297500", "101108.757500", "101109.217500", "101109.677500", "101110.137500", "101110.597500", "101111.057500", "101111.517500", "101111.977500", "101112.437500", "101112.897500", "101113.357500", "101113.817500", "101114.277500", "101114.737500", "101115.197500", "101115.657500", "101116.117500", "101116.577500", "101117.037500", "101117.497500", "101117.957500", "101118.417500", "101118.877500", "101119.337500", "101119.797500", "101120.257500", "101120.717500", "101121.177500", "101121.637500", "101122.097500", "101122.557500", "101123.017500", "101123.477500", "101123.937500", "101124.397500", "101124.857500", "101125.317500", "101125.777500", "101126.237500", "101126.697500", "101127.157500", "101127.617500", "101128.077500", "101128.537500", "101128.997500", "101129.457500", "101129.917500", "101130.377500", "101130.837500", "101131.297500", "101131.757500", "101132.217500", "101132.677500", "101133.137500", "101133.597500", "101134.057500", "101134.517500", "101134.977500", "101135.437500", "101135.897500", "101136.357500", "101136.817500", "101137.277500", "101137.737500", "101138.197500", "101138.657500", "101139.117500", "101139.577500", "101140.037500", "101140.497500", "101140.957500", "101141.417500", "101141.877500", "101142.337500", "101142.797500", "101143.257500", "101143.717500", "101144.177500", "101144.637500", "101145.097500", "101145.557500", "101146.017500", "101146.477500", "101146.937500", "101147.397500", "101147.857500", "101148.317500", "101148.777500", "101149.237500", "101149.697500", "101150.157500", "101150.617500", "101151.077500", "101151.537500", "101151.997500", "101152.457500", "101152.917500", "101153.377500", "101153.837500", "101154.297500", "101154.757500", "101155.217500", "101155.677500", "101156.137500", "101156.597500", "101157.057500", "101157.517500", "101157.977500", "101158.437500", "101158.897500", "101159.357500", "101159.817500", "101200.277500", "101200.737500", "101201.197500", "101201.657500", "101202.117500", "101202.577500", "101203.037500", "101203.497500", "101203.957500", "101204.417500"],
