{
  "AcquisitionMatrixPE": 82,
  "AcquisitionNumber": 1,
  "AcquisitionTime": "10:12:29.335000",
  "BandwidthPerPixelPhaseEncode": 24.888,
  "BaseResolution": 82,
  "BodyPartExamined": "BRAIN",
  "ConsistencyInfo": "N4_VE11C_LATEST_20160120",
  "ConversionSoftware": "dcm2niix",
  "ConversionSoftwareVersion": "v1.0.20201102",
  "DerivedVendorReportedEchoSpacing": 0.00049,
  "DeviceSerialNumber": "66112",
  "DwellTime": 2e-06,
  "EchoTime": 0.0272,
  "EchoTrainLength": 82,
  "EffectiveEchoSpacing": 0.00049,
  "FlipAngle": 44,
  "ImageComments": "Unaliased MB8/PE3",
  "ImageOrientationPatientDICOM": [0.993313, 0.0187448, 0.113918, -0.0353816, 0.988677, 0.145827],
  "ImageType": [
    "ORIGINAL",
    "PRIMARY",
    "M",
    "MB",
    "ND",
    "NORM",
    "MOSAIC"
],
  "ImagingFrequency": 123.252,
  "InPlanePhaseEncodingDirectionDICOM": "COL",
  "InstitutionAddress": "Maynard 3,Hanover,NH,US,03755",
  "InstitutionName": "Dartmouth College - PBS",
  "InstitutionalDepartmentName": "Department",
  "MRAcquisitionType": "2D",
  "MagneticFieldStrength": 3,
  "Manufacturer": "Siemens",
  "ManufacturersModelName": "Prisma",
  "Modality": "MR",
  "MultibandAccelerationFactor": 8,
  "PartialFourier": 1,
  "PatientPosition": "HFS",
  "PercentPhaseFOV": 100,
  "PercentSampling": 100,
  "PhaseEncodingDirection": "j-",
  "PhaseEncodingSteps": 82,
  "PhaseResolution": 1,
  "PixelBandwidth": 3050,
  "ProcedureStepDescription": "Wager_Wager^1076_spacetop",
  "ProtocolName": "func_run-05_task-social_acq-ap-mb8",
  "PulseSequenceDetails": "%CustomerSeq%\\cmrr_mbep2d_bold",
  "ReceiveCoilActiveElements": "HEA;HEP",
  "ReceiveCoilName": "Head_32",
  "ReconMatrixPE": 82,
  "RepetitionTime": 0.46,
  "SAR": 0.0945946,
  "ScanOptions": "FS",
  "ScanningSequence": "EP",
  "SequenceName": "epfid2d1_82",
  "SequenceVariant": "SK\\SS",
  "SeriesDescription": "func_run-05_task-social_acq-ap-mb8",
  "SeriesNumber": 20,
  "ShimSetting": [4174, -7757, -7287, 656, 17, -142, 47, 49],
  "SliceThickness": 2.7,
  "SliceTiming": [0, 0.2525, 0.0625, 0.315, 0.125, 0.3775, 0.1875, 0, 0.2525, 0.0625, 0.315, 0.125, 0.3775, 0.1875, 0, 0.2525, 0.0625, 0.315, 0.125, 0.3775, 0.1875, 0, 0.2525, 0.0625, 0.315, 0.125, 0.3775, 0.1875, 0, 0.2525, 0.0625, 0.315, 0.125, 0.3775, 0.1875, 0, 0.2525, 0.0625, 0.315, 0.125, 0.3775, 0.1875, 0, 0.2525, 0.0625, 0.315, 0.125, 0.3775, 0.1875, 0, 0.2525, 0.0625, 0.315, 0.125, 0.3775, 0.1875],
  "SoftwareVersions": "syngo MR E11",
  "SpacingBetweenSlices": 2.7,
  "StationName": "AWP66112",
  "TaskName": "social",
  "TotalReadoutTime": 0.03969,
  "TxRefAmp": 260.362,
  "WipMemBlock": "00f1eb9c-9c21-4558-8cf5-69bf9344ad84||Sequence: R016 ve11c/master r/e634e98; Dec 19 2017 11:00:25 by eja",
  "dcmmeta_affine": [
    [-2.6649868488311768, -0.09492626041173935, 0.29671674966812134, 110.30409240722656],
    [-0.0502910353243351, 2.6525485515594482, 0.4019835293292999, -99.29570007324219],
    [0.3056349754333496, -0.39124393463134766, 2.653369188308716, -60.849605560302734],
    [0.0, 0.0, 0.0, 1.0]
],
  "dcmmeta_reorient_transform": [
    [0.0, -1.0, 0.0, 81.0],
    [1.0, 0.0, 0.0, 0.0],
    [0.0, 0.0, 1.0, 0.0],
    [0.0, 0.0, 0.0, 1.0]
],
  "dcmmeta_shape": [82, 82, 56, 872],
  "dcmmeta_slice_dim": 2,
  "dcmmeta_version": 0.6,
  "global": {
    "const": {
      "AccessionNumber": "A003773",
      "AcquisitionMatrix": [82, 0, 0, 82],
      "AngioFlag": "N",
      "BitsAllocated": 16,
      "BitsStored": 16,
      "BodyPartExamined": "BRAIN",
      "Columns": 656,
      "EchoNumbers": 1,
      "EchoTime": 27.2,
      "EchoTrainLength": 82,
      "FlipAngle": 44.0,
      "HighBit": 15,
      "ImageOrientationPatient": [0.99331324877383, 0.01874484051424, 0.11391848298008, -0.0353816064067, 0.98867716989887, 0.14582728019424],
      "ImagePositionPatient": [-840.22244579511, -891.27570163279, -292.54460742639],
      "ImageType": [
        "ORIGINAL",
        "PRIMARY",
        "M",
        "MB",
        "ND",
        "NORM",
        "MOSAIC"
],
      "ImagedNucleus": "1H",
      "ImagingFrequency": 123.252186,
      "InPlanePhaseEncodingDirection": "COL",
      "MRAcquisitionType": "2D",
      "MagneticFieldStrength": 3.0,
      "Manufacturer": "SIEMENS",
      "ManufacturerModelName": "Prisma",
      "Modality": "MR",
      "NumberOfAverages": 1.0,
      "NumberOfPhaseEncodingSteps": 82,
      "PercentPhaseFieldOfView": 100.0,
      "PercentSampling": 100.0,
      "PerformedProcedureStepStartTime": "090619.618000",
      "PhotometricInterpretation": "MONOCHROME2",
      "PixelBandwidth": 3050.0,
      "PixelRepresentation": 0,
      "PixelSpacing": [2.6829268932343, 2.6829268932343],
      "ProtocolName": "func_run-05_task-social_acq-ap-mb8",
      "RepetitionTime": 460.0,
      "Rows": 656,
      "SAR": 0.09459460196875,
      "SamplesPerPixel": 1,
      "ScanOptions": "FS",
      "ScanningSequence": "EP",
      "SequenceName": "epfid2d1_82",
      "SequenceVariant": [
        "SK",
        "SS"
],
      "SeriesDescription": "func_run-05_task-social_acq-ap-mb8",
      "SeriesNumber": 20,
      "SeriesTime": "101250.015000",
      "SliceLocation": -62.460236591341,
      "SliceThickness": 2.7000000476837,
      "SmallestImagePixelValue": 0,
      "SoftwareVersions": "syngo MR E11",
      "SpacingBetweenSlices": 2.700000023978,
      "SpecificCharacterSet": "ISO_IR 100",
      "StudyID": "5",
      "StudyTime": "090619.493000",
      "TransmitCoilName": "Body",
      "VariableFlipAngleFlag": "N",
      "WindowCenterWidthExplanation": "Algo1",
      "dBdt": 0.0},
    "slices": {}
  },
  "time": {
    "samples": {
      "AcquisitionNumber": [1, 2, 3, 4, 5, 6, 7, 8, 9, 10, 11, 12, 13, 14, 15, 16, 17, 18, 19, 20, 21, 22, 23, 24, 25, 26, 27, 28, 29, 30, 31, 32, 33, 34, 35, 36, 37, 38, 39, 40, 41, 42, 43, 44, 45, 46, 47, 48, 49, 50, 51, 52, 53, 54, 55, 56, 57, 58, 59, 60, 61, 62, 63, 64, 65, 66, 67, 68, 69, 70, 71, 72, 73, 74, 75, 76, 77, 78, 79, 80, 81, 82, 83, 84, 85, 86, 87, 88, 89, 90, 91, 92, 93, 94, 95, 96, 97, 98, 99, 100, 101, 102, 103, 104, 105, 106, 107, 108, 109, 110, 111, 112, 113, 114, 115, 116, 117, 118, 119, 120, 121, 122, 123, 124, 125, 126, 127, 128, 129, 130, 131, 132, 133, 134, 135, 136, 137, 138, 139, 140, 141, 142, 143, 144, 145, 146, 147, 148, 149, 150, 151, 152, 153, 154, 155, 156, 157, 158, 159, 160, 161, 162, 163, 164, 165, 166, 167, 168, 169, 170, 171, 172, 173, 174, 175, 176, 177, 178, 179, 180, 181, 182, 183, 184, 185, 186, 187, 188, 189, 190, 191, 192, 193, 194, 195, 196, 197, 198, 199, 200, 201, 202, 203, 204, 205, 206, 207, 208, 209, 210, 211, 212, 213, 214, 215, 216, 217, 218, 219, 220, 221, 222, 223, 224, 225, 226, 227, 228, 229, 230, 231, 232, 233, 234, 235, 236, 237, 238, 239, 240, 241, 242, 243, 244, 245, 246, 247, 248, 249, 250, 251, 252, 253, 254, 255, 256, 257, 258, 259, 260, 261, 262, 263, 264, 265, 266, 267, 268, 269, 270, 271, 272, 273, 274, 275, 276, 277, 278, 279, 280, 281, 282, 283, 284, 285, 286, 287, 288, 289, 290, 291, 292, 293, 294, 295, 296, 297, 298, 299, 300, 301, 302, 303, 304, 305, 306, 307, 308, 309, 310, 311, 312, 313, 314, 315, 316, 317, 318, 319, 320, 321, 322, 323, 324, 325, 326, 327, 328, 329, 330, 331, 332, 333, 334, 335, 336, 337, 338, 339, 340, 341, 342, 343, 344, 345, 346, 347, 348, 349, 350, 351, 352, 353, 354, 355, 356, 357, 358, 359, 360, 361, 362, 363, 364, 365, 366, 367, 368, 369, 370, 371, 372, 373, 374, 375, 376, 377, 378, 379, 380, 381, 382, 383, 384, 385, 386, 387, 388, 389, 390, 391, 392, 393, 394, 395, 396, 397, 398, 399, 400, 401, 402, 403, 404, 405, 406, 407, 408, 409, 410, 411, 412, 413, 414, 415, 416, 417, 418, 419, 420, 421, 422, 423, 424, 425, 426, 427, 428, 429, 430, 431, 432, 433, 434, 435, 436, 437, 438, 439, 440, 441, 442, 443, 444, 445, 446, 447, 448, 449, 450, 451, 452, 453, 454, 455, 456, 457, 458, 459, 460, 461, 462, 463, 464, 465, 466, 467, 468, 469, 470, 471, 472, 473, 474, 475, 476, 477, 478, 479, 480, 481, 482, 483, 484, 485, 486, 487, 488, 489, 490, 491, 492, 493, 494, 495, 496, 497, 498, 499, 500, 501, 502, 503, 504, 505, 506, 507, 508, 509, 510, 511, 512, 513, 514, 515, 516, 517, 518, 519, 520, 521, 522, 523, 524, 525, 526, 527, 528, 529, 530, 531, 532, 533, 534, 535, 536, 537, 538, 539, 540, 541, 542, 543, 544, 545, 546, 547, 548, 549, 550, 551, 552, 553, 554, 555, 556, 557, 558, 559, 560, 561, 562, 563, 564, 565, 566, 567, 568, 569, 570, 571, 572, 573, 574, 575, 576, 577, 578, 579, 580, 581, 582, 583, 584, 585, 586, 587, 588, 589, 590, 591, 592, 593, 594, 595, 596, 597, 598, 599, 600, 601, 602, 603, 604, 605, 606, 607, 608, 609, 610, 611, 612, 613, 614, 615, 616, 617, 618, 619, 620, 621, 622, 623, 624, 625, 626, 627, 628, 629, 630, 631, 632, 633, 634, 635, 636, 637, 638, 639, 640, 641, 642, 643, 644, 645, 646, 647, 648, 649, 650, 651, 652, 653, 654, 655, 656, 657, 658, 659, 660, 661, 662, 663, 664, 665, 666, 667, 668, 669, 670, 671, 672, 673, 674, 675, 676, 677, 678, 679, 680, 681, 682, 683, 684, 685, 686, 687, 688, 689, 690, 691, 692, 693, 694, 695, 696, 697, 698, 699, 700, 701, 702, 703, 704, 705, 706, 707, 708, 709, 710, 711, 712, 713, 714, 715, 716, 717, 718, 719, 720, 721, 722, 723, 724, 725, 726, 727, 728, 729, 730, 731, 732, 733, 734, 735, 736, 737, 738, 739, 740, 741, 742, 743, 744, 745, 746, 747, 748, 749, 750, 751, 752, 753, 754, 755, 756, 757, 758, 759, 760, 761, 762, 763, 764, 765, 766, 767, 768, 769, 770, 771, 772, 773, 774, 775, 776, 777, 778, 779, 780, 781, 782, 783, 784, 785, 786, 787, 788, 789, 790, 791, 792, 793, 794, 795, 796, 797, 798, 799, 800, 801, 802, 803, 804, 805, 806, 807, 808, 809, 810, 811, 812, 813, 814, 815, 816, 817, 818, 819, 820, 821, 822, 823, 824, 825, 826, 827, 828, 829, 830, 831, 832, 833, 834, 835, 836, 837, 838, 839, 840, 841, 842, 843, 844, 845, 846, 847, 848, 849, 850, 851, 852, 853, 854, 855, 856, 857, 858, 859, 860, 861, 862, 863, 864, 865, 866, 867, 868, 869, 870, 871, 872],
      "AcquisitionTime": ["101229.335000", "101229.795000", "101230.255000", "101230.715000", "101231.175000", "101231.635000", "101232.095000", "101232.555000", "101233.015000", "101233.475000", "101233.935000", "101234.395000", "101234.855000", "101235.315000", "101235.775000", "101236.235000", "101236.695000", "101237.155000", "101237.615000", "101238.075000", "101238.535000", "101238.995000", "101239.455000", "101239.915000", "101240.375000", "101240.835000", "101241.295000", "101241.755000", "101242.215000", "101242.675000", "101243.135000", "101243.595000", "101244.055000", "101244.515000", "101244.975000", "101245.435000", "101245.895000", "101246.355000", "101246.815000", "101247.275000", "101247.735000", "101248.195000", "101248.655000", "101249.115000", "101249.575000", "101250.035000", "101250.495000", "101250.955000", "101251.415000", "101251.875000", "101252.335000", "101252.795000", "101253.255000", "101253.715000", "101254.175000", "101254.635000", "101255.095000", "101255.555000", "101256.015000", "101256.475000", "101256.935000", "101257.395000", "101257.855000", "101258.315000", "101258.775000", "101259.235000", "101259.695000", "101300.155000", "101300.615000", "101301.075000", "101301.535000", "101301.995000", "101302.455000", "101302.915000", "101303.375000", "101303.835000", "101304.295000", "101304.755000", "101305.215000", "101305.675000", "101306.135000", "101306.595000", "101307.055000", "101307.515000", "101307.975000", "101308.435000", "101308.895000", "101309.355000", "101309.815000", "101310.275000", "101310.735000", "101311.195000", "101311.655000", "101312.115000", "101312.575000", "101313.035000", "101313.495000", "101313.955000", "101314.415000", "101314.875000", "101315.335000", "101315.795000", "101316.255000", "101316.715000", "101317.175000", "101317.635000", "101318.095000", "101318.555000", "101319.015000", "101319.475000", "101319.935000", "101320.395000", "101320.855000", "101321.315000", "101321.775000", "101322.235000", "101322.695000", "101323.155000", "101323.615000", "101324.075000", "101324.535000", "101324.995000", "101325.455000", "101325.915000", "101326.375000", "101326.835000", "101327.295000", "101327.755000", "101328.215000", "101328.675000", "101329.135000", "101329.595000", "101330.055000", "101330.515000", "101330.975000", "101331.435000", "101331.895000", "101332.355000", "101332.815000", "101333.275000", "101333.735000", "101334.195000", "101334.655000", "101335.115000", "101335.575000", "101336.035000", "101336.495000", "101336.955000", "101337.415000", "101337.875000", "101338.335000", "101338.795000", "101339.255000", "101339.715000", "101340.175000", "101340.635000", "101341.095000", "101341.555000", "101342.015000", "101342.475000", "101342.935000", "101343.395000", "101343.855000", "101344.315000", "101344.775000", "101345.235000", "101345.695000", "101346.155000", "101346.615000", "101347.075000", "101347.535000", "101347.995000", "101348.455000", "101348.915000", "101349.375000", "101349.835000", "101350.295000", "101350.755000", "101351.215000", "101351.675000", "101352.135000", "101352.595000", "101353.055000", "101353.515000", "101353.975000", "101354.435000", "101354.895000", "101355.355000", "101355.815000", "101356.275000", "101356.735000", "101357.195000", "101357.655000", "101358.115000", "101358.575000", "101359.035000", "101359.495000", "101359.955000", "101400.415000", "101400.875000", "101401.335000", "101401.795000", "101402.255000", "101402.715000", "101403.175000", "101403.635000", "101404.095000", "101404.555000", "101405.015000", "101405.475000", "101405.935000", "101406.395000", "101406.855000", "101407.315000", "101407.775000", "101408.235000", "101408.695000", "101409.155000", "101409.615000", "101410.075000", "101410.535000", "101410.995000", "101411.455000", "101411.915000", "101412.375000", "101412.835000", "101413.295000", "101413.755000", "101414.215000", "101414.675000", "101415.135000", "101415.595000", "101416.055000", "101416.515000", "101416.975000", "101417.435000", "101417.895000", "101418.355000", "101418.815000", "101419.275000", "101419.735000", "101420.195000", "101420.655000", "101421.115000", "101421.575000", "101422.035000", "101422.495000", "101422.955000", "101423.415000", "101423.875000", "101424.335000", "101424.795000", "101425.255000", "101425.715000", "101426.175000", "101426.635000", "101427.095000", "101427.555000", "101428.015000", "101428.475000", "101428.935000", "101429.395000", "101429.855000", "101430.315000", "101430.775000", "101431.235000", "101431.695000", "101432.155000", "101432.615000", "101433.075000", "101433.535000", "101433.995000", "101434.455000", "101434.915000", "101435.375000", "101435.835000", "101436.295000", "101436.755000", "101437.215000", "101437.675000", "101438.135000", "101438.595000", "101439.055000", "101439.515000", "101439.975000", "101440.435000", "101440.895000", "101441.355000", "101441.815000", "101442.275000", "101442.735000", "101443.195000", "101443.655000", "101444.115000", "101444.575000", "101445.035000", "101445.495000", "101445.955000", "101446.415000", "101446.875000", "101447.335000", "101447.795000", "101448.255000", "101448.715000", "101449.175000", "101449.635000", "101450.095000", "101450.555000", "101451.015000", "101451.475000", "101451.935000", "101452.395000", "101452.855000", "101453.315000", "101453.775000", "101454.235000", "101454.695000", "101455.155000", "101455.615000", "101456.075000", "101456.535000", "101456.995000", "101457.455000", "101457.915000", "101458.375000", "101458.835000", "101459.295000", "101459.755000", "101500.215000", "101500.675000", "101501.135000", "101501.595000", "101502.055000", "101502.515000", "101502.975000", "101503.435000", "101503.895000", "101504.355000", "101504.815000", "101505.275000", "101505.735000", "101506.195000", "101506.655000", "101507.115000", "101507.575000", "101508.035000", "101508.495000", "101508.955000", "101509.415000", "101509.875000", "101510.335000", "101510.795000", "101511.255000", "101511.715000", "101512.175000", "101512.635000", "101513.095000", "101513.555000", "101514.015000", "101514.475000", "101514.935000", "101515.395000", "101515.855000", "101516.315000", "101516.775000", "101517.235000", "101517.695000", "101518.155000", "101518.615000", "101519.075000", "101519.535000", "101519.995000", "101520.455000", "101520.915000", "101521.375000", "101521.835000", "101522.295000", "101522.755000", "101523.215000", "101523.675000", "101524.135000", "101524.595000", "101525.055000", "101525.515000", "101525.975000", "101526.435000", "101526.895000", "101527.355000", "101527.815000", "101528.275000", "101528.735000", "101529.195000", "101529.655000", "101530.115000", "101530.575000", "101531.035000", "101531.495000", "101531.955000", "101532.415000", "101532.875000", "101533.335000", "101533.795000", "101534.255000", "101534.715000", "101535.175000", "101535.635000", "101536.095000", "101536.555000", "101537.015000", "101537.475000", "101537.935000", "101538.395000", "101538.855000", "101539.315000", "101539.775000", "101540.235000", "101540.695000", "101541.155000", "101541.615000", "101542.075000", "101542.535000", "101542.995000", "101543.455000", "101543.915000", "101544.375000", "101544.835000", "101545.295000", "101545.755000", "101546.215000", "101546.675000", "101547.135000", "101547.595000", "101548.055000", "101548.515000", "101548.975000", "101549.435000", "101549.895000", "101550.355000", "101550.815000", "101551.275000", "101551.735000", "101552.195000", "101552.655000", "101553.115000", "101553.575000", "101554.035000", "101554.495000", "101554.955000", "101555.415000", "101555.875000", "101556.335000", "101556.795000", "101557.255000", "101557.715000", "101558.175000", "101558.635000", "101559.095000", "101559.555000", "101600.015000", "101600.475000", "101600.935000", "101601.395000", "101601.855000", "101602.315000", "101602.775000", "101603.235000", "101603.695000", "101604.155000", "101604.615000", "101605.075000", "101605.535000", "101605.995000", "101606.455000", "101606.915000", "101607.375000", "101607.835000", "101608.295000", "101608.755000", "101609.215000", "101609.675000", "101610.135000", "101610.595000", "101611.055000", "101611.515000", "101611.975000", "101612.435000", "101612.895000", "101613.355000", "101613.815000", "101614.275000", "101614.735000", "101615.195000", "101615.655000", "101616.115000", "101616.575000", "101617.035000", "101617.495000", "101617.955000", "101618.415000", "101618.875000", "101619.335000", "101619.795000", "101620.255000", "101620.715000", "101621.175000", "101621.635000", "101622.095000", "101622.555000", "101623.015000", "101623.475000", "101623.935000", "101624.395000", "101624.855000", "101625.315000", "101625.775000", "101626.235000", "101626.695000", "101627.155000", "101627.615000", "101628.075000", "101628.535000", "101628.995000", "101629.455000", "101629.915000", "101630.375000", "101630.835000", "101631.295000", "101631.755000", "101632.215000", "101632.675000", "101633.135000", "101633.595000", "101634.055000", "101634.515000", "101634.975000", "101635.435000", "101635.895000", "101636.355000", "101636.815000", "101637.275000", "101637.735000", "101638.195000", "101638.655000", "101639.115000", "101639.575000", "101640.035000", "101640.495000", "101640.955000", "101641.415000", "101641.875000", "101642.335000", "101642.795000", "101643.255000", "101643.715000", "101644.175000", "101644.635000", "101645.095000", "101645.555000", "101646.015000", "101646.475000", "101646.935000", "101647.395000", "101647.855000", "101648.315000", "101648.775000", "101649.235000", "101649.695000", "101650.155000", "101650.615000", "101651.075000", "101651.535000", "101651.995000", "101652.455000", "101652.915000", "101653.375000", "101653.835000", "101654.295000", "101654.755000", "101655.215000", "101655.675000", "101656.135000", "101656.595000", "101657.055000", "101657.515000", "101657.975000", "101658.435000", "101658.895000", "101659.355000", "101659.815000", "101700.275000", "101700.735000", "101701.195000", "101701.655000", "101702.115000", "101702.575000", "101703.035000", "101703.495000", "101703.955000", "101704.415000", "101704.875000", "101705.335000", "101705.795000", "101706.255000", "101706.715000", "101707.175000", "101707.635000", "101708.095000", "101708.555000", "101709.015000", "101709.475000", "101709.935000", "101710.395000", "101710.855000", "101711.315000", "101711.775000", "101712.235000", "101712.695000", "101713.155000", "101713.615000", "101714.075000", "101714.535000", "101714.995000", "101715.455000", "101715.915000", "101716.375000", "101716.835000", "101717.295000", "101717.755000", "101718.215000", "101718.675000", "101719.135000", "101719.595000", "101720.055000", "101720.515000", "101720.975000", "101721.435000", "101721.895000", "101722.355000", "101722.815000", "101723.275000", "101723.735000", "101724.195000", "101724.655000", "101725.115000", "101725.575000", "101726.035000", "101726.495000", "101726.955000", "101727.415000", "101727.875000", "101728.335000", "101728.795000", "101729.255000", "101729.715000", "101730.175000", "101730.635000", "101731.095000", "101731.555000", "101732.015000", "101732.475000", "101732.935000", "101733.395000", "101733.855000", "101734.315000", "101734.775000", "101735.235000", "101735.695000", "101736.155000", "101736.615000", "101737.075000", "101737.535000", "101737.995000", "101738.455000", "101738.915000", "101739.375000", "101739.835000", "101740.295000", "101740.755000", "101741.215000", "101741.675000", "101742.135000", "101742.595000", "101743.055000", "101743.515000", "101743.975000", "101744.435000", "101744.895000", "101745.355000", "101745.815000", "101746.275000", "101746.735000", "101747.195000", "101747.655000", "101748.115000", "101748.575000", "101749.035000", "101749.495000", "101749.955000", "101750.415000", "101750.875000", "101751.335000", "101751.795000", "101752.255000", "101752.715000", "101753.175000", "101753.635000", "101754.095000", "101754.555000", "101755.015000", "101755.475000", "101755.935000", "101756.395000", "101756.855000", "101757.315000", "101757.775000", "101758.235000", "101758.695000", "101759.155000", "101759.615000", "101800.075000", "101800.535000", "101800.995000", "101801.455000", "101801.915000", "101802.375000", "101802.835000", "101803.295000", "101803.755000", "101804.215000", "101804.675000", "101805.135000", "101805.595000", "101806.055000", "101806.515000", "101806.975000", "101807.435000", "101807.895000", "101808.355000", "101808.815000", "101809.275000", "101809.735000", "101810.195000", "101810.655000", "101811.115000", "101811.575000", "101812.035000", "101812.495000", "101812.955000", "101813.415000", "101813.875000", "101814.335000", "101814.795000", "101815.255000", "101815.715000", "101816.175000", "101816.635000", "101817.095000", "101817.555000", "101818.015000", "101818.475000", "101818.935000", "101819.395000", "101819.855000", "101820.315000", "101820.775000", "101821.235000", "101821.695000", "101822.155000", "101822.615000", "101823.075000", "101823.535000", "101823.995000", "101824.455000", "101824.915000", "101825.375000", "101825.835000", "101826.295000", "101826.755000", "101827.215000", "101827.675000", "101828.135000", "101828.595000", "101829.055000", "101829.515000", "101829.975000", "101830.435000", "101830.895000", "101831.355000", "101831.815000", "101832.275000", "101832.735000", "101833.195000", "101833.655000", "101834.115000", "101834.575000", "101835.035000", "101835.495000", "101835.955000", "101836.415000", "101836.875000", "101837.335000", "101837.795000", "101838.255000", "101838.715000", "101839.175000", "101839.635000", "101840.095000", "101840.555000", "101841.015000", "101841.475000", "101841.935000", "101842.395000", "101842.855000", "101843.315000", "101843.775000", "101844.235000", "101844.695000", "101845.155000", "101845.615000", "101846.075000", "101846.535000", "101846.995000", "101847.455000", "101847.915000", "101848.375000", "101848.835000", "101849.295000", "101849.755000", "101850.215000", "101850.675000", "101851.135000", "101851.595000", "101852.055000", "101852.515000", "101852.975000", "101853.435000", "101853.895000", "101854.355000", "101854.815000", "101855.275000", "101855.735000", "101856.195000", "101856.655000", "101857.115000", "101857.575000", "101858.035000", "101858.495000", "101858.955000", "101859.415000", "101859.875000", "101900.335000", "101900.795000", "101901.255000", "101901.715000", "101902.175000", "101902.635000", "101903.095000", "101903.555000", "101904.015000", "101904.475000", "101904.935000", "101905.395000", "101905.855000", "101906.315000", "101906.775000", "101907.235000", "101907.695000", "101908.155000", "101908.615000", "101909.075000", "101909.535000", "101909.995000"],
