{
  "AcquisitionMatrixPE": 82,
  "AcquisitionNumber": 1,
  "AcquisitionTime": "10:39:41.915000",
  "BandwidthPerPixelPhaseEncode": 24.888,
  "BaseResolution": 82,
  "BodyPartExamined": "BRAIN",
  "ConsistencyInfo": "N4_VE11C_LATEST_20160120",
  "ConversionSoftware": "dcm2niix",
  "ConversionSoftwareVersion": "v1.0.20201102",
  "DerivedVendorReportedEchoSpacing": 0.00049,
  "DeviceSerialNumber": "66112",
  "DwellTime": 2e-06,
  "EchoTime": 0.0272,
  "EchoTrainLength": 82,
  "EffectiveEchoSpacing": 0.00049,
  "FlipAngle": 44,
  "ImageComments": "Unaliased MB8/PE3",
  "ImageOrientationPatientDICOM": [0.97508, 0.00239905, 0.221841, -0.0194035, 0.997032, 0.0745037],
  "ImageType": [
    "ORIGINAL",
    "PRIMARY",
    "M",
    "MB",
    "ND",
    "NORM",
    "MOSAIC"
],
  "ImagingFrequency": 123.252,
  "InPlanePhaseEncodingDirectionDICOM": "COL",
  "InstitutionAddress": "Maynard 3,Hanover,NH,US,03755",
  "InstitutionName": "Dartmouth College - PBS",
  "InstitutionalDepartmentName": "Department",
  "MRAcquisitionType": "2D",
  "MagneticFieldStrength": 3,
  "Manufacturer": "Siemens",
  "ManufacturersModelName": "Prisma",
  "Modality": "MR",
  "MultibandAccelerationFactor": 8,
  "PartialFourier": 1,
  "PatientPosition": "HFS",
  "PercentPhaseFOV": 100,
  "PercentSampling": 100,
  "PhaseEncodingDirection": "j-",
  "PhaseEncodingSteps": 82,
  "PhaseResolution": 1,
  "PixelBandwidth": 3050,
  "ProcedureStepDescription": "Wager_Wager^1076_spacetop",
  "ProtocolName": "func_run-02_task-alignvideo_acq-ap-mb8",
  "PulseSequenceDetails": "%CustomerSeq%\\cmrr_mbep2d_bold",
  "ReceiveCoilActiveElements": "HEA;HEP",
  "ReceiveCoilName": "Head_32",
  "ReconMatrixPE": 82,
  "RepetitionTime": 0.46,
  "SAR": 0.0946289,
  "ScanOptions": "FS",
  "ScanningSequence": "EP",
  "SequenceName": "epfid2d1_82",
  "SequenceVariant": "SK\\SS",
  "SeriesDescription": "func_run-02_task-alignvideo_acq-ap-mb8",
  "SeriesNumber": 32,
  "ShimSetting": [4176, -7758, -7283, 661, 43, -157, 50, 56],
  "SliceThickness": 2.7,
  "SliceTiming": [0, 0.25, 0.0625, 0.3125, 0.125, 0.375, 0.1875, 0, 0.25, 0.0625, 0.3125, 0.125, 0.375, 0.1875, 0, 0.25, 0.0625, 0.3125, 0.125, 0.375, 0.1875, 0, 0.25, 0.0625, 0.3125, 0.125, 0.375, 0.1875, 0, 0.25, 0.0625, 0.3125, 0.125, 0.375, 0.1875, 0, 0.25, 0.0625, 0.3125, 0.125, 0.375, 0.1875, 0, 0.25, 0.0625, 0.3125, 0.125, 0.375, 0.1875, 0, 0.25, 0.0625, 0.3125, 0.125, 0.375, 0.1875],
  "SoftwareVersions": "syngo MR E11",
  "SpacingBetweenSlices": 2.7,
  "StationName": "AWP66112",
  "TaskName": "alignvideo",
  "TotalReadoutTime": 0.03969,
  "TxRefAmp": 260.362,
  "WipMemBlock": "3b56a3a7-7491-46ae-ba26-542527049027||Sequence: R016 ve11c/master r/e634e98; Dec 19 2017 11:00:25 by eja",
  "dcmmeta_affine": [
    [-2.616067886352539, -0.05205811187624931, 0.5967115759849548, 99.40826416015625],
    [-0.006436479277908802, 2.6749637126922607, 0.20776917040348053, -97.99113464355469],
    [0.5951844453811646, -0.1998879611492157, 2.6250269412994385, -80.4995346069336],
    [0.0, 0.0, 0.0, 1.0]
],
  "dcmmeta_reorient_transform": [
    [0.0, -1.0, 0.0, 81.0],
    [1.0, 0.0, 0.0, 0.0],
    [0.0, 0.0, 1.0, 0.0],
    [0.0, 0.0, 0.0, 1.0]
],
  "dcmmeta_shape": [82, 82, 56, 926],
  "dcmmeta_slice_dim": 2,
  "dcmmeta_version": 0.6,
  "global": {
    "const": {
      "AccessionNumber": "A003773",
      "AcquisitionMatrix": [82, 0, 0, 82],
      "AngioFlag": "N",
      "BitsAllocated": 16,
      "BitsStored": 16,
      "BodyPartExamined": "BRAIN",
      "Columns": 656,
      "EchoNumbers": 1,
      "EchoTime": 27.2,
      "EchoTrainLength": 82,
      "FlipAngle": 44.0,
      "HighBit": 15,
      "ImageOrientationPatient": [0.97507979698493, 0.00239905133874, 0.2218414615542, -0.0194034781608, 0.99703194752276, 0.07450369557436],
      "ImagePositionPatient": [-831.06234217615, -888.24282356473, -324.8762356406],
      "ImageType": [
        "ORIGINAL",
        "PRIMARY",
        "M",
        "MB",
        "ND",
        "NORM",
        "MOSAIC"
],
      "ImagedNucleus": "1H",
      "ImagingFrequency": 123.252184,
      "InPlanePhaseEncodingDirection": "COL",
      "MRAcquisitionType": "2D",
      "MagneticFieldStrength": 3.0,
      "Manufacturer": "SIEMENS",
      "ManufacturerModelName": "Prisma",
      "Modality": "MR",
      "NumberOfAverages": 1.0,
      "NumberOfPhaseEncodingSteps": 82,
      "PercentPhaseFieldOfView": 100.0,
      "PercentSampling": 100.0,
      "PerformedProcedureStepStartTime": "090619.618000",
      "PhotometricInterpretation": "MONOCHROME2",
      "PixelBandwidth": 3050.0,
      "PixelRepresentation": 0,
      "PixelSpacing": [2.6829268932343, 2.6829268932343],
      "ProtocolName": "func_run-02_task-alignvideo_acq-ap-mb8",
      "RepetitionTime": 460.0,
      "Rows": 656,
      "SAR": 0.09462886954946,
      "SamplesPerPixel": 1,
      "ScanOptions": "FS",
      "ScanningSequence": "EP",
      "SequenceName": "epfid2d1_82",
      "SequenceVariant": [
        "SK",
        "SS"
],
      "SeriesDescription": "func_run-02_task-alignvideo_acq-ap-mb8",
      "SeriesNumber": 32,
      "SeriesTime": "104010.036000",
      "SliceLocation": -63.83515967681,
      "SliceThickness": 2.7000000476837,
      "SmallestImagePixelValue": 0,
      "SoftwareVersions": "syngo MR E11",
      "SpacingBetweenSlices": 2.6999999484846,
      "SpecificCharacterSet": "ISO_IR 100",
      "StudyID": "5",
      "StudyTime": "090619.493000",
      "TransmitCoilName": "Body",
      "VariableFlipAngleFlag": "N",
      "WindowCenterWidthExplanation": "Algo1",
      "dBdt": 0.0},
    "slices": {}
  },
  "time": {
    "samples": {
      "AcquisitionNumber": [1, 2, 3, 4, 5, 6, 7, 8, 9, 10, 11, 12, 13, 14, 15, 16, 17, 18, 19, 20, 21, 22, 23, 24, 25, 26, 27, 28, 29, 30, 31, 32, 33, 34, 35, 36, 37, 38, 39, 40, 41, 42, 43, 44, 45, 46, 47, 48, 49, 50, 51, 52, 53, 54, 55, 56, 57, 58, 59, 60, 61, 62, 63, 64, 65, 66, 67, 68, 69, 70, 71, 72, 73, 74, 75, 76, 77, 78, 79, 80, 81, 82, 83, 84, 85, 86, 87, 88, 89, 90, 91, 92, 93, 94, 95, 96, 97, 98, 99, 100, 101, 102, 103, 104, 105, 106, 107, 108, 109, 110, 111, 112, 113, 114, 115, 116, 117, 118, 119, 120, 121, 122, 123, 124, 125, 126, 127, 128, 129, 130, 131, 132, 133, 134, 135, 136, 137, 138, 139, 140, 141, 142, 143, 144, 145, 146, 147, 148, 149, 150, 151, 152, 153, 154, 155, 156, 157, 158, 159, 160, 161, 162, 163, 164, 165, 166, 167, 168, 169, 170, 171, 172, 173, 174, 175, 176, 177, 178, 179, 180, 181, 182, 183, 184, 185, 186, 187, 188, 189, 190, 191, 192, 193, 194, 195, 196, 197, 198, 199, 200, 201, 202, 203, 204, 205, 206, 207, 208, 209, 210, 211, 212, 213, 214, 215, 216, 217, 218, 219, 220, 221, 222, 223, 224, 225, 226, 227, 228, 229, 230, 231, 232, 233, 234, 235, 236, 237, 238, 239, 240, 241, 242, 243, 244, 245, 246, 247, 248, 249, 250, 251, 252, 253, 254, 255, 256, 257, 258, 259, 260, 261, 262, 263, 264, 265, 266, 267, 268, 269, 270, 271, 272, 273, 274, 275, 276, 277, 278, 279, 280, 281, 282, 283, 284, 285, 286, 287, 288, 289, 290, 291, 292, 293, 294, 295, 296, 297, 298, 299, 300, 301, 302, 303, 304, 305, 306, 307, 308, 309, 310, 311, 312, 313, 314, 315, 316, 317, 318, 319, 320, 321, 322, 323, 324, 325, 326, 327, 328, 329, 330, 331, 332, 333, 334, 335, 336, 337, 338, 339, 340, 341, 342, 343, 344, 345, 346, 347, 348, 349, 350, 351, 352, 353, 354, 355, 356, 357, 358, 359, 360, 361, 362, 363, 364, 365, 366, 367, 368, 369, 370, 371, 372, 373, 374, 375, 376, 377, 378, 379, 380, 381, 382, 383, 384, 385, 386, 387, 388, 389, 390, 391, 392, 393, 394, 395, 396, 397, 398, 399, 400, 401, 402, 403, 404, 405, 406, 407, 408, 409, 410, 411, 412, 413, 414, 415, 416, 417, 418, 419, 420, 421, 422, 423, 424, 425, 426, 427, 428, 429, 430, 431, 432, 433, 434, 435, 436, 437, 438, 439, 440, 441, 442, 443, 444, 445, 446, 447, 448, 449, 450, 451, 452, 453, 454, 455, 456, 457, 458, 459, 460, 461, 462, 463, 464, 465, 466, 467, 468, 469, 470, 471, 472, 473, 474, 475, 476, 477, 478, 479, 480, 481, 482, 483, 484, 485, 486, 487, 488, 489, 490, 491, 492, 493, 494, 495, 496, 497, 498, 499, 500, 501, 502, 503, 504, 505, 506, 507, 508, 509, 510, 511, 512, 513, 514, 515, 516, 517, 518, 519, 520, 521, 522, 523, 524, 525, 526, 527, 528, 529, 530, 531, 532, 533, 534, 535, 536, 537, 538, 539, 540, 541, 542, 543, 544, 545, 546, 547, 548, 549, 550, 551, 552, 553, 554, 555, 556, 557, 558, 559, 560, 561, 562, 563, 564, 565, 566, 567, 568, 569, 570, 571, 572, 573, 574, 575, 576, 577, 578, 579, 580, 581, 582, 583, 584, 585, 586, 587, 588, 589, 590, 591, 592, 593, 594, 595, 596, 597, 598, 599, 600, 601, 602, 603, 604, 605, 606, 607, 608, 609, 610, 611, 612, 613, 614, 615, 616, 617, 618, 619, 620, 621, 622, 623, 624, 625, 626, 627, 628, 629, 630, 631, 632, 633, 634, 635, 636, 637, 638, 639, 640, 641, 642, 643, 644, 645, 646, 647, 648, 649, 650, 651, 652, 653, 654, 655, 656, 657, 658, 659, 660, 661, 662, 663, 664, 665, 666, 667, 668, 669, 670, 671, 672, 673, 674, 675, 676, 677, 678, 679, 680, 681, 682, 683, 684, 685, 686, 687, 688, 689, 690, 691, 692, 693, 694, 695, 696, 697, 698, 699, 700, 701, 702, 703, 704, 705, 706, 707, 708, 709, 710, 711, 712, 713, 714, 715, 716, 717, 718, 719, 720, 721, 722, 723, 724, 725, 726, 727, 728, 729, 730, 731, 732, 733, 734, 735, 736, 737, 738, 739, 740, 741, 742, 743, 744, 745, 746, 747, 748, 749, 750, 751, 752, 753, 754, 755, 756, 757, 758, 759, 760, 761, 762, 763, 764, 765, 766, 767, 768, 769, 770, 771, 772, 773, 774, 775, 776, 777, 778, 779, 780, 781, 782, 783, 784, 785, 786, 787, 788, 789, 790, 791, 792, 793, 794, 795, 796, 797, 798, 799, 800, 801, 802, 803, 804, 805, 806, 807, 808, 809, 810, 811, 812, 813, 814, 815, 816, 817, 818, 819, 820, 821, 822, 823, 824, 825, 826, 827, 828, 829, 830, 831, 832, 833, 834, 835, 836, 837, 838, 839, 840, 841, 842, 843, 844, 845, 846, 847, 848, 849, 850, 851, 852, 853, 854, 855, 856, 857, 858, 859, 860, 861, 862, 863, 864, 865, 866, 867, 868, 869, 870, 871, 872, 873, 874, 875, 876, 877, 878, 879, 880, 881, 882, 883, 884, 885, 886, 887, 888, 889, 890, 891, 892, 893, 894, 895, 896, 897, 898, 899, 900, 901, 902, 903, 904, 905, 906, 907, 908, 909, 910, 911, 912, 913, 914, 915, 916, 917, 918, 919, 920, 921, 922, 923, 924, 925, 926],
      "AcquisitionTime": ["103941.915000", "103942.375000", "103942.835000", "103943.295000", "103943.755000", "103944.215000", "103944.675000", "103945.135000", "103945.595000", "103946.055000", "103946.515000", "103946.975000", "103947.435000", "103947.895000", "103948.355000", "103948.815000", "103949.275000", "103949.735000", "103950.195000", "103950.655000", "103951.115000", "103951.575000", "103952.035000", "103952.495000", "103952.955000", "103953.415000", "103953.875000", "103954.335000", "103954.795000", "103955.255000", "103955.715000", "103956.175000", "103956.635000", "103957.095000", "103957.555000", "103958.015000", "103958.475000", "103958.935000", "103959.395000", "103959.855000", "104000.315000", "104000.775000", "104001.235000", "104001.695000", "104002.155000", "104002.615000", "104003.075000", "104003.535000", "104003.995000", "104004.455000", "104004.915000", "104005.375000", "104005.835000", "104006.295000", "104006.755000", "104007.215000", "104007.675000", "104008.135000", "104008.595000", "104009.055000", "104009.515000", "104009.975000", "104010.435000", "104010.895000", "104011.355000", "104011.815000", "104012.275000", "104012.735000", "104013.195000", "104013.655000", "104014.115000", "104014.575000", "104015.035000", "104015.495000", "104015.955000", "104016.415000", "104016.875000", "104017.335000", "104017.795000", "104018.255000", "104018.715000", "104019.175000", "104019.635000", "104020.095000", "104020.555000", "104021.015000", "104021.475000", "104021.935000", "104022.395000", "104022.855000", "104023.315000", "104023.775000", "104024.235000", "104024.695000", "104025.155000", "104025.615000", "104026.075000", "104026.535000", "104026.995000", "104027.455000", "104027.915000", "104028.375000", "104028.835000", "104029.295000", "104029.755000", "104030.215000", "104030.675000", "104031.135000", "104031.595000", "104032.055000", "104032.515000", "104032.975000", "104033.435000", "104033.895000", "104034.355000", "104034.815000", "104035.275000", "104035.735000", "104036.195000", "104036.655000", "104037.115000", "104037.575000", "104038.035000", "104038.495000", "104038.955000", "104039.415000", "104039.875000", "104040.335000", "104040.795000", "104041.255000", "104041.715000", "104042.175000", "104042.635000", "104043.095000", "104043.555000", "104044.015000", "104044.475000", "104044.935000", "104045.395000", "104045.855000", "104046.315000", "104046.775000", "104047.235000", "104047.695000", "104048.155000", "104048.615000", "104049.075000", "104049.535000", "104049.995000", "104050.455000", "104050.915000", "104051.375000", "104051.835000", "104052.295000", "104052.755000", "104053.215000", "104053.675000", "104054.135000", "104054.595000", "104055.055000", "104055.515000", "104055.975000", "104056.435000", "104056.895000", "104057.355000", "104057.815000", "104058.275000", "104058.735000", "104059.195000", "104059.655000", "104100.115000", "104100.575000", "104101.035000", "104101.495000", "104101.955000", "104102.415000", "104102.875000", "104103.335000", "104103.795000", "104104.255000", "104104.715000", "104105.175000", "104105.635000", "104106.095000", "104106.555000", "104107.015000", "104107.475000", "104107.935000", "104108.395000", "104108.855000", "104109.315000", "104109.775000", "104110.235000", "104110.695000", "104111.155000", "104111.615000", "104112.075000", "104112.535000", "104112.995000", "104113.455000", "104113.915000", "104114.375000", "104114.835000", "104115.295000", "104115.755000", "104116.215000", "104116.675000", "104117.135000", "104117.595000", "104118.055000", "104118.515000", "104118.975000", "104119.435000", "104119.895000", "104120.355000", "104120.815000", "104121.275000", "104121.735000", "104122.195000", "104122.655000", "104123.115000", "104123.575000", "104124.035000", "104124.495000", "104124.955000", "104125.415000", "104125.875000", "104126.335000", "104126.795000", "104127.255000", "104127.715000", "104128.175000", "104128.635000", "104129.095000", "104129.555000", "104130.015000", "104130.475000", "104130.935000", "104131.395000", "104131.855000", "104132.315000", "104132.775000", "104133.235000", "104133.695000", "104134.155000", "104134.615000", "104135.075000", "104135.535000", "104135.995000", "104136.455000", "104136.915000", "104137.375000", "104137.835000", "104138.295000", "104138.755000", "104139.215000", "104139.675000", "104140.135000", "104140.595000", "104141.055000", "104141.515000", "104141.975000", "104142.435000", "104142.895000", "104143.355000", "104143.815000", "104144.275000", "104144.735000", "104145.195000", "104145.655000", "104146.115000", "104146.575000", "104147.035000", "104147.495000", "104147.955000", "104148.415000", "104148.875000", "104149.335000", "104149.795000", "104150.255000", "104150.715000", "104151.175000", "104151.635000", "104152.095000", "104152.555000", "104153.015000", "104153.475000", "104153.935000", "104154.395000", "104154.855000", "104155.315000", "104155.775000", "104156.235000", "104156.695000", "104157.155000", "104157.615000", "104158.075000", "104158.535000", "104158.995000", "104159.455000", "104159.915000", "104200.375000", "104200.835000", "104201.295000", "104201.755000", "104202.215000", "104202.675000", "104203.135000", "104203.595000", "104204.055000", "104204.515000", "104204.975000", "104205.435000", "104205.895000", "104206.355000", "104206.815000", "104207.275000", "104207.735000", "104208.195000", "104208.655000", "104209.115000", "104209.575000", "104210.035000", "104210.495000", "104210.955000", "104211.415000", "104211.875000", "104212.335000", "104212.795000", "104213.255000", "104213.715000", "104214.175000", "104214.635000", "104215.095000", "104215.555000", "104216.015000", "104216.475000", "104216.935000", "104217.395000", "104217.855000", "104218.315000", "104218.775000", "104219.235000", "104219.695000", "104220.155000", "104220.615000", "104221.075000", "104221.535000", "104221.995000", "104222.455000", "104222.915000", "104223.375000", "104223.835000", "104224.295000", "104224.755000", "104225.215000", "104225.675000", "104226.135000", "104226.595000", "104227.055000", "104227.515000", "104227.975000", "104228.435000", "104228.895000", "104229.355000", "104229.815000", "104230.275000", "104230.735000", "104231.195000", "104231.655000", "104232.115000", "104232.575000", "104233.035000", "104233.495000", "104233.955000", "104234.415000", "104234.875000", "104235.335000", "104235.795000", "104236.255000", "104236.715000", "104237.175000", "104237.635000", "104238.095000", "104238.555000", "104239.015000", "104239.475000", "104239.935000", "104240.395000", "104240.855000", "104241.315000", "104241.775000", "104242.235000", "104242.695000", "104243.155000", "104243.615000", "104244.075000", "104244.535000", "104244.995000", "104245.455000", "104245.915000", "104246.375000", "104246.835000", "104247.295000", "104247.755000", "104248.215000", "104248.675000", "104249.135000", "104249.595000", "104250.055000", "104250.515000", "104250.975000", "104251.435000", "104251.895000", "104252.355000", "104252.815000", "104253.275000", "104253.735000", "104254.195000", "104254.655000", "104255.115000", "104255.575000", "104256.035000", "104256.495000", "104256.955000", "104257.415000", "104257.875000", "104258.335000", "104258.795000", "104259.255000", "104259.715000", "104300.175000", "104300.635000", "104301.095000", "104301.555000", "104302.015000", "104302.475000", "104302.935000", "104303.395000", "104303.855000", "104304.315000", "104304.775000", "104305.235000", "104305.695000", "104306.155000", "104306.615000", "104307.075000", "104307.535000", "104307.995000", "104308.455000", "104308.915000", "104309.375000", "104309.835000", "104310.295000", "104310.755000", "104311.215000", "104311.675000", "104312.135000", "104312.595000", "104313.055000", "104313.515000", "104313.975000", "104314.435000", "104314.895000", "104315.355000", "104315.815000", "104316.275000", "104316.735000", "104317.195000", "104317.655000", "104318.115000", "104318.575000", "104319.035000", "104319.495000", "104319.955000", "104320.415000", "104320.875000", "104321.335000", "104321.795000", "104322.255000", "104322.715000", "104323.175000", "104323.635000", "104324.095000", "104324.555000", "104325.015000", "104325.475000", "104325.935000", "104326.395000", "104326.855000", "104327.315000", "104327.775000", "104328.235000", "104328.695000", "104329.155000", "104329.615000", "104330.075000", "104330.535000", "104330.995000", "104331.455000", "104331.915000", "104332.375000", "104332.835000", "104333.295000", "104333.755000", "104334.215000", "104334.675000", "104335.135000", "104335.595000", "104336.055000", "104336.515000", "104336.975000", "104337.435000", "104337.895000", "104338.355000", "104338.815000", "104339.275000", "104339.735000", "104340.195000", "104340.655000", "104341.115000", "104341.575000", "104342.035000", "104342.495000", "104342.955000", "104343.415000", "104343.875000", "104344.335000", "104344.795000", "104345.255000", "104345.715000", "104346.175000", "104346.635000", "104347.095000", "104347.555000", "104348.015000", "104348.475000", "104348.935000", "104349.395000", "104349.855000", "104350.315000", "104350.775000", "104351.235000", "104351.695000", "104352.155000", "104352.615000", "104353.075000", "104353.535000", "104353.995000", "104354.455000", "104354.915000", "104355.375000", "104355.835000", "104356.295000", "104356.755000", "104357.215000", "104357.675000", "104358.135000", "104358.595000", "104359.055000", "104359.515000", "104359.975000", "104400.435000", "104400.895000", "104401.355000", "104401.815000", "104402.275000", "104402.735000", "104403.195000", "104403.655000", "104404.115000", "104404.575000", "104405.035000", "104405.495000", "104405.955000", "104406.415000", "104406.875000", "104407.335000", "104407.795000", "104408.255000", "104408.715000", "104409.175000", "104409.635000", "104410.095000", "104410.555000", "104411.015000", "104411.475000", "104411.935000", "104412.395000", "104412.855000", "104413.315000", "104413.775000", "104414.235000", "104414.695000", "104415.155000", "104415.615000", "104416.075000", "104416.535000", "104416.995000", "104417.455000", "104417.915000", "104418.375000", "104418.835000", "104419.295000", "104419.755000", "104420.215000", "104420.675000", "104421.135000", "104421.595000", "104422.055000", "104422.515000", "104422.975000", "104423.435000", "104423.895000", "104424.355000", "104424.815000", "104425.275000", "104425.735000", "104426.195000", "104426.655000", "104427.115000", "104427.575000", "104428.035000", "104428.495000", "104428.955000", "104429.415000", "104429.875000", "104430.335000", "104430.795000", "104431.255000", "104431.715000", "104432.175000", "104432.635000", "104433.095000", "104433.555000", "104434.015000", "104434.475000", "104434.935000", "104435.395000", "104435.855000", "104436.315000", "104436.775000", "104437.235000", "104437.695000", "104438.155000", "104438.615000", "104439.075000", "104439.535000", "104439.995000", "104440.455000", "104440.915000", "104441.375000", "104441.835000", "104442.295000", "104442.755000", "104443.215000", "104443.675000", "104444.135000", "104444.595000", "104445.055000", "104445.515000", "104445.975000", "104446.435000", "104446.895000", "104447.355000", "104447.815000", "104448.275000", "104448.735000", "104449.195000", "104449.655000", "104450.115000", "104450.575000", "104451.035000", "104451.495000", "104451.955000", "104452.415000", "104452.875000", "104453.335000", "104453.795000", "104454.255000", "104454.715000", "104455.175000", "104455.635000", "104456.095000", "104456.555000", "104457.015000", "104457.475000", "104457.935000", "104458.395000", "104458.855000", "104459.315000", "104459.775000", "104500.235000", "104500.695000", "104501.155000", "104501.615000", "104502.075000", "104502.535000", "104502.995000", "104503.455000", "104503.915000", "104504.375000", "104504.835000", "104505.295000", "104505.755000", "104506.215000", "104506.675000", "104507.135000", "104507.595000", "104508.055000", "104508.515000", "104508.975000", "104509.435000", "104509.895000", "104510.355000", "104510.815000", "104511.275000", "104511.735000", "104512.195000", "104512.655000", "104513.115000", "104513.575000", "104514.035000", "104514.495000", "104514.955000", "104515.415000", "104515.875000", "104516.335000", "104516.795000", "104517.255000", "104517.715000", "104518.175000", "104518.635000", "104519.095000", "104519.555000", "104520.015000", "104520.475000", "104520.935000", "104521.395000", "104521.855000", "104522.315000", "104522.775000", "104523.235000", "104523.695000", "104524.155000", "104524.615000", "104525.075000", "104525.535000", "104525.995000", "104526.455000", "104526.915000", "104527.375000", "104527.835000", "104528.295000", "104528.755000", "104529.215000", "104529.675000", "104530.135000", "104530.595000", "104531.055000", "104531.515000", "104531.975000", "104532.435000", "104532.895000", "104533.355000", "104533.815000", "104534.275000", "104534.735000", "104535.195000", "104535.655000", "104536.115000", "104536.575000", "104537.035000", "104537.495000", "104537.955000", "104538.415000", "104538.875000", "104539.335000", "104539.795000", "104540.255000", "104540.715000", "104541.175000", "104541.635000", "104542.095000", "104542.555000", "104543.015000", "104543.475000", "104543.935000", "104544.395000", "104544.855000", "104545.315000", "104545.775000", "104546.235000", "104546.695000", "104547.155000", "104547.615000", "104548.075000", "104548.535000", "104548.995000", "104549.455000", "104549.915000", "104550.375000", "104550.835000", "104551.295000", "104551.755000", "104552.215000", "104552.675000", "104553.135000", "104553.595000", "104554.055000", "104554.515000", "104554.975000", "104555.435000", "104555.895000", "104556.355000", "104556.815000", "104557.275000", "104557.735000", "104558.195000", "104558.655000", "104559.115000", "104559.575000", "104600.035000", "104600.495000", "104600.955000", "104601.415000", "104601.875000", "104602.335000", "104602.795000", "104603.255000", "104603.715000", "104604.175000", "104604.635000", "104605.095000", "104605.555000", "104606.015000", "104606.475000", "104606.935000", "104607.395000", "104607.855000", "104608.315000", "104608.775000", "104609.235000", "104609.695000", "104610.155000", "104610.615000", "104611.075000", "104611.535000", "104611.995000", "104612.455000", "104612.915000", "104613.375000", "104613.835000", "104614.295000", "104614.755000", "104615.215000", "104615.675000", "104616.135000", "104616.595000", "104617.055000", "104617.515000", "104617.975000", "104618.435000", "104618.895000", "104619.355000", "104619.815000", "104620.275000", "104620.735000", "104621.195000", "104621.655000", "104622.115000", "104622.575000", "104623.035000", "104623.495000", "104623.955000", "104624.415000", "104624.875000", "104625.335000", "104625.795000", "104626.255000", "104626.715000", "104627.175000", "104627.635000", "104628.095000", "104628.555000", "104629.015000", "104629.475000", "104629.935000", "104630.395000", "104630.855000", "104631.315000", "104631.775000", "104632.235000", "104632.695000", "104633.155000", "104633.615000", "104634.075000", "104634.535000", "104634.995000", "104635.455000", "104635.915000", "104636.375000", "104636.835000", "104637.295000", "104637.755000", "104638.215000", "104638.675000", "104639.135000", "104639.595000", "104640.055000", "104640.515000", "104640.975000", "104641.435000", "104641.895000", "104642.355000", "104642.815000", "104643.275000", "104643.735000", "104644.195000", "104644.655000", "104645.115000", "104645.575000", "104646.035000", "104646.495000", "104646.955000", "104647.415000"],
