{
  "AcquisitionMatrixPE": 82,
  "AcquisitionNumber": 1,
  "AcquisitionTime": "10:20:31.690000",
  "BandwidthPerPixelPhaseEncode": 24.888,
  "BaseResolution": 82,
  "BodyPartExamined": "BRAIN",
  "ConsistencyInfo": "N4_VE11C_LATEST_20160120",
  "ConversionSoftware": "dcm2niix",
  "ConversionSoftwareVersion": "v1.0.20201102",
  "DerivedVendorReportedEchoSpacing": 0.00049,
  "DeviceSerialNumber": "66112",
  "DwellTime": 2e-06,
  "EchoTime": 0.0272,
  "EchoTrainLength": 82,
  "EffectiveEchoSpacing": 0.00049,
  "FlipAngle": 44,
  "ImageComments": "Unaliased MB8/PE3",
  "ImageOrientationPatientDICOM": [0.993313, 0.0187448, 0.113918, -0.0353816, 0.988677, 0.145827],
  "ImageType": [
    "ORIGINAL",
    "PRIMARY",
    "M",
    "MB",
    "ND",
    "NORM",
    "MOSAIC"
],
  "ImagingFrequency": 123.252,
  "InPlanePhaseEncodingDirectionDICOM": "COL",
  "InstitutionAddress": "Maynard 3,Hanover,NH,US,03755",
  "InstitutionName": "Dartmouth College - PBS",
  "InstitutionalDepartmentName": "Department",
  "MRAcquisitionType": "2D",
  "MagneticFieldStrength": 3,
  "Manufacturer": "Siemens",
  "ManufacturersModelName": "Prisma",
  "Modality": "MR",
  "MultibandAccelerationFactor": 8,
  "PartialFourier": 1,
  "PatientPosition": "HFS",
  "PercentPhaseFOV": 100,
  "PercentSampling": 100,
  "PhaseEncodingDirection": "j-",
  "PhaseEncodingSteps": 82,
  "PhaseResolution": 1,
  "PixelBandwidth": 3050,
  "ProcedureStepDescription": "Wager_Wager^1076_spacetop",
  "ProtocolName": "func_run-06_task-social_acq-ap-mb8",
  "PulseSequenceDetails": "%CustomerSeq%\\cmrr_mbep2d_bold",
  "ReceiveCoilActiveElements": "HEA;HEP",
  "ReceiveCoilName": "Head_32",
  "ReconMatrixPE": 82,
  "RepetitionTime": 0.46,
  "SAR": 0.0945946,
  "ScanOptions": "FS",
  "ScanningSequence": "EP",
  "SequenceName": "epfid2d1_82",
  "SequenceVariant": "SK\\SS",
  "SeriesDescription": "func_run-06_task-social_acq-ap-mb8",
  "SeriesNumber": 22,
  "ShimSetting": [4174, -7757, -7287, 656, 17, -142, 47, 49],
  "SliceThickness": 2.7,
  "SliceTiming": [0, 0.2525, 0.065, 0.315, 0.1275, 0.3775, 0.19, 0, 0.2525, 0.065, 0.315, 0.1275, 0.3775, 0.19, 0, 0.2525, 0.065, 0.315, 0.1275, 0.3775, 0.19, 0, 0.2525, 0.065, 0.315, 0.1275, 0.3775, 0.19, 0, 0.2525, 0.065, 0.315, 0.1275, 0.3775, 0.19, 0, 0.2525, 0.065, 0.315, 0.1275, 0.3775, 0.19, 0, 0.2525, 0.065, 0.315, 0.1275, 0.3775, 0.19, 0, 0.2525, 0.065, 0.315, 0.1275, 0.3775, 0.19],
  "SoftwareVersions": "syngo MR E11",
  "SpacingBetweenSlices": 2.7,
  "StationName": "AWP66112",
  "TaskName": "social",
  "TotalReadoutTime": 0.03969,
  "TxRefAmp": 260.362,
  "WipMemBlock": "f9fc0fab-f60b-496a-b86e-bcce8f9827a2||Sequence: R016 ve11c/master r/e634e98; Dec 19 2017 11:00:25 by eja",
  "dcmmeta_affine": [
    [-2.6649868488311768, -0.09492626041173935, 0.29671674966812134, 110.30409240722656],
    [-0.0502910353243351, 2.6525485515594482, 0.4019835293292999, -99.29570007324219],
    [0.3056349754333496, -0.39124393463134766, 2.653369188308716, -60.849605560302734],
    [0.0, 0.0, 0.0, 1.0]
],
  "dcmmeta_reorient_transform": [
    [0.0, -1.0, 0.0, 81.0],
    [1.0, 0.0, 0.0, 0.0],
    [0.0, 0.0, 1.0, 0.0],
    [0.0, 0.0, 0.0, 1.0]
],
  "dcmmeta_shape": [82, 82, 56, 872],
  "dcmmeta_slice_dim": 2,
  "dcmmeta_version": 0.6,
  "global": {
    "const": {
      "AccessionNumber": "A003773",
      "AcquisitionMatrix": [82, 0, 0, 82],
      "AngioFlag": "N",
      "BitsAllocated": 16,
      "BitsStored": 16,
      "BodyPartExamined": "BRAIN",
      "Columns": 656,
      "EchoNumbers": 1,
      "EchoTime": 27.2,
      "EchoTrainLength": 82,
      "FlipAngle": 44.0,
      "HighBit": 15,
      "ImageOrientationPatient": [0.99331324877383, 0.01874484051424, 0.11391848298008, -0.0353816064067, 0.98867716989887, 0.14582728019424],
      "ImagePositionPatient": [-840.22244579511, -891.27570163279, -292.54460742639],
      "ImageType": [
        "ORIGINAL",
        "PRIMARY",
        "M",
        "MB",
        "ND",
        "NORM",
        "MOSAIC"
],
      "ImagedNucleus": "1H",
      "ImagingFrequency": 123.252186,
      "InPlanePhaseEncodingDirection": "COL",
      "MRAcquisitionType": "2D",
      "MagneticFieldStrength": 3.0,
      "Manufacturer": "SIEMENS",
      "ManufacturerModelName": "Prisma",
      "Modality": "MR",
      "NumberOfAverages": 1.0,
      "NumberOfPhaseEncodingSteps": 82,
      "PercentPhaseFieldOfView": 100.0,
      "PercentSampling": 100.0,
      "PerformedProcedureStepStartTime": "090619.618000",
      "PhotometricInterpretation": "MONOCHROME2",
      "PixelBandwidth": 3050.0,
      "PixelRepresentation": 0,
      "PixelSpacing": [2.6829268932343, 2.6829268932343],
      "ProtocolName": "func_run-06_task-social_acq-ap-mb8",
      "RepetitionTime": 460.0,
      "Rows": 656,
      "SAR": 0.09459460196875,
      "SamplesPerPixel": 1,
      "ScanOptions": "FS",
      "ScanningSequence": "EP",
      "SequenceName": "epfid2d1_82",
      "SequenceVariant": [
        "SK",
        "SS"
],
      "SeriesDescription": "func_run-06_task-social_acq-ap-mb8",
      "SeriesNumber": 22,
      "SeriesTime": "102050.087000",
      "SliceLocation": -62.460236591341,
      "SliceThickness": 2.7000000476837,
      "SmallestImagePixelValue": 0,
      "SoftwareVersions": "syngo MR E11",
      "SpacingBetweenSlices": 2.700000023978,
      "SpecificCharacterSet": "ISO_IR 100",
      "StudyID": "5",
      "StudyTime": "090619.493000",
      "TransmitCoilName": "Body",
      "VariableFlipAngleFlag": "N",
      "WindowCenterWidthExplanation": "Algo1",
      "dBdt": 0.0},
    "slices": {}
  },
  "time": {
    "samples": {
      "AcquisitionNumber": [1, 2, 3, 4, 5, 6, 7, 8, 9, 10, 11, 12, 13, 14, 15, 16, 17, 18, 19, 20, 21, 22, 23, 24, 25, 26, 27, 28, 29, 30, 31, 32, 33, 34, 35, 36, 37, 38, 39, 40, 41, 42, 43, 44, 45, 46, 47, 48, 49, 50, 51, 52, 53, 54, 55, 56, 57, 58, 59, 60, 61, 62, 63, 64, 65, 66, 67, 68, 69, 70, 71, 72, 73, 74, 75, 76, 77, 78, 79, 80, 81, 82, 83, 84, 85, 86, 87, 88, 89, 90, 91, 92, 93, 94, 95, 96, 97, 98, 99, 100, 101, 102, 103, 104, 105, 106, 107, 108, 109, 110, 111, 112, 113, 114, 115, 116, 117, 118, 119, 120, 121, 122, 123, 124, 125, 126, 127, 128, 129, 130, 131, 132, 133, 134, 135, 136, 137, 138, 139, 140, 141, 142, 143, 144, 145, 146, 147, 148, 149, 150, 151, 152, 153, 154, 155, 156, 157, 158, 159, 160, 161, 162, 163, 164, 165, 166, 167, 168, 169, 170, 171, 172, 173, 174, 175, 176, 177, 178, 179, 180, 181, 182, 183, 184, 185, 186, 187, 188, 189, 190, 191, 192, 193, 194, 195, 196, 197, 198, 199, 200, 201, 202, 203, 204, 205, 206, 207, 208, 209, 210, 211, 212, 213, 214, 215, 216, 217, 218, 219, 220, 221, 222, 223, 224, 225, 226, 227, 228, 229, 230, 231, 232, 233, 234, 235, 236, 237, 238, 239, 240, 241, 242, 243, 244, 245, 246, 247, 248, 249, 250, 251, 252, 253, 254, 255, 256, 257, 258, 259, 260, 261, 262, 263, 264, 265, 266, 267, 268, 269, 270, 271, 272, 273, 274, 275, 276, 277, 278, 279, 280, 281, 282, 283, 284, 285, 286, 287, 288, 289, 290, 291, 292, 293, 294, 295, 296, 297, 298, 299, 300, 301, 302, 303, 304, 305, 306, 307, 308, 309, 310, 311, 312, 313, 314, 315, 316, 317, 318, 319, 320, 321, 322, 323, 324, 325, 326, 327, 328, 329, 330, 331, 332, 333, 334, 335, 336, 337, 338, 339, 340, 341, 342, 343, 344, 345, 346, 347, 348, 349, 350, 351, 352, 353, 354, 355, 356, 357, 358, 359, 360, 361, 362, 363, 364, 365, 366, 367, 368, 369, 370, 371, 372, 373, 374, 375, 376, 377, 378, 379, 380, 381, 382, 383, 384, 385, 386, 387, 388, 389, 390, 391, 392, 393, 394, 395, 396, 397, 398, 399, 400, 401, 402, 403, 404, 405, 406, 407, 408, 409, 410, 411, 412, 413, 414, 415, 416, 417, 418, 419, 420, 421, 422, 423, 424, 425, 426, 427, 428, 429, 430, 431, 432, 433, 434, 435, 436, 437, 438, 439, 440, 441, 442, 443, 444, 445, 446, 447, 448, 449, 450, 451, 452, 453, 454, 455, 456, 457, 458, 459, 460, 461, 462, 463, 464, 465, 466, 467, 468, 469, 470, 471, 472, 473, 474, 475, 476, 477, 478, 479, 480, 481, 482, 483, 484, 485, 486, 487, 488, 489, 490, 491, 492, 493, 494, 495, 496, 497, 498, 499, 500, 501, 502, 503, 504, 505, 506, 507, 508, 509, 510, 511, 512, 513, 514, 515, 516, 517, 518, 519, 520, 521, 522, 523, 524, 525, 526, 527, 528, 529, 530, 531, 532, 533, 534, 535, 536, 537, 538, 539, 540, 541, 542, 543, 544, 545, 546, 547, 548, 549, 550, 551, 552, 553, 554, 555, 556, 557, 558, 559, 560, 561, 562, 563, 564, 565, 566, 567, 568, 569, 570, 571, 572, 573, 574, 575, 576, 577, 578, 579, 580, 581, 582, 583, 584, 585, 586, 587, 588, 589, 590, 591, 592, 593, 594, 595, 596, 597, 598, 599, 600, 601, 602, 603, 604, 605, 606, 607, 608, 609, 610, 611, 612, 613, 614, 615, 616, 617, 618, 619, 620, 621, 622, 623, 624, 625, 626, 627, 628, 629, 630, 631, 632, 633, 634, 635, 636, 637, 638, 639, 640, 641, 642, 643, 644, 645, 646, 647, 648, 649, 650, 651, 652, 653, 654, 655, 656, 657, 658, 659, 660, 661, 662, 663, 664, 665, 666, 667, 668, 669, 670, 671, 672, 673, 674, 675, 676, 677, 678, 679, 680, 681, 682, 683, 684, 685, 686, 687, 688, 689, 690, 691, 692, 693, 694, 695, 696, 697, 698, 699, 700, 701, 702, 703, 704, 705, 706, 707, 708, 709, 710, 711, 712, 713, 714, 715, 716, 717, 718, 719, 720, 721, 722, 723, 724, 725, 726, 727, 728, 729, 730, 731, 732, 733, 734, 735, 736, 737, 738, 739, 740, 741, 742, 743, 744, 745, 746, 747, 748, 749, 750, 751, 752, 753, 754, 755, 756, 757, 758, 759, 760, 761, 762, 763, 764, 765, 766, 767, 768, 769, 770, 771, 772, 773, 774, 775, 776, 777, 778, 779, 780, 781, 782, 783, 784, 785, 786, 787, 788, 789, 790, 791, 792, 793, 794, 795, 796, 797, 798, 799, 800, 801, 802, 803, 804, 805, 806, 807, 808, 809, 810, 811, 812, 813, 814, 815, 816, 817, 818, 819, 820, 821, 822, 823, 824, 825, 826, 827, 828, 829, 830, 831, 832, 833, 834, 835, 836, 837, 838, 839, 840, 841, 842, 843, 844, 845, 846, 847, 848, 849, 850, 851, 852, 853, 854, 855, 856, 857, 858, 859, 860, 861, 862, 863, 864, 865, 866, 867, 868, 869, 870, 871, 872],
      "AcquisitionTime": ["102031.690000", "102032.150000", "102032.610000", "102033.070000", "102033.530000", "102033.990000", "102034.450000", "102034.910000", "102035.370000", "102035.830000", "102036.290000", "102036.750000", "102037.210000", "102037.670000", "102038.130000", "102038.590000", "102039.050000", "102039.510000", "102039.970000", "102040.430000", "102040.890000", "102041.350000", "102041.810000", "102042.270000", "102042.730000", "102043.190000", "102043.650000", "102044.110000", "102044.570000", "102045.030000", "102045.490000", "102045.950000", "102046.410000", "102046.870000", "102047.330000", "102047.790000", "102048.250000", "102048.710000", "102049.170000", "102049.630000", "102050.090000", "102050.550000", "102051.010000", "102051.470000", "102051.930000", "102052.390000", "102052.850000", "102053.310000", "102053.770000", "102054.230000", "102054.690000", "102055.150000", "102055.610000", "102056.070000", "102056.530000", "102056.990000", "102057.450000", "102057.910000", "102058.370000", "102058.830000", "102059.290000", "102059.750000", "102100.210000", "102100.670000", "102101.130000", "102101.590000", "102102.050000", "102102.510000", "102102.970000", "102103.430000", "102103.890000", "102104.350000", "102104.810000", "102105.270000", "102105.730000", "102106.190000", "102106.650000", "102107.110000", "102107.570000", "102108.030000", "102108.490000", "102108.950000", "102109.410000", "102109.870000", "102110.330000", "102110.790000", "102111.250000", "102111.710000", "102112.170000", "102112.630000", "102113.090000", "102113.550000", "102114.010000", "102114.470000", "102114.930000", "102115.390000", "102115.850000", "102116.310000", "102116.770000", "102117.230000", "102117.690000", "102118.150000", "102118.610000", "102119.070000", "102119.530000", "102119.990000", "102120.450000", "102120.910000", "102121.370000", "102121.830000", "102122.290000", "102122.750000", "102123.210000", "102123.670000", "102124.130000", "102124.590000", "102125.050000", "102125.510000", "102125.970000", "102126.430000", "102126.890000", "102127.350000", "102127.810000", "102128.270000", "102128.730000", "102129.190000", "102129.650000", "102130.110000", "102130.570000", "102131.030000", "102131.490000", "102131.950000", "102132.410000", "102132.870000", "102133.330000", "102133.790000", "102134.250000", "102134.710000", "102135.170000", "102135.630000", "102136.090000", "102136.550000", "102137.010000", "102137.470000", "102137.930000", "102138.390000", "102138.850000", "102139.310000", "102139.770000", "102140.230000", "102140.690000", "102141.150000", "102141.610000", "102142.070000", "102142.530000", "102142.990000", "102143.450000", "102143.910000", "102144.370000", "102144.830000", "102145.290000", "102145.750000", "102146.210000", "102146.670000", "102147.130000", "102147.590000", "102148.050000", "102148.510000", "102148.970000", "102149.430000", "102149.890000", "102150.350000", "102150.810000", "102151.270000", "102151.730000", "102152.190000", "102152.650000", "102153.110000", "102153.570000", "102154.030000", "102154.490000", "102154.950000", "102155.410000", "102155.870000", "102156.330000", "102156.790000", "102157.250000", "102157.710000", "102158.170000", "102158.630000", "102159.090000", "102159.550000", "102200.010000", "102200.470000", "102200.930000", "102201.390000", "102201.850000", "102202.310000", "102202.770000", "102203.230000", "102203.690000", "102204.150000", "102204.610000", "102205.070000", "102205.530000", "102205.990000", "102206.450000", "102206.910000", "102207.370000", "102207.830000", "102208.290000", "102208.750000", "102209.210000", "102209.670000", "102210.130000", "102210.590000", "102211.050000", "102211.510000", "102211.970000", "102212.430000", "102212.890000", "102213.350000", "102213.810000", "102214.270000", "102214.730000", "102215.190000", "102215.650000", "102216.110000", "102216.570000", "102217.030000", "102217.490000", "102217.950000", "102218.410000", "102218.870000", "102219.330000", "102219.790000", "102220.250000", "102220.710000", "102221.170000", "102221.630000", "102222.090000", "102222.550000", "102223.010000", "102223.470000", "102223.930000", "102224.390000", "102224.850000", "102225.310000", "102225.770000", "102226.230000", "102226.690000", "102227.150000", "102227.610000", "102228.070000", "102228.530000", "102228.990000", "102229.450000", "102229.910000", "102230.370000", "102230.830000", "102231.290000", "102231.750000", "102232.210000", "102232.670000", "102233.130000", "102233.590000", "102234.050000", "102234.510000", "102234.970000", "102235.430000", "102235.890000", "102236.350000", "102236.810000", "102237.270000", "102237.730000", "102238.190000", "102238.650000", "102239.110000", "102239.570000", "102240.030000", "102240.490000", "102240.950000", "102241.410000", "102241.870000", "102242.330000", "102242.790000", "102243.250000", "102243.710000", "102244.170000", "102244.630000", "102245.090000", "102245.550000", "102246.010000", "102246.470000", "102246.930000", "102247.390000", "102247.850000", "102248.310000", "102248.770000", "102249.230000", "102249.690000", "102250.150000", "102250.610000", "102251.070000", "102251.530000", "102251.990000", "102252.450000", "102252.910000", "102253.370000", "102253.830000", "102254.290000", "102254.750000", "102255.210000", "102255.670000", "102256.130000", "102256.590000", "102257.050000", "102257.510000", "102257.970000", "102258.430000", "102258.890000", "102259.350000", "102259.810000", "102300.270000", "102300.730000", "102301.190000", "102301.650000", "102302.110000", "102302.570000", "102303.030000", "102303.490000", "102303.950000", "102304.410000", "102304.870000", "102305.330000", "102305.790000", "102306.250000", "102306.710000", "102307.170000", "102307.630000", "102308.090000", "102308.550000", "102309.010000", "102309.470000", "102309.930000", "102310.390000", "102310.850000", "102311.310000", "102311.770000", "102312.230000", "102312.690000", "102313.150000", "102313.610000", "102314.070000", "102314.530000", "102314.990000", "102315.450000", "102315.910000", "102316.370000", "102316.830000", "102317.290000", "102317.750000", "102318.210000", "102318.670000", "102319.130000", "102319.590000", "102320.050000", "102320.510000", "102320.970000", "102321.430000", "102321.890000", "102322.350000", "102322.810000", "102323.270000", "102323.730000", "102324.190000", "102324.650000", "102325.110000", "102325.570000", "102326.030000", "102326.490000", "102326.950000", "102327.410000", "102327.870000", "102328.330000", "102328.790000", "102329.250000", "102329.710000", "102330.170000", "102330.630000", "102331.090000", "102331.550000", "102332.010000", "102332.470000", "102332.930000", "102333.390000", "102333.850000", "102334.310000", "102334.770000", "102335.230000", "102335.690000", "102336.150000", "102336.610000", "102337.070000", "102337.530000", "102337.990000", "102338.450000", "102338.910000", "102339.370000", "102339.830000", "102340.290000", "102340.750000", "102341.210000", "102341.670000", "102342.130000", "102342.590000", "102343.050000", "102343.510000", "102343.970000", "102344.430000", "102344.890000", "102345.350000", "102345.810000", "102346.270000", "102346.730000", "102347.190000", "102347.650000", "102348.110000", "102348.570000", "102349.030000", "102349.490000", "102349.950000", "102350.410000", "102350.870000", "102351.330000", "102351.790000", "102352.250000", "102352.710000", "102353.170000", "102353.630000", "102354.090000", "102354.550000", "102355.010000", "102355.470000", "102355.930000", "102356.390000", "102356.850000", "102357.310000", "102357.770000", "102358.230000", "102358.690000", "102359.150000", "102359.610000", "102400.070000", "102400.530000", "102400.990000", "102401.450000", "102401.910000", "102402.370000", "102402.830000", "102403.290000", "102403.750000", "102404.210000", "102404.670000", "102405.130000", "102405.590000", "102406.050000", "102406.510000", "102406.970000", "102407.430000", "102407.890000", "102408.350000", "102408.810000", "102409.270000", "102409.730000", "102410.190000", "102410.650000", "102411.110000", "102411.570000", "102412.030000", "102412.490000", "102412.950000", "102413.410000", "102413.870000", "102414.330000", "102414.790000", "102415.250000", "102415.710000", "102416.170000", "102416.630000", "102417.090000", "102417.550000", "102418.010000", "102418.470000", "102418.930000", "102419.390000", "102419.850000", "102420.310000", "102420.770000", "102421.230000", "102421.690000", "102422.150000", "102422.610000", "102423.070000", "102423.530000", "102423.990000", "102424.450000", "102424.910000", "102425.370000", "102425.830000", "102426.290000", "102426.750000", "102427.210000", "102427.670000", "102428.130000", "102428.590000", "102429.050000", "102429.510000", "102429.970000", "102430.430000", "102430.890000", "102431.350000", "102431.810000", "102432.270000", "102432.730000", "102433.190000", "102433.650000", "102434.110000", "102434.570000", "102435.030000", "102435.490000", "102435.950000", "102436.410000", "102436.870000", "102437.330000", "102437.790000", "102438.250000", "102438.710000", "102439.170000", "102439.630000", "102440.090000", "102440.550000", "102441.010000", "102441.470000", "102441.930000", "102442.390000", "102442.850000", "102443.310000", "102443.770000", "102444.230000", "102444.690000", "102445.150000", "102445.610000", "102446.070000", "102446.530000", "102446.990000", "102447.450000", "102447.910000", "102448.370000", "102448.830000", "102449.290000", "102449.750000", "102450.210000", "102450.670000", "102451.130000", "102451.590000", "102452.050000", "102452.510000", "102452.970000", "102453.430000", "102453.890000", "102454.350000", "102454.810000", "102455.270000", "102455.730000", "102456.190000", "102456.650000", "102457.110000", "102457.570000", "102458.030000", "102458.490000", "102458.950000", "102459.410000", "102459.870000", "102500.330000", "102500.790000", "102501.250000", "102501.710000", "102502.170000", "102502.630000", "102503.090000", "102503.550000", "102504.010000", "102504.470000", "102504.930000", "102505.390000", "102505.850000", "102506.310000", "102506.770000", "102507.230000", "102507.690000", "102508.150000", "102508.610000", "102509.070000", "102509.530000", "102509.990000", "102510.450000", "102510.910000", "102511.370000", "102511.830000", "102512.290000", "102512.750000", "102513.210000", "102513.670000", "102514.130000", "102514.590000", "102515.050000", "102515.510000", "102515.970000", "102516.430000", "102516.890000", "102517.350000", "102517.810000", "102518.270000", "102518.730000", "102519.190000", "102519.650000", "102520.110000", "102520.570000", "102521.030000", "102521.490000", "102521.950000", "102522.410000", "102522.870000", "102523.330000", "102523.790000", "102524.250000", "102524.710000", "102525.170000", "102525.630000", "102526.090000", "102526.550000", "102527.010000", "102527.470000", "102527.930000", "102528.390000", "102528.850000", "102529.310000", "102529.770000", "102530.230000", "102530.690000", "102531.150000", "102531.610000", "102532.070000", "102532.530000", "102532.990000", "102533.450000", "102533.910000", "102534.370000", "102534.830000", "102535.290000", "102535.750000", "102536.210000", "102536.670000", "102537.130000", "102537.590000", "102538.050000", "102538.510000", "102538.970000", "102539.430000", "102539.890000", "102540.350000", "102540.810000", "102541.270000", "102541.730000", "102542.190000", "102542.650000", "102543.110000", "102543.570000", "102544.030000", "102544.490000", "102544.950000", "102545.410000", "102545.870000", "102546.330000", "102546.790000", "102547.250000", "102547.710000", "102548.170000", "102548.630000", "102549.090000", "102549.550000", "102550.010000", "102550.470000", "102550.930000", "102551.390000", "102551.850000", "102552.310000", "102552.770000", "102553.230000", "102553.690000", "102554.150000", "102554.610000", "102555.070000", "102555.530000", "102555.990000", "102556.450000", "102556.910000", "102557.370000", "102557.830000", "102558.290000", "102558.750000", "102559.210000", "102559.670000", "102600.130000", "102600.590000", "102601.050000", "102601.510000", "102601.970000", "102602.430000", "102602.890000", "102603.350000", "102603.810000", "102604.270000", "102604.730000", "102605.190000", "102605.650000", "102606.110000", "102606.570000", "102607.030000", "102607.490000", "102607.950000", "102608.410000", "102608.870000", "102609.330000", "102609.790000", "102610.250000", "102610.710000", "102611.170000", "102611.630000", "102612.090000", "102612.550000", "102613.010000", "102613.470000", "102613.930000", "102614.390000", "102614.850000", "102615.310000", "102615.770000", "102616.230000", "102616.690000", "102617.150000", "102617.610000", "102618.070000", "102618.530000", "102618.990000", "102619.450000", "102619.910000", "102620.370000", "102620.830000", "102621.290000", "102621.750000", "102622.210000", "102622.670000", "102623.130000", "102623.590000", "102624.050000", "102624.510000", "102624.970000", "102625.430000", "102625.890000", "102626.350000", "102626.810000", "102627.270000", "102627.730000", "102628.190000", "102628.650000", "102629.110000", "102629.570000", "102630.030000", "102630.490000", "102630.950000", "102631.410000", "102631.870000", "102632.330000", "102632.790000", "102633.250000", "102633.710000", "102634.170000", "102634.630000", "102635.090000", "102635.550000", "102636.010000", "102636.470000", "102636.930000", "102637.390000", "102637.850000", "102638.310000", "102638.770000", "102639.230000", "102639.690000", "102640.150000", "102640.610000", "102641.070000", "102641.530000", "102641.990000", "102642.450000", "102642.910000", "102643.370000", "102643.830000", "102644.290000", "102644.750000", "102645.210000", "102645.670000", "102646.130000", "102646.590000", "102647.050000", "102647.510000", "102647.970000", "102648.430000", "102648.890000", "102649.350000", "102649.810000", "102650.270000", "102650.730000", "102651.190000", "102651.650000", "102652.110000", "102652.570000", "102653.030000", "102653.490000", "102653.950000", "102654.410000", "102654.870000", "102655.330000", "102655.790000", "102656.250000", "102656.710000", "102657.170000", "102657.630000", "102658.090000", "102658.550000", "102659.010000", "102659.470000", "102659.930000", "102700.390000", "102700.850000", "102701.310000", "102701.770000", "102702.230000", "102702.690000", "102703.150000", "102703.610000", "102704.070000", "102704.530000", "102704.990000", "102705.450000", "102705.910000", "102706.370000", "102706.830000", "102707.290000", "102707.750000", "102708.210000", "102708.670000", "102709.130000", "102709.590000", "102710.050000", "102710.510000", "102710.970000", "102711.430000", "102711.890000", "102712.350000"],
