{
  "AcquisitionMatrixPE": 82,
  "AcquisitionNumber": 1,
  "AcquisitionTime": "09:58:14.355000",
  "BandwidthPerPixelPhaseEncode": 24.888,
  "BaseResolution": 82,
  "BodyPartExamined": "BRAIN",
  "ConsistencyInfo": "N4_VE11C_LATEST_20160120",
  "ConversionSoftware": "dcm2niix",
  "ConversionSoftwareVersion": "v1.0.20201102",
  "DerivedVendorReportedEchoSpacing": 0.00049,
  "DeviceSerialNumber": "66112",
  "DwellTime": 2e-06,
  "EchoTime": 0.0272,
  "EchoTrainLength": 82,
  "EffectiveEchoSpacing": 0.00049,
  "FlipAngle": 44,
  "ImageComments": "Unaliased MB8/PE3",
  "ImageOrientationPatientDICOM": [0.993313, 0.0187448, 0.113918, -0.0353816, 0.988677, 0.145827],
  "ImageType": [
    "ORIGINAL",
    "PRIMARY",
    "M",
    "MB",
    "ND",
    "NORM",
    "MOSAIC"
],
  "ImagingFrequency": 123.252,
  "InPlanePhaseEncodingDirectionDICOM": "COL",
  "InstitutionAddress": "Maynard 3,Hanover,NH,US,03755",
  "InstitutionName": "Dartmouth College - PBS",
  "InstitutionalDepartmentName": "Department",
  "MRAcquisitionType": "2D",
  "MagneticFieldStrength": 3,
  "Manufacturer": "Siemens",
  "ManufacturersModelName": "Prisma",
  "Modality": "MR",
  "MultibandAccelerationFactor": 8,
  "PartialFourier": 1,
  "PatientPosition": "HFS",
  "PercentPhaseFOV": 100,
  "PercentSampling": 100,
  "PhaseEncodingDirection": "j-",
  "PhaseEncodingSteps": 82,
  "PhaseResolution": 1,
  "PixelBandwidth": 3050,
  "ProcedureStepDescription": "Wager_Wager^1076_spacetop",
  "ProtocolName": "func_run-03_task-social_acq-ap-mb8",
  "PulseSequenceDetails": "%CustomerSeq%\\cmrr_mbep2d_bold",
  "ReceiveCoilActiveElements": "HEA;HEP",
  "ReceiveCoilName": "Head_32",
  "ReconMatrixPE": 82,
  "RepetitionTime": 0.46,
  "SAR": 0.0945946,
  "ScanOptions": "FS",
  "ScanningSequence": "EP",
  "SequenceName": "epfid2d1_82",
  "SequenceVariant": "SK\\SS",
  "SeriesDescription": "func_run-03_task-social_acq-ap-mb8",
  "SeriesNumber": 16,
  "ShimSetting": [4174, -7757, -7287, 656, 17, -142, 47, 49],
  "SliceThickness": 2.7,
  "SliceTiming": [0, 0.2525, 0.065, 0.315, 0.1275, 0.3775, 0.19, 0, 0.2525, 0.065, 0.315, 0.1275, 0.3775, 0.19, 0, 0.2525, 0.065, 0.315, 0.1275, 0.3775, 0.19, 0, 0.2525, 0.065, 0.315, 0.1275, 0.3775, 0.19, 0, 0.2525, 0.065, 0.315, 0.1275, 0.3775, 0.19, 0, 0.2525, 0.065, 0.315, 0.1275, 0.3775, 0.19, 0, 0.2525, 0.065, 0.315, 0.1275, 0.3775, 0.19, 0, 0.2525, 0.065, 0.315, 0.1275, 0.3775, 0.19],
  "SoftwareVersions": "syngo MR E11",
  "SpacingBetweenSlices": 2.7,
  "StationName": "AWP66112",
  "TaskName": "social",
  "TotalReadoutTime": 0.03969,
  "TxRefAmp": 260.362,
  "WipMemBlock": "9c10585e-e902-4da4-b8a0-836146beac0e||Sequence: R016 ve11c/master r/e634e98; Dec 19 2017 11:00:25 by eja",
  "dcmmeta_affine": [
    [-2.6649868488311768, -0.09492626041173935, 0.29671674966812134, 110.30409240722656],
    [-0.0502910353243351, 2.6525485515594482, 0.4019835293292999, -99.29570007324219],
    [0.3056349754333496, -0.39124393463134766, 2.653369188308716, -60.849605560302734],
    [0.0, 0.0, 0.0, 1.0]
],
  "dcmmeta_reorient_transform": [
    [0.0, -1.0, 0.0, 81.0],
    [1.0, 0.0, 0.0, 0.0],
    [0.0, 0.0, 1.0, 0.0],
    [0.0, 0.0, 0.0, 1.0]
],
  "dcmmeta_shape": [82, 82, 56, 872],
  "dcmmeta_slice_dim": 2,
  "dcmmeta_version": 0.6,
  "global": {
    "const": {
      "AccessionNumber": "A003773",
      "AcquisitionMatrix": [82, 0, 0, 82],
      "AngioFlag": "N",
      "BitsAllocated": 16,
      "BitsStored": 16,
      "BodyPartExamined": "BRAIN",
      "Columns": 656,
      "EchoNumbers": 1,
      "EchoTime": 27.2,
      "EchoTrainLength": 82,
      "FlipAngle": 44.0,
      "HighBit": 15,
      "ImageOrientationPatient": [0.99331324877383, 0.01874484051424, 0.11391848298008, -0.0353816064067, 0.98867716989887, 0.14582728019424],
      "ImagePositionPatient": [-840.22244579511, -891.27570163279, -292.54460742639],
      "ImageType": [
        "ORIGINAL",
        "PRIMARY",
        "M",
        "MB",
        "ND",
        "NORM",
        "MOSAIC"
],
      "ImagedNucleus": "1H",
      "ImagingFrequency": 123.252182,
      "InPlanePhaseEncodingDirection": "COL",
      "MRAcquisitionType": "2D",
      "MagneticFieldStrength": 3.0,
      "Manufacturer": "SIEMENS",
      "ManufacturerModelName": "Prisma",
      "Modality": "MR",
      "NumberOfAverages": 1.0,
      "NumberOfPhaseEncodingSteps": 82,
      "PercentPhaseFieldOfView": 100.0,
      "PercentSampling": 100.0,
      "PerformedProcedureStepStartTime": "090619.618000",
      "PhotometricInterpretation": "MONOCHROME2",
      "PixelBandwidth": 3050.0,
      "PixelRepresentation": 0,
      "PixelSpacing": [2.6829268932343, 2.6829268932343],
      "ProtocolName": "func_run-03_task-social_acq-ap-mb8",
      "RepetitionTime": 460.0,
      "Rows": 656,
      "SAR": 0.09459460196875,
      "SamplesPerPixel": 1,
      "ScanOptions": "FS",
      "ScanningSequence": "EP",
      "SequenceName": "epfid2d1_82",
      "SequenceVariant": [
        "SK",
        "SS"
],
      "SeriesDescription": "func_run-03_task-social_acq-ap-mb8",
      "SeriesNumber": 16,
      "SeriesTime": "095830.084000",
      "SliceLocation": -62.460236591341,
      "SliceThickness": 2.7000000476837,
      "SmallestImagePixelValue": 0,
      "SoftwareVersions": "syngo MR E11",
      "SpacingBetweenSlices": 2.700000023978,
      "SpecificCharacterSet": "ISO_IR 100",
      "StudyID": "5",
      "StudyTime": "090619.493000",
      "TransmitCoilName": "Body",
      "VariableFlipAngleFlag": "N",
      "WindowCenterWidthExplanation": "Algo1",
      "dBdt": 0.0},
    "slices": {}
  },
  "time": {
    "samples": {
      "AcquisitionNumber": [1, 2, 3, 4, 5, 6, 7, 8, 9, 10, 11, 12, 13, 14, 15, 16, 17, 18, 19, 20, 21, 22, 23, 24, 25, 26, 27, 28, 29, 30, 31, 32, 33, 34, 35, 36, 37, 38, 39, 40, 41, 42, 43, 44, 45, 46, 47, 48, 49, 50, 51, 52, 53, 54, 55, 56, 57, 58, 59, 60, 61, 62, 63, 64, 65, 66, 67, 68, 69, 70, 71, 72, 73, 74, 75, 76, 77, 78, 79, 80, 81, 82, 83, 84, 85, 86, 87, 88, 89, 90, 91, 92, 93, 94, 95, 96, 97, 98, 99, 100, 101, 102, 103, 104, 105, 106, 107, 108, 109, 110, 111, 112, 113, 114, 115, 116, 117, 118, 119, 120, 121, 122, 123, 124, 125, 126, 127, 128, 129, 130, 131, 132, 133, 134, 135, 136, 137, 138, 139, 140, 141, 142, 143, 144, 145, 146, 147, 148, 149, 150, 151, 152, 153, 154, 155, 156, 157, 158, 159, 160, 161, 162, 163, 164, 165, 166, 167, 168, 169, 170, 171, 172, 173, 174, 175, 176, 177, 178, 179, 180, 181, 182, 183, 184, 185, 186, 187, 188, 189, 190, 191, 192, 193, 194, 195, 196, 197, 198, 199, 200, 201, 202, 203, 204, 205, 206, 207, 208, 209, 210, 211, 212, 213, 214, 215, 216, 217, 218, 219, 220, 221, 222, 223, 224, 225, 226, 227, 228, 229, 230, 231, 232, 233, 234, 235, 236, 237, 238, 239, 240, 241, 242, 243, 244, 245, 246, 247, 248, 249, 250, 251, 252, 253, 254, 255, 256, 257, 258, 259, 260, 261, 262, 263, 264, 265, 266, 267, 268, 269, 270, 271, 272, 273, 274, 275, 276, 277, 278, 279, 280, 281, 282, 283, 284, 285, 286, 287, 288, 289, 290, 291, 292, 293, 294, 295, 296, 297, 298, 299, 300, 301, 302, 303, 304, 305, 306, 307, 308, 309, 310, 311, 312, 313, 314, 315, 316, 317, 318, 319, 320, 321, 322, 323, 324, 325, 326, 327, 328, 329, 330, 331, 332, 333, 334, 335, 336, 337, 338, 339, 340, 341, 342, 343, 344, 345, 346, 347, 348, 349, 350, 351, 352, 353, 354, 355, 356, 357, 358, 359, 360, 361, 362, 363, 364, 365, 366, 367, 368, 369, 370, 371, 372, 373, 374, 375, 376, 377, 378, 379, 380, 381, 382, 383, 384, 385, 386, 387, 388, 389, 390, 391, 392, 393, 394, 395, 396, 397, 398, 399, 400, 401, 402, 403, 404, 405, 406, 407, 408, 409, 410, 411, 412, 413, 414, 415, 416, 417, 418, 419, 420, 421, 422, 423, 424, 425, 426, 427, 428, 429, 430, 431, 432, 433, 434, 435, 436, 437, 438, 439, 440, 441, 442, 443, 444, 445, 446, 447, 448, 449, 450, 451, 452, 453, 454, 455, 456, 457, 458, 459, 460, 461, 462, 463, 464, 465, 466, 467, 468, 469, 470, 471, 472, 473, 474, 475, 476, 477, 478, 479, 480, 481, 482, 483, 484, 485, 486, 487, 488, 489, 490, 491, 492, 493, 494, 495, 496, 497, 498, 499, 500, 501, 502, 503, 504, 505, 506, 507, 508, 509, 510, 511, 512, 513, 514, 515, 516, 517, 518, 519, 520, 521, 522, 523, 524, 525, 526, 527, 528, 529, 530, 531, 532, 533, 534, 535, 536, 537, 538, 539, 540, 541, 542, 543, 544, 545, 546, 547, 548, 549, 550, 551, 552, 553, 554, 555, 556, 557, 558, 559, 560, 561, 562, 563, 564, 565, 566, 567, 568, 569, 570, 571, 572, 573, 574, 575, 576, 577, 578, 579, 580, 581, 582, 583, 584, 585, 586, 587, 588, 589, 590, 591, 592, 593, 594, 595, 596, 597, 598, 599, 600, 601, 602, 603, 604, 605, 606, 607, 608, 609, 610, 611, 612, 613, 614, 615, 616, 617, 618, 619, 620, 621, 622, 623, 624, 625, 626, 627, 628, 629, 630, 631, 632, 633, 634, 635, 636, 637, 638, 639, 640, 641, 642, 643, 644, 645, 646, 647, 648, 649, 650, 651, 652, 653, 654, 655, 656, 657, 658, 659, 660, 661, 662, 663, 664, 665, 666, 667, 668, 669, 670, 671, 672, 673, 674, 675, 676, 677, 678, 679, 680, 681, 682, 683, 684, 685, 686, 687, 688, 689, 690, 691, 692, 693, 694, 695, 696, 697, 698, 699, 700, 701, 702, 703, 704, 705, 706, 707, 708, 709, 710, 711, 712, 713, 714, 715, 716, 717, 718, 719, 720, 721, 722, 723, 724, 725, 726, 727, 728, 729, 730, 731, 732, 733, 734, 735, 736, 737, 738, 739, 740, 741, 742, 743, 744, 745, 746, 747, 748, 749, 750, 751, 752, 753, 754, 755, 756, 757, 758, 759, 760, 761, 762, 763, 764, 765, 766, 767, 768, 769, 770, 771, 772, 773, 774, 775, 776, 777, 778, 779, 780, 781, 782, 783, 784, 785, 786, 787, 788, 789, 790, 791, 792, 793, 794, 795, 796, 797, 798, 799, 800, 801, 802, 803, 804, 805, 806, 807, 808, 809, 810, 811, 812, 813, 814, 815, 816, 817, 818, 819, 820, 821, 822, 823, 824, 825, 826, 827, 828, 829, 830, 831, 832, 833, 834, 835, 836, 837, 838, 839, 840, 841, 842, 843, 844, 845, 846, 847, 848, 849, 850, 851, 852, 853, 854, 855, 856, 857, 858, 859, 860, 861, 862, 863, 864, 865, 866, 867, 868, 869, 870, 871, 872],
      "AcquisitionTime": ["095814.355000", "095814.815000", "095815.275000", "095815.735000", "095816.195000", "095816.655000", "095817.115000", "095817.575000", "095818.035000", "095818.495000", "095818.955000", "095819.415000", "095819.875000", "095820.335000", "095820.795000", "095821.255000", "095821.715000", "095822.175000", "095822.635000", "095823.095000", "095823.555000", "095824.015000", "095824.475000", "095824.935000", "095825.395000", "095825.855000", "095826.315000", "095826.775000", "095827.235000", "095827.695000", "095828.155000", "095828.615000", "095829.075000", "095829.535000", "095829.995000", "095830.455000", "095830.915000", "095831.375000", "095831.835000", "095832.295000", "095832.755000", "095833.215000", "095833.675000", "095834.135000", "095834.595000", "095835.055000", "095835.515000", "095835.975000", "095836.435000", "095836.895000", "095837.355000", "095837.815000", "095838.275000", "095838.735000", "095839.195000", "095839.655000", "095840.115000", "095840.575000", "095841.035000", "095841.495000", "095841.955000", "095842.415000", "095842.875000", "095843.335000", "095843.795000", "095844.255000", "095844.715000", "095845.175000", "095845.635000", "095846.095000", "095846.555000", "095847.015000", "095847.475000", "095847.935000", "095848.395000", "095848.855000", "095849.315000", "095849.775000", "095850.235000", "095850.695000", "095851.155000", "095851.615000", "095852.075000", "095852.535000", "095852.995000", "095853.455000", "095853.915000", "095854.375000", "095854.835000", "095855.295000", "095855.755000", "095856.215000", "095856.675000", "095857.135000", "095857.595000", "095858.055000", "095858.515000", "095858.975000", "095859.435000", "095859.895000", "095900.355000", "095900.815000", "095901.275000", "095901.735000", "095902.195000", "095902.655000", "095903.115000", "095903.575000", "095904.035000", "095904.495000", "095904.955000", "095905.415000", "095905.875000", "095906.335000", "095906.795000", "095907.255000", "095907.715000", "095908.175000", "095908.635000", "095909.095000", "095909.555000", "095910.015000", "095910.475000", "095910.935000", "095911.395000", "095911.855000", "095912.315000", "095912.775000", "095913.235000", "095913.695000", "095914.155000", "095914.615000", "095915.075000", "095915.535000", "095915.995000", "095916.455000", "095916.915000", "095917.375000", "095917.835000", "095918.295000", "095918.755000", "095919.215000", "095919.675000", "095920.135000", "095920.595000", "095921.055000", "095921.515000", "095921.975000", "095922.435000", "095922.895000", "095923.355000", "095923.815000", "095924.275000", "095924.735000", "095925.195000", "095925.655000", "095926.115000", "095926.575000", "095927.035000", "095927.495000", "095927.955000", "095928.415000", "095928.875000", "095929.335000", "095929.795000", "095930.255000", "095930.715000", "095931.175000", "095931.635000", "095932.095000", "095932.555000", "095933.015000", "095933.475000", "095933.935000", "095934.395000", "095934.855000", "095935.315000", "095935.775000", "095936.235000", "095936.695000", "095937.155000", "095937.615000", "095938.075000", "095938.535000", "095938.995000", "095939.455000", "095939.915000", "095940.375000", "095940.835000", "095941.295000", "095941.755000", "095942.215000", "095942.675000", "095943.135000", "095943.595000", "095944.055000", "095944.515000", "095944.975000", "095945.435000", "095945.895000", "095946.355000", "095946.815000", "095947.275000", "095947.735000", "095948.195000", "095948.655000", "095949.115000", "095949.575000", "095950.035000", "095950.495000", "095950.955000", "095951.415000", "095951.875000", "095952.335000", "095952.795000", "095953.255000", "095953.715000", "095954.175000", "095954.635000", "095955.095000", "095955.555000", "095956.015000", "095956.475000", "095956.935000", "095957.395000", "095957.855000", "095958.315000", "095958.775000", "095959.235000", "095959.695000", "100000.155000", "100000.615000", "100001.075000", "100001.535000", "100001.995000", "100002.455000", "100002.915000", "100003.375000", "100003.835000", "100004.295000", "100004.755000", "100005.215000", "100005.675000", "100006.135000", "100006.595000", "100007.055000", "100007.515000", "100007.975000", "100008.435000", "100008.895000", "100009.355000", "100009.815000", "100010.275000", "100010.735000", "100011.195000", "100011.655000", "100012.115000", "100012.575000", "100013.035000", "100013.495000", "100013.955000", "100014.415000", "100014.875000", "100015.335000", "100015.795000", "100016.255000", "100016.715000", "100017.175000", "100017.635000", "100018.095000", "100018.555000", "100019.015000", "100019.475000", "100019.935000", "100020.395000", "100020.855000", "100021.315000", "100021.775000", "100022.235000", "100022.695000", "100023.155000", "100023.615000", "100024.075000", "100024.535000", "100024.995000", "100025.455000", "100025.915000", "100026.375000", "100026.835000", "100027.295000", "100027.755000", "100028.215000", "100028.675000", "100029.135000", "100029.595000", "100030.055000", "100030.515000", "100030.975000", "100031.435000", "100031.895000", "100032.355000", "100032.815000", "100033.275000", "100033.735000", "100034.195000", "100034.655000", "100035.115000", "100035.575000", "100036.035000", "100036.495000", "100036.955000", "100037.415000", "100037.875000", "100038.335000", "100038.795000", "100039.255000", "100039.715000", "100040.175000", "100040.635000", "100041.095000", "100041.555000", "100042.015000", "100042.475000", "100042.935000", "100043.395000", "100043.855000", "100044.315000", "100044.775000", "100045.235000", "100045.695000", "100046.155000", "100046.615000", "100047.075000", "100047.535000", "100047.995000", "100048.455000", "100048.915000", "100049.375000", "100049.835000", "100050.295000", "100050.755000", "100051.215000", "100051.675000", "100052.135000", "100052.595000", "100053.055000", "100053.515000", "100053.975000", "100054.435000", "100054.895000", "100055.355000", "100055.815000", "100056.275000", "100056.735000", "100057.195000", "100057.655000", "100058.115000", "100058.575000", "100059.035000", "100059.495000", "100059.955000", "100100.415000", "100100.875000", "100101.335000", "100101.795000", "100102.255000", "100102.715000", "100103.175000", "100103.635000", "100104.095000", "100104.555000", "100105.015000", "100105.475000", "100105.935000", "100106.395000", "100106.855000", "100107.315000", "100107.775000", "100108.235000", "100108.695000", "100109.155000", "100109.615000", "100110.075000", "100110.535000", "100110.995000", "100111.455000", "100111.915000", "100112.375000", "100112.835000", "100113.295000", "100113.755000", "100114.215000", "100114.675000", "100115.135000", "100115.595000", "100116.055000", "100116.515000", "100116.975000", "100117.435000", "100117.895000", "100118.355000", "100118.815000", "100119.275000", "100119.735000", "100120.195000", "100120.655000", "100121.115000", "100121.575000", "100122.035000", "100122.495000", "100122.955000", "100123.415000", "100123.875000", "100124.335000", "100124.795000", "100125.255000", "100125.715000", "100126.175000", "100126.635000", "100127.095000", "100127.555000", "100128.015000", "100128.475000", "100128.935000", "100129.395000", "100129.855000", "100130.315000", "100130.775000", "100131.235000", "100131.695000", "100132.155000", "100132.615000", "100133.075000", "100133.535000", "100133.995000", "100134.455000", "100134.915000", "100135.375000", "100135.835000", "100136.295000", "100136.755000", "100137.215000", "100137.675000", "100138.135000", "100138.595000", "100139.055000", "100139.515000", "100139.975000", "100140.435000", "100140.895000", "100141.355000", "100141.815000", "100142.275000", "100142.735000", "100143.195000", "100143.655000", "100144.115000", "100144.575000", "100145.035000", "100145.495000", "100145.955000", "100146.415000", "100146.875000", "100147.335000", "100147.795000", "100148.255000", "100148.715000", "100149.175000", "100149.635000", "100150.095000", "100150.555000", "100151.015000", "100151.475000", "100151.935000", "100152.395000", "100152.855000", "100153.315000", "100153.775000", "100154.235000", "100154.695000", "100155.155000", "100155.615000", "100156.075000", "100156.535000", "100156.995000", "100157.455000", "100157.915000", "100158.375000", "100158.835000", "100159.295000", "100159.755000", "100200.215000", "100200.675000", "100201.135000", "100201.595000", "100202.055000", "100202.515000", "100202.975000", "100203.435000", "100203.895000", "100204.355000", "100204.815000", "100205.275000", "100205.735000", "100206.195000", "100206.655000", "100207.115000", "100207.575000", "100208.035000", "100208.495000", "100208.955000", "100209.415000", "100209.875000", "100210.335000", "100210.795000", "100211.255000", "100211.715000", "100212.175000", "100212.635000", "100213.095000", "100213.555000", "100214.015000", "100214.475000", "100214.935000", "100215.395000", "100215.855000", "100216.315000", "100216.775000", "100217.235000", "100217.695000", "100218.155000", "100218.615000", "100219.075000", "100219.535000", "100219.995000", "100220.455000", "100220.915000", "100221.375000", "100221.835000", "100222.295000", "100222.755000", "100223.215000", "100223.675000", "100224.135000", "100224.595000", "100225.055000", "100225.515000", "100225.975000", "100226.435000", "100226.895000", "100227.355000", "100227.815000", "100228.275000", "100228.735000", "100229.195000", "100229.655000", "100230.115000", "100230.575000", "100231.035000", "100231.495000", "100231.955000", "100232.415000", "100232.875000", "100233.335000", "100233.795000", "100234.255000", "100234.715000", "100235.175000", "100235.635000", "100236.095000", "100236.555000", "100237.015000", "100237.475000", "100237.935000", "100238.395000", "100238.855000", "100239.315000", "100239.775000", "100240.235000", "100240.695000", "100241.155000", "100241.615000", "100242.075000", "100242.535000", "100242.995000", "100243.455000", "100243.915000", "100244.375000", "100244.835000", "100245.295000", "100245.755000", "100246.215000", "100246.675000", "100247.135000", "100247.595000", "100248.055000", "100248.515000", "100248.975000", "100249.435000", "100249.895000", "100250.355000", "100250.815000", "100251.275000", "100251.735000", "100252.195000", "100252.655000", "100253.115000", "100253.575000", "100254.035000", "100254.495000", "100254.955000", "100255.415000", "100255.875000", "100256.335000", "100256.795000", "100257.255000", "100257.715000", "100258.175000", "100258.635000", "100259.095000", "100259.555000", "100300.015000", "100300.475000", "100300.935000", "100301.395000", "100301.855000", "100302.315000", "100302.775000", "100303.235000", "100303.695000", "100304.155000", "100304.615000", "100305.075000", "100305.535000", "100305.995000", "100306.455000", "100306.915000", "100307.375000", "100307.835000", "100308.295000", "100308.755000", "100309.215000", "100309.675000", "100310.135000", "100310.595000", "100311.055000", "100311.515000", "100311.975000", "100312.435000", "100312.895000", "100313.355000", "100313.815000", "100314.275000", "100314.735000", "100315.195000", "100315.655000", "100316.115000", "100316.575000", "100317.035000", "100317.495000", "100317.955000", "100318.415000", "100318.875000", "100319.335000", "100319.795000", "100320.255000", "100320.715000", "100321.175000", "100321.635000", "100322.095000", "100322.555000", "100323.015000", "100323.475000", "100323.935000", "100324.395000", "100324.855000", "100325.315000", "100325.775000", "100326.235000", "100326.695000", "100327.155000", "100327.615000", "100328.075000", "100328.535000", "100328.995000", "100329.455000", "100329.915000", "100330.375000", "100330.835000", "100331.295000", "100331.755000", "100332.215000", "100332.675000", "100333.135000", "100333.595000", "100334.055000", "100334.515000", "100334.975000", "100335.435000", "100335.895000", "100336.355000", "100336.815000", "100337.275000", "100337.735000", "100338.195000", "100338.655000", "100339.115000", "100339.575000", "100340.035000", "100340.495000", "100340.955000", "100341.415000", "100341.875000", "100342.335000", "100342.795000", "100343.255000", "100343.715000", "100344.175000", "100344.635000", "100345.095000", "100345.555000", "100346.015000", "100346.475000", "100346.935000", "100347.395000", "100347.855000", "100348.315000", "100348.775000", "100349.235000", "100349.695000", "100350.155000", "100350.615000", "100351.075000", "100351.535000", "100351.995000", "100352.455000", "100352.915000", "100353.375000", "100353.835000", "100354.295000", "100354.755000", "100355.215000", "100355.675000", "100356.135000", "100356.595000", "100357.055000", "100357.515000", "100357.975000", "100358.435000", "100358.895000", "100359.355000", "100359.815000", "100400.275000", "100400.735000", "100401.195000", "100401.655000", "100402.115000", "100402.575000", "100403.035000", "100403.495000", "100403.955000", "100404.415000", "100404.875000", "100405.335000", "100405.795000", "100406.255000", "100406.715000", "100407.175000", "100407.635000", "100408.095000", "100408.555000", "100409.015000", "100409.475000", "100409.935000", "100410.395000", "100410.855000", "100411.315000", "100411.775000", "100412.235000", "100412.695000", "100413.155000", "100413.615000", "100414.075000", "100414.535000", "100414.995000", "100415.455000", "100415.915000", "100416.375000", "100416.835000", "100417.295000", "100417.755000", "100418.215000", "100418.675000", "100419.135000", "100419.595000", "100420.055000", "100420.515000", "100420.975000", "100421.435000", "100421.895000", "100422.355000", "100422.815000", "100423.275000", "100423.735000", "100424.195000", "100424.655000", "100425.115000", "100425.575000", "100426.035000", "100426.495000", "100426.955000", "100427.415000", "100427.875000", "100428.335000", "100428.795000", "100429.255000", "100429.715000", "100430.175000", "100430.635000", "100431.095000", "100431.555000", "100432.015000", "100432.475000", "100432.935000", "100433.395000", "100433.855000", "100434.315000", "100434.775000", "100435.235000", "100435.695000", "100436.155000", "100436.615000", "100437.075000", "100437.535000", "100437.995000", "100438.455000", "100438.915000", "100439.375000", "100439.835000", "100440.295000", "100440.755000", "100441.215000", "100441.675000", "100442.135000", "100442.595000", "100443.055000", "100443.515000", "100443.975000", "100444.435000", "100444.895000", "100445.355000", "100445.815000", "100446.275000", "100446.735000", "100447.195000", "100447.655000", "100448.115000", "100448.575000", "100449.035000", "100449.495000", "100449.955000", "100450.415000", "100450.875000", "100451.335000", "100451.795000", "100452.255000", "100452.715000", "100453.175000", "100453.635000", "100454.095000", "100454.555000", "100455.015000"],
