{
  "AcquisitionMatrixPE": 82,
  "AcquisitionNumber": 1,
  "AcquisitionTime": "09:51:14.800000",
  "BandwidthPerPixelPhaseEncode": 24.888,
  "BaseResolution": 82,
  "BodyPartExamined": "BRAIN",
  "ConsistencyInfo": "N4_VE11C_LATEST_20160120",
  "ConversionSoftware": "dcm2niix",
  "ConversionSoftwareVersion": "v1.0.20201102",
  "DerivedVendorReportedEchoSpacing": 0.00049,
  "DeviceSerialNumber": "66112",
  "DwellTime": 2e-06,
  "EchoTime": 0.0272,
  "EchoTrainLength": 82,
  "EffectiveEchoSpacing": 0.00049,
  "FlipAngle": 44,
  "ImageComments": "Unaliased MB8/PE3",
  "ImageOrientationPatientDICOM": [0.993313, 0.0187448, 0.113918, -0.0353816, 0.988677, 0.145827],
  "ImageType": [
    "ORIGINAL",
    "PRIMARY",
    "M",
    "MB",
    "ND",
    "NORM",
    "MOSAIC"
],
  "ImagingFrequency": 123.252,
  "InPlanePhaseEncodingDirectionDICOM": "COL",
  "InstitutionAddress": "Maynard 3,Hanover,NH,US,03755",
  "InstitutionName": "Dartmouth College - PBS",
  "InstitutionalDepartmentName": "Department",
  "MRAcquisitionType": "2D",
  "MagneticFieldStrength": 3,
  "Manufacturer": "Siemens",
  "ManufacturersModelName": "Prisma",
  "Modality": "MR",
  "MultibandAccelerationFactor": 8,
  "PartialFourier": 1,
  "PatientPosition": "HFS",
  "PercentPhaseFOV": 100,
  "PercentSampling": 100,
  "PhaseEncodingDirection": "j-",
  "PhaseEncodingSteps": 82,
  "PhaseResolution": 1,
  "PixelBandwidth": 3050,
  "ProcedureStepDescription": "Wager_Wager^1076_spacetop",
  "ProtocolName": "func_run-02_task-social_acq-ap-mb8",
  "PulseSequenceDetails": "%CustomerSeq%\\cmrr_mbep2d_bold",
  "ReceiveCoilActiveElements": "HEA;HEP",
  "ReceiveCoilName": "Head_32",
  "ReconMatrixPE": 82,
  "RepetitionTime": 0.46,
  "SAR": 0.0945946,
  "ScanOptions": "FS",
  "ScanningSequence": "EP",
  "SequenceName": "epfid2d1_82",
  "SequenceVariant": "SK\\SS",
  "SeriesDescription": "func_run-02_task-social_acq-ap-mb8",
  "SeriesNumber": 14,
  "ShimSetting": [4174, -7757, -7287, 656, 17, -142, 47, 49],
  "SliceThickness": 2.7,
  "SliceTiming": [0, 0.25, 0.0625, 0.3125, 0.125, 0.375, 0.1875, 0, 0.25, 0.0625, 0.3125, 0.125, 0.375, 0.1875, 0, 0.25, 0.0625, 0.3125, 0.125, 0.375, 0.1875, 0, 0.25, 0.0625, 0.3125, 0.125, 0.375, 0.1875, 0, 0.25, 0.0625, 0.3125, 0.125, 0.375, 0.1875, 0, 0.25, 0.0625, 0.3125, 0.125, 0.375, 0.1875, 0, 0.25, 0.0625, 0.3125, 0.125, 0.375, 0.1875, 0, 0.25, 0.0625, 0.3125, 0.125, 0.375, 0.1875],
  "SoftwareVersions": "syngo MR E11",
  "SpacingBetweenSlices": 2.7,
  "StationName": "AWP66112",
  "TaskName": "social",
  "TotalReadoutTime": 0.03969,
  "TxRefAmp": 260.362,
  "WipMemBlock": "46bbab1d-872e-46a3-8b5e-0d5840d3401e||Sequence: R016 ve11c/master r/e634e98; Dec 19 2017 11:00:25 by eja",
  "dcmmeta_affine": [
    [-2.6649868488311768, -0.09492626041173935, 0.29671674966812134, 110.30409240722656],
    [-0.0502910353243351, 2.6525485515594482, 0.4019835293292999, -99.29570007324219],
    [0.3056349754333496, -0.39124393463134766, 2.653369188308716, -60.849605560302734],
    [0.0, 0.0, 0.0, 1.0]
],
  "dcmmeta_reorient_transform": [
    [0.0, -1.0, 0.0, 81.0],
    [1.0, 0.0, 0.0, 0.0],
    [0.0, 0.0, 1.0, 0.0],
    [0.0, 0.0, 0.0, 1.0]
],
  "dcmmeta_shape": [82, 82, 56, 872],
  "dcmmeta_slice_dim": 2,
  "dcmmeta_version": 0.6,
  "global": {
    "const": {
      "AccessionNumber": "A003773",
      "AcquisitionMatrix": [82, 0, 0, 82],
      "AngioFlag": "N",
      "BitsAllocated": 16,
      "BitsStored": 16,
      "BodyPartExamined": "BRAIN",
      "Columns": 656,
      "EchoNumbers": 1,
      "EchoTime": 27.2,
      "EchoTrainLength": 82,
      "FlipAngle": 44.0,
      "HighBit": 15,
      "ImageOrientationPatient": [0.99331324877383, 0.01874484051424, 0.11391848298008, -0.0353816064067, 0.98867716989887, 0.14582728019424],
      "ImagePositionPatient": [-840.22244579511, -891.27570163279, -292.54460742639],
      "ImageType": [
        "ORIGINAL",
        "PRIMARY",
        "M",
        "MB",
        "ND",
        "NORM",
        "MOSAIC"
],
      "ImagedNucleus": "1H",
      "ImagingFrequency": 123.252181,
      "InPlanePhaseEncodingDirection": "COL",
      "MRAcquisitionType": "2D",
      "MagneticFieldStrength": 3.0,
      "Manufacturer": "SIEMENS",
      "ManufacturerModelName": "Prisma",
      "Modality": "MR",
      "NumberOfAverages": 1.0,
      "NumberOfPhaseEncodingSteps": 82,
      "PercentPhaseFieldOfView": 100.0,
      "PercentSampling": 100.0,
      "PerformedProcedureStepStartTime": "090619.618000",
      "PhotometricInterpretation": "MONOCHROME2",
      "PixelBandwidth": 3050.0,
      "PixelRepresentation": 0,
      "PixelSpacing": [2.6829268932343, 2.6829268932343],
      "ProtocolName": "func_run-02_task-social_acq-ap-mb8",
      "RepetitionTime": 460.0,
      "Rows": 656,
      "SAR": 0.09459460196875,
      "SamplesPerPixel": 1,
      "ScanOptions": "FS",
      "ScanningSequence": "EP",
      "SequenceName": "epfid2d1_82",
      "SequenceVariant": [
        "SK",
        "SS"
],
      "SeriesDescription": "func_run-02_task-social_acq-ap-mb8",
      "SeriesNumber": 14,
      "SeriesTime": "095130.032000",
      "SliceLocation": -62.460236591341,
      "SliceThickness": 2.7000000476837,
      "SmallestImagePixelValue": 0,
      "SoftwareVersions": "syngo MR E11",
      "SpacingBetweenSlices": 2.700000023978,
      "SpecificCharacterSet": "ISO_IR 100",
      "StudyID": "5",
      "StudyTime": "090619.493000",
      "TransmitCoilName": "Body",
      "VariableFlipAngleFlag": "N",
      "WindowCenterWidthExplanation": "Algo1",
      "dBdt": 0.0},
    "slices": {}
  },
  "time": {
    "samples": {
      "AcquisitionNumber": [1, 2, 3, 4, 5, 6, 7, 8, 9, 10, 11, 12, 13, 14, 15, 16, 17, 18, 19, 20, 21, 22, 23, 24, 25, 26, 27, 28, 29, 30, 31, 32, 33, 34, 35, 36, 37, 38, 39, 40, 41, 42, 43, 44, 45, 46, 47, 48, 49, 50, 51, 52, 53, 54, 55, 56, 57, 58, 59, 60, 61, 62, 63, 64, 65, 66, 67, 68, 69, 70, 71, 72, 73, 74, 75, 76, 77, 78, 79, 80, 81, 82, 83, 84, 85, 86, 87, 88, 89, 90, 91, 92, 93, 94, 95, 96, 97, 98, 99, 100, 101, 102, 103, 104, 105, 106, 107, 108, 109, 110, 111, 112, 113, 114, 115, 116, 117, 118, 119, 120, 121, 122, 123, 124, 125, 126, 127, 128, 129, 130, 131, 132, 133, 134, 135, 136, 137, 138, 139, 140, 141, 142, 143, 144, 145, 146, 147, 148, 149, 150, 151, 152, 153, 154, 155, 156, 157, 158, 159, 160, 161, 162, 163, 164, 165, 166, 167, 168, 169, 170, 171, 172, 173, 174, 175, 176, 177, 178, 179, 180, 181, 182, 183, 184, 185, 186, 187, 188, 189, 190, 191, 192, 193, 194, 195, 196, 197, 198, 199, 200, 201, 202, 203, 204, 205, 206, 207, 208, 209, 210, 211, 212, 213, 214, 215, 216, 217, 218, 219, 220, 221, 222, 223, 224, 225, 226, 227, 228, 229, 230, 231, 232, 233, 234, 235, 236, 237, 238, 239, 240, 241, 242, 243, 244, 245, 246, 247, 248, 249, 250, 251, 252, 253, 254, 255, 256, 257, 258, 259, 260, 261, 262, 263, 264, 265, 266, 267, 268, 269, 270, 271, 272, 273, 274, 275, 276, 277, 278, 279, 280, 281, 282, 283, 284, 285, 286, 287, 288, 289, 290, 291, 292, 293, 294, 295, 296, 297, 298, 299, 300, 301, 302, 303, 304, 305, 306, 307, 308, 309, 310, 311, 312, 313, 314, 315, 316, 317, 318, 319, 320, 321, 322, 323, 324, 325, 326, 327, 328, 329, 330, 331, 332, 333, 334, 335, 336, 337, 338, 339, 340, 341, 342, 343, 344, 345, 346, 347, 348, 349, 350, 351, 352, 353, 354, 355, 356, 357, 358, 359, 360, 361, 362, 363, 364, 365, 366, 367, 368, 369, 370, 371, 372, 373, 374, 375, 376, 377, 378, 379, 380, 381, 382, 383, 384, 385, 386, 387, 388, 389, 390, 391, 392, 393, 394, 395, 396, 397, 398, 399, 400, 401, 402, 403, 404, 405, 406, 407, 408, 409, 410, 411, 412, 413, 414, 415, 416, 417, 418, 419, 420, 421, 422, 423, 424, 425, 426, 427, 428, 429, 430, 431, 432, 433, 434, 435, 436, 437, 438, 439, 440, 441, 442, 443, 444, 445, 446, 447, 448, 449, 450, 451, 452, 453, 454, 455, 456, 457, 458, 459, 460, 461, 462, 463, 464, 465, 466, 467, 468, 469, 470, 471, 472, 473, 474, 475, 476, 477, 478, 479, 480, 481, 482, 483, 484, 485, 486, 487, 488, 489, 490, 491, 492, 493, 494, 495, 496, 497, 498, 499, 500, 501, 502, 503, 504, 505, 506, 507, 508, 509, 510, 511, 512, 513, 514, 515, 516, 517, 518, 519, 520, 521, 522, 523, 524, 525, 526, 527, 528, 529, 530, 531, 532, 533, 534, 535, 536, 537, 538, 539, 540, 541, 542, 543, 544, 545, 546, 547, 548, 549, 550, 551, 552, 553, 554, 555, 556, 557, 558, 559, 560, 561, 562, 563, 564, 565, 566, 567, 568, 569, 570, 571, 572, 573, 574, 575, 576, 577, 578, 579, 580, 581, 582, 583, 584, 585, 586, 587, 588, 589, 590, 591, 592, 593, 594, 595, 596, 597, 598, 599, 600, 601, 602, 603, 604, 605, 606, 607, 608, 609, 610, 611, 612, 613, 614, 615, 616, 617, 618, 619, 620, 621, 622, 623, 624, 625, 626, 627, 628, 629, 630, 631, 632, 633, 634, 635, 636, 637, 638, 639, 640, 641, 642, 643, 644, 645, 646, 647, 648, 649, 650, 651, 652, 653, 654, 655, 656, 657, 658, 659, 660, 661, 662, 663, 664, 665, 666, 667, 668, 669, 670, 671, 672, 673, 674, 675, 676, 677, 678, 679, 680, 681, 682, 683, 684, 685, 686, 687, 688, 689, 690, 691, 692, 693, 694, 695, 696, 697, 698, 699, 700, 701, 702, 703, 704, 705, 706, 707, 708, 709, 710, 711, 712, 713, 714, 715, 716, 717, 718, 719, 720, 721, 722, 723, 724, 725, 726, 727, 728, 729, 730, 731, 732, 733, 734, 735, 736, 737, 738, 739, 740, 741, 742, 743, 744, 745, 746, 747, 748, 749, 750, 751, 752, 753, 754, 755, 756, 757, 758, 759, 760, 761, 762, 763, 764, 765, 766, 767, 768, 769, 770, 771, 772, 773, 774, 775, 776, 777, 778, 779, 780, 781, 782, 783, 784, 785, 786, 787, 788, 789, 790, 791, 792, 793, 794, 795, 796, 797, 798, 799, 800, 801, 802, 803, 804, 805, 806, 807, 808, 809, 810, 811, 812, 813, 814, 815, 816, 817, 818, 819, 820, 821, 822, 823, 824, 825, 826, 827, 828, 829, 830, 831, 832, 833, 834, 835, 836, 837, 838, 839, 840, 841, 842, 843, 844, 845, 846, 847, 848, 849, 850, 851, 852, 853, 854, 855, 856, 857, 858, 859, 860, 861, 862, 863, 864, 865, 866, 867, 868, 869, 870, 871, 872],
      "AcquisitionTime": ["095114.800000", "095115.260000", "095115.720000", "095116.180000", "095116.640000", "095117.100000", "095117.560000", "095118.020000", "095118.480000", "095118.940000", "095119.400000", "095119.860000", "095120.320000", "095120.780000", "095121.240000", "095121.700000", "095122.160000", "095122.620000", "095123.080000", "095123.540000", "095124.000000", "095124.460000", "095124.920000", "095125.380000", "095125.840000", "095126.300000", "095126.760000", "095127.220000", "095127.680000", "095128.140000", "095128.600000", "095129.060000", "095129.520000", "095129.980000", "095130.440000", "095130.900000", "095131.360000", "095131.820000", "095132.280000", "095132.740000", "095133.200000", "095133.660000", "095134.120000", "095134.580000", "095135.040000", "095135.500000", "095135.960000", "095136.420000", "095136.880000", "095137.340000", "095137.800000", "095138.260000", "095138.720000", "095139.180000", "095139.640000", "095140.100000", "095140.560000", "095141.020000", "095141.480000", "095141.940000", "095142.400000", "095142.860000", "095143.320000", "095143.780000", "095144.240000", "095144.700000", "095145.160000", "095145.620000", "095146.080000", "095146.540000", "095147.000000", "095147.460000", "095147.920000", "095148.380000", "095148.840000", "095149.300000", "095149.760000", "095150.220000", "095150.680000", "095151.140000", "095151.600000", "095152.060000", "095152.520000", "095152.980000", "095153.440000", "095153.900000", "095154.360000", "095154.820000", "095155.280000", "095155.740000", "095156.200000", "095156.660000", "095157.120000", "095157.580000", "095158.040000", "095158.500000", "095158.960000", "095159.420000", "095159.880000", "095200.340000", "095200.800000", "095201.260000", "095201.720000", "095202.180000", "095202.640000", "095203.100000", "095203.560000", "095204.020000", "095204.480000", "095204.940000", "095205.400000", "095205.860000", "095206.320000", "095206.780000", "095207.240000", "095207.700000", "095208.160000", "095208.620000", "095209.080000", "095209.540000", "095210.000000", "095210.460000", "095210.920000", "095211.380000", "095211.840000", "095212.300000", "095212.760000", "095213.220000", "095213.680000", "095214.140000", "095214.600000", "095215.060000", "095215.520000", "095215.980000", "095216.440000", "095216.900000", "095217.360000", "095217.820000", "095218.280000", "095218.740000", "095219.200000", "095219.660000", "095220.120000", "095220.580000", "095221.040000", "095221.500000", "095221.960000", "095222.420000", "095222.880000", "095223.340000", "095223.800000", "095224.260000", "095224.720000", "095225.180000", "095225.640000", "095226.100000", "095226.560000", "095227.020000", "095227.480000", "095227.940000", "095228.400000", "095228.860000", "095229.320000", "095229.780000", "095230.240000", "095230.700000", "095231.160000", "095231.620000", "095232.080000", "095232.540000", "095233.000000", "095233.460000", "095233.920000", "095234.380000", "095234.840000", "095235.300000", "095235.760000", "095236.220000", "095236.680000", "095237.140000", "095237.600000", "095238.060000", "095238.520000", "095238.980000", "095239.440000", "095239.900000", "095240.360000", "095240.820000", "095241.280000", "095241.740000", "095242.200000", "095242.660000", "095243.120000", "095243.580000", "095244.040000", "095244.500000", "095244.960000", "095245.420000", "095245.880000", "095246.340000", "095246.800000", "095247.260000", "095247.720000", "095248.180000", "095248.640000", "095249.100000", "095249.560000", "095250.020000", "095250.480000", "095250.940000", "095251.400000", "095251.860000", "095252.320000", "095252.780000", "095253.240000", "095253.700000", "095254.160000", "095254.620000", "095255.080000", "095255.540000", "095256.000000", "095256.460000", "095256.920000", "095257.380000", "095257.840000", "095258.300000", "095258.760000", "095259.220000", "095259.680000", "095300.140000", "095300.600000", "095301.060000", "095301.520000", "095301.980000", "095302.440000", "095302.900000", "095303.360000", "095303.820000", "095304.280000", "095304.740000", "095305.200000", "095305.660000", "095306.120000", "095306.580000", "095307.040000", "095307.500000", "095307.960000", "095308.420000", "095308.880000", "095309.340000", "095309.800000", "095310.260000", "095310.720000", "095311.180000", "095311.640000", "095312.100000", "095312.560000", "095313.020000", "095313.480000", "095313.940000", "095314.400000", "095314.860000", "095315.320000", "095315.780000", "095316.240000", "095316.700000", "095317.160000", "095317.620000", "095318.080000", "095318.540000", "095319.000000", "095319.460000", "095319.920000", "095320.380000", "095320.840000", "095321.300000", "095321.760000", "095322.220000", "095322.680000", "095323.140000", "095323.600000", "095324.060000", "095324.520000", "095324.980000", "095325.440000", "095325.900000", "095326.360000", "095326.820000", "095327.280000", "095327.740000", "095328.200000", "095328.660000", "095329.120000", "095329.580000", "095330.040000", "095330.500000", "095330.960000", "095331.420000", "095331.880000", "095332.340000", "095332.800000", "095333.260000", "095333.720000", "095334.180000", "095334.640000", "095335.100000", "095335.560000", "095336.020000", "095336.480000", "095336.940000", "095337.400000", "095337.860000", "095338.320000", "095338.780000", "095339.240000", "095339.700000", "095340.160000", "095340.620000", "095341.080000", "095341.540000", "095342.000000", "095342.460000", "095342.920000", "095343.380000", "095343.840000", "095344.300000", "095344.760000", "095345.220000", "095345.680000", "095346.140000", "095346.600000", "095347.060000", "095347.520000", "095347.980000", "095348.440000", "095348.900000", "095349.360000", "095349.820000", "095350.280000", "095350.740000", "095351.200000", "095351.660000", "095352.120000", "095352.580000", "095353.040000", "095353.500000", "095353.960000", "095354.420000", "095354.880000", "095355.340000", "095355.800000", "095356.260000", "095356.720000", "095357.180000", "095357.640000", "095358.100000", "095358.560000", "095359.020000", "095359.480000", "095359.940000", "095400.400000", "095400.860000", "095401.320000", "095401.780000", "095402.240000", "095402.700000", "095403.160000", "095403.620000", "095404.080000", "095404.540000", "095405.000000", "095405.460000", "095405.920000", "095406.380000", "095406.840000", "095407.300000", "095407.760000", "095408.220000", "095408.680000", "095409.140000", "095409.600000", "095410.060000", "095410.520000", "095410.980000", "095411.440000", "095411.900000", "095412.360000", "095412.820000", "095413.280000", "095413.740000", "095414.200000", "095414.660000", "095415.120000", "095415.580000", "095416.040000", "095416.500000", "095416.960000", "095417.420000", "095417.880000", "095418.340000", "095418.800000", "095419.260000", "095419.720000", "095420.180000", "095420.640000", "095421.100000", "095421.560000", "095422.020000", "095422.480000", "095422.940000", "095423.400000", "095423.860000", "095424.320000", "095424.780000", "095425.240000", "095425.700000", "095426.160000", "095426.620000", "095427.080000", "095427.540000", "095428.000000", "095428.460000", "095428.920000", "095429.380000", "095429.840000", "095430.300000", "095430.760000", "095431.220000", "095431.680000", "095432.140000", "095432.600000", "095433.060000", "095433.520000", "095433.980000", "095434.440000", "095434.900000", "095435.360000", "095435.820000", "095436.280000", "095436.740000", "095437.200000", "095437.660000", "095438.120000", "095438.580000", "095439.040000", "095439.500000", "095439.960000", "095440.420000", "095440.880000", "095441.340000", "095441.800000", "095442.260000", "095442.720000", "095443.180000", "095443.640000", "095444.100000", "095444.560000", "095445.020000", "095445.480000", "095445.940000", "095446.400000", "095446.860000", "095447.320000", "095447.780000", "095448.240000", "095448.700000", "095449.160000", "095449.620000", "095450.080000", "095450.540000", "095451.000000", "095451.460000", "095451.920000", "095452.380000", "095452.840000", "095453.300000", "095453.760000", "095454.220000", "095454.680000", "095455.140000", "095455.600000", "095456.060000", "095456.520000", "095456.980000", "095457.440000", "095457.900000", "095458.360000", "095458.820000", "095459.280000", "095459.740000", "095500.200000", "095500.660000", "095501.120000", "095501.580000", "095502.040000", "095502.500000", "095502.960000", "095503.420000", "095503.880000", "095504.340000", "095504.800000", "095505.260000", "095505.720000", "095506.180000", "095506.640000", "095507.100000", "095507.560000", "095508.020000", "095508.480000", "095508.940000", "095509.400000", "095509.860000", "095510.320000", "095510.780000", "095511.240000", "095511.700000", "095512.160000", "095512.620000", "095513.080000", "095513.540000", "095514.000000", "095514.460000", "095514.920000", "095515.380000", "095515.840000", "095516.300000", "095516.760000", "095517.220000", "095517.680000", "095518.140000", "095518.600000", "095519.060000", "095519.520000", "095519.980000", "095520.440000", "095520.900000", "095521.360000", "095521.820000", "095522.280000", "095522.740000", "095523.200000", "095523.660000", "095524.120000", "095524.580000", "095525.040000", "095525.500000", "095525.960000", "095526.420000", "095526.880000", "095527.340000", "095527.800000", "095528.260000", "095528.720000", "095529.180000", "095529.640000", "095530.100000", "095530.560000", "095531.020000", "095531.480000", "095531.940000", "095532.400000", "095532.860000", "095533.320000", "095533.780000", "095534.240000", "095534.700000", "095535.160000", "095535.620000", "095536.080000", "095536.540000", "095537.000000", "095537.460000", "095537.920000", "095538.380000", "095538.840000", "095539.300000", "095539.760000", "095540.220000", "095540.680000", "095541.140000", "095541.600000", "095542.060000", "095542.520000", "095542.980000", "095543.440000", "095543.900000", "095544.360000", "095544.820000", "095545.280000", "095545.740000", "095546.200000", "095546.660000", "095547.120000", "095547.580000", "095548.040000", "095548.500000", "095548.960000", "095549.420000", "095549.880000", "095550.340000", "095550.800000", "095551.260000", "095551.720000", "095552.180000", "095552.640000", "095553.100000", "095553.560000", "095554.020000", "095554.480000", "095554.940000", "095555.400000", "095555.860000", "095556.320000", "095556.780000", "095557.240000", "095557.700000", "095558.160000", "095558.620000", "095559.080000", "095559.540000", "095600.000000", "095600.460000", "095600.920000", "095601.380000", "095601.840000", "095602.300000", "095602.760000", "095603.220000", "095603.680000", "095604.140000", "095604.600000", "095605.060000", "095605.520000", "095605.980000", "095606.440000", "095606.900000", "095607.360000", "095607.820000", "095608.280000", "095608.740000", "095609.200000", "095609.660000", "095610.120000", "095610.580000", "095611.040000", "095611.500000", "095611.960000", "095612.420000", "095612.880000", "095613.340000", "095613.800000", "095614.260000", "095614.720000", "095615.180000", "095615.640000", "095616.100000", "095616.560000", "095617.020000", "095617.480000", "095617.940000", "095618.400000", "095618.860000", "095619.320000", "095619.780000", "095620.240000", "095620.700000", "095621.160000", "095621.620000", "095622.080000", "095622.540000", "095623.000000", "095623.460000", "095623.920000", "095624.380000", "095624.840000", "095625.300000", "095625.760000", "095626.220000", "095626.680000", "095627.140000", "095627.600000", "095628.060000", "095628.520000", "095628.980000", "095629.440000", "095629.900000", "095630.360000", "095630.820000", "095631.280000", "095631.740000", "095632.200000", "095632.660000", "095633.120000", "095633.580000", "095634.040000", "095634.500000", "095634.960000", "095635.420000", "095635.880000", "095636.340000", "095636.800000", "095637.260000", "095637.720000", "095638.180000", "095638.640000", "095639.100000", "095639.560000", "095640.020000", "095640.480000", "095640.940000", "095641.400000", "095641.860000", "095642.320000", "095642.780000", "095643.240000", "095643.700000", "095644.160000", "095644.620000", "095645.080000", "095645.540000", "095646.000000", "095646.460000", "095646.920000", "095647.380000", "095647.840000", "095648.300000", "095648.760000", "095649.220000", "095649.680000", "095650.140000", "095650.600000", "095651.060000", "095651.520000", "095651.980000", "095652.440000", "095652.900000", "095653.360000", "095653.820000", "095654.280000", "095654.740000", "095655.200000", "095655.660000", "095656.120000", "095656.580000", "095657.040000", "095657.500000", "095657.960000", "095658.420000", "095658.880000", "095659.340000", "095659.800000", "095700.260000", "095700.720000", "095701.180000", "095701.640000", "095702.100000", "095702.560000", "095703.020000", "095703.480000", "095703.940000", "095704.400000", "095704.860000", "095705.320000", "095705.780000", "095706.240000", "095706.700000", "095707.160000", "095707.620000", "095708.080000", "095708.540000", "095709.000000", "095709.460000", "095709.920000", "095710.380000", "095710.840000", "095711.300000", "095711.760000", "095712.220000", "095712.680000", "095713.140000", "095713.600000", "095714.060000", "095714.520000", "095714.980000", "095715.440000", "095715.900000", "095716.360000", "095716.820000", "095717.280000", "095717.740000", "095718.200000", "095718.660000", "095719.120000", "095719.580000", "095720.040000", "095720.500000", "095720.960000", "095721.420000", "095721.880000", "095722.340000", "095722.800000", "095723.260000", "095723.720000", "095724.180000", "095724.640000", "095725.100000", "095725.560000", "095726.020000", "095726.480000", "095726.940000", "095727.400000", "095727.860000", "095728.320000", "095728.780000", "095729.240000", "095729.700000", "095730.160000", "095730.620000", "095731.080000", "095731.540000", "095732.000000", "095732.460000", "095732.920000", "095733.380000", "095733.840000", "095734.300000", "095734.760000", "095735.220000", "095735.680000", "095736.140000", "095736.600000", "095737.060000", "095737.520000", "095737.980000", "095738.440000", "095738.900000", "095739.360000", "095739.820000", "095740.280000", "095740.740000", "095741.200000", "095741.660000", "095742.120000", "095742.580000", "095743.040000", "095743.500000", "095743.960000", "095744.420000", "095744.880000", "095745.340000", "095745.800000", "095746.260000", "095746.720000", "095747.180000", "095747.640000", "095748.100000", "095748.560000", "095749.020000", "095749.480000", "095749.940000", "095750.400000", "095750.860000", "095751.320000", "095751.780000", "095752.240000", "095752.700000", "095753.160000", "095753.620000", "095754.080000", "095754.540000", "095755.000000", "095755.460000"],
