{
  "AcquisitionMatrixPE": 82,
  "AcquisitionNumber": 1,
  "AcquisitionTime": "19:13:1.990000",
  "BandwidthPerPixelPhaseEncode": 24.888,
  "BaseResolution": 82,
  "BodyPartExamined": "BRAIN",
  "ConsistencyInfo": "N4_VE11E_LATEST_20181129",
  "ConversionSoftware": "dcm2niix",
  "ConversionSoftwareVersion": "v1.0.20201102",
  "DerivedVendorReportedEchoSpacing": 0.00049,
  "DeviceSerialNumber": "66112",
  "DwellTime": 2e-06,
  "EchoTime": 0.0272,
  "EchoTrainLength": 82,
  "EffectiveEchoSpacing": 0.00049,
  "FlipAngle": 44,
  "ImageComments": "Unaliased MB8/PE3",
  "ImageOrientationPatientDICOM": [0.998026, 0.0025463, 0.0627434, -0.0165494, 0.974519, 0.223694],
  "ImageType": [
    "ORIGINAL",
    "PRIMARY",
    "M",
    "MB",
    "ND",
    "NORM",
    "MOSAIC"
],
  "ImagingFrequency": 123.259,
  "InPlanePhaseEncodingDirectionDICOM": "COL",
  "InstitutionAddress": "Maynard 3,Hanover,NH,US,03755",
  "InstitutionName": "Dartmouth College - PBS",
  "InstitutionalDepartmentName": "Department",
  "MRAcquisitionType": "2D",
  "MagneticFieldStrength": 3,
  "Manufacturer": "Siemens",
  "ManufacturersModelName": "Prisma",
  "Modality": "MR",
  "MultibandAccelerationFactor": 8,
  "PartialFourier": 1,
  "PatientPosition": "HFS",
  "PercentPhaseFOV": 100,
  "PercentSampling": 100,
  "PhaseEncodingDirection": "j-",
  "PhaseEncodingSteps": 82,
  "PhaseResolution": 1,
  "PixelBandwidth": 3050,
  "ProcedureStepDescription": "Wager_Wager^1076_spacetop",
  "ProtocolName": "func_run-02_task-alignvideo_acq-ap-mb8",
  "PulseSequenceDetails": "%CustomerSeq%\\cmrr_mbep2d_bold",
  "ReceiveCoilActiveElements": "HEA;HEP",
  "ReceiveCoilName": "Head_32",
  "ReconMatrixPE": 82,
  "RepetitionTime": 0.46,
  "SAR": 0.0913182,
  "ScanOptions": "FS",
  "ScanningSequence": "EP",
  "SequenceName": "epfid2d1_82",
  "SequenceVariant": "SK\\SS",
  "SeriesDescription": "func_run-02_task-alignvideo_acq-ap-mb8",
  "SeriesNumber": 32,
  "ShimSetting": [4248, -7807, -7189, 428, -110, 72, 131, 51],
  "SliceThickness": 2.7,
  "SliceTiming": [0, 0.2525, 0.065, 0.315, 0.1275, 0.3775, 0.19, 0, 0.2525, 0.065, 0.315, 0.1275, 0.3775, 0.19, 0, 0.2525, 0.065, 0.315, 0.1275, 0.3775, 0.19, 0, 0.2525, 0.065, 0.315, 0.1275, 0.3775, 0.19, 0, 0.2525, 0.065, 0.315, 0.1275, 0.3775, 0.19, 0, 0.2525, 0.065, 0.315, 0.1275, 0.3775, 0.19, 0, 0.2525, 0.065, 0.315, 0.1275, 0.3775, 0.19, 0, 0.2525, 0.065, 0.315, 0.1275, 0.3775, 0.19],
  "SoftwareVersions": "syngo MR E11",
  "SpacingBetweenSlices": 2.7,
  "StationName": "AWP66112",
  "TaskName": "alignvideo",
  "TotalReadoutTime": 0.03969,
  "TxRefAmp": 226.906,
  "WipMemBlock": "2f539ce2-9514-435e-81b0-a2b98ff89770||Sequence: R016 ve11e/master r/434b28f1; Aug  7 2019 18:53:46 by eja",
  "dcmmeta_affine": [
    [-2.6776320934295654, -0.04440080374479294, 0.1635526418685913, 110.50022888183594],
    [-0.006831541191786528, 2.614563226699829, 0.6055847406387329, -117.06645202636719],
    [0.16833598911762238, -0.6001539826393127, 2.626122236251831, -38.1633415222168],
    [0.0, 0.0, 0.0, 1.0]
],
  "dcmmeta_reorient_transform": [
    [0.0, -1.0, 0.0, 81.0],
    [1.0, 0.0, 0.0, 0.0],
    [0.0, 0.0, 1.0, 0.0],
    [0.0, 0.0, 0.0, 1.0]
],
  "dcmmeta_shape": [82, 82, 56, 926],
  "dcmmeta_slice_dim": 2,
  "dcmmeta_version": 0.6,
  "global": {
    "const": {
      "AccessionNumber": "A004853",
      "AcquisitionMatrix": [82, 0, 0, 82],
      "AngioFlag": "N",
      "BitsAllocated": 16,
      "BitsStored": 16,
      "BodyPartExamined": "BRAIN",
      "Columns": 656,
      "EchoNumbers": 1,
      "EchoTime": 27.2,
      "EchoTrainLength": 82,
      "FlipAngle": 44.0,
      "HighBit": 15,
      "ImageOrientationPatient": [0.99802644272663, 0.00254630159877, 0.06274341373079, -0.0165493905096, 0.97451896821471, 0.22369376000124],
      "ImagePositionPatient": [-862.64110881557, -847.05343796938, -307.33244579207],
      "ImageType": [
        "ORIGINAL",
        "PRIMARY",
        "M",
        "MB",
        "ND",
        "NORM",
        "MOSAIC"
],
      "ImagedNucleus": "1H",
      "ImagingFrequency": 123.25905,
      "InPlanePhaseEncodingDirection": "COL",
      "MRAcquisitionType": "2D",
      "MagneticFieldStrength": 3.0,
      "Manufacturer": "SIEMENS",
      "ManufacturerModelName": "Prisma",
      "Modality": "MR",
      "NumberOfAverages": 1.0,
      "NumberOfPhaseEncodingSteps": 82,
      "PercentPhaseFieldOfView": 100.0,
      "PercentSampling": 100.0,
      "PerformedProcedureStepStartTime": "172859.905000",
      "PhotometricInterpretation": "MONOCHROME2",
      "PixelBandwidth": 3050.0,
      "PixelRepresentation": 0,
      "PixelSpacing": [2.6829268932343, 2.6829268932343],
      "ProtocolName": "func_run-02_task-alignvideo_acq-ap-mb8",
      "RepetitionTime": 460.0,
      "Rows": 656,
      "SAR": 0.09131825270342,
      "SamplesPerPixel": 1,
      "ScanOptions": "FS",
      "ScanningSequence": "EP",
      "SequenceName": "epfid2d1_82",
      "SequenceVariant": [
        "SK",
        "SS"
],
      "SeriesDescription": "func_run-02_task-alignvideo_acq-ap-mb8",
      "SeriesNumber": 32,
      "SeriesTime": "191319.861000",
      "SliceLocation": -56.682464709593,
      "SliceThickness": 2.7000000476837,
      "SmallestImagePixelValue": 0,
      "SoftwareVersions": "syngo MR E11",
      "SpacingBetweenSlices": 2.6999999814418,
      "SpecificCharacterSet": "ISO_IR 100",
      "StudyID": "2",
      "StudyTime": "172859.842000",
      "TransmitCoilName": "Body",
      "VariableFlipAngleFlag": "N",
      "WindowCenterWidthExplanation": "Algo1"
    },
    "slices": {}
  },
  "time": {
    "samples": {
      "AcquisitionNumber": [1, 2, 3, 4, 5, 6, 7, 8, 9, 10, 11, 12, 13, 14, 15, 16, 17, 18, 19, 20, 21, 22, 23, 24, 25, 26, 27, 28, 29, 30, 31, 32, 33, 34, 35, 36, 37, 38, 39, 40, 41, 42, 43, 44, 45, 46, 47, 48, 49, 50, 51, 52, 53, 54, 55, 56, 57, 58, 59, 60, 61, 62, 63, 64, 65, 66, 67, 68, 69, 70, 71, 72, 73, 74, 75, 76, 77, 78, 79, 80, 81, 82, 83, 84, 85, 86, 87, 88, 89, 90, 91, 92, 93, 94, 95, 96, 97, 98, 99, 100, 101, 102, 103, 104, 105, 106, 107, 108, 109, 110, 111, 112, 113, 114, 115, 116, 117, 118, 119, 120, 121, 122, 123, 124, 125, 126, 127, 128, 129, 130, 131, 132, 133, 134, 135, 136, 137, 138, 139, 140, 141, 142, 143, 144, 145, 146, 147, 148, 149, 150, 151, 152, 153, 154, 155, 156, 157, 158, 159, 160, 161, 162, 163, 164, 165, 166, 167, 168, 169, 170, 171, 172, 173, 174, 175, 176, 177, 178, 179, 180, 181, 182, 183, 184, 185, 186, 187, 188, 189, 190, 191, 192, 193, 194, 195, 196, 197, 198, 199, 200, 201, 202, 203, 204, 205, 206, 207, 208, 209, 210, 211, 212, 213, 214, 215, 216, 217, 218, 219, 220, 221, 222, 223, 224, 225, 226, 227, 228, 229, 230, 231, 232, 233, 234, 235, 236, 237, 238, 239, 240, 241, 242, 243, 244, 245, 246, 247, 248, 249, 250, 251, 252, 253, 254, 255, 256, 257, 258, 259, 260, 261, 262, 263, 264, 265, 266, 267, 268, 269, 270, 271, 272, 273, 274, 275, 276, 277, 278, 279, 280, 281, 282, 283, 284, 285, 286, 287, 288, 289, 290, 291, 292, 293, 294, 295, 296, 297, 298, 299, 300, 301, 302, 303, 304, 305, 306, 307, 308, 309, 310, 311, 312, 313, 314, 315, 316, 317, 318, 319, 320, 321, 322, 323, 324, 325, 326, 327, 328, 329, 330, 331, 332, 333, 334, 335, 336, 337, 338, 339, 340, 341, 342, 343, 344, 345, 346, 347, 348, 349, 350, 351, 352, 353, 354, 355, 356, 357, 358, 359, 360, 361, 362, 363, 364, 365, 366, 367, 368, 369, 370, 371, 372, 373, 374, 375, 376, 377, 378, 379, 380, 381, 382, 383, 384, 385, 386, 387, 388, 389, 390, 391, 392, 393, 394, 395, 396, 397, 398, 399, 400, 401, 402, 403, 404, 405, 406, 407, 408, 409, 410, 411, 412, 413, 414, 415, 416, 417, 418, 419, 420, 421, 422, 423, 424, 425, 426, 427, 428, 429, 430, 431, 432, 433, 434, 435, 436, 437, 438, 439, 440, 441, 442, 443, 444, 445, 446, 447, 448, 449, 450, 451, 452, 453, 454, 455, 456, 457, 458, 459, 460, 461, 462, 463, 464, 465, 466, 467, 468, 469, 470, 471, 472, 473, 474, 475, 476, 477, 478, 479, 480, 481, 482, 483, 484, 485, 486, 487, 488, 489, 490, 491, 492, 493, 494, 495, 496, 497, 498, 499, 500, 501, 502, 503, 504, 505, 506, 507, 508, 509, 510, 511, 512, 513, 514, 515, 516, 517, 518, 519, 520, 521, 522, 523, 524, 525, 526, 527, 528, 529, 530, 531, 532, 533, 534, 535, 536, 537, 538, 539, 540, 541, 542, 543, 544, 545, 546, 547, 548, 549, 550, 551, 552, 553, 554, 555, 556, 557, 558, 559, 560, 561, 562, 563, 564, 565, 566, 567, 568, 569, 570, 571, 572, 573, 574, 575, 576, 577, 578, 579, 580, 581, 582, 583, 584, 585, 586, 587, 588, 589, 590, 591, 592, 593, 594, 595, 596, 597, 598, 599, 600, 601, 602, 603, 604, 605, 606, 607, 608, 609, 610, 611, 612, 613, 614, 615, 616, 617, 618, 619, 620, 621, 622, 623, 624, 625, 626, 627, 628, 629, 630, 631, 632, 633, 634, 635, 636, 637, 638, 639, 640, 641, 642, 643, 644, 645, 646, 647, 648, 649, 650, 651, 652, 653, 654, 655, 656, 657, 658, 659, 660, 661, 662, 663, 664, 665, 666, 667, 668, 669, 670, 671, 672, 673, 674, 675, 676, 677, 678, 679, 680, 681, 682, 683, 684, 685, 686, 687, 688, 689, 690, 691, 692, 693, 694, 695, 696, 697, 698, 699, 700, 701, 702, 703, 704, 705, 706, 707, 708, 709, 710, 711, 712, 713, 714, 715, 716, 717, 718, 719, 720, 721, 722, 723, 724, 725, 726, 727, 728, 729, 730, 731, 732, 733, 734, 735, 736, 737, 738, 739, 740, 741, 742, 743, 744, 745, 746, 747, 748, 749, 750, 751, 752, 753, 754, 755, 756, 757, 758, 759, 760, 761, 762, 763, 764, 765, 766, 767, 768, 769, 770, 771, 772, 773, 774, 775, 776, 777, 778, 779, 780, 781, 782, 783, 784, 785, 786, 787, 788, 789, 790, 791, 792, 793, 794, 795, 796, 797, 798, 799, 800, 801, 802, 803, 804, 805, 806, 807, 808, 809, 810, 811, 812, 813, 814, 815, 816, 817, 818, 819, 820, 821, 822, 823, 824, 825, 826, 827, 828, 829, 830, 831, 832, 833, 834, 835, 836, 837, 838, 839, 840, 841, 842, 843, 844, 845, 846, 847, 848, 849, 850, 851, 852, 853, 854, 855, 856, 857, 858, 859, 860, 861, 862, 863, 864, 865, 866, 867, 868, 869, 870, 871, 872, 873, 874, 875, 876, 877, 878, 879, 880, 881, 882, 883, 884, 885, 886, 887, 888, 889, 890, 891, 892, 893, 894, 895, 896, 897, 898, 899, 900, 901, 902, 903, 904, 905, 906, 907, 908, 909, 910, 911, 912, 913, 914, 915, 916, 917, 918, 919, 920, 921, 922, 923, 924, 925, 926],
      "AcquisitionTime": ["191301.990000", "191302.450000", "191302.910000", "191303.370000", "191303.830000", "191304.290000", "191304.750000", "191305.210000", "191305.670000", "191306.130000", "191306.590000", "191307.050000", "191307.510000", "191307.970000", "191308.430000", "191308.890000", "191309.350000", "191309.810000", "191310.270000", "191310.730000", "191311.190000", "191311.650000", "191312.110000", "191312.570000", "191313.030000", "191313.490000", "191313.950000", "191314.410000", "191314.870000", "191315.330000", "191315.790000", "191316.250000", "191316.710000", "191317.170000", "191317.630000", "191318.090000", "191318.550000", "191319.010000", "191319.470000", "191319.930000", "191320.390000", "191320.850000", "191321.310000", "191321.770000", "191322.230000", "191322.690000", "191323.150000", "191323.610000", "191324.070000", "191324.530000", "191324.990000", "191325.450000", "191325.910000", "191326.370000", "191326.830000", "191327.290000", "191327.750000", "191328.210000", "191328.670000", "191329.130000", "191329.590000", "191330.050000", "191330.510000", "191330.970000", "191331.430000", "191331.890000", "191332.350000", "191332.810000", "191333.270000", "191333.730000", "191334.190000", "191334.650000", "191335.110000", "191335.570000", "191336.030000", "191336.490000", "191336.950000", "191337.410000", "191337.870000", "191338.330000", "191338.790000", "191339.250000", "191339.710000", "191340.170000", "191340.630000", "191341.090000", "191341.550000", "191342.010000", "191342.470000", "191342.930000", "191343.390000", "191343.850000", "191344.310000", "191344.770000", "191345.230000", "191345.690000", "191346.150000", "191346.610000", "191347.070000", "191347.530000", "191347.990000", "191348.450000", "191348.910000", "191349.370000", "191349.830000", "191350.290000", "191350.750000", "191351.210000", "191351.670000", "191352.130000", "191352.590000", "191353.050000", "191353.510000", "191353.970000", "191354.430000", "191354.890000", "191355.350000", "191355.810000", "191356.270000", "191356.730000", "191357.190000", "191357.650000", "191358.110000", "191358.570000", "191359.030000", "191359.490000", "191359.950000", "191400.410000", "191400.870000", "191401.330000", "191401.790000", "191402.250000", "191402.710000", "191403.170000", "191403.630000", "191404.090000", "191404.550000", "191405.010000", "191405.470000", "191405.930000", "191406.390000", "191406.850000", "191407.310000", "191407.770000", "191408.230000", "191408.690000", "191409.150000", "191409.610000", "191410.070000", "191410.530000", "191410.990000", "191411.450000", "191411.910000", "191412.370000", "191412.830000", "191413.290000", "191413.750000", "191414.210000", "191414.670000", "191415.130000", "191415.590000", "191416.050000", "191416.510000", "191416.970000", "191417.430000", "191417.890000", "191418.350000", "191418.810000", "191419.270000", "191419.730000", "191420.190000", "191420.650000", "191421.110000", "191421.570000", "191422.030000", "191422.490000", "191422.950000", "191423.410000", "191423.870000", "191424.330000", "191424.790000", "191425.250000", "191425.710000", "191426.170000", "191426.630000", "191427.090000", "191427.550000", "191428.010000", "191428.470000", "191428.930000", "191429.390000", "191429.850000", "191430.310000", "191430.770000", "191431.230000", "191431.690000", "191432.150000", "191432.610000", "191433.070000", "191433.530000", "191433.990000", "191434.450000", "191434.910000", "191435.370000", "191435.830000", "191436.290000", "191436.750000", "191437.210000", "191437.670000", "191438.130000", "191438.590000", "191439.050000", "191439.510000", "191439.970000", "191440.430000", "191440.890000", "191441.350000", "191441.810000", "191442.270000", "191442.730000", "191443.190000", "191443.650000", "191444.110000", "191444.570000", "191445.030000", "191445.490000", "191445.950000", "191446.410000", "191446.870000", "191447.330000", "191447.790000", "191448.250000", "191448.710000", "191449.170000", "191449.630000", "191450.090000", "191450.550000", "191451.010000", "191451.470000", "191451.930000", "191452.390000", "191452.850000", "191453.310000", "191453.770000", "191454.230000", "191454.690000", "191455.150000", "191455.610000", "191456.070000", "191456.530000", "191456.990000", "191457.450000", "191457.910000", "191458.370000", "191458.830000", "191459.290000", "191459.750000", "191500.210000", "191500.670000", "191501.130000", "191501.590000", "191502.050000", "191502.510000", "191502.970000", "191503.430000", "191503.890000", "191504.350000", "191504.810000", "191505.270000", "191505.730000", "191506.190000", "191506.650000", "191507.110000", "191507.570000", "191508.030000", "191508.490000", "191508.950000", "191509.410000", "191509.870000", "191510.330000", "191510.790000", "191511.250000", "191511.710000", "191512.170000", "191512.630000", "191513.090000", "191513.550000", "191514.010000", "191514.470000", "191514.930000", "191515.390000", "191515.850000", "191516.310000", "191516.770000", "191517.230000", "191517.690000", "191518.150000", "191518.610000", "191519.070000", "191519.530000", "191519.990000", "191520.450000", "191520.910000", "191521.370000", "191521.830000", "191522.290000", "191522.750000", "191523.210000", "191523.670000", "191524.130000", "191524.590000", "191525.050000", "191525.510000", "191525.970000", "191526.430000", "191526.890000", "191527.350000", "191527.810000", "191528.270000", "191528.730000", "191529.190000", "191529.650000", "191530.110000", "191530.570000", "191531.030000", "191531.490000", "191531.950000", "191532.410000", "191532.870000", "191533.330000", "191533.790000", "191534.250000", "191534.710000", "191535.170000", "191535.630000", "191536.090000", "191536.550000", "191537.010000", "191537.470000", "191537.930000", "191538.390000", "191538.850000", "191539.310000", "191539.770000", "191540.230000", "191540.690000", "191541.150000", "191541.610000", "191542.070000", "191542.530000", "191542.990000", "191543.450000", "191543.910000", "191544.370000", "191544.830000", "191545.290000", "191545.750000", "191546.210000", "191546.670000", "191547.130000", "191547.590000", "191548.050000", "191548.510000", "191548.970000", "191549.430000", "191549.890000", "191550.350000", "191550.810000", "191551.270000", "191551.730000", "191552.190000", "191552.650000", "191553.110000", "191553.570000", "191554.030000", "191554.490000", "191554.950000", "191555.410000", "191555.870000", "191556.330000", "191556.790000", "191557.250000", "191557.710000", "191558.170000", "191558.630000", "191559.090000", "191559.550000", "191600.010000", "191600.470000", "191600.930000", "191601.390000", "191601.850000", "191602.310000", "191602.770000", "191603.230000", "191603.690000", "191604.150000", "191604.610000", "191605.070000", "191605.530000", "191605.990000", "191606.450000", "191606.910000", "191607.370000", "191607.830000", "191608.290000", "191608.750000", "191609.210000", "191609.670000", "191610.130000", "191610.590000", "191611.050000", "191611.510000", "191611.970000", "191612.430000", "191612.890000", "191613.350000", "191613.810000", "191614.270000", "191614.730000", "191615.190000", "191615.650000", "191616.110000", "191616.570000", "191617.030000", "191617.490000", "191617.950000", "191618.410000", "191618.870000", "191619.330000", "191619.790000", "191620.250000", "191620.710000", "191621.170000", "191621.630000", "191622.090000", "191622.550000", "191623.010000", "191623.470000", "191623.930000", "191624.390000", "191624.850000", "191625.310000", "191625.770000", "191626.230000", "191626.690000", "191627.150000", "191627.610000", "191628.070000", "191628.530000", "191628.990000", "191629.450000", "191629.910000", "191630.370000", "191630.830000", "191631.290000", "191631.750000", "191632.210000", "191632.670000", "191633.130000", "191633.590000", "191634.050000", "191634.510000", "191634.970000", "191635.430000", "191635.890000", "191636.350000", "191636.810000", "191637.270000", "191637.730000", "191638.190000", "191638.650000", "191639.110000", "191639.570000", "191640.030000", "191640.490000", "191640.950000", "191641.410000", "191641.870000", "191642.330000", "191642.790000", "191643.250000", "191643.710000", "191644.170000", "191644.630000", "191645.090000", "191645.550000", "191646.010000", "191646.470000", "191646.930000", "191647.390000", "191647.850000", "191648.310000", "191648.770000", "191649.230000", "191649.690000", "191650.150000", "191650.610000", "191651.070000", "191651.530000", "191651.990000", "191652.450000", "191652.910000", "191653.370000", "191653.830000", "191654.290000", "191654.750000", "191655.210000", "191655.670000", "191656.130000", "191656.590000", "191657.050000", "191657.510000", "191657.970000", "191658.430000", "191658.890000", "191659.350000", "191659.810000", "191700.270000", "191700.730000", "191701.190000", "191701.650000", "191702.110000", "191702.570000", "191703.030000", "191703.490000", "191703.950000", "191704.410000", "191704.870000", "191705.330000", "191705.790000", "191706.250000", "191706.710000", "191707.170000", "191707.630000", "191708.090000", "191708.550000", "191709.010000", "191709.470000", "191709.930000", "191710.390000", "191710.850000", "191711.310000", "191711.770000", "191712.230000", "191712.690000", "191713.150000", "191713.610000", "191714.070000", "191714.530000", "191714.990000", "191715.450000", "191715.910000", "191716.370000", "191716.830000", "191717.290000", "191717.750000", "191718.210000", "191718.670000", "191719.130000", "191719.590000", "191720.050000", "191720.510000", "191720.970000", "191721.430000", "191721.890000", "191722.350000", "191722.810000", "191723.270000", "191723.730000", "191724.190000", "191724.650000", "191725.110000", "191725.570000", "191726.030000", "191726.490000", "191726.950000", "191727.410000", "191727.870000", "191728.330000", "191728.790000", "191729.250000", "191729.710000", "191730.170000", "191730.630000", "191731.090000", "191731.550000", "191732.010000", "191732.470000", "191732.930000", "191733.390000", "191733.850000", "191734.310000", "191734.770000", "191735.230000", "191735.690000", "191736.150000", "191736.610000", "191737.070000", "191737.530000", "191737.990000", "191738.450000", "191738.910000", "191739.370000", "191739.830000", "191740.290000", "191740.750000", "191741.210000", "191741.670000", "191742.130000", "191742.590000", "191743.050000", "191743.510000", "191743.970000", "191744.430000", "191744.890000", "191745.350000", "191745.810000", "191746.270000", "191746.730000", "191747.190000", "191747.650000", "191748.110000", "191748.570000", "191749.030000", "191749.490000", "191749.950000", "191750.410000", "191750.870000", "191751.330000", "191751.790000", "191752.250000", "191752.710000", "191753.170000", "191753.630000", "191754.090000", "191754.550000", "191755.010000", "191755.470000", "191755.930000", "191756.390000", "191756.850000", "191757.310000", "191757.770000", "191758.230000", "191758.690000", "191759.150000", "191759.610000", "191800.070000", "191800.530000", "191800.990000", "191801.450000", "191801.910000", "191802.370000", "191802.830000", "191803.290000", "191803.750000", "191804.210000", "191804.670000", "191805.130000", "191805.590000", "191806.050000", "191806.510000", "191806.970000", "191807.430000", "191807.890000", "191808.350000", "191808.810000", "191809.270000", "191809.730000", "191810.190000", "191810.650000", "191811.110000", "191811.570000", "191812.030000", "191812.490000", "191812.950000", "191813.410000", "191813.870000", "191814.330000", "191814.790000", "191815.250000", "191815.710000", "191816.170000", "191816.630000", "191817.090000", "191817.550000", "191818.010000", "191818.470000", "191818.930000", "191819.390000", "191819.850000", "191820.310000", "191820.770000", "191821.230000", "191821.690000", "191822.150000", "191822.610000", "191823.070000", "191823.530000", "191823.990000", "191824.450000", "191824.910000", "191825.370000", "191825.830000", "191826.290000", "191826.750000", "191827.210000", "191827.670000", "191828.130000", "191828.590000", "191829.050000", "191829.510000", "191829.970000", "191830.430000", "191830.890000", "191831.350000", "191831.810000", "191832.270000", "191832.730000", "191833.190000", "191833.650000", "191834.110000", "191834.570000", "191835.030000", "191835.490000", "191835.950000", "191836.410000", "191836.870000", "191837.330000", "191837.790000", "191838.250000", "191838.710000", "191839.170000", "191839.630000", "191840.090000", "191840.550000", "191841.010000", "191841.470000", "191841.930000", "191842.390000", "191842.850000", "191843.310000", "191843.770000", "191844.230000", "191844.690000", "191845.150000", "191845.610000", "191846.070000", "191846.530000", "191846.990000", "191847.450000", "191847.910000", "191848.370000", "191848.830000", "191849.290000", "191849.750000", "191850.210000", "191850.670000", "191851.130000", "191851.590000", "191852.050000", "191852.510000", "191852.970000", "191853.430000", "191853.890000", "191854.350000", "191854.810000", "191855.270000", "191855.730000", "191856.190000", "191856.650000", "191857.110000", "191857.570000", "191858.030000", "191858.490000", "191858.950000", "191859.410000", "191859.870000", "191900.330000", "191900.790000", "191901.250000", "191901.710000", "191902.170000", "191902.630000", "191903.090000", "191903.550000", "191904.010000", "191904.470000", "191904.930000", "191905.390000", "191905.850000", "191906.310000", "191906.770000", "191907.230000", "191907.690000", "191908.150000", "191908.610000", "191909.070000", "191909.530000", "191909.990000", "191910.450000", "191910.910000", "191911.370000", "191911.830000", "191912.290000", "191912.750000", "191913.210000", "191913.670000", "191914.130000", "191914.590000", "191915.050000", "191915.510000", "191915.970000", "191916.430000", "191916.890000", "191917.350000", "191917.810000", "191918.270000", "191918.730000", "191919.190000", "191919.650000", "191920.110000", "191920.570000", "191921.030000", "191921.490000", "191921.950000", "191922.410000", "191922.870000", "191923.330000", "191923.790000", "191924.250000", "191924.710000", "191925.170000", "191925.630000", "191926.090000", "191926.550000", "191927.010000", "191927.470000", "191927.930000", "191928.390000", "191928.850000", "191929.310000", "191929.770000", "191930.230000", "191930.690000", "191931.150000", "191931.610000", "191932.070000", "191932.530000", "191932.990000", "191933.450000", "191933.910000", "191934.370000", "191934.830000", "191935.290000", "191935.750000", "191936.210000", "191936.670000", "191937.130000", "191937.590000", "191938.050000", "191938.510000", "191938.970000", "191939.430000", "191939.890000", "191940.350000", "191940.810000", "191941.270000", "191941.730000", "191942.190000", "191942.650000", "191943.110000", "191943.570000", "191944.030000", "191944.490000", "191944.950000", "191945.410000", "191945.870000", "191946.330000", "191946.790000", "191947.250000", "191947.710000", "191948.170000", "191948.630000", "191949.090000", "191949.550000", "191950.010000", "191950.470000", "191950.930000", "191951.390000", "191951.850000", "191952.310000", "191952.770000", "191953.230000", "191953.690000", "191954.150000", "191954.610000", "191955.070000", "191955.530000", "191955.990000", "191956.450000", "191956.910000", "191957.370000", "191957.830000", "191958.290000", "191958.750000", "191959.210000", "191959.670000", "192000.130000", "192000.590000", "192001.050000", "192001.510000", "192001.970000", "192002.430000", "192002.890000", "192003.350000", "192003.810000", "192004.270000", "192004.730000", "192005.190000", "192005.650000", "192006.110000", "192006.570000", "192007.030000", "192007.490000"],
