{
  "AcquisitionMatrixPE": 82,
  "AcquisitionNumber": 1,
  "AcquisitionTime": "18:51:47.415000",
  "BandwidthPerPixelPhaseEncode": 24.888,
  "BaseResolution": 82,
  "BodyPartExamined": "BRAIN",
  "ConsistencyInfo": "N4_VE11E_LATEST_20181129",
  "ConversionSoftware": "dcm2niix",
  "ConversionSoftwareVersion": "v1.0.20201102",
  "DerivedVendorReportedEchoSpacing": 0.00049,
  "DeviceSerialNumber": "66112",
  "DwellTime": 2e-06,
  "EchoTime": 0.0272,
  "EchoTrainLength": 82,
  "EffectiveEchoSpacing": 0.00049,
  "FlipAngle": 44,
  "ImageComments": "Unaliased MB8/PE3",
  "ImageOrientationPatientDICOM": [0.998515, 0.00735957, 0.053972, -0.0181264, 0.979255, 0.20182],
  "ImageType": [
    "ORIGINAL",
    "PRIMARY",
    "M",
    "MB",
    "ND",
    "NORM",
    "MOSAIC"
],
  "ImagingFrequency": 123.259,
  "InPlanePhaseEncodingDirectionDICOM": "COL",
  "InstitutionAddress": "Maynard 3,Hanover,NH,US,03755",
  "InstitutionName": "Dartmouth College - PBS",
  "InstitutionalDepartmentName": "Department",
  "MRAcquisitionType": "2D",
  "MagneticFieldStrength": 3,
  "Manufacturer": "Siemens",
  "ManufacturersModelName": "Prisma",
  "Modality": "MR",
  "MultibandAccelerationFactor": 8,
  "PartialFourier": 1,
  "PatientPosition": "HFS",
  "PercentPhaseFOV": 100,
  "PercentSampling": 100,
  "PhaseEncodingDirection": "j-",
  "PhaseEncodingSteps": 82,
  "PhaseResolution": 1,
  "PixelBandwidth": 3050,
  "ProcedureStepDescription": "Wager_Wager^1076_spacetop",
  "ProtocolName": "func_run-06_task-social_acq-ap-mb8",
  "PulseSequenceDetails": "%CustomerSeq%\\cmrr_mbep2d_bold",
  "ReceiveCoilActiveElements": "HEA;HEP",
  "ReceiveCoilName": "Head_32",
  "ReconMatrixPE": 82,
  "RepetitionTime": 0.46,
  "SAR": 0.0912852,
  "ScanOptions": "FS",
  "ScanningSequence": "EP",
  "SequenceName": "epfid2d1_82",
  "SequenceVariant": "SK\\SS",
  "SeriesDescription": "func_run-06_task-social_acq-ap-mb8",
  "SeriesNumber": 22,
  "ShimSetting": [4248, -7806, -7188, 431, -110, 75, 131, 51],
  "SliceThickness": 2.7,
  "SliceTiming": [0, 0.2525, 0.065, 0.315, 0.1275, 0.3775, 0.19, 0, 0.2525, 0.065, 0.315, 0.1275, 0.3775, 0.19, 0, 0.2525, 0.065, 0.315, 0.1275, 0.3775, 0.19, 0, 0.2525, 0.065, 0.315, 0.1275, 0.3775, 0.19, 0, 0.2525, 0.065, 0.315, 0.1275, 0.3775, 0.19, 0, 0.2525, 0.065, 0.315, 0.1275, 0.3775, 0.19, 0, 0.2525, 0.065, 0.315, 0.1275, 0.3775, 0.19, 0, 0.2525, 0.065, 0.315, 0.1275, 0.3775, 0.19],
  "SoftwareVersions": "syngo MR E11",
  "SpacingBetweenSlices": 2.7,
  "StationName": "AWP66112",
  "TaskName": "social",
  "TotalReadoutTime": 0.03969,
  "TxRefAmp": 226.906,
  "WipMemBlock": "5beb6c84-88ee-4434-8bd4-df2e1e44fbdf||Sequence: R016 ve11e/master r/434b28f1; Aug  7 2019 18:53:46 by eja",
  "dcmmeta_affine": [
    [-2.678943634033203, -0.0486319400370121, 0.13869091868400574, 111.45306396484375],
    [-0.019745193421840668, 2.6272690296173096, 0.5467473268508911, -114.78438568115234],
    [0.14480286836624146, -0.541469156742096, 2.6404225826263428, -39.27787399291992],
    [0.0, 0.0, 0.0, 1.0]
],
  "dcmmeta_reorient_transform": [
    [0.0, -1.0, 0.0, 81.0],
    [1.0, 0.0, 0.0, 0.0],
    [0.0, 0.0, 1.0, 0.0],
    [0.0, 0.0, 0.0, 1.0]
],
  "dcmmeta_shape": [82, 82, 56, 872],
  "dcmmeta_slice_dim": 2,
  "dcmmeta_version": 0.6,
  "global": {
    "const": {
      "AccessionNumber": "A004853",
      "AcquisitionMatrix": [82, 0, 0, 82],
      "AngioFlag": "N",
      "BitsAllocated": 16,
      "BitsStored": 16,
      "BodyPartExamined": "BRAIN",
      "Columns": 656,
      "EchoNumbers": 1,
      "EchoTime": 27.2,
      "EchoTrainLength": 82,
      "FlipAngle": 44.0,
      "HighBit": 15,
      "ImageOrientationPatient": [0.9985153291308, 0.00735957173972, 0.05397197601185, -0.018126449386, 0.9792548135553, 0.20182032098238],
      "ImagePositionPatient": [-862.41333035451, -857.71750688516, -280.09694824876],
      "ImageType": [
        "ORIGINAL",
        "PRIMARY",
        "M",
        "MB",
        "ND",
        "NORM",
        "MOSAIC"
],
      "ImagedNucleus": "1H",
      "ImagingFrequency": 123.259048,
      "InPlanePhaseEncodingDirection": "COL",
      "MRAcquisitionType": "2D",
      "MagneticFieldStrength": 3.0,
      "Manufacturer": "SIEMENS",
      "ManufacturerModelName": "Prisma",
      "Modality": "MR",
      "NumberOfAverages": 1.0,
      "NumberOfPhaseEncodingSteps": 82,
      "PercentPhaseFieldOfView": 100.0,
      "PercentSampling": 100.0,
      "PerformedProcedureStepStartTime": "172859.905000",
      "PhotometricInterpretation": "MONOCHROME2",
      "PixelBandwidth": 3050.0,
      "PixelRepresentation": 0,
      "PixelSpacing": [2.6829268932343, 2.6829268932343],
      "ProtocolName": "func_run-06_task-social_acq-ap-mb8",
      "RepetitionTime": 460.0,
      "Rows": 656,
      "SAR": 0.09128518223026,
      "SamplesPerPixel": 1,
      "ScanOptions": "FS",
      "ScanningSequence": "EP",
      "SequenceName": "epfid2d1_82",
      "SequenceVariant": [
        "SK",
        "SS"
],
      "SeriesDescription": "func_run-06_task-social_acq-ap-mb8",
      "SeriesNumber": 22,
      "SeriesTime": "185159.985000",
      "SliceLocation": -55.9298935521,
      "SliceThickness": 2.7000000476837,
      "SmallestImagePixelValue": 0,
      "SoftwareVersions": "syngo MR E11",
      "SpacingBetweenSlices": 2.6999999465164,
      "SpecificCharacterSet": "ISO_IR 100",
      "StudyID": "2",
      "StudyTime": "172859.842000",
      "TransmitCoilName": "Body",
      "VariableFlipAngleFlag": "N",
      "WindowCenterWidthExplanation": "Algo1"
    },
    "slices": {}
  },
  "time": {
    "samples": {
      "AcquisitionNumber": [1, 2, 3, 4, 5, 6, 7, 8, 9, 10, 11, 12, 13, 14, 15, 16, 17, 18, 19, 20, 21, 22, 23, 24, 25, 26, 27, 28, 29, 30, 31, 32, 33, 34, 35, 36, 37, 38, 39, 40, 41, 42, 43, 44, 45, 46, 47, 48, 49, 50, 51, 52, 53, 54, 55, 56, 57, 58, 59, 60, 61, 62, 63, 64, 65, 66, 67, 68, 69, 70, 71, 72, 73, 74, 75, 76, 77, 78, 79, 80, 81, 82, 83, 84, 85, 86, 87, 88, 89, 90, 91, 92, 93, 94, 95, 96, 97, 98, 99, 100, 101, 102, 103, 104, 105, 106, 107, 108, 109, 110, 111, 112, 113, 114, 115, 116, 117, 118, 119, 120, 121, 122, 123, 124, 125, 126, 127, 128, 129, 130, 131, 132, 133, 134, 135, 136, 137, 138, 139, 140, 141, 142, 143, 144, 145, 146, 147, 148, 149, 150, 151, 152, 153, 154, 155, 156, 157, 158, 159, 160, 161, 162, 163, 164, 165, 166, 167, 168, 169, 170, 171, 172, 173, 174, 175, 176, 177, 178, 179, 180, 181, 182, 183, 184, 185, 186, 187, 188, 189, 190, 191, 192, 193, 194, 195, 196, 197, 198, 199, 200, 201, 202, 203, 204, 205, 206, 207, 208, 209, 210, 211, 212, 213, 214, 215, 216, 217, 218, 219, 220, 221, 222, 223, 224, 225, 226, 227, 228, 229, 230, 231, 232, 233, 234, 235, 236, 237, 238, 239, 240, 241, 242, 243, 244, 245, 246, 247, 248, 249, 250, 251, 252, 253, 254, 255, 256, 257, 258, 259, 260, 261, 262, 263, 264, 265, 266, 267, 268, 269, 270, 271, 272, 273, 274, 275, 276, 277, 278, 279, 280, 281, 282, 283, 284, 285, 286, 287, 288, 289, 290, 291, 292, 293, 294, 295, 296, 297, 298, 299, 300, 301, 302, 303, 304, 305, 306, 307, 308, 309, 310, 311, 312, 313, 314, 315, 316, 317, 318, 319, 320, 321, 322, 323, 324, 325, 326, 327, 328, 329, 330, 331, 332, 333, 334, 335, 336, 337, 338, 339, 340, 341, 342, 343, 344, 345, 346, 347, 348, 349, 350, 351, 352, 353, 354, 355, 356, 357, 358, 359, 360, 361, 362, 363, 364, 365, 366, 367, 368, 369, 370, 371, 372, 373, 374, 375, 376, 377, 378, 379, 380, 381, 382, 383, 384, 385, 386, 387, 388, 389, 390, 391, 392, 393, 394, 395, 396, 397, 398, 399, 400, 401, 402, 403, 404, 405, 406, 407, 408, 409, 410, 411, 412, 413, 414, 415, 416, 417, 418, 419, 420, 421, 422, 423, 424, 425, 426, 427, 428, 429, 430, 431, 432, 433, 434, 435, 436, 437, 438, 439, 440, 441, 442, 443, 444, 445, 446, 447, 448, 449, 450, 451, 452, 453, 454, 455, 456, 457, 458, 459, 460, 461, 462, 463, 464, 465, 466, 467, 468, 469, 470, 471, 472, 473, 474, 475, 476, 477, 478, 479, 480, 481, 482, 483, 484, 485, 486, 487, 488, 489, 490, 491, 492, 493, 494, 495, 496, 497, 498, 499, 500, 501, 502, 503, 504, 505, 506, 507, 508, 509, 510, 511, 512, 513, 514, 515, 516, 517, 518, 519, 520, 521, 522, 523, 524, 525, 526, 527, 528, 529, 530, 531, 532, 533, 534, 535, 536, 537, 538, 539, 540, 541, 542, 543, 544, 545, 546, 547, 548, 549, 550, 551, 552, 553, 554, 555, 556, 557, 558, 559, 560, 561, 562, 563, 564, 565, 566, 567, 568, 569, 570, 571, 572, 573, 574, 575, 576, 577, 578, 579, 580, 581, 582, 583, 584, 585, 586, 587, 588, 589, 590, 591, 592, 593, 594, 595, 596, 597, 598, 599, 600, 601, 602, 603, 604, 605, 606, 607, 608, 609, 610, 611, 612, 613, 614, 615, 616, 617, 618, 619, 620, 621, 622, 623, 624, 625, 626, 627, 628, 629, 630, 631, 632, 633, 634, 635, 636, 637, 638, 639, 640, 641, 642, 643, 644, 645, 646, 647, 648, 649, 650, 651, 652, 653, 654, 655, 656, 657, 658, 659, 660, 661, 662, 663, 664, 665, 666, 667, 668, 669, 670, 671, 672, 673, 674, 675, 676, 677, 678, 679, 680, 681, 682, 683, 684, 685, 686, 687, 688, 689, 690, 691, 692, 693, 694, 695, 696, 697, 698, 699, 700, 701, 702, 703, 704, 705, 706, 707, 708, 709, 710, 711, 712, 713, 714, 715, 716, 717, 718, 719, 720, 721, 722, 723, 724, 725, 726, 727, 728, 729, 730, 731, 732, 733, 734, 735, 736, 737, 738, 739, 740, 741, 742, 743, 744, 745, 746, 747, 748, 749, 750, 751, 752, 753, 754, 755, 756, 757, 758, 759, 760, 761, 762, 763, 764, 765, 766, 767, 768, 769, 770, 771, 772, 773, 774, 775, 776, 777, 778, 779, 780, 781, 782, 783, 784, 785, 786, 787, 788, 789, 790, 791, 792, 793, 794, 795, 796, 797, 798, 799, 800, 801, 802, 803, 804, 805, 806, 807, 808, 809, 810, 811, 812, 813, 814, 815, 816, 817, 818, 819, 820, 821, 822, 823, 824, 825, 826, 827, 828, 829, 830, 831, 832, 833, 834, 835, 836, 837, 838, 839, 840, 841, 842, 843, 844, 845, 846, 847, 848, 849, 850, 851, 852, 853, 854, 855, 856, 857, 858, 859, 860, 861, 862, 863, 864, 865, 866, 867, 868, 869, 870, 871, 872],
      "AcquisitionTime": ["185147.415000", "185147.875000", "185148.335000", "185148.795000", "185149.255000", "185149.715000", "185150.175000", "185150.635000", "185151.095000", "185151.555000", "185152.015000", "185152.475000", "185152.935000", "185153.395000", "185153.855000", "185154.315000", "185154.775000", "185155.235000", "185155.695000", "185156.155000", "185156.615000", "185157.075000", "185157.535000", "185157.995000", "185158.455000", "185158.915000", "185159.375000", "185159.835000", "185200.295000", "185200.755000", "185201.215000", "185201.675000", "185202.135000", "185202.595000", "185203.055000", "185203.515000", "185203.975000", "185204.435000", "185204.895000", "185205.355000", "185205.815000", "185206.275000", "185206.735000", "185207.195000", "185207.655000", "185208.115000", "185208.575000", "185209.035000", "185209.495000", "185209.955000", "185210.415000", "185210.875000", "185211.335000", "185211.795000", "185212.255000", "185212.715000", "185213.175000", "185213.635000", "185214.095000", "185214.555000", "185215.015000", "185215.475000", "185215.935000", "185216.395000", "185216.855000", "185217.315000", "185217.775000", "185218.235000", "185218.695000", "185219.155000", "185219.615000", "185220.075000", "185220.535000", "185220.995000", "185221.455000", "185221.915000", "185222.375000", "185222.835000", "185223.295000", "185223.755000", "185224.215000", "185224.675000", "185225.135000", "185225.595000", "185226.055000", "185226.515000", "185226.975000", "185227.435000", "185227.895000", "185228.355000", "185228.815000", "185229.275000", "185229.735000", "185230.195000", "185230.655000", "185231.115000", "185231.575000", "185232.035000", "185232.495000", "185232.955000", "185233.415000", "185233.875000", "185234.335000", "185234.795000", "185235.255000", "185235.715000", "185236.175000", "185236.635000", "185237.095000", "185237.555000", "185238.015000", "185238.475000", "185238.935000", "185239.395000", "185239.855000", "185240.315000", "185240.775000", "185241.235000", "185241.695000", "185242.155000", "185242.615000", "185243.075000", "185243.535000", "185243.995000", "185244.455000", "185244.915000", "185245.375000", "185245.835000", "185246.295000", "185246.755000", "185247.215000", "185247.675000", "185248.135000", "185248.595000", "185249.055000", "185249.515000", "185249.975000", "185250.435000", "185250.895000", "185251.355000", "185251.815000", "185252.275000", "185252.735000", "185253.195000", "185253.655000", "185254.115000", "185254.575000", "185255.035000", "185255.495000", "185255.955000", "185256.415000", "185256.875000", "185257.335000", "185257.795000", "185258.255000", "185258.715000", "185259.175000", "185259.635000", "185300.095000", "185300.555000", "185301.015000", "185301.475000", "185301.935000", "185302.395000", "185302.855000", "185303.315000", "185303.775000", "185304.235000", "185304.695000", "185305.155000", "185305.615000", "185306.075000", "185306.535000", "185306.995000", "185307.455000", "185307.915000", "185308.375000", "185308.835000", "185309.295000", "185309.755000", "185310.215000", "185310.675000", "185311.135000", "185311.595000", "185312.055000", "185312.515000", "185312.975000", "185313.435000", "185313.895000", "185314.355000", "185314.815000", "185315.275000", "185315.735000", "185316.195000", "185316.655000", "185317.115000", "185317.575000", "185318.035000", "185318.495000", "185318.955000", "185319.415000", "185319.875000", "185320.335000", "185320.795000", "185321.255000", "185321.715000", "185322.175000", "185322.635000", "185323.095000", "185323.555000", "185324.015000", "185324.475000", "185324.935000", "185325.395000", "185325.855000", "185326.315000", "185326.775000", "185327.235000", "185327.695000", "185328.155000", "185328.615000", "185329.075000", "185329.535000", "185329.995000", "185330.455000", "185330.915000", "185331.375000", "185331.835000", "185332.295000", "185332.755000", "185333.215000", "185333.675000", "185334.135000", "185334.595000", "185335.055000", "185335.515000", "185335.975000", "185336.435000", "185336.895000", "185337.355000", "185337.815000", "185338.275000", "185338.735000", "185339.195000", "185339.655000", "185340.115000", "185340.575000", "185341.035000", "185341.495000", "185341.955000", "185342.415000", "185342.875000", "185343.335000", "185343.795000", "185344.255000", "185344.715000", "185345.175000", "185345.635000", "185346.095000", "185346.555000", "185347.015000", "185347.475000", "185347.935000", "185348.395000", "185348.855000", "185349.315000", "185349.775000", "185350.235000", "185350.695000", "185351.155000", "185351.615000", "185352.075000", "185352.535000", "185352.995000", "185353.455000", "185353.915000", "185354.375000", "185354.835000", "185355.295000", "185355.755000", "185356.215000", "185356.675000", "185357.135000", "185357.595000", "185358.055000", "185358.515000", "185358.975000", "185359.435000", "185359.895000", "185400.355000", "185400.815000", "185401.275000", "185401.735000", "185402.195000", "185402.655000", "185403.115000", "185403.575000", "185404.035000", "185404.495000", "185404.955000", "185405.415000", "185405.875000", "185406.335000", "185406.795000", "185407.255000", "185407.715000", "185408.175000", "185408.635000", "185409.095000", "185409.555000", "185410.015000", "185410.475000", "185410.935000", "185411.395000", "185411.855000", "185412.315000", "185412.775000", "185413.235000", "185413.695000", "185414.155000", "185414.615000", "185415.075000", "185415.535000", "185415.995000", "185416.455000", "185416.915000", "185417.375000", "185417.835000", "185418.295000", "185418.755000", "185419.215000", "185419.675000", "185420.135000", "185420.595000", "185421.055000", "185421.515000", "185421.975000", "185422.435000", "185422.895000", "185423.355000", "185423.815000", "185424.275000", "185424.735000", "185425.195000", "185425.655000", "185426.115000", "185426.575000", "185427.035000", "185427.495000", "185427.955000", "185428.415000", "185428.875000", "185429.335000", "185429.795000", "185430.255000", "185430.715000", "185431.175000", "185431.635000", "185432.095000", "185432.555000", "185433.015000", "185433.475000", "185433.935000", "185434.395000", "185434.855000", "185435.315000", "185435.775000", "185436.235000", "185436.695000", "185437.155000", "185437.615000", "185438.075000", "185438.535000", "185438.995000", "185439.455000", "185439.915000", "185440.375000", "185440.835000", "185441.295000", "185441.755000", "185442.215000", "185442.675000", "185443.135000", "185443.595000", "185444.055000", "185444.515000", "185444.975000", "185445.435000", "185445.895000", "185446.355000", "185446.815000", "185447.275000", "185447.735000", "185448.195000", "185448.655000", "185449.115000", "185449.575000", "185450.035000", "185450.495000", "185450.955000", "185451.415000", "185451.875000", "185452.335000", "185452.795000", "185453.255000", "185453.715000", "185454.175000", "185454.635000", "185455.095000", "185455.555000", "185456.015000", "185456.475000", "185456.935000", "185457.395000", "185457.855000", "185458.315000", "185458.775000", "185459.235000", "185459.695000", "185500.155000", "185500.615000", "185501.075000", "185501.535000", "185501.995000", "185502.455000", "185502.915000", "185503.375000", "185503.835000", "185504.295000", "185504.755000", "185505.215000", "185505.675000", "185506.135000", "185506.595000", "185507.055000", "185507.515000", "185507.975000", "185508.435000", "185508.895000", "185509.355000", "185509.815000", "185510.275000", "185510.735000", "185511.195000", "185511.655000", "185512.115000", "185512.575000", "185513.035000", "185513.495000", "185513.955000", "185514.415000", "185514.875000", "185515.335000", "185515.795000", "185516.255000", "185516.715000", "185517.175000", "185517.635000", "185518.095000", "185518.555000", "185519.015000", "185519.475000", "185519.935000", "185520.395000", "185520.855000", "185521.315000", "185521.775000", "185522.235000", "185522.695000", "185523.155000", "185523.615000", "185524.075000", "185524.535000", "185524.995000", "185525.455000", "185525.915000", "185526.375000", "185526.835000", "185527.295000", "185527.755000", "185528.215000", "185528.675000", "185529.135000", "185529.595000", "185530.055000", "185530.515000", "185530.975000", "185531.435000", "185531.895000", "185532.355000", "185532.815000", "185533.275000", "185533.735000", "185534.195000", "185534.655000", "185535.115000", "185535.575000", "185536.035000", "185536.495000", "185536.955000", "185537.415000", "185537.875000", "185538.335000", "185538.795000", "185539.255000", "185539.715000", "185540.175000", "185540.635000", "185541.095000", "185541.555000", "185542.015000", "185542.475000", "185542.935000", "185543.395000", "185543.855000", "185544.315000", "185544.775000", "185545.235000", "185545.695000", "185546.155000", "185546.615000", "185547.075000", "185547.535000", "185547.995000", "185548.455000", "185548.915000", "185549.375000", "185549.835000", "185550.295000", "185550.755000", "185551.215000", "185551.675000", "185552.135000", "185552.595000", "185553.055000", "185553.515000", "185553.975000", "185554.435000", "185554.895000", "185555.355000", "185555.815000", "185556.275000", "185556.735000", "185557.195000", "185557.655000", "185558.115000", "185558.575000", "185559.035000", "185559.495000", "185559.955000", "185600.415000", "185600.875000", "185601.335000", "185601.795000", "185602.255000", "185602.715000", "185603.175000", "185603.635000", "185604.095000", "185604.555000", "185605.015000", "185605.475000", "185605.935000", "185606.395000", "185606.855000", "185607.315000", "185607.775000", "185608.235000", "185608.695000", "185609.155000", "185609.615000", "185610.075000", "185610.535000", "185610.995000", "185611.455000", "185611.915000", "185612.375000", "185612.835000", "185613.295000", "185613.755000", "185614.215000", "185614.675000", "185615.135000", "185615.595000", "185616.055000", "185616.515000", "185616.975000", "185617.435000", "185617.895000", "185618.355000", "185618.815000", "185619.275000", "185619.735000", "185620.195000", "185620.655000", "185621.115000", "185621.575000", "185622.035000", "185622.495000", "185622.955000", "185623.415000", "185623.875000", "185624.335000", "185624.795000", "185625.255000", "185625.715000", "185626.175000", "185626.635000", "185627.095000", "185627.555000", "185628.015000", "185628.475000", "185628.935000", "185629.395000", "185629.855000", "185630.315000", "185630.775000", "185631.235000", "185631.695000", "185632.155000", "185632.615000", "185633.075000", "185633.535000", "185633.995000", "185634.455000", "185634.915000", "185635.375000", "185635.835000", "185636.295000", "185636.755000", "185637.215000", "185637.675000", "185638.135000", "185638.595000", "185639.055000", "185639.515000", "185639.975000", "185640.435000", "185640.895000", "185641.355000", "185641.815000", "185642.275000", "185642.735000", "185643.195000", "185643.655000", "185644.115000", "185644.575000", "185645.035000", "185645.495000", "185645.955000", "185646.415000", "185646.875000", "185647.335000", "185647.795000", "185648.255000", "185648.715000", "185649.175000", "185649.635000", "185650.095000", "185650.555000", "185651.015000", "185651.475000", "185651.935000", "185652.395000", "185652.855000", "185653.315000", "185653.775000", "185654.235000", "185654.695000", "185655.155000", "185655.615000", "185656.075000", "185656.535000", "185656.995000", "185657.455000", "185657.915000", "185658.375000", "185658.835000", "185659.295000", "185659.755000", "185700.215000", "185700.675000", "185701.135000", "185701.595000", "185702.055000", "185702.515000", "185702.975000", "185703.435000", "185703.895000", "185704.355000", "185704.815000", "185705.275000", "185705.735000", "185706.195000", "185706.655000", "185707.115000", "185707.575000", "185708.035000", "185708.495000", "185708.955000", "185709.415000", "185709.875000", "185710.335000", "185710.795000", "185711.255000", "185711.715000", "185712.175000", "185712.635000", "185713.095000", "185713.555000", "185714.015000", "185714.475000", "185714.935000", "185715.395000", "185715.855000", "185716.315000", "185716.775000", "185717.235000", "185717.695000", "185718.155000", "185718.615000", "185719.075000", "185719.535000", "185719.995000", "185720.455000", "185720.915000", "185721.375000", "185721.835000", "185722.295000", "185722.755000", "185723.215000", "185723.675000", "185724.135000", "185724.595000", "185725.055000", "185725.515000", "185725.975000", "185726.435000", "185726.895000", "185727.355000", "185727.815000", "185728.275000", "185728.735000", "185729.195000", "185729.655000", "185730.115000", "185730.575000", "185731.035000", "185731.495000", "185731.955000", "185732.415000", "185732.875000", "185733.335000", "185733.795000", "185734.255000", "185734.715000", "185735.175000", "185735.635000", "185736.095000", "185736.555000", "185737.015000", "185737.475000", "185737.935000", "185738.395000", "185738.855000", "185739.315000", "185739.775000", "185740.235000", "185740.695000", "185741.155000", "185741.615000", "185742.075000", "185742.535000", "185742.995000", "185743.455000", "185743.915000", "185744.375000", "185744.835000", "185745.295000", "185745.755000", "185746.215000", "185746.675000", "185747.135000", "185747.595000", "185748.055000", "185748.515000", "185748.975000", "185749.435000", "185749.895000", "185750.355000", "185750.815000", "185751.275000", "185751.735000", "185752.195000", "185752.655000", "185753.115000", "185753.575000", "185754.035000", "185754.495000", "185754.955000", "185755.415000", "185755.875000", "185756.335000", "185756.795000", "185757.255000", "185757.715000", "185758.175000", "185758.635000", "185759.095000", "185759.555000", "185800.015000", "185800.475000", "185800.935000", "185801.395000", "185801.855000", "185802.315000", "185802.775000", "185803.235000", "185803.695000", "185804.155000", "185804.615000", "185805.075000", "185805.535000", "185805.995000", "185806.455000", "185806.915000", "185807.375000", "185807.835000", "185808.295000", "185808.755000", "185809.215000", "185809.675000", "185810.135000", "185810.595000", "185811.055000", "185811.515000", "185811.975000", "185812.435000", "185812.895000", "185813.355000", "185813.815000", "185814.275000", "185814.735000", "185815.195000", "185815.655000", "185816.115000", "185816.575000", "185817.035000", "185817.495000", "185817.955000", "185818.415000", "185818.875000", "185819.335000", "185819.795000", "185820.255000", "185820.715000", "185821.175000", "185821.635000", "185822.095000", "185822.555000", "185823.015000", "185823.475000", "185823.935000", "185824.395000", "185824.855000", "185825.315000", "185825.775000", "185826.235000", "185826.695000", "185827.155000", "185827.615000", "185828.075000"],
