{
  "AcquisitionMatrixPE": 82,
  "AcquisitionNumber": 1,
  "AcquisitionTime": "18:20:38.895000",
  "BandwidthPerPixelPhaseEncode": 24.888,
  "BaseResolution": 82,
  "BodyPartExamined": "BRAIN",
  "ConsistencyInfo": "N4_VE11E_LATEST_20181129",
  "ConversionSoftware": "dcm2niix",
  "ConversionSoftwareVersion": "v1.0.20201102",
  "DerivedVendorReportedEchoSpacing": 0.00049,
  "DeviceSerialNumber": "66112",
  "DwellTime": 2e-06,
  "EchoTime": 0.0272,
  "EchoTrainLength": 82,
  "EffectiveEchoSpacing": 0.00049,
  "FlipAngle": 44,
  "ImageComments": "Unaliased MB8/PE3",
  "ImageOrientationPatientDICOM": [0.998515, 0.00735957, 0.053972, -0.0181264, 0.979255, 0.20182],
  "ImageType": [
    "ORIGINAL",
    "PRIMARY",
    "M",
    "MB",
    "ND",
    "NORM",
    "MOSAIC"
],
  "ImagingFrequency": 123.259,
  "InPlanePhaseEncodingDirectionDICOM": "COL",
  "InstitutionAddress": "Maynard 3,Hanover,NH,US,03755",
  "InstitutionName": "Dartmouth College - PBS",
  "InstitutionalDepartmentName": "Department",
  "MRAcquisitionType": "2D",
  "MagneticFieldStrength": 3,
  "Manufacturer": "Siemens",
  "ManufacturersModelName": "Prisma",
  "Modality": "MR",
  "MultibandAccelerationFactor": 8,
  "PartialFourier": 1,
  "PatientPosition": "HFS",
  "PercentPhaseFOV": 100,
  "PercentSampling": 100,
  "PhaseEncodingDirection": "j-",
  "PhaseEncodingSteps": 82,
  "PhaseResolution": 1,
  "PixelBandwidth": 3050,
  "ProcedureStepDescription": "Wager_Wager^1076_spacetop",
  "ProtocolName": "func_run-02_task-social_acq-ap-mb8",
  "PulseSequenceDetails": "%CustomerSeq%\\cmrr_mbep2d_bold",
  "ReceiveCoilActiveElements": "HEA;HEP",
  "ReceiveCoilName": "Head_32",
  "ReconMatrixPE": 82,
  "RepetitionTime": 0.46,
  "SAR": 0.0912852,
  "ScanOptions": "FS",
  "ScanningSequence": "EP",
  "SequenceName": "epfid2d1_82",
  "SequenceVariant": "SK\\SS",
  "SeriesDescription": "func_run-02_task-social_acq-ap-mb8",
  "SeriesNumber": 14,
  "ShimSetting": [4248, -7806, -7188, 431, -110, 75, 131, 51],
  "SliceThickness": 2.7,
  "SliceTiming": [0, 0.2525, 0.0625, 0.315, 0.125, 0.3775, 0.1875, 0, 0.2525, 0.0625, 0.315, 0.125, 0.3775, 0.1875, 0, 0.2525, 0.0625, 0.315, 0.125, 0.3775, 0.1875, 0, 0.2525, 0.0625, 0.315, 0.125, 0.3775, 0.1875, 0, 0.2525, 0.0625, 0.315, 0.125, 0.3775, 0.1875, 0, 0.2525, 0.0625, 0.315, 0.125, 0.3775, 0.1875, 0, 0.2525, 0.0625, 0.315, 0.125, 0.3775, 0.1875, 0, 0.2525, 0.0625, 0.315, 0.125, 0.3775, 0.1875],
  "SoftwareVersions": "syngo MR E11",
  "SpacingBetweenSlices": 2.7,
  "StationName": "AWP66112",
  "TaskName": "social",
  "TotalReadoutTime": 0.03969,
  "TxRefAmp": 226.906,
  "WipMemBlock": "f966f7db-ca40-4621-a530-a59ef1e6a30c||Sequence: R016 ve11e/master r/434b28f1; Aug  7 2019 18:53:46 by eja",
  "dcmmeta_affine": [
    [-2.678943634033203, -0.0486319400370121, 0.13869091868400574, 111.45306396484375],
    [-0.019745193421840668, 2.6272690296173096, 0.5467473268508911, -114.78438568115234],
    [0.14480286836624146, -0.541469156742096, 2.6404225826263428, -39.27787399291992],
    [0.0, 0.0, 0.0, 1.0]
],
  "dcmmeta_reorient_transform": [
    [0.0, -1.0, 0.0, 81.0],
    [1.0, 0.0, 0.0, 0.0],
    [0.0, 0.0, 1.0, 0.0],
    [0.0, 0.0, 0.0, 1.0]
],
  "dcmmeta_shape": [82, 82, 56, 872],
  "dcmmeta_slice_dim": 2,
  "dcmmeta_version": 0.6,
  "global": {
    "const": {
      "AccessionNumber": "A004853",
      "AcquisitionMatrix": [82, 0, 0, 82],
      "AngioFlag": "N",
      "BitsAllocated": 16,
      "BitsStored": 16,
      "BodyPartExamined": "BRAIN",
      "Columns": 656,
      "EchoNumbers": 1,
      "EchoTime": 27.2,
      "EchoTrainLength": 82,
      "FlipAngle": 44.0,
      "HighBit": 15,
      "ImageOrientationPatient": [0.9985153291308, 0.00735957173972, 0.05397197601185, -0.018126449386, 0.9792548135553, 0.20182032098238],
      "ImagePositionPatient": [-862.41333035451, -857.71750688516, -280.09694824876],
      "ImageType": [
        "ORIGINAL",
        "PRIMARY",
        "M",
        "MB",
        "ND",
        "NORM",
        "MOSAIC"
],
      "ImagedNucleus": "1H",
      "ImagingFrequency": 123.25904,
      "InPlanePhaseEncodingDirection": "COL",
      "MRAcquisitionType": "2D",
      "MagneticFieldStrength": 3.0,
      "Manufacturer": "SIEMENS",
      "ManufacturerModelName": "Prisma",
      "Modality": "MR",
      "NumberOfAverages": 1.0,
      "NumberOfPhaseEncodingSteps": 82,
      "PercentPhaseFieldOfView": 100.0,
      "PercentSampling": 100.0,
      "PerformedProcedureStepStartTime": "172859.905000",
      "PhotometricInterpretation": "MONOCHROME2",
      "PixelBandwidth": 3050.0,
      "PixelRepresentation": 0,
      "PixelSpacing": [2.6829268932343, 2.6829268932343],
      "ProtocolName": "func_run-02_task-social_acq-ap-mb8",
      "RepetitionTime": 460.0,
      "Rows": 656,
      "SAR": 0.09128518223026,
      "SamplesPerPixel": 1,
      "ScanOptions": "FS",
      "ScanningSequence": "EP",
      "SequenceName": "epfid2d1_82",
      "SequenceVariant": [
        "SK",
        "SS"
],
      "SeriesDescription": "func_run-02_task-social_acq-ap-mb8",
      "SeriesNumber": 14,
      "SeriesTime": "182059.856000",
      "SliceLocation": -55.9298935521,
      "SliceThickness": 2.7000000476837,
      "SmallestImagePixelValue": 0,
      "SoftwareVersions": "syngo MR E11",
      "SpacingBetweenSlices": 2.6999999465164,
      "SpecificCharacterSet": "ISO_IR 100",
      "StudyID": "2",
      "StudyTime": "172859.842000",
      "TransmitCoilName": "Body",
      "VariableFlipAngleFlag": "N",
      "WindowCenterWidthExplanation": "Algo1"
    },
    "slices": {}
  },
  "time": {
    "samples": {
      "AcquisitionNumber": [1, 2, 3, 4, 5, 6, 7, 8, 9, 10, 11, 12, 13, 14, 15, 16, 17, 18, 19, 20, 21, 22, 23, 24, 25, 26, 27, 28, 29, 30, 31, 32, 33, 34, 35, 36, 37, 38, 39, 40, 41, 42, 43, 44, 45, 46, 47, 48, 49, 50, 51, 52, 53, 54, 55, 56, 57, 58, 59, 60, 61, 62, 63, 64, 65, 66, 67, 68, 69, 70, 71, 72, 73, 74, 75, 76, 77, 78, 79, 80, 81, 82, 83, 84, 85, 86, 87, 88, 89, 90, 91, 92, 93, 94, 95, 96, 97, 98, 99, 100, 101, 102, 103, 104, 105, 106, 107, 108, 109, 110, 111, 112, 113, 114, 115, 116, 117, 118, 119, 120, 121, 122, 123, 124, 125, 126, 127, 128, 129, 130, 131, 132, 133, 134, 135, 136, 137, 138, 139, 140, 141, 142, 143, 144, 145, 146, 147, 148, 149, 150, 151, 152, 153, 154, 155, 156, 157, 158, 159, 160, 161, 162, 163, 164, 165, 166, 167, 168, 169, 170, 171, 172, 173, 174, 175, 176, 177, 178, 179, 180, 181, 182, 183, 184, 185, 186, 187, 188, 189, 190, 191, 192, 193, 194, 195, 196, 197, 198, 199, 200, 201, 202, 203, 204, 205, 206, 207, 208, 209, 210, 211, 212, 213, 214, 215, 216, 217, 218, 219, 220, 221, 222, 223, 224, 225, 226, 227, 228, 229, 230, 231, 232, 233, 234, 235, 236, 237, 238, 239, 240, 241, 242, 243, 244, 245, 246, 247, 248, 249, 250, 251, 252, 253, 254, 255, 256, 257, 258, 259, 260, 261, 262, 263, 264, 265, 266, 267, 268, 269, 270, 271, 272, 273, 274, 275, 276, 277, 278, 279, 280, 281, 282, 283, 284, 285, 286, 287, 288, 289, 290, 291, 292, 293, 294, 295, 296, 297, 298, 299, 300, 301, 302, 303, 304, 305, 306, 307, 308, 309, 310, 311, 312, 313, 314, 315, 316, 317, 318, 319, 320, 321, 322, 323, 324, 325, 326, 327, 328, 329, 330, 331, 332, 333, 334, 335, 336, 337, 338, 339, 340, 341, 342, 343, 344, 345, 346, 347, 348, 349, 350, 351, 352, 353, 354, 355, 356, 357, 358, 359, 360, 361, 362, 363, 364, 365, 366, 367, 368, 369, 370, 371, 372, 373, 374, 375, 376, 377, 378, 379, 380, 381, 382, 383, 384, 385, 386, 387, 388, 389, 390, 391, 392, 393, 394, 395, 396, 397, 398, 399, 400, 401, 402, 403, 404, 405, 406, 407, 408, 409, 410, 411, 412, 413, 414, 415, 416, 417, 418, 419, 420, 421, 422, 423, 424, 425, 426, 427, 428, 429, 430, 431, 432, 433, 434, 435, 436, 437, 438, 439, 440, 441, 442, 443, 444, 445, 446, 447, 448, 449, 450, 451, 452, 453, 454, 455, 456, 457, 458, 459, 460, 461, 462, 463, 464, 465, 466, 467, 468, 469, 470, 471, 472, 473, 474, 475, 476, 477, 478, 479, 480, 481, 482, 483, 484, 485, 486, 487, 488, 489, 490, 491, 492, 493, 494, 495, 496, 497, 498, 499, 500, 501, 502, 503, 504, 505, 506, 507, 508, 509, 510, 511, 512, 513, 514, 515, 516, 517, 518, 519, 520, 521, 522, 523, 524, 525, 526, 527, 528, 529, 530, 531, 532, 533, 534, 535, 536, 537, 538, 539, 540, 541, 542, 543, 544, 545, 546, 547, 548, 549, 550, 551, 552, 553, 554, 555, 556, 557, 558, 559, 560, 561, 562, 563, 564, 565, 566, 567, 568, 569, 570, 571, 572, 573, 574, 575, 576, 577, 578, 579, 580, 581, 582, 583, 584, 585, 586, 587, 588, 589, 590, 591, 592, 593, 594, 595, 596, 597, 598, 599, 600, 601, 602, 603, 604, 605, 606, 607, 608, 609, 610, 611, 612, 613, 614, 615, 616, 617, 618, 619, 620, 621, 622, 623, 624, 625, 626, 627, 628, 629, 630, 631, 632, 633, 634, 635, 636, 637, 638, 639, 640, 641, 642, 643, 644, 645, 646, 647, 648, 649, 650, 651, 652, 653, 654, 655, 656, 657, 658, 659, 660, 661, 662, 663, 664, 665, 666, 667, 668, 669, 670, 671, 672, 673, 674, 675, 676, 677, 678, 679, 680, 681, 682, 683, 684, 685, 686, 687, 688, 689, 690, 691, 692, 693, 694, 695, 696, 697, 698, 699, 700, 701, 702, 703, 704, 705, 706, 707, 708, 709, 710, 711, 712, 713, 714, 715, 716, 717, 718, 719, 720, 721, 722, 723, 724, 725, 726, 727, 728, 729, 730, 731, 732, 733, 734, 735, 736, 737, 738, 739, 740, 741, 742, 743, 744, 745, 746, 747, 748, 749, 750, 751, 752, 753, 754, 755, 756, 757, 758, 759, 760, 761, 762, 763, 764, 765, 766, 767, 768, 769, 770, 771, 772, 773, 774, 775, 776, 777, 778, 779, 780, 781, 782, 783, 784, 785, 786, 787, 788, 789, 790, 791, 792, 793, 794, 795, 796, 797, 798, 799, 800, 801, 802, 803, 804, 805, 806, 807, 808, 809, 810, 811, 812, 813, 814, 815, 816, 817, 818, 819, 820, 821, 822, 823, 824, 825, 826, 827, 828, 829, 830, 831, 832, 833, 834, 835, 836, 837, 838, 839, 840, 841, 842, 843, 844, 845, 846, 847, 848, 849, 850, 851, 852, 853, 854, 855, 856, 857, 858, 859, 860, 861, 862, 863, 864, 865, 866, 867, 868, 869, 870, 871, 872],
      "AcquisitionTime": ["182038.895000", "182039.355000", "182039.815000", "182040.275000", "182040.735000", "182041.195000", "182041.655000", "182042.115000", "182042.575000", "182043.035000", "182043.495000", "182043.955000", "182044.415000", "182044.875000", "182045.335000", "182045.795000", "182046.255000", "182046.715000", "182047.175000", "182047.635000", "182048.095000", "182048.555000", "182049.015000", "182049.475000", "182049.935000", "182050.395000", "182050.855000", "182051.315000", "182051.775000", "182052.235000", "182052.695000", "182053.155000", "182053.615000", "182054.075000", "182054.535000", "182054.995000", "182055.455000", "182055.915000", "182056.375000", "182056.835000", "182057.295000", "182057.755000", "182058.215000", "182058.675000", "182059.135000", "182059.595000", "182100.055000", "182100.515000", "182100.975000", "182101.435000", "182101.895000", "182102.355000", "182102.815000", "182103.275000", "182103.735000", "182104.195000", "182104.655000", "182105.115000", "182105.575000", "182106.035000", "182106.495000", "182106.955000", "182107.415000", "182107.875000", "182108.335000", "182108.795000", "182109.255000", "182109.715000", "182110.175000", "182110.635000", "182111.095000", "182111.555000", "182112.015000", "182112.475000", "182112.935000", "182113.395000", "182113.855000", "182114.315000", "182114.775000", "182115.235000", "182115.695000", "182116.155000", "182116.615000", "182117.075000", "182117.535000", "182117.995000", "182118.455000", "182118.915000", "182119.375000", "182119.835000", "182120.295000", "182120.755000", "182121.215000", "182121.675000", "182122.135000", "182122.595000", "182123.055000", "182123.515000", "182123.975000", "182124.435000", "182124.895000", "182125.355000", "182125.815000", "182126.275000", "182126.735000", "182127.195000", "182127.655000", "182128.115000", "182128.575000", "182129.035000", "182129.495000", "182129.955000", "182130.415000", "182130.875000", "182131.335000", "182131.795000", "182132.255000", "182132.715000", "182133.175000", "182133.635000", "182134.095000", "182134.555000", "182135.015000", "182135.475000", "182135.935000", "182136.395000", "182136.855000", "182137.315000", "182137.775000", "182138.235000", "182138.695000", "182139.155000", "182139.615000", "182140.075000", "182140.535000", "182140.995000", "182141.455000", "182141.915000", "182142.375000", "182142.835000", "182143.295000", "182143.755000", "182144.215000", "182144.675000", "182145.135000", "182145.595000", "182146.055000", "182146.515000", "182146.975000", "182147.435000", "182147.895000", "182148.355000", "182148.815000", "182149.275000", "182149.735000", "182150.195000", "182150.655000", "182151.115000", "182151.575000", "182152.035000", "182152.495000", "182152.955000", "182153.415000", "182153.875000", "182154.335000", "182154.795000", "182155.255000", "182155.715000", "182156.175000", "182156.635000", "182157.095000", "182157.555000", "182158.015000", "182158.475000", "182158.935000", "182159.395000", "182159.855000", "182200.315000", "182200.775000", "182201.235000", "182201.695000", "182202.155000", "182202.615000", "182203.075000", "182203.535000", "182203.995000", "182204.455000", "182204.915000", "182205.375000", "182205.835000", "182206.295000", "182206.755000", "182207.215000", "182207.675000", "182208.135000", "182208.595000", "182209.055000", "182209.515000", "182209.975000", "182210.435000", "182210.895000", "182211.355000", "182211.815000", "182212.275000", "182212.735000", "182213.195000", "182213.655000", "182214.115000", "182214.575000", "182215.035000", "182215.495000", "182215.955000", "182216.415000", "182216.875000", "182217.335000", "182217.795000", "182218.255000", "182218.715000", "182219.175000", "182219.635000", "182220.095000", "182220.555000", "182221.015000", "182221.475000", "182221.935000", "182222.395000", "182222.855000", "182223.315000", "182223.775000", "182224.235000", "182224.695000", "182225.155000", "182225.615000", "182226.075000", "182226.535000", "182226.995000", "182227.455000", "182227.915000", "182228.375000", "182228.835000", "182229.295000", "182229.755000", "182230.215000", "182230.675000", "182231.135000", "182231.595000", "182232.055000", "182232.515000", "182232.975000", "182233.435000", "182233.895000", "182234.355000", "182234.815000", "182235.275000", "182235.735000", "182236.195000", "182236.655000", "182237.115000", "182237.575000", "182238.035000", "182238.495000", "182238.955000", "182239.415000", "182239.875000", "182240.335000", "182240.795000", "182241.255000", "182241.715000", "182242.175000", "182242.635000", "182243.095000", "182243.555000", "182244.015000", "182244.475000", "182244.935000", "182245.395000", "182245.855000", "182246.315000", "182246.775000", "182247.235000", "182247.695000", "182248.155000", "182248.615000", "182249.075000", "182249.535000", "182249.995000", "182250.455000", "182250.915000", "182251.375000", "182251.835000", "182252.295000", "182252.755000", "182253.215000", "182253.675000", "182254.135000", "182254.595000", "182255.055000", "182255.515000", "182255.975000", "182256.435000", "182256.895000", "182257.355000", "182257.815000", "182258.275000", "182258.735000", "182259.195000", "182259.655000", "182300.115000", "182300.575000", "182301.035000", "182301.495000", "182301.955000", "182302.415000", "182302.875000", "182303.335000", "182303.795000", "182304.255000", "182304.715000", "182305.175000", "182305.635000", "182306.095000", "182306.555000", "182307.015000", "182307.475000", "182307.935000", "182308.395000", "182308.855000", "182309.315000", "182309.775000", "182310.235000", "182310.695000", "182311.155000", "182311.615000", "182312.075000", "182312.535000", "182312.995000", "182313.455000", "182313.915000", "182314.375000", "182314.835000", "182315.295000", "182315.755000", "182316.215000", "182316.675000", "182317.135000", "182317.595000", "182318.055000", "182318.515000", "182318.975000", "182319.435000", "182319.895000", "182320.355000", "182320.815000", "182321.275000", "182321.735000", "182322.195000", "182322.655000", "182323.115000", "182323.575000", "182324.035000", "182324.495000", "182324.955000", "182325.415000", "182325.875000", "182326.335000", "182326.795000", "182327.255000", "182327.715000", "182328.175000", "182328.635000", "182329.095000", "182329.555000", "182330.015000", "182330.475000", "182330.935000", "182331.395000", "182331.855000", "182332.315000", "182332.775000", "182333.235000", "182333.695000", "182334.155000", "182334.615000", "182335.075000", "182335.535000", "182335.995000", "182336.455000", "182336.915000", "182337.375000", "182337.835000", "182338.295000", "182338.755000", "182339.215000", "182339.675000", "182340.135000", "182340.595000", "182341.055000", "182341.515000", "182341.975000", "182342.435000", "182342.895000", "182343.355000", "182343.815000", "182344.275000", "182344.735000", "182345.195000", "182345.655000", "182346.115000", "182346.575000", "182347.035000", "182347.495000", "182347.955000", "182348.415000", "182348.875000", "182349.335000", "182349.795000", "182350.255000", "182350.715000", "182351.175000", "182351.635000", "182352.095000", "182352.555000", "182353.015000", "182353.475000", "182353.935000", "182354.395000", "182354.855000", "182355.315000", "182355.775000", "182356.235000", "182356.695000", "182357.155000", "182357.615000", "182358.075000", "182358.535000", "182358.995000", "182359.455000", "182359.915000", "182400.375000", "182400.835000", "182401.295000", "182401.755000", "182402.215000", "182402.675000", "182403.135000", "182403.595000", "182404.055000", "182404.515000", "182404.975000", "182405.435000", "182405.895000", "182406.355000", "182406.815000", "182407.275000", "182407.735000", "182408.195000", "182408.655000", "182409.115000", "182409.575000", "182410.035000", "182410.495000", "182410.955000", "182411.415000", "182411.875000", "182412.335000", "182412.795000", "182413.255000", "182413.715000", "182414.175000", "182414.635000", "182415.095000", "182415.555000", "182416.015000", "182416.475000", "182416.935000", "182417.395000", "182417.855000", "182418.315000", "182418.775000", "182419.235000", "182419.695000", "182420.155000", "182420.615000", "182421.075000", "182421.535000", "182421.995000", "182422.455000", "182422.915000", "182423.375000", "182423.835000", "182424.295000", "182424.755000", "182425.215000", "182425.675000", "182426.135000", "182426.595000", "182427.055000", "182427.515000", "182427.975000", "182428.435000", "182428.895000", "182429.355000", "182429.815000", "182430.275000", "182430.735000", "182431.195000", "182431.655000", "182432.115000", "182432.575000", "182433.035000", "182433.495000", "182433.955000", "182434.415000", "182434.875000", "182435.335000", "182435.795000", "182436.255000", "182436.715000", "182437.175000", "182437.635000", "182438.095000", "182438.555000", "182439.015000", "182439.475000", "182439.935000", "182440.395000", "182440.855000", "182441.315000", "182441.775000", "182442.235000", "182442.695000", "182443.155000", "182443.615000", "182444.075000", "182444.535000", "182444.995000", "182445.455000", "182445.915000", "182446.375000", "182446.835000", "182447.295000", "182447.755000", "182448.215000", "182448.675000", "182449.135000", "182449.595000", "182450.055000", "182450.515000", "182450.975000", "182451.435000", "182451.895000", "182452.355000", "182452.815000", "182453.275000", "182453.735000", "182454.195000", "182454.655000", "182455.115000", "182455.575000", "182456.035000", "182456.495000", "182456.955000", "182457.415000", "182457.875000", "182458.335000", "182458.795000", "182459.255000", "182459.715000", "182500.175000", "182500.635000", "182501.095000", "182501.555000", "182502.015000", "182502.475000", "182502.935000", "182503.395000", "182503.855000", "182504.315000", "182504.775000", "182505.235000", "182505.695000", "182506.155000", "182506.615000", "182507.075000", "182507.535000", "182507.995000", "182508.455000", "182508.915000", "182509.375000", "182509.835000", "182510.295000", "182510.755000", "182511.215000", "182511.675000", "182512.135000", "182512.595000", "182513.055000", "182513.515000", "182513.975000", "182514.435000", "182514.895000", "182515.355000", "182515.815000", "182516.275000", "182516.735000", "182517.195000", "182517.655000", "182518.115000", "182518.575000", "182519.035000", "182519.495000", "182519.955000", "182520.415000", "182520.875000", "182521.335000", "182521.795000", "182522.255000", "182522.715000", "182523.175000", "182523.635000", "182524.095000", "182524.555000", "182525.015000", "182525.475000", "182525.935000", "182526.395000", "182526.855000", "182527.315000", "182527.775000", "182528.235000", "182528.695000", "182529.155000", "182529.615000", "182530.075000", "182530.535000", "182530.995000", "182531.455000", "182531.915000", "182532.375000", "182532.835000", "182533.295000", "182533.755000", "182534.215000", "182534.675000", "182535.135000", "182535.595000", "182536.055000", "182536.515000", "182536.975000", "182537.435000", "182537.895000", "182538.355000", "182538.815000", "182539.275000", "182539.735000", "182540.195000", "182540.655000", "182541.115000", "182541.575000", "182542.035000", "182542.495000", "182542.955000", "182543.415000", "182543.875000", "182544.335000", "182544.795000", "182545.255000", "182545.715000", "182546.175000", "182546.635000", "182547.095000", "182547.555000", "182548.015000", "182548.475000", "182548.935000", "182549.395000", "182549.855000", "182550.315000", "182550.775000", "182551.235000", "182551.695000", "182552.155000", "182552.615000", "182553.075000", "182553.535000", "182553.995000", "182554.455000", "182554.915000", "182555.375000", "182555.835000", "182556.295000", "182556.755000", "182557.215000", "182557.675000", "182558.135000", "182558.595000", "182559.055000", "182559.515000", "182559.975000", "182600.435000", "182600.895000", "182601.355000", "182601.815000", "182602.275000", "182602.735000", "182603.195000", "182603.655000", "182604.115000", "182604.575000", "182605.035000", "182605.495000", "182605.955000", "182606.415000", "182606.875000", "182607.335000", "182607.795000", "182608.255000", "182608.715000", "182609.175000", "182609.635000", "182610.095000", "182610.555000", "182611.015000", "182611.475000", "182611.935000", "182612.395000", "182612.855000", "182613.315000", "182613.775000", "182614.235000", "182614.695000", "182615.155000", "182615.615000", "182616.075000", "182616.535000", "182616.995000", "182617.455000", "182617.915000", "182618.375000", "182618.835000", "182619.295000", "182619.755000", "182620.215000", "182620.675000", "182621.135000", "182621.595000", "182622.055000", "182622.515000", "182622.975000", "182623.435000", "182623.895000", "182624.355000", "182624.815000", "182625.275000", "182625.735000", "182626.195000", "182626.655000", "182627.115000", "182627.575000", "182628.035000", "182628.495000", "182628.955000", "182629.415000", "182629.875000", "182630.335000", "182630.795000", "182631.255000", "182631.715000", "182632.175000", "182632.635000", "182633.095000", "182633.555000", "182634.015000", "182634.475000", "182634.935000", "182635.395000", "182635.855000", "182636.315000", "182636.775000", "182637.235000", "182637.695000", "182638.155000", "182638.615000", "182639.075000", "182639.535000", "182639.995000", "182640.455000", "182640.915000", "182641.375000", "182641.835000", "182642.295000", "182642.755000", "182643.215000", "182643.675000", "182644.135000", "182644.595000", "182645.055000", "182645.515000", "182645.975000", "182646.435000", "182646.895000", "182647.355000", "182647.815000", "182648.275000", "182648.735000", "182649.195000", "182649.655000", "182650.115000", "182650.575000", "182651.035000", "182651.495000", "182651.955000", "182652.415000", "182652.875000", "182653.335000", "182653.795000", "182654.255000", "182654.715000", "182655.175000", "182655.635000", "182656.095000", "182656.555000", "182657.015000", "182657.475000", "182657.935000", "182658.395000", "182658.855000", "182659.315000", "182659.775000", "182700.235000", "182700.695000", "182701.155000", "182701.615000", "182702.075000", "182702.535000", "182702.995000", "182703.455000", "182703.915000", "182704.375000", "182704.835000", "182705.295000", "182705.755000", "182706.215000", "182706.675000", "182707.135000", "182707.595000", "182708.055000", "182708.515000", "182708.975000", "182709.435000", "182709.895000", "182710.355000", "182710.815000", "182711.275000", "182711.735000", "182712.195000", "182712.655000", "182713.115000", "182713.575000", "182714.035000", "182714.495000", "182714.955000", "182715.415000", "182715.875000", "182716.335000", "182716.795000", "182717.255000", "182717.715000", "182718.175000", "182718.635000", "182719.095000", "182719.555000"],
