{
  "AcquisitionMatrixPE": 140,
  "AcquisitionNumber": 1,
  "AcquisitionTime": "15:45:25.757500",
  "BandwidthPerPixelPhaseEncode": 10.352,
  "BaseResolution": 140,
  "BodyPartExamined": "BRAIN",
  "ConsistencyInfo": "N4_VE11E_LATEST_20181129",
  "ConversionSoftware": "dcm2niix",
  "ConversionSoftwareVersion": "v1.0.20201102",
  "DerivedVendorReportedEchoSpacing": 0.000689998,
  "DeviceSerialNumber": "66112",
  "DiffusionScheme": "Monopolar",
  "DwellTime": 2.1e-06,
  "EchoTime": 0.088,
  "EchoTrainLength": 105,
  "EffectiveEchoSpacing": 0.000689998,
  "FlipAngle": 90,
  "ImageComments": "Unaliased MB3/PE3",
  "ImageOrientationPatientDICOM": [0.995652, -0.0103441, -0.0925794, 0.0180745, 0.996381, 0.0830555],
  "ImageType": [
    "ORIGINAL",
    "PRIMARY",
    "DIFFUSION",
    "NONE",
    "MB",
    "ND"
],
  "ImagingFrequency": 123.259,
  "InPlanePhaseEncodingDirectionDICOM": "COL",
  "InstitutionAddress": "Maynard 3,Hanover,NH,US,03755",
  "InstitutionName": "Dartmouth College - PBS",
  "InstitutionalDepartmentName": "Department",
  "IntendedFor": [
    "ses-01/dwi/sub-0102_ses-01_acq-96dirX6b0Xmb_dwi.nii.gz"
],
  "MRAcquisitionType": "2D",
  "MagneticFieldStrength": 3,
  "Manufacturer": "Siemens",
  "ManufacturersModelName": "Prisma",
  "Modality": "MR",
  "MultibandAccelerationFactor": 3,
  "PartialFourier": 0.75,
  "PatientPosition": "HFS",
  "PercentPhaseFOV": 100,
  "PercentSampling": 100,
  "PhaseEncodingDirection": "j",
  "PhaseEncodingSteps": 105,
  "PhaseResolution": 1,
  "PixelBandwidth": 1700,
  "ProcedureStepDescription": "Wager_Wager^1076_spacetop",
  "ProtocolName": "dwi_acq-discorr-PA",
  "PulseSequenceDetails": "%CustomerSeq%\\cmrr_mbep2d_diff",
  "ReceiveCoilActiveElements": "HEA;HEP",
  "ReceiveCoilName": "Head_32",
  "ReconMatrixPE": 140,
  "RepetitionTime": 4.1,
  "SAR": 0.173996,
  "ScanOptions": "PFP\\FS",
  "ScanningSequence": "EP",
  "SequenceName": "ep_b0",
  "SequenceVariant": "SK\\SS",
  "SeriesDescription": "dwi_acq-discorr-PA",
  "SeriesNumber": 6,
  "ShimSetting": [4208, -7799, -7278, 251, -115, -40, -44, 108],
  "SliceThickness": 1.7,
  "SliceTiming": [0, 2.125, 0.15625, 2.28125, 0.3125, 2.42188, 0.46875, 2.57812, 0.60938, 2.73438, 0.76562, 2.875, 0.92188, 3.03125, 1.0625, 3.1875, 1.21875, 3.32812, 1.375, 3.48438, 1.51562, 3.64062, 1.67188, 3.78125, 1.82812, 3.9375, 1.96875, 0, 2.125, 0.15625, 2.28125, 0.3125, 2.42188, 0.46875, 2.57812, 0.60938, 2.73438, 0.76562, 2.875, 0.92188, 3.03125, 1.0625, 3.1875, 1.21875, 3.32812, 1.375, 3.48438, 1.51562, 3.64062, 1.67188, 3.78125, 1.82812, 3.9375, 1.96875, 0, 2.125, 0.15625, 2.28125, 0.3125, 2.42188, 0.46875, 2.57812, 0.60938, 2.73438, 0.76562, 2.875, 0.92188, 3.03125, 1.0625, 3.1875, 1.21875, 3.32812, 1.375, 3.48438, 1.51562, 3.64062, 1.67188, 3.78125, 1.82812, 3.9375, 1.96875],
  "SoftwareVersions": "syngo MR E11",
  "SpacingBetweenSlices": 1.7,
  "StationName": "AWP66112",
  "TotalReadoutTime": 0.0959097,
  "TxRefAmp": 260.66,
  "WipMemBlock": "e3180860-0039-47a6-8bcb-5384630e0190||Sequence: R016 ve11e/master r/434b28f1; Aug  7 2019 19:06:17 by eja",
  "dcmmeta_affine": [
    [-1.7068313360214233, 0.03098478354513645, -0.15535497665405273, 124.5722427368164],
    [0.017732694745063782, 1.7080817222595215, 0.14342498779296875, -96.15435028076172],
    [-0.15870752930641174, -0.14238081872463226, 1.6868057250976562, -46.22397994995117],
    [0.0, 0.0, 0.0, 1.0]
],
  "dcmmeta_reorient_transform": [
    [0.0, -1.0, 0.0, 139.0],
    [1.0, 0.0, 0.0, 0.0],
    [0.0, 0.0, -1.0, 80.0],
    [0.0, 0.0, 0.0, 1.0]
],
  "dcmmeta_shape": [140, 140, 81],
  "dcmmeta_slice_dim": 2,
  "dcmmeta_version": 0.6,
  "global": {
    "const": {
      "AccessionNumber": "A004333",
      "AcquisitionMatrix": [140, 0, 0, 140],
      "AcquisitionNumber": 1,
      "AngioFlag": "N",
      "BitsAllocated": 16,
      "BitsStored": 16,
      "BodyPartExamined": "BRAIN",
      "Columns": 140,
      "EchoNumbers": 1,
      "EchoTime": 88.0,
      "EchoTrainLength": 105,
      "FlipAngle": 90.0,
      "HighBit": 15,
      "ImageOrientationPatient": [0.99565157393989, -0.0103440719662, -0.0925793901804, 0.01807445737842, 0.99638100253705, 0.08305547407451],
      "ImageType": [
        "ORIGINAL",
        "PRIMARY",
        "DIFFUSION",
        "NONE",
        "MB",
        "ND"
],
      "ImagedNucleus": "1H",
      "ImagingFrequency": 123.259101,
      "InPlanePhaseEncodingDirection": "COL",
      "MRAcquisitionType": "2D",
      "MagneticFieldStrength": 3.0,
      "Manufacturer": "SIEMENS",
      "ManufacturerModelName": "Prisma",
      "Modality": "MR",
      "NumberOfAverages": 1.0,
      "NumberOfPhaseEncodingSteps": 105,
      "PercentPhaseFieldOfView": 100.0,
      "PercentSampling": 100.0,
      "PerformedProcedureStepStartTime": "152822.246000",
      "PhotometricInterpretation": "MONOCHROME2",
      "PixelBandwidth": 1700.0,
      "PixelRepresentation": 0,
      "PixelSpacing": [1.7142857313156, 1.7142857313156],
      "ProtocolName": "dwi_acq-discorr-PA",
      "RepetitionTime": 4100.0,
      "Rows": 140,
      "SAR": 0.17399584365178,
      "SamplesPerPixel": 1,
      "ScanOptions": [
        "PFP",
        "FS"
],
      "ScanningSequence": "EP",
      "SequenceName": "ep_b0",
      "SequenceVariant": [
        "SK",
        "SS"
],
      "SeriesDescription": "dwi_acq-discorr-PA",
      "SeriesNumber": 6,
      "SeriesTime": "154530.274000",
      "SliceThickness": 1.7000000476837,
      "SmallestImagePixelValue": 0,
      "SoftwareVersions": "syngo MR E11",
      "SpacingBetweenSlices": 1.7,
      "SpecificCharacterSet": "ISO_IR 100",
      "StudyID": "1",
      "StudyTime": "152822.130000",
      "TransmitCoilName": "Body",
      "VariableFlipAngleFlag": "N",
      "WindowCenterWidthExplanation": "Algo1"
    },
    "slices": {
      "AcquisitionTime": ["154525.757500", "154527.875000", "154525.910000", "154528.025000", "154526.060000", "154528.175000", "154526.212500", "154528.327500", "154526.362500", "154528.477500", "154526.515000", "154528.630000", "154526.665000", "154528.780000", "154526.815000", "154528.932500", "154526.967500", "154529.082500", "154527.117500", "154529.235000", "154527.270000", "154529.385000", "154527.420000", "154529.535000", "154527.572500", "154529.687500", "154527.722500", "154525.757500", "154527.875000", "154525.910000", "154528.025000", "154526.060000", "154528.175000", "154526.212500", "154528.327500", "154526.362500", "154528.477500", "154526.515000", "154528.630000", "154526.665000", "154528.780000", "154526.815000", "154528.932500", "154526.967500", "154529.082500", "154527.117500", "154529.235000", "154527.270000", "154529.385000", "154527.420000", "154529.535000", "154527.572500", "154529.687500", "154527.722500", "154525.757500", "154527.875000", "154525.910000", "154528.025000", "154526.060000", "154528.175000", "154526.212500", "154528.327500", "154526.362500", "154528.477500", "154526.515000", "154528.630000", "154526.665000", "154528.780000", "154526.815000", "154528.932500", "154526.967500", "154529.082500", "154527.117500", "154529.235000", "154527.270000", "154529.385000", "154527.420000", "154529.535000", "154527.572500", "154529.687500", "154527.722500"],
      "ContentTime": ["154530.277000", "154530.365000", "154530.284000", "154530.371000", "154530.294000", "154530.377000", "154530.300000", "154530.384000", "154530.305000", "154530.401000", "154530.311000", "154530.407000", "154530.317000", "154530.413000", "154530.323000", "154530.419000", "154530.329000", "154530.425000", "154530.335000", "154530.432000", "154530.341000", "154530.438000", "154530.347000", "154530.444000", "154530.353000", "154530.450000", "154530.359000", "154530.280000", "154530.367000", "154530.286000", "154530.373000", "154530.296000", "154530.379000", "154530.302000", "154530.386000", "154530.308000", "154530.403000", "154530.313000", "154530.409000", "154530.319000", "154530.415000", "154530.325000", "154530.421000", "154530.331000", "154530.428000", "154530.337000", "154530.434000", "154530.343000", "154530.440000", "154530.349000", "154530.446000", "154530.355000", "154530.452000", "154530.361000", "154530.282000", "154530.369000", "154530.288000", "154530.375000", "154530.298000", "154530.382000", "154530.304000", "154530.388000", "154530.310000", "154530.405000", "154530.315000", "154530.411000", "154530.321000", "154530.417000", "154530.327000", "154530.423000", "154530.333000", "154530.430000", "154530.339000", "154530.436000", "154530.345000", "154530.442000", "154530.351000", "154530.448000", "154530.357000", "154530.454000", "154530.363000"],
      "CsaImage.GSWDDataType": [
        "predicted",
        "predicted",
        "predicted",
        "predicted",
        "predicted",
        "predicted",
        "predicted",
        "predicted",
        "predicted",
        "predicted",
        "predicted",
        "predicted",
        "predicted",
        "predicted",
        "predicted",
        "predicted",
        "predicted",
        "predicted",
        "predicted",
        "predicted",
        "predicted",
        "predicted",
        "predicted",
        "measured",
        "predicted",
        "measured",
        "predicted",
        "predicted",
        "predicted",
        "predicted",
        "predicted",
        "predicted",
        "predicted",
        "predicted",
        "predicted",
        "predicted",
        "predicted",
        "predicted",
        "predicted",
        "predicted",
        "predicted",
        "predicted",
        "predicted",
        "predicted",
        "predicted",
        "predicted",
        "predicted",
        "predicted",
        "predicted",
        "predicted",
        "measured",
        "predicted",
        "measured",
        "predicted",
        "predicted",
        "predicted",
        "predicted",
        "predicted",
        "predicted",
        "predicted",
        "predicted",
        "predicted",
        "predicted",
        "predicted",
        "predicted",
        "predicted",
        "predicted",
        "predicted",
        "predicted",
        "predicted",
        "predicted",
        "predicted",
        "predicted",
        "predicted",
        "predicted",
        "predicted",
        "predicted",
        "measured",
        "predicted",
        "measured",
        "predicted"
],
      "CsaImage.ICE_Dims": [
        "X_1_1_1_1_1_1_1_1_1_1_1_131",
        "X_1_1_1_1_1_1_42_1_1_2_1_131",
        "X_1_1_1_1_1_1_2_1_1_3_1_131",
        "X_1_1_1_1_1_1_43_1_1_4_1_131",
        "X_1_1_1_1_1_1_3_1_1_5_1_131",
        "X_1_1_1_1_1_1_44_1_1_6_1_131",
        "X_1_1_1_1_1_1_4_1_1_7_1_131",
        "X_1_1_1_1_1_1_45_1_1_8_1_131",
        "X_1_1_1_1_1_1_5_1_1_9_1_131",
        "X_1_1_1_1_1_1_46_1_1_10_1_131",
        "X_1_1_1_1_1_1_6_1_1_11_1_131",
        "X_1_1_1_1_1_1_47_1_1_12_1_131",
        "X_1_1_1_1_1_1_7_1_1_13_1_131",
        "X_1_1_1_1_1_1_48_1_1_14_1_131",
        "X_1_1_1_1_1_1_8_1_1_15_1_131",
        "X_1_1_1_1_1_1_49_1_1_16_1_131",
        "X_1_1_1_1_1_1_9_1_1_17_1_131",
        "X_1_1_1_1_1_1_50_1_1_18_1_131",
        "X_1_1_1_1_1_1_10_1_1_19_1_131",
        "X_1_1_1_1_1_1_51_1_1_20_1_131",
        "X_1_1_1_1_1_1_11_1_1_21_1_131",
        "X_1_1_1_1_1_1_52_1_1_22_1_131",
        "X_1_1_1_1_1_1_12_1_1_23_1_131",
        "X_1_1_1_1_1_1_53_1_1_24_1_131",
        "X_1_1_1_1_1_1_13_1_1_25_1_131",
        "X_1_1_1_1_1_1_54_1_1_26_1_131",
        "X_1_1_1_1_1_1_14_1_1_27_1_131",
        "X_1_1_1_1_1_1_55_1_1_28_1_131",
        "X_1_1_1_1_1_1_15_1_1_29_1_131",
        "X_1_1_1_1_1_1_56_1_1_30_1_131",
        "X_1_1_1_1_1_1_16_1_1_31_1_131",
        "X_1_1_1_1_1_1_57_1_1_32_1_131",
        "X_1_1_1_1_1_1_17_1_1_33_1_131",
        "X_1_1_1_1_1_1_58_1_1_34_1_131",
        "X_1_1_1_1_1_1_18_1_1_35_1_131",
        "X_1_1_1_1_1_1_59_1_1_36_1_131",
        "X_1_1_1_1_1_1_19_1_1_37_1_131",
        "X_1_1_1_1_1_1_60_1_1_38_1_131",
        "X_1_1_1_1_1_1_20_1_1_39_1_131",
        "X_1_1_1_1_1_1_61_1_1_40_1_131",
        "X_1_1_1_1_1_1_21_1_1_41_1_131",
        "X_1_1_1_1_1_1_62_1_1_42_1_131",
        "X_1_1_1_1_1_1_22_1_1_43_1_131",
        "X_1_1_1_1_1_1_63_1_1_44_1_131",
        "X_1_1_1_1_1_1_23_1_1_45_1_131",
        "X_1_1_1_1_1_1_64_1_1_46_1_131",
        "X_1_1_1_1_1_1_24_1_1_47_1_131",
        "X_1_1_1_1_1_1_65_1_1_48_1_131",
        "X_1_1_1_1_1_1_25_1_1_49_1_131",
        "X_1_1_1_1_1_1_66_1_1_50_1_131",
        "X_1_1_1_1_1_1_26_1_1_51_1_131",
        "X_1_1_1_1_1_1_67_1_1_52_1_131",
        "X_1_1_1_1_1_1_27_1_1_53_1_131",
        "X_1_1_1_1_1_1_68_1_1_54_1_131",
        "X_1_1_1_1_1_1_28_1_1_55_1_131",
        "X_1_1_1_1_1_1_69_1_1_56_1_131",
        "X_1_1_1_1_1_1_29_1_1_57_1_131",
        "X_1_1_1_1_1_1_70_1_1_58_1_131",
        "X_1_1_1_1_1_1_30_1_1_59_1_131",
        "X_1_1_1_1_1_1_71_1_1_60_1_131",
        "X_1_1_1_1_1_1_31_1_1_61_1_131",
        "X_1_1_1_1_1_1_72_1_1_62_1_131",
        "X_1_1_1_1_1_1_32_1_1_63_1_131",
        "X_1_1_1_1_1_1_73_1_1_64_1_131",
        "X_1_1_1_1_1_1_33_1_1_65_1_131",
        "X_1_1_1_1_1_1_74_1_1_66_1_131",
        "X_1_1_1_1_1_1_34_1_1_67_1_131",
        "X_1_1_1_1_1_1_75_1_1_68_1_131",
        "X_1_1_1_1_1_1_35_1_1_69_1_131",
        "X_1_1_1_1_1_1_76_1_1_70_1_131",
        "X_1_1_1_1_1_1_36_1_1_71_1_131",
        "X_1_1_1_1_1_1_77_1_1_72_1_131",
        "X_1_1_1_1_1_1_37_1_1_73_1_131",
        "X_1_1_1_1_1_1_78_1_1_74_1_131",
        "X_1_1_1_1_1_1_38_1_1_75_1_131",
        "X_1_1_1_1_1_1_79_1_1_76_1_131",
        "X_1_1_1_1_1_1_39_1_1_77_1_131",
        "X_1_1_1_1_1_1_80_1_1_78_1_131",
        "X_1_1_1_1_1_1_40_1_1_79_1_131",
        "X_1_1_1_1_1_1_81_1_1_80_1_131",
        "X_1_1_1_1_1_1_41_1_1_81_1_131"
],
      "CsaImage.ProtocolSliceNumber": [0, 1, 2, 3, 4, 5, 6, 7, 8, 9, 10, 11, 12, 13, 14, 15, 16, 17, 18, 19, 20, 21, 22, 23, 24, 25, 26, 27, 28, 29, 30, 31, 32, 33, 34, 35, 36, 37, 38, 39, 40, 41, 42, 43, 44, 45, 46, 47, 48, 49, 50, 51, 52, 53, 54, 55, 56, 57, 58, 59, 60, 61, 62, 63, 64, 65, 66, 67, 68, 69, 70, 71, 72, 73, 74, 75, 76, 77, 78, 79, 80],
      "CsaImage.RFSWDDataType": [
        "predicted",
        "predicted",
        "predicted",
        "predicted",
        "predicted",
        "predicted",
        "predicted",
        "predicted",
        "predicted",
        "predicted",
        "predicted",
        "predicted",
        "predicted",
        "predicted",
        "predicted",
        "predicted",
        "predicted",
        "predicted",
        "predicted",
        "predicted",
        "predicted",
        "predicted",
        "predicted",
        "measured",
        "predicted",
        "measured",
        "predicted",
        "predicted",
        "predicted",
        "predicted",
        "predicted",
        "predicted",
        "predicted",
        "predicted",
        "predicted",
        "predicted",
        "predicted",
        "predicted",
        "predicted",
        "predicted",
        "predicted",
        "predicted",
        "predicted",
        "predicted",
        "predicted",
        "predicted",
        "predicted",
        "predicted",
        "predicted",
        "predicted",
        "measured",
        "predicted",
        "measured",
        "predicted",
        "predicted",
        "predicted",
        "predicted",
        "predicted",
        "predicted",
        "predicted",
        "predicted",
        "predicted",
        "predicted",
        "predicted",
        "predicted",
        "predicted",
        "predicted",
        "predicted",
        "predicted",
        "predicted",
        "predicted",
        "predicted",
        "predicted",
        "predicted",
        "predicted",
        "predicted",
        "predicted",
        "measured",
        "predicted",
        "measured",
        "predicted"
],
      "CsaImage.SlicePosition_PCS": [
        [-128.87911912, -141.26900911, -66.0144558],
        [-128.72376462, -141.4124341, -64.3276577],
        [-128.56840964, -141.55585908, -62.64085579],
        [-128.41305467, -141.69928407, -60.9540577],
        [-128.25769969, -141.84270906, -59.26725579],
        [-128.10234519, -141.98613405, -57.58045769],
        [-127.94699021, -142.12955903, -55.89365578],
        [-127.79163524, -142.27298402, -54.20685769],
        [-127.63628026, -142.41640901, -52.52005578],
        [-127.48092576, -142.559834, -50.83325768],
        [-127.32557078, -142.70325899, -49.14645577],
        [-127.17021581, -142.84668397, -47.45965767],
        [-127.01486083, -142.99010896, -45.77285576],
        [-126.85950633, -143.13353395, -44.08605767],
        [-126.70415135, -143.27695894, -42.39925576],
        [-126.54879638, -143.42038392, -40.71245766],
        [-126.3934414, -143.56380891, -39.02565575],
        [-126.2380869, -143.7072339, -37.33885766],
        [-126.08273192, -143.85065698, -35.65205575],
        [-125.92737695, -143.99408197, -33.96525765],
        [-125.77202197, -144.13750696, -32.27845574],
        [-125.61666723, -144.28093194, -30.59165764],
        [-125.46131225, -144.42435693, -28.90485764],
        [-125.30595752, -144.56778192, -27.21805764],
        [-125.15060254, -144.71120691, -25.53125763],
        [-124.9952478, -144.85463189, -23.84445763],
        [-124.83989283, -144.99805688, -22.15765763],
        [-124.68453809, -145.14148187, -20.47085763],
        [-124.52918311, -145.28490686, -18.78405762],
        [-124.37382837, -145.42833185, -17.09725762],
        [-124.2184734, -145.57175683, -15.41045762],
        [-124.06311866, -145.71518182, -13.72365761],
        [-123.90776368, -145.85860681, -12.03685761],
        [-123.75240894, -146.0020318, -10.35005761],
        [-123.59705397, -146.14545678, -8.6632576],
        [-123.44169911, -146.28888177, -6.9764576],
        [-123.28634425, -146.43230676, -5.28965807],
        [-123.13098939, -146.57573175, -3.60285807],
        [-122.97563454, -146.71915674, -1.91605807],
        [-122.82027968, -146.86258172, -0.22925807],
        [-122.66492482, -147.00600671, 1.45754188],
        [-122.50956996, -147.1494317, 3.14434194],
        [-122.35421511, -147.29285669, 4.83114171],
        [-122.19886025, -147.43628168, 6.51794195],
        [-122.04350542, -147.57970666, 8.20474195],
        [-121.88815055, -147.72313165, 9.89154148],
        [-121.73279568, -147.86655664, 11.57834148],
        [-121.57744083, -148.00998163, 13.26514148],
        [-121.42208596, -148.15340661, 14.95194148],
        [-121.2667311, -148.2968316, 16.63874149],
        [-121.11137625, -148.44025659, 18.32554244],
        [-120.95602139, -148.58368158, 20.01234245],
        [-120.80066653, -148.72710657, 21.69914245],
        [-120.64531167, -148.87053155, 23.38594055],
        [-120.48995682, -149.01395654, 25.07274055],
        [-120.33460196, -149.15738153, 26.75954055],
        [-120.1792471, -149.30080652, 28.44634056],
        [-120.02389224, -149.4442315, 30.13314056],
        [-119.86853739, -149.58765649, 31.81994056],
        [-119.71318253, -149.73108148, 33.50674247],
        [-119.55782767, -149.87450647, 35.19354057],
        [-119.4024727, -150.01793146, 36.88034248],
        [-119.24711796, -150.16135644, 38.56714057],
        [-119.09176298, -150.30478143, 40.25394248],
        [-118.93640824, -150.44820833, 41.94074058],
        [-118.78105327, -150.59163331, 43.62754249],
        [-118.62569853, -150.7350583, 45.31434059],
        [-118.47034355, -150.87848329, 47.0011425],
        [-118.31498881, -151.02190828, 48.68794059],
        [-118.15963384, -151.16533327, 50.3747425],
        [-118.0042791, -151.30875825, 52.0615406],
        [-117.84892412, -151.45218324, 53.74834251],
        [-117.69356938, -151.59560823, 55.4351406],
        [-117.53821441, -151.73903322, 57.12194251],
        [-117.38285943, -151.8824582, 58.80874061],
        [-117.22750493, -152.02588319, 60.49554252],
        [-117.07214995, -152.16930818, 62.18234062],
        [-116.91679498, -152.31273317, 63.86914253],
        [-116.76144, -152.45615816, 65.55594062],
        [-116.6060855, -152.59958314, 67.24273872],
        [-116.45073052, -152.74300813, 68.92954444]
],
      "CsaImage.TimeAfterStart": [16.4, 18.515, 16.5525, 18.6675, 16.7025, 18.8175, 16.8525, 18.97, 17.005, 19.12, 17.155, 19.2725, 17.3075, 19.4225, 17.4575, 19.5725, 17.61, 19.725, 17.76, 19.875, 17.9125, 20.0275, 18.0625, 20.1775, 18.2125, 20.33, 18.365, 16.4, 18.515, 16.5525, 18.6675, 16.7025, 18.8175, 16.8525, 18.97, 17.005, 19.12, 17.155, 19.2725, 17.3075, 19.4225, 17.4575, 19.5725, 17.61, 19.725, 17.76, 19.875, 17.9125, 20.0275, 18.0625, 20.1775, 18.2125, 20.33, 18.365, 16.4, 18.515, 16.5525, 18.6675, 16.7025, 18.8175, 16.8525, 18.97, 17.005, 19.12, 17.155, 19.2725, 17.3075, 19.4225, 17.4575, 19.5725, 17.61, 19.725, 17.76, 19.875, 17.9125, 20.0275, 18.0625, 20.1775, 18.2125, 20.33, 18.365],
      "ImagePositionPatient": [
        [-128.87911911872, -141.26900910738, -66.014455800568],
        [-128.72376461891, -141.41243409517, -64.327657704864],
        [-128.56840964225, -141.55585908297, -62.640855794464],
        [-128.4130546656, -141.69928407076, -60.954057698761],
        [-128.25769968894, -141.84270905855, -59.26725578836],
        [-128.10234518913, -141.98613404635, -57.580457692657],
        [-127.94699021247, -142.12955903414, -55.893655782257],
        [-127.79163523582, -142.27298402193, -54.206857686554],
        [-127.63628025916, -142.41640900972, -52.520055776153],
        [-127.48092575935, -142.55983399752, -50.83325768045],
        [-127.32557078269, -142.70325898531, -49.14645577005],
        [-127.17021580604, -142.8466839731, -47.459657674347],
        [-127.01486082939, -142.9901089609, -45.772855763946],
        [-126.85950632957, -143.13353394869, -44.086057668243],
        [-126.70415135291, -143.27695893648, -42.399255757843],
        [-126.54879637626, -143.42038392427, -40.71245766214],
        [-126.39344139961, -143.56380891207, -39.025655751739],
        [-126.23808689979, -143.70723389986, -37.338857656036],
        [-126.08273192314, -143.85065698031, -35.652055745636],
        [-125.92737694648, -143.9940819681, -33.965257649933],
        [-125.77202196983, -144.13750695589, -32.278455739532],
        [-125.61666723159, -144.28093194368, -30.591657643829],
        [-125.46131225494, -144.42435693148, -28.904857640777],
        [-125.3059575167, -144.56778191927, -27.218057637726],
        [-125.15060254005, -144.71120690706, -25.531257634674],
        [-124.99524780181, -144.85463189486, -23.844457631622],
        [-124.83989282516, -144.99805688265, -22.15765762857],
        [-124.68453808692, -145.14148187044, -20.470857625519],
        [-124.52918311027, -145.28490685823, -18.784057622467],
        [-124.37382837203, -145.42833184603, -17.097257619415],
        [-124.21847339538, -145.57175683382, -15.410457616363],
        [-124.06311865714, -145.71518182161, -13.723657613312],
        [-123.90776368049, -145.85860680941, -12.03685761026],
        [-123.75240894225, -146.0020317972, -10.350057607208],
        [-123.5970539656, -146.14545678499, -8.6632576041564],
        [-123.44169910816, -146.28888177279, -6.9764576011046],
        [-123.28634425071, -146.43230676058, -5.28965807489],
        [-123.13098939327, -146.57573174837, -3.6028580718383],
        [-122.97563453582, -146.71915673616, -1.9160580687865],
        [-122.82027967838, -146.86258172396, -0.2292580657348],
        [-122.66492482093, -147.00600671175, 1.4575418777124],
        [-122.50956996349, -147.14943169954, 3.1443419403688],
        [-122.35421510604, -147.29285668734, 4.8311417050019],
        [-122.1988602486, -147.43628167513, 6.5179419464723],
        [-122.04350542096, -147.57970666292, 8.204741949524],
        [-121.88815054861, -147.72313165072, 9.8915414757386],
        [-121.73279568371, -147.86655663851, 11.57834147879],
        [-121.57744082627, -148.0099816263, 13.265141481842],
        [-121.42208596137, -148.15340661409, 14.951941484894],
        [-121.26673110393, -148.29683160189, 16.638741487946],
        [-121.11137624648, -148.44025658968, 18.325542444672],
        [-120.95602138904, -148.58368157747, 20.012342447723],
        [-120.80066653159, -148.72710656527, 21.699142450775],
        [-120.64531167415, -148.87053155306, 23.385940546478],
        [-120.48995681671, -149.01395654085, 25.07274054953],
        [-120.33460195926, -149.15738152864, 26.759540552582],
        [-120.17924710182, -149.30080651644, 28.446340555634],
        [-120.02389224437, -149.44423150423, 30.133140558685],
        [-119.86853738693, -149.58765649202, 31.819940561737],
        [-119.71318252948, -149.73108147982, 33.506742472138],
        [-119.55782767204, -149.87450646761, 35.193540567841],
        [-119.40247269538, -150.0179314554, 36.880342478241],
        [-119.24711795715, -150.1613564432, 38.567140573944],
        [-119.09176298049, -150.30478143099, 40.253942484345],
        [-118.93640824226, -150.44820832613, 41.940740580048],
        [-118.7810532656, -150.59163331392, 43.627542490448],
        [-118.62569852737, -150.73505830172, 45.314340586151],
        [-118.47034355071, -150.87848328951, 47.001142496552],
        [-118.31498881248, -151.0219082773, 48.687940592255],
        [-118.15963383582, -151.1653332651, 50.374742502655],
        [-118.00427909759, -151.30875825289, 52.061540598358],
        [-117.84892412093, -151.45218324068, 53.748342508759],
        [-117.6935693827, -151.59560822847, 55.435140604462],
        [-117.53821440605, -151.73903321627, 57.121942514862],
        [-117.38285942939, -151.88245820406, 58.808740610565],
        [-117.22750492957, -152.02588319185, 60.495542520966],
        [-117.07214995292, -152.16930817965, 62.182340616669],
        [-116.91679497627, -152.31273316744, 63.869142527069],
        [-116.76143999961, -152.45615815523, 65.555940622772],
        [-116.6060854998, -152.59958314302, 67.242738718475],
        [-116.45073052314, -152.74300813082, 68.929544443573]
],
      "InstanceCreationTime": ["154530.277000", "154530.365000", "154530.284000", "154530.371000", "154530.294000", "154530.377000", "154530.300000", "154530.384000", "154530.305000", "154530.401000", "154530.311000", "154530.407000", "154530.317000", "154530.413000", "154530.323000", "154530.419000", "154530.329000", "154530.425000", "154530.335000", "154530.432000", "154530.341000", "154530.438000", "154530.347000", "154530.444000", "154530.353000", "154530.450000", "154530.359000", "154530.280000", "154530.367000", "154530.286000", "154530.373000", "154530.296000", "154530.379000", "154530.302000", "154530.386000", "154530.308000", "154530.403000", "154530.313000", "154530.409000", "154530.319000", "154530.415000", "154530.325000", "154530.421000", "154530.331000", "154530.428000", "154530.337000", "154530.434000", "154530.343000", "154530.440000", "154530.349000", "154530.446000", "154530.355000", "154530.452000", "154530.361000", "154530.282000", "154530.369000", "154530.288000", "154530.375000", "154530.298000", "154530.382000", "154530.304000", "154530.388000", "154530.310000", "154530.405000", "154530.315000", "154530.411000", "154530.321000", "154530.417000", "154530.327000", "154530.423000", "154530.333000", "154530.430000", "154530.339000", "154530.436000", "154530.345000", "154530.442000", "154530.351000", "154530.448000", "154530.357000", "154530.454000", "154530.363000"],
      "InstanceNumber": [1, 2, 3, 4, 5, 6, 7, 8, 9, 10, 11, 12, 13, 14, 15, 16, 17, 18, 19, 20, 21, 22, 23, 24, 25, 26, 27, 28, 29, 30, 31, 32, 33, 34, 35, 36, 37, 38, 39, 40, 41, 42, 43, 44, 45, 46, 47, 48, 49, 50, 51, 52, 53, 54, 55, 56, 57, 58, 59, 60, 61, 62, 63, 64, 65, 66, 67, 68, 69, 70, 71, 72, 73, 74, 75, 76, 77, 78, 79, 80, 81],
      "LargestImagePixelValue": [30369, 37932, 34726, 28803, 37071, 41517, 54494, 37223, 32136, 36312, 35791, 27431, 35904, 25666, 33642, 51273, 65535, 65535, 65535, 65535, 65535, 65535, 65535, 65535, 65535, 65535, 65535, 65535, 65535, 65368, 63056, 60779, 58465, 47077, 37028, 46729, 38366, 37891, 42200, 57985, 54257, 58249, 51250, 51145, 52801, 50930, 52489, 56060, 60616, 65535, 60524, 55111, 55535, 64778, 64429, 55490, 52272, 64686, 58484, 51849, 62294, 54818, 57582, 59643, 59653, 59615, 65535, 65535, 65535, 65535, 65535, 59760, 65535, 65535, 65535, 65535, 65535, 65535, 42912, 22195, 19462],
      "SliceLocation": [-65.360985386259, -63.660987279377, -61.960985343841, -60.260987193383, -58.560985257847, -56.860987150964, -55.160985215429, -53.46098706497, -51.760985129435, -50.060987022552, -48.360985087016, -46.660986936558, -44.960985001022, -43.26098689414, -41.560984958604, -39.860986808145, -38.16098487261, -36.460986765727, -34.76098499111, -33.060986840652, -31.360984905116, -29.660986776445, -27.960986733448, -26.260986712239, -24.560986669242, -22.860986648033, -21.160986605036, -19.460986583827, -17.76098654083, -16.060986519621, -14.360986476624, -12.660986455415, -10.960986412417, -9.2609863912084, -7.5609863482113, -5.8609863161082, -4.1609867571398, -2.4609867250367, -0.7609866929336, 0.9390133391695, 2.6390133121308, 4.3390134033757, 6.0390131989114, 7.7390134675819, 9.4390134969615, 11.139013057292, 12.839013090076, 14.539013122179, 16.239013154963, 17.939013187066, 19.639014165438, 21.339014197541, 23.039014229644, 24.739012369209, 26.439012401312, 28.139012433415, 29.839012465518, 31.539012497621, 33.239012529724, 34.939014454366, 36.63901259393, 38.339014529466, 40.039012658137, 41.739014593672, 43.439012883261, 45.139014818797, 46.839012947467, 48.539014883003, 50.239013011674, 51.939014947209, 53.63901307588, 55.339015011415, 57.039013140086, 58.739015075622, 60.43901322608, 62.13901511804, 63.839013268498, 65.539015204034, 67.239013354492, 68.939011461375, 70.639017181988],
