{
  "AcquisitionMatrixPE": 140,
  "AcquisitionNumber": 1,
  "AcquisitionTime": "12:14:40.055000",
  "BandwidthPerPixelPhaseEncode": 10.352,
  "BaseResolution": 140,
  "BodyPartExamined": "BRAIN",
  "ConsistencyInfo": "N4_VE11C_LATEST_20160120",
  "ConversionSoftware": "dcm2niix",
  "ConversionSoftwareVersion": "v1.0.20201102",
  "DerivedVendorReportedEchoSpacing": 0.000689998,
  "DeviceSerialNumber": "66112",
  "DiffusionScheme": "Monopolar",
  "DwellTime": 2.1e-06,
  "EchoTime": 0.088,
  "EchoTrainLength": 105,
  "EffectiveEchoSpacing": 0.000689998,
  "FlipAngle": 90,
  "ImageComments": "Unaliased MB3/PE3",
  "ImageOrientationPatientDICOM": [0.99852, -0.010749, 0.0533177, -0.000697122, 0.977668, 0.210156],
  "ImageType": [
    "ORIGINAL",
    "PRIMARY",
    "DIFFUSION",
    "NONE",
    "MB",
    "ND"
],
  "ImagingFrequency": 123.252,
  "InPlanePhaseEncodingDirectionDICOM": "COL",
  "InstitutionAddress": "Maynard 3,Hanover,NH,US,03755",
  "InstitutionName": "Dartmouth College - PBS",
  "InstitutionalDepartmentName": "Department",
  "MRAcquisitionType": "2D",
  "MagneticFieldStrength": 3,
  "Manufacturer": "Siemens",
  "ManufacturersModelName": "Prisma",
  "Modality": "MR",
  "MultibandAccelerationFactor": 3,
  "PartialFourier": 0.75,
  "PatientPosition": "HFS",
  "PercentPhaseFOV": 100,
  "PercentSampling": 100,
  "PhaseEncodingDirection": "j-",
  "PhaseEncodingSteps": 105,
  "PhaseResolution": 1,
  "PixelBandwidth": 1700,
  "ProcedureStepDescription": "Wager_Wager^1076_spacetop",
  "ProtocolName": "dwi_acq-discorr-AP",
  "PulseSequenceDetails": "%CustomerSeq%\\cmrr_mbep2d_diff",
  "ReceiveCoilActiveElements": "HEA;HEP",
  "ReceiveCoilName": "Head_32",
  "ReconMatrixPE": 140,
  "RepetitionTime": 4.1,
  "SAR": 0.1361,
  "ScanOptions": "PFP\\FS",
  "ScanningSequence": "EP",
  "SequenceName": "ep_b0",
  "SequenceVariant": "SK\\SS",
  "SeriesDescription": "dwi_acq-discorr-AP",
  "SeriesNumber": 7,
  "ShimSetting": [4155, -7711, -7330, 634, -73, -159, -76, 107],
  "SliceThickness": 1.7,
  "SliceTiming": [0, 2.11719, 0.15625, 2.26562, 0.30469, 2.41406, 0.45312, 2.57031, 0.60156, 2.71875, 0.75781, 2.875, 0.90625, 3.02344, 1.05469, 3.17188, 1.21094, 3.32812, 1.35938, 3.47656, 1.51562, 3.625, 1.66406, 3.78125, 1.8125, 3.92969, 1.96875, 0, 2.11719, 0.15625, 2.26562, 0.30469, 2.41406, 0.45312, 2.57031, 0.60156, 2.71875, 0.75781, 2.875, 0.90625, 3.02344, 1.05469, 3.17188, 1.21094, 3.32812, 1.35938, 3.47656, 1.51562, 3.625, 1.66406, 3.78125, 1.8125, 3.92969, 1.96875, 0, 2.11719, 0.15625, 2.26562, 0.30469, 2.41406, 0.45312, 2.57031, 0.60156, 2.71875, 0.75781, 2.875, 0.90625, 3.02344, 1.05469, 3.17188, 1.21094, 3.32812, 1.35938, 3.47656, 1.51562, 3.625, 1.66406, 3.78125, 1.8125, 3.92969, 1.96875],
  "SoftwareVersions": "syngo MR E11",
  "SpacingBetweenSlices": 1.7,
  "StationName": "AWP66112",
  "TotalReadoutTime": 0.0959097,
  "TxRefAmp": 227.322,
  "WipMemBlock": "c88b3d1e-6c98-41fd-b16b-2ab38cfdd600||Sequence: R016 ve11c/master r/e634e98; Dec 19 2017 11:11:25 by eja",
  "dcmmeta_affine": [
    [-1.7117481231689453, -0.0011950662592425942, 0.09245681762695312, 121.5966796875],
    [0.01842682994902134, 1.6760016679763794, 0.3568000793457031, -113.88946533203125],
    [0.09140168875455856, -0.36026737093925476, 1.6595611572265625, -42.789249420166016],
    [0.0, 0.0, 0.0, 1.0]
],
  "dcmmeta_reorient_transform": [
    [0.0, -1.0, 0.0, 139.0],
    [1.0, 0.0, 0.0, 0.0],
    [0.0, 0.0, -1.0, 80.0],
    [0.0, 0.0, 0.0, 1.0]
],
  "dcmmeta_shape": [140, 140, 81],
  "dcmmeta_slice_dim": 2,
  "dcmmeta_version": 0.6,
  "global": {
    "const": {
      "AccessionNumber": "A003467",
      "AcquisitionMatrix": [140, 0, 0, 140],
      "AcquisitionNumber": 1,
      "AngioFlag": "N",
      "BitsAllocated": 16,
      "BitsStored": 16,
      "BodyPartExamined": "BRAIN",
      "Columns": 140,
      "EchoNumbers": 1,
      "EchoTime": 88.0,
      "EchoTrainLength": 105,
      "FlipAngle": 90.0,
      "HighBit": 15,
      "ImageOrientationPatient": [0.99851974802241, -0.0107489835813, 0.05331765337321, -0.0006971219468, 0.97766762323461, 0.21015597183945],
      "ImageType": [
        "ORIGINAL",
        "PRIMARY",
        "DIFFUSION",
        "NONE",
        "MB",
        "ND"
],
      "ImagedNucleus": "1H",
      "ImagingFrequency": 123.252169,
      "InPlanePhaseEncodingDirection": "COL",
      "MRAcquisitionType": "2D",
      "MagneticFieldStrength": 3.0,
      "Manufacturer": "SIEMENS",
      "ManufacturerModelName": "Prisma",
      "Modality": "MR",
      "NumberOfAverages": 1.0,
      "NumberOfPhaseEncodingSteps": 105,
      "PercentPhaseFieldOfView": 100.0,
      "PercentSampling": 100.0,
      "PerformedProcedureStepStartTime": "115528.810000",
      "PhotometricInterpretation": "MONOCHROME2",
      "PixelBandwidth": 1700.0,
      "PixelRepresentation": 0,
      "PixelSpacing": [1.7142857313156, 1.7142857313156],
      "ProtocolName": "dwi_acq-discorr-AP",
      "RepetitionTime": 4100.0,
      "Rows": 140,
      "SAR": 0.13610002763098,
      "SamplesPerPixel": 1,
      "ScanOptions": [
        "PFP",
        "FS"
],
      "ScanningSequence": "EP",
      "SequenceName": "ep_b0",
      "SequenceVariant": [
        "SK",
        "SS"
],
      "SeriesDescription": "dwi_acq-discorr-AP",
      "SeriesNumber": 7,
      "SeriesTime": "121444.502000",
      "SliceThickness": 1.7000000476837,
      "SmallestImagePixelValue": 0,
      "SoftwareVersions": "syngo MR E11",
      "SpacingBetweenSlices": 1.7,
      "SpecificCharacterSet": "ISO_IR 100",
      "StudyID": "1",
      "StudyTime": "115528.748000",
      "TransmitCoilName": "Body",
      "VariableFlipAngleFlag": "N",
      "WindowCenterWidthExplanation": "Algo1",
      "dBdt": 0.0},
    "slices": {
      "AcquisitionTime": ["121440.055000", "121442.172500", "121440.207500", "121442.322500", "121440.357500", "121442.472500", "121440.510000", "121442.625000", "121440.660000", "121442.775000", "121440.812500", "121442.927500", "121440.962500", "121443.077500", "121441.112500", "121443.230000", "121441.265000", "121443.380000", "121441.415000", "121443.532500", "121441.567500", "121443.682500", "121441.717500", "121443.832500", "121441.870000", "121443.985000", "121442.020000", "121440.055000", "121442.172500", "121440.207500", "121442.322500", "121440.357500", "121442.472500", "121440.510000", "121442.625000", "121440.660000", "121442.775000", "121440.812500", "121442.927500", "121440.962500", "121443.077500", "121441.112500", "121443.230000", "121441.265000", "121443.380000", "121441.415000", "121443.532500", "121441.567500", "121443.682500", "121441.717500", "121443.832500", "121441.870000", "121443.985000", "121442.020000", "121440.055000", "121442.172500", "121440.207500", "121442.322500", "121440.357500", "121442.472500", "121440.510000", "121442.625000", "121440.660000", "121442.775000", "121440.812500", "121442.927500", "121440.962500", "121443.077500", "121441.112500", "121443.230000", "121441.265000", "121443.380000", "121441.415000", "121443.532500", "121441.567500", "121443.682500", "121441.717500", "121443.832500", "121441.870000", "121443.985000", "121442.020000"],
      "ContentTime": ["121444.505000", "121444.632000", "121444.520000", "121444.638000", "121444.528000", "121444.645000", "121444.539000", "121444.651000", "121444.553000", "121444.658000", "121444.561000", "121444.666000", "121444.568000", "121444.673000", "121444.581000", "121444.679000", "121444.588000", "121444.686000", "121444.594000", "121444.692000", "121444.601000", "121444.699000", "121444.608000", "121444.705000", "121444.614000", "121444.712000", "121444.621000", "121444.508000", "121444.634000", "121444.523000", "121444.640000", "121444.535000", "121444.647000", "121444.542000", "121444.653000", "121444.556000", "121444.660000", "121444.564000", "121444.668000", "121444.571000", "121444.675000", "121444.583000", "121444.682000", "121444.590000", "121444.688000", "121444.596000", "121444.694000", "121444.603000", "121444.701000", "121444.610000", "121444.708000", "121444.617000", "121444.714000", "121444.623000", "121444.513000", "121444.636000", "121444.525000", "121444.643000", "121444.537000", "121444.649000", "121444.551000", "121444.656000", "121444.558000", "121444.663000", "121444.566000", "121444.671000", "121444.579000", "121444.677000", "121444.585000", "121444.684000", "121444.592000", "121444.690000", "121444.598000", "121444.697000", "121444.606000", "121444.703000", "121444.612000", "121444.710000", "121444.619000", "121444.716000", "121444.625000"],
      "CsaImage.ICE_Dims": [
        "X_1_1_1_1_1_1_1_1_1_1_1_78",
        "X_1_1_1_1_1_1_42_1_1_2_1_78",
        "X_1_1_1_1_1_1_2_1_1_3_1_78",
        "X_1_1_1_1_1_1_43_1_1_4_1_78",
        "X_1_1_1_1_1_1_3_1_1_5_1_78",
        "X_1_1_1_1_1_1_44_1_1_6_1_78",
        "X_1_1_1_1_1_1_4_1_1_7_1_78",
        "X_1_1_1_1_1_1_45_1_1_8_1_78",
        "X_1_1_1_1_1_1_5_1_1_9_1_78",
        "X_1_1_1_1_1_1_46_1_1_10_1_78",
        "X_1_1_1_1_1_1_6_1_1_11_1_78",
        "X_1_1_1_1_1_1_47_1_1_12_1_78",
        "X_1_1_1_1_1_1_7_1_1_13_1_78",
        "X_1_1_1_1_1_1_48_1_1_14_1_78",
        "X_1_1_1_1_1_1_8_1_1_15_1_78",
        "X_1_1_1_1_1_1_49_1_1_16_1_78",
        "X_1_1_1_1_1_1_9_1_1_17_1_78",
        "X_1_1_1_1_1_1_50_1_1_18_1_78",
        "X_1_1_1_1_1_1_10_1_1_19_1_78",
        "X_1_1_1_1_1_1_51_1_1_20_1_78",
        "X_1_1_1_1_1_1_11_1_1_21_1_78",
        "X_1_1_1_1_1_1_52_1_1_22_1_78",
        "X_1_1_1_1_1_1_12_1_1_23_1_78",
        "X_1_1_1_1_1_1_53_1_1_24_1_78",
        "X_1_1_1_1_1_1_13_1_1_25_1_78",
        "X_1_1_1_1_1_1_54_1_1_26_1_78",
        "X_1_1_1_1_1_1_14_1_1_27_1_78",
        "X_1_1_1_1_1_1_55_1_1_28_1_78",
        "X_1_1_1_1_1_1_15_1_1_29_1_78",
        "X_1_1_1_1_1_1_56_1_1_30_1_78",
        "X_1_1_1_1_1_1_16_1_1_31_1_78",
        "X_1_1_1_1_1_1_57_1_1_32_1_78",
        "X_1_1_1_1_1_1_17_1_1_33_1_78",
        "X_1_1_1_1_1_1_58_1_1_34_1_78",
        "X_1_1_1_1_1_1_18_1_1_35_1_78",
        "X_1_1_1_1_1_1_59_1_1_36_1_78",
        "X_1_1_1_1_1_1_19_1_1_37_1_78",
        "X_1_1_1_1_1_1_60_1_1_38_1_78",
        "X_1_1_1_1_1_1_20_1_1_39_1_78",
        "X_1_1_1_1_1_1_61_1_1_40_1_78",
        "X_1_1_1_1_1_1_21_1_1_41_1_78",
        "X_1_1_1_1_1_1_62_1_1_42_1_78",
        "X_1_1_1_1_1_1_22_1_1_43_1_78",
        "X_1_1_1_1_1_1_63_1_1_44_1_78",
        "X_1_1_1_1_1_1_23_1_1_45_1_78",
        "X_1_1_1_1_1_1_64_1_1_46_1_78",
        "X_1_1_1_1_1_1_24_1_1_47_1_78",
        "X_1_1_1_1_1_1_65_1_1_48_1_78",
        "X_1_1_1_1_1_1_25_1_1_49_1_78",
        "X_1_1_1_1_1_1_66_1_1_50_1_78",
        "X_1_1_1_1_1_1_26_1_1_51_1_78",
        "X_1_1_1_1_1_1_67_1_1_52_1_78",
        "X_1_1_1_1_1_1_27_1_1_53_1_78",
        "X_1_1_1_1_1_1_68_1_1_54_1_78",
        "X_1_1_1_1_1_1_28_1_1_55_1_78",
        "X_1_1_1_1_1_1_69_1_1_56_1_78",
        "X_1_1_1_1_1_1_29_1_1_57_1_78",
        "X_1_1_1_1_1_1_70_1_1_58_1_78",
        "X_1_1_1_1_1_1_30_1_1_59_1_78",
        "X_1_1_1_1_1_1_71_1_1_60_1_78",
        "X_1_1_1_1_1_1_31_1_1_61_1_78",
        "X_1_1_1_1_1_1_72_1_1_62_1_78",
        "X_1_1_1_1_1_1_32_1_1_63_1_78",
        "X_1_1_1_1_1_1_73_1_1_64_1_78",
        "X_1_1_1_1_1_1_33_1_1_65_1_78",
        "X_1_1_1_1_1_1_74_1_1_66_1_78",
        "X_1_1_1_1_1_1_34_1_1_67_1_78",
        "X_1_1_1_1_1_1_75_1_1_68_1_78",
        "X_1_1_1_1_1_1_35_1_1_69_1_78",
        "X_1_1_1_1_1_1_76_1_1_70_1_78",
        "X_1_1_1_1_1_1_36_1_1_71_1_78",
        "X_1_1_1_1_1_1_77_1_1_72_1_78",
        "X_1_1_1_1_1_1_37_1_1_73_1_78",
        "X_1_1_1_1_1_1_78_1_1_74_1_78",
        "X_1_1_1_1_1_1_38_1_1_75_1_78",
        "X_1_1_1_1_1_1_79_1_1_76_1_78",
        "X_1_1_1_1_1_1_39_1_1_77_1_78",
        "X_1_1_1_1_1_1_80_1_1_78_1_78",
        "X_1_1_1_1_1_1_40_1_1_79_1_78",
        "X_1_1_1_1_1_1_81_1_1_80_1_78",
        "X_1_1_1_1_1_1_41_1_1_81_1_78"
],
      "CsaImage.ProtocolSliceNumber": [0, 1, 2, 3, 4, 5, 6, 7, 8, 9, 10, 11, 12, 13, 14, 15, 16, 17, 18, 19, 20, 21, 22, 23, 24, 25, 26, 27, 28, 29, 30, 31, 32, 33, 34, 35, 36, 37, 38, 39, 40, 41, 42, 43, 44, 45, 46, 47, 48, 49, 50, 51, 52, 53, 54, 55, 56, 57, 58, 59, 60, 61, 62, 63, 64, 65, 66, 67, 68, 69, 70, 71, 72, 73, 74, 75, 76, 77, 78, 79, 80],
      "CsaImage.RFSWDDataType": [
        "predicted",
        "predicted",
        "predicted",
        "predicted",
        "predicted",
        "predicted",
        "predicted",
        "predicted",
        "predicted",
        "predicted",
        "predicted",
        "predicted",
        "predicted",
        "predicted",
        "predicted",
        "predicted",
        "predicted",
        "predicted",
        "predicted",
        "predicted",
        "predicted",
        "predicted",
        "predicted",
        "predicted",
        "predicted",
        "measured",
        "predicted",
        "predicted",
        "predicted",
        "predicted",
        "predicted",
        "predicted",
        "predicted",
        "predicted",
        "predicted",
        "predicted",
        "predicted",
        "predicted",
        "predicted",
        "predicted",
        "predicted",
        "predicted",
        "predicted",
        "predicted",
        "predicted",
        "predicted",
        "predicted",
        "predicted",
        "predicted",
        "predicted",
        "predicted",
        "predicted",
        "measured",
        "predicted",
        "predicted",
        "predicted",
        "predicted",
        "predicted",
        "predicted",
        "predicted",
        "predicted",
        "predicted",
        "predicted",
        "predicted",
        "predicted",
        "predicted",
        "predicted",
        "predicted",
        "predicted",
        "predicted",
        "predicted",
        "predicted",
        "predicted",
        "predicted",
        "predicted",
        "predicted",
        "predicted",
        "predicted",
        "predicted",
        "measured",
        "predicted"
],
      "CsaImage.SlicePosition_PCS": [
        [-121.43062527, -119.07480812, -92.86648057],
        [-121.52308126, -119.43160748, -91.20691942],
        [-121.61553736, -119.78840709, -89.54735826],
        [-121.70799334, -120.14520669, -87.8877971],
        [-121.80044933, -120.50200629, -86.22823594],
        [-121.89290543, -120.85880542, -84.56867097],
        [-121.98536153, -121.21560502, -82.90910981],
        [-122.07781763, -121.57240462, -81.24954866],
        [-122.17027374, -121.92920422, -79.5899875],
        [-122.2627296, -122.28600335, -77.93042634],
        [-122.3551857, -122.64280295, -76.27086137],
        [-122.4476418, -122.99960255, -74.61130021],
        [-122.54009791, -123.35640216, -72.95173906],
        [-122.63255377, -123.71320128, -71.2921779],
        [-122.72500987, -124.07000136, -69.63261293],
        [-122.81746598, -124.42680049, -67.97305177],
        [-122.90992208, -124.78359961, -66.31349061],
        [-123.00237794, -125.14039969, -64.65392946],
        [-123.09483404, -125.49719882, -62.99436639],
        [-123.18729015, -125.8539989, -61.33480523],
        [-123.27974625, -126.21079802, -59.67524217],
        [-123.37220235, -126.56759715, -58.01568101],
        [-123.46465822, -126.92439723, -56.35611795],
        [-123.55711432, -127.28119635, -54.69655679],
        [-123.64957042, -127.63799548, -53.03699373],
        [-123.74202652, -127.99479556, -51.37743257],
        [-123.83448239, -128.35159468, -49.71787141],
        [-123.92693873, -128.70839476, -48.05830835],
        [-124.01939459, -129.06519389, -46.39874624],
        [-124.11185045, -129.42199302, -44.73918508],
        [-124.2043068, -129.77879309, -43.07962297],
        [-124.29676266, -130.13559222, -41.42006086],
        [-124.389219, -130.4923923, -39.76049875],
        [-124.48167486, -130.84919143, -38.10093664],
        [-124.57413073, -131.20599055, -36.44137452],
        [-124.66658707, -131.56279063, -34.78181265],
        [-124.75904293, -131.91958976, -33.12225078],
        [-124.8514988, -132.27638888, -31.46268879],
        [-124.94395514, -132.63318896, -29.8031268],
        [-125.036411, -132.98998904, -28.14356468],
        [-125.12886734, -133.34678721, -26.48400281],
        [-125.22132321, -133.70358729, -24.8244407],
        [-125.31377907, -134.06038737, -23.16487859],
        [-125.40623541, -134.41718554, -21.50531648],
        [-125.49869128, -134.77398562, -19.84575532],
        [-125.59114762, -135.1307857, -18.18619321],
        [-125.68360348, -135.48758387, -16.5266311],
        [-125.77605934, -135.84438395, -14.86706804],
        [-125.86851568, -136.20118403, -13.20750688],
        [-125.96097155, -136.55798411, -11.54794572],
        [-126.05342789, -136.91478228, -9.88838266],
        [-126.14588375, -137.27158236, -8.2288215],
        [-126.23833962, -137.62838244, -6.56925844],
        [-126.33079596, -137.98518061, -4.90969728],
        [-126.42325182, -138.34198069, -3.25013421],
        [-126.51570769, -138.69878077, -1.59057306],
        [-126.60816403, -139.05557894, 0.0689881],
        [-126.70061989, -139.41237902, 1.72855117],
        [-126.79307623, -139.7691791, 3.38811232],
        [-126.8855321, -140.12597728, 5.04767348],
        [-126.97798796, -140.48277736, 6.70723845],
        [-127.0704443, -140.83957743, 8.36679961],
        [-127.16290016, -141.19637751, 10.02636077],
        [-127.2553565, -141.55317569, 11.68592192],
        [-127.34781237, -141.90997577, 13.34548308],
        [-127.44026823, -142.26677584, 15.00504805],
        [-127.53272457, -142.62357402, 16.66460921],
        [-127.62518044, -142.9803741, 18.32417037],
        [-127.7176363, -143.33717418, 19.98373152],
        [-127.81009217, -143.69397235, 21.6432965],
        [-127.90254898, -144.05077243, 23.30285765],
        [-127.99500485, -144.40757251, 24.96241881],
        [-128.08746071, -144.76437068, 26.62197997],
        [-128.17991657, -145.12117076, 28.28154113],
        [-128.27237244, -145.47797084, 29.9411061],
        [-128.36482926, -145.83477092, 31.60066725],
        [-128.45728512, -146.19156909, 33.26023223],
        [-128.54974098, -146.54836917, 34.91979338],
        [-128.64219685, -146.90516925, 36.57935454],
        [-128.73465271, -147.26196742, 38.2389157],
        [-128.82710953, -147.6187675, 39.89847686]
],
      "CsaImage.TimeAfterStart": [16.4, 18.515, 16.5525, 18.6675, 16.7025, 18.8175, 16.8525, 18.97, 17.005, 19.12, 17.155, 19.2725, 17.3075, 19.4225, 17.4575, 19.5725, 17.61, 19.725, 17.76, 19.875, 17.9125, 20.0275, 18.0625, 20.1775, 18.2125, 20.33, 18.365, 16.4, 18.515, 16.5525, 18.6675, 16.7025, 18.8175, 16.8525, 18.97, 17.005, 19.12, 17.155, 19.2725, 17.3075, 19.4225, 17.4575, 19.5725, 17.61, 19.725, 17.76, 19.875, 17.9125, 20.0275, 18.0625, 20.1775, 18.2125, 20.33, 18.365, 16.4, 18.515, 16.5525, 18.6675, 16.7025, 18.8175, 16.8525, 18.97, 17.005, 19.12, 17.155, 19.2725, 17.3075, 19.4225, 17.4575, 19.5725, 17.61, 19.725, 17.76, 19.875, 17.9125, 20.0275, 18.0625, 20.1775, 18.2125, 20.33, 18.365],
      "ImagePositionPatient": [
        [-121.43062527414, -119.07480811865, -92.866480572758],
        [-121.5230812573, -119.43160748274, -91.206919415532],
        [-121.61553735967, -119.78840708525, -89.547358258305],
        [-121.70799334283, -120.14520668775, -87.887797101078],
        [-121.800449326, -120.50200629026, -86.228235943852],
        [-121.89290542837, -120.85880541593, -84.568670971928],
        [-121.98536153074, -121.21560501844, -82.909109814701],
        [-122.07781763311, -121.57240462095, -81.249548657475],
        [-122.17027373548, -121.92920422346, -79.589987500248],
        [-122.26272959943, -122.28600334913, -77.930426343022],
        [-122.3551857018, -122.64280295164, -76.270861371098],
        [-122.44764180418, -122.99960255415, -74.611300213871],
        [-122.54009790655, -123.35640215666, -72.951739056645],
        [-122.6325537705, -123.71320128233, -71.292177899418],
        [-122.72500987287, -124.07000136167, -69.632612927494],
        [-122.81746597524, -124.42680048735, -67.973051770268],
        [-122.90992207761, -124.78359961302, -66.313490613041],
        [-123.00237794157, -125.14039969236, -64.653929455815],
        [-123.09483404394, -125.49719881803, -62.994366391239],
        [-123.18729014631, -125.85399889738, -61.334805234013],
        [-123.27974624868, -126.21079802305, -59.675242169438],
        [-123.37220235105, -126.56759714872, -58.015681012211],
        [-123.464658215, -126.92439722807, -56.356117947636],
        [-123.55711431737, -127.28119635374, -54.696556790409],
        [-123.64957041975, -127.63799547941, -53.036993725834],
        [-123.74202652212, -127.99479555876, -51.377432568608],
        [-123.83448238607, -128.35159468443, -49.717871411381],
        [-123.92693872686, -128.70839476377, -48.058308346806],
        [-124.01939459081, -129.06519388945, -46.398746235905],
        [-124.11185045476, -129.42199301512, -44.739185078678],
        [-124.20430679555, -129.77879309446, -43.079622967778],
        [-124.29676265951, -130.13559222013, -41.420060856877],
        [-124.3892190003, -130.49239229948, -39.760498745976],
        [-124.48167486425, -130.84919142515, -38.100936635075],
        [-124.5741307282, -131.20599055082, -36.441374524174],
        [-124.66658706899, -131.56279063017, -34.781812651692],
        [-124.75904293294, -131.91958975584, -33.122250779209],
        [-124.8514987969, -132.27638888151, -31.462688787518],
        [-124.94395513769, -132.63318896086, -29.803126795826],
        [-125.03641100164, -132.9899890402, -28.143564684925],
        [-125.12886734243, -133.3467872122, -26.484002812443],
        [-125.22132320638, -133.70358729154, -24.824440701542],
        [-125.31377907033, -134.06038737089, -23.164878590641],
        [-125.40623541112, -134.41718554289, -21.50531647974],
        [-125.49869127508, -134.77398562223, -19.845755322514],
        [-125.59114761587, -135.13078570158, -18.186193211613],
        [-125.68360347982, -135.48758387358, -16.526631100712],
        [-125.77605934377, -135.84438395292, -14.867068036137],
        [-125.86851568456, -136.20118403227, -13.20750687891],
        [-125.96097154851, -136.55798411161, -11.547945721684],
        [-126.0534278893, -136.91478228361, -9.8883826571086],
        [-126.14588375326, -137.27158236296, -8.2288214998821],
        [-126.23833961721, -137.6283824423, -6.5692584353069],
        [-126.330795958, -137.9851806143, -4.9096972780803],
        [-126.42325182195, -138.34198069364, -3.2501342135051],
        [-126.5157076859, -138.69878077299, -1.5905730562786],
        [-126.60816402669, -139.05557894499, 0.068988100948],
        [-126.70061989065, -139.41237902433, 1.7285511655232],
        [-126.79307623144, -139.76917910368, 3.3881123227498],
        [-126.88553209539, -140.12597727568, 5.0476734799763],
        [-126.97798795934, -140.48277735502, 6.7072384519001],
        [-127.07044430013, -140.83957743437, 8.3667996091267],
        [-127.16290016408, -141.19637751371, 10.026360766353],
        [-127.25535650487, -141.55317568571, 11.68592192358],
        [-127.34781236883, -141.90997576506, 13.345483080806],
        [-127.44026823278, -142.2667758444, 15.00504805273],
        [-127.53272457357, -142.6235740164, 16.664609209957],
        [-127.62518043752, -142.98037409574, 18.324170367183],
        [-127.71763630147, -143.33717417509, 19.98373152441],
        [-127.81009216543, -143.69397234709, 21.643296496334],
        [-127.90254898305, -144.05077242643, 23.30285765356],
        [-127.99500484701, -144.40757250578, 24.962418810787],
        [-128.08746071096, -144.76437067778, 26.621979968013],
        [-128.17991657491, -145.12117075712, 28.28154112524],
        [-128.27237243886, -145.47797083647, 29.941106097164],
        [-128.36482925649, -145.83477091581, 31.60066725439],
        [-128.45728512044, -146.19156908781, 33.260232226314],
        [-128.5497409844, -146.54836916716, 34.919793383541],
        [-128.64219684835, -146.9051692465, 36.579354540767],
        [-128.7346527123, -147.2619674185, 38.238915697994],
        [-128.82710952993, -147.61876749784, 39.89847685522]
],
      "InstanceCreationTime": ["121444.505000", "121444.632000", "121444.520000", "121444.638000", "121444.528000", "121444.645000", "121444.539000", "121444.651000", "121444.553000", "121444.658000", "121444.561000", "121444.666000", "121444.568000", "121444.673000", "121444.581000", "121444.679000", "121444.588000", "121444.686000", "121444.594000", "121444.692000", "121444.601000", "121444.699000", "121444.608000", "121444.705000", "121444.614000", "121444.712000", "121444.621000", "121444.508000", "121444.634000", "121444.523000", "121444.640000", "121444.535000", "121444.647000", "121444.542000", "121444.653000", "121444.556000", "121444.660000", "121444.564000", "121444.668000", "121444.571000", "121444.675000", "121444.583000", "121444.682000", "121444.590000", "121444.688000", "121444.596000", "121444.694000", "121444.603000", "121444.701000", "121444.610000", "121444.708000", "121444.617000", "121444.714000", "121444.623000", "121444.513000", "121444.636000", "121444.525000", "121444.643000", "121444.537000", "121444.649000", "121444.551000", "121444.656000", "121444.558000", "121444.663000", "121444.566000", "121444.671000", "121444.579000", "121444.677000", "121444.585000", "121444.684000", "121444.592000", "121444.690000", "121444.598000", "121444.697000", "121444.606000", "121444.703000", "121444.612000", "121444.710000", "121444.619000", "121444.716000", "121444.625000"],
      "InstanceNumber": [1, 2, 3, 4, 5, 6, 7, 8, 9, 10, 11, 12, 13, 14, 15, 16, 17, 18, 19, 20, 21, 22, 23, 24, 25, 26, 27, 28, 29, 30, 31, 32, 33, 34, 35, 36, 37, 38, 39, 40, 41, 42, 43, 44, 45, 46, 47, 48, 49, 50, 51, 52, 53, 54, 55, 56, 57, 58, 59, 60, 61, 62, 63, 64, 65, 66, 67, 68, 69, 70, 71, 72, 73, 74, 75, 76, 77, 78, 79, 80, 81],
      "LargestImagePixelValue": [22408, 20542, 24287, 24887, 25745, 20998, 16899, 21530, 16319, 29863, 35878, 34937, 26239, 27389, 29028, 26766, 25878, 41306, 52366, 65535, 65535, 65535, 65535, 65535, 56781, 65535, 56830, 48171, 49653, 40955, 54935, 44683, 46300, 39407, 38111, 37522, 43923, 36279, 33419, 46963, 49008, 47734, 50605, 50221, 52344, 53478, 48302, 43643, 44353, 42532, 52503, 55955, 56561, 54716, 48207, 39996, 41658, 47298, 44445, 44405, 45973, 38386, 41918, 49275, 61288, 51480, 44390, 52767, 60516, 41677, 39839, 37665, 40789, 40139, 48637, 48123, 26416, 10797, 15029, 9651, 9407],
      "SliceLocation": [-59.061679308259, -57.361680152491, -55.6616809402, -53.961681734392, -52.261682528584, -50.561679692415, -48.861680480124, -47.161681267833, -45.461682055541, -43.761682956296, -42.061680020048, -40.361680807757, -38.661681595466, -36.96168249622, -35.261679459893, -33.561680347681, -31.861681235469, -30.161681936065, -28.461680961875, -26.761681649504, -25.061680675314, -23.361681563102, -21.66168040172, -19.961681289508, -18.261680315318, -16.561681002947, -14.861681903702, -13.161680716386, -11.461680686151, -9.7616815869064, -8.0616813305797, -6.3616813003454, -4.6616810440187, -2.9616810137844, -1.2616809835501, 0.43831904002929, 2.1383188375163, 3.838318751377, 5.53831889133, 7.2383191217235, 8.9383187449846, 10.638318975378, 12.338319205771, 14.03831906178, 15.738318361184, 17.438318617511, 19.138318447586, 20.838319608969, 22.538318934306, 24.23831823371, 25.938319020708, 27.638318320112, 29.338319481495, 31.038318406514, 32.738319567897, 34.438318867301, 36.13831779232, 37.838318953703, 39.53831827904, 41.238317178126, 42.938320201487, 44.638319526825, 46.338318826229, 48.038317751248, 49.738317050653, 51.438320074014, 53.138318999033, 54.838318298437, 56.538317597841, 58.238320220884, 59.938319572155, 61.638318871559, 63.338317770645, 65.038317070049, 66.73832009341, 68.438319444681, 70.138322067724, 71.838321367128, 73.538320666532, 75.238319565618, 76.938318916889],
      "WindowCenter": [5369.0, 5138.0, 5427.0, 5459.0, 5327.0, 5018.0, 4729.0, 4950.0, 4568.0, 5490.0, 5978.0, 6088.0, 5920.0, 6149.0, 6602.0, 6830.0, 7229.0, 8096.0, 8539.0, 8605.0, 8693.0, 8836.0, 8971.0, 8887.0, 8747.0, 9011.0, 8999.0, 8887.0, 9014.0, 9078.0, 9294.0, 9180.0, 9005.0, 8861.0, 8887.0, 8922.0, 9027.0, 9220.0, 9416.0, 9652.0, 9827.0, 9960.0, 10011.0, 10077.0, 10283.0, 10289.0, 10012.0, 9958.0, 9958.0, 10102.0, 10307.0, 10466.0, 10781.0, 10800.0, 10248.0, 10076.0, 10315.0, 10212.0, 10145.0, 10128.0, 10024.0, 9703.0, 9776.0, 9865.0, 9940.0, 9780.0, 9937.0, 10087.0, 10119.0, 9679.0, 9628.0, 9328.0, 9416.0, 9157.0, 9063.0, 6782.0, 4958.0, 1694.0, 3552.0, 1586.0, 1561.0],
      "WindowWidth": [11886.0, 11334.0, 11899.0, 11963.0, 11730.0, 11149.0, 10614.0, 10873.0, 10368.0, 12182.0, 13511.0, 13545.0, 13245.0, 13617.0, 14296.0, 14911.0, 15816.0, 17560.0, 18972.0, 19653.0, 20117.0, 20351.0, 20430.0, 20070.0, 19572.0, 20448.0, 20103.0, 19579.0, 19592.0, 19637.0, 20095.0, 19775.0, 19373.0, 19135.0, 19125.0, 19307.0, 19510.0, 19872.0, 20350.0, 20940.0, 21344.0, 21823.0, 21930.0, 22034.0, 22583.0, 22712.0, 22056.0, 21884.0, 21876.0, 22233.0, 22775.0, 23280.0, 24014.0, 23999.0, 22520.0, 22068.0, 22597.0, 22361.0, 22419.0, 22444.0, 22040.0, 21315.0, 21464.0, 21674.0, 22010.0, 21475.0, 21966.0, 22458.0, 22694.0, 21403.0, 21147.0, 20313.0, 20499.0, 19629.0, 19584.0, 15088.0, 10903.0, 5087.0, 8039.0, 4784.0, 4719.0]
    }
  }
}