{
  "AcquisitionMatrixPE": 82,
  "AcquisitionNumber": 1,
  "AcquisitionTime": "15:32:3.637500",
  "BandwidthPerPixelPhaseEncode": 24.888,
  "BaseResolution": 82,
  "BodyPartExamined": "BRAIN",
  "ConsistencyInfo": "N4_VE11C_LATEST_20160120",
  "ConversionSoftware": "dcm2niix",
  "ConversionSoftwareVersion": "v1.0.20201102",
  "DerivedVendorReportedEchoSpacing": 0.00049,
  "DeviceSerialNumber": "66112",
  "DwellTime": 2e-06,
  "EchoTime": 0.0272,
  "EchoTrainLength": 82,
  "EffectiveEchoSpacing": 0.00049,
  "FlipAngle": 44,
  "ImageComments": "Unaliased MB8/PE3",
  "ImageOrientationPatientDICOM": [0.999449, 0.0189586, -0.0272404, -0.0200629, 0.998964, -0.0408536],
  "ImageType": [
    "ORIGINAL",
    "PRIMARY",
    "M",
    "MB",
    "ND",
    "NORM",
    "MOSAIC"
],
  "ImagingFrequency": 123.252,
  "InPlanePhaseEncodingDirectionDICOM": "COL",
  "InstitutionAddress": "Maynard 3,Hanover,NH,US,03755",
  "InstitutionName": "Dartmouth College - PBS",
  "InstitutionalDepartmentName": "Department",
  "MRAcquisitionType": "2D",
  "MagneticFieldStrength": 3,
  "Manufacturer": "Siemens",
  "ManufacturersModelName": "Prisma",
  "Modality": "MR",
  "MultibandAccelerationFactor": 8,
  "PartialFourier": 1,
  "PatientPosition": "HFS",
  "PercentPhaseFOV": 100,
  "PercentSampling": 100,
  "PhaseEncodingDirection": "j-",
  "PhaseEncodingSteps": 82,
  "PhaseResolution": 1,
  "PixelBandwidth": 3050,
  "ProcedureStepDescription": "Wager_Wager^1076_spacetop",
  "ProtocolName": "func_run-04_task-social_acq-ap-mb8",
  "PulseSequenceDetails": "%CustomerSeq%\\cmrr_mbep2d_bold",
  "ReceiveCoilActiveElements": "HEA;HEP",
  "ReceiveCoilName": "Head_32",
  "ReconMatrixPE": 82,
  "RepetitionTime": 0.46,
  "SAR": 0.0795652,
  "ScanOptions": "FS",
  "ScanningSequence": "EP",
  "SequenceName": "epfid2d1_82",
  "SequenceVariant": "SK\\SS",
  "SeriesDescription": "func_run-04_task-social_acq-ap-mb8",
  "SeriesNumber": 20,
  "ShimSetting": [4129, -7753, -7253, 481, -78, -10, -75, 64],
  "SliceThickness": 2.7,
  "SliceTiming": [0, 0.2525, 0.0625, 0.315, 0.1275, 0.3775, 0.19, 0, 0.2525, 0.0625, 0.315, 0.1275, 0.3775, 0.19, 0, 0.2525, 0.0625, 0.315, 0.1275, 0.3775, 0.19, 0, 0.2525, 0.0625, 0.315, 0.1275, 0.3775, 0.19, 0, 0.2525, 0.0625, 0.315, 0.1275, 0.3775, 0.19, 0, 0.2525, 0.0625, 0.315, 0.1275, 0.3775, 0.19, 0, 0.2525, 0.0625, 0.315, 0.1275, 0.3775, 0.19, 0, 0.2525, 0.0625, 0.315, 0.1275, 0.3775, 0.19],
  "SoftwareVersions": "syngo MR E11",
  "SpacingBetweenSlices": 2.7,
  "StationName": "AWP66112",
  "TaskName": "social",
  "TotalReadoutTime": 0.03969,
  "TxRefAmp": 257.728,
  "WipMemBlock": "26010f5b-6ade-4e7a-a6f9-6dea3a45fcea||Sequence: R016 ve11c/master r/e634e98; Dec 19 2017 11:00:25 by eja",
  "dcmmeta_affine": [
    [-2.6814489364624023, -0.05382716655731201, -0.07138160616159439, 118.90250396728516],
    [-0.05086447671055794, 2.6801464557647705, -0.11171967536211014, -88.51456451416016],
    [-0.07308396697044373, 0.10960733145475388, 2.6967432498931885, -50.972007751464844],
    [0.0, 0.0, 0.0, 1.0]
],
  "dcmmeta_reorient_transform": [
    [0.0, -1.0, 0.0, 81.0],
    [1.0, 0.0, 0.0, 0.0],
    [0.0, 0.0, 1.0, 0.0],
    [0.0, 0.0, 0.0, 1.0]
],
  "dcmmeta_shape": [82, 82, 56, 872],
  "dcmmeta_slice_dim": 2,
  "dcmmeta_version": 0.6,
  "global": {
    "const": {
      "AccessionNumber": "A003446",
      "AcquisitionMatrix": [82, 0, 0, 82],
      "AngioFlag": "N",
      "BitsAllocated": 16,
      "BitsStored": 16,
      "BodyPartExamined": "BRAIN",
      "Columns": 656,
      "EchoNumbers": 1,
      "EchoTime": 27.2,
      "EchoTrainLength": 82,
      "FlipAngle": 44.0,
      "HighBit": 15,
      "ImageOrientationPatient": [0.99944911506567, 0.0189585776929, -0.0272403877784, -0.0200628521704, 0.99896369399577, -0.0408536417117],
      "ImagePositionPatient": [-868.66994662092, -912.37747829201, 10.338591343589],
      "ImageType": [
        "ORIGINAL",
        "PRIMARY",
        "M",
        "MB",
        "ND",
        "NORM",
        "MOSAIC"
],
      "ImagedNucleus": "1H",
      "ImagingFrequency": 123.252124,
      "InPlanePhaseEncodingDirection": "COL",
      "MRAcquisitionType": "2D",
      "MagneticFieldStrength": 3.0,
      "Manufacturer": "SIEMENS",
      "ManufacturerModelName": "Prisma",
      "Modality": "MR",
      "NumberOfAverages": 1.0,
      "NumberOfPhaseEncodingSteps": 82,
      "PercentPhaseFieldOfView": 100.0,
      "PercentSampling": 100.0,
      "PerformedProcedureStepStartTime": "135910.764000",
      "PhotometricInterpretation": "MONOCHROME2",
      "PixelBandwidth": 3050.0,
      "PixelRepresentation": 0,
      "PixelSpacing": [2.6829268932343, 2.6829268932343],
      "ProtocolName": "func_run-04_task-social_acq-ap-mb8",
      "RepetitionTime": 460.0,
      "Rows": 656,
      "SAR": 0.07956525142336,
      "SamplesPerPixel": 1,
      "ScanOptions": "FS",
      "ScanningSequence": "EP",
      "SequenceName": "epfid2d1_82",
      "SequenceVariant": [
        "SK",
        "SS"
],
      "SeriesDescription": "func_run-04_task-social_acq-ap-mb8",
      "SeriesNumber": 20,
      "SeriesTime": "153228.987000",
      "SliceLocation": -50.391496937474,
      "SliceThickness": 2.7000000476837,
      "SmallestImagePixelValue": 0,
      "SoftwareVersions": "syngo MR E11",
      "SpacingBetweenSlices": 2.700000044283,
      "SpecificCharacterSet": "ISO_IR 100",
      "StudyID": "1",
      "StudyTime": "135910.610000",
      "TransmitCoilName": "Body",
      "VariableFlipAngleFlag": "N",
      "WindowCenterWidthExplanation": "Algo1",
      "dBdt": 0.0},
    "slices": {}
  },
  "time": {
    "samples": {
      "AcquisitionNumber": [1, 2, 3, 4, 5, 6, 7, 8, 9, 10, 11, 12, 13, 14, 15, 16, 17, 18, 19, 20, 21, 22, 23, 24, 25, 26, 27, 28, 29, 30, 31, 32, 33, 34, 35, 36, 37, 38, 39, 40, 41, 42, 43, 44, 45, 46, 47, 48, 49, 50, 51, 52, 53, 54, 55, 56, 57, 58, 59, 60, 61, 62, 63, 64, 65, 66, 67, 68, 69, 70, 71, 72, 73, 74, 75, 76, 77, 78, 79, 80, 81, 82, 83, 84, 85, 86, 87, 88, 89, 90, 91, 92, 93, 94, 95, 96, 97, 98, 99, 100, 101, 102, 103, 104, 105, 106, 107, 108, 109, 110, 111, 112, 113, 114, 115, 116, 117, 118, 119, 120, 121, 122, 123, 124, 125, 126, 127, 128, 129, 130, 131, 132, 133, 134, 135, 136, 137, 138, 139, 140, 141, 142, 143, 144, 145, 146, 147, 148, 149, 150, 151, 152, 153, 154, 155, 156, 157, 158, 159, 160, 161, 162, 163, 164, 165, 166, 167, 168, 169, 170, 171, 172, 173, 174, 175, 176, 177, 178, 179, 180, 181, 182, 183, 184, 185, 186, 187, 188, 189, 190, 191, 192, 193, 194, 195, 196, 197, 198, 199, 200, 201, 202, 203, 204, 205, 206, 207, 208, 209, 210, 211, 212, 213, 214, 215, 216, 217, 218, 219, 220, 221, 222, 223, 224, 225, 226, 227, 228, 229, 230, 231, 232, 233, 234, 235, 236, 237, 238, 239, 240, 241, 242, 243, 244, 245, 246, 247, 248, 249, 250, 251, 252, 253, 254, 255, 256, 257, 258, 259, 260, 261, 262, 263, 264, 265, 266, 267, 268, 269, 270, 271, 272, 273, 274, 275, 276, 277, 278, 279, 280, 281, 282, 283, 284, 285, 286, 287, 288, 289, 290, 291, 292, 293, 294, 295, 296, 297, 298, 299, 300, 301, 302, 303, 304, 305, 306, 307, 308, 309, 310, 311, 312, 313, 314, 315, 316, 317, 318, 319, 320, 321, 322, 323, 324, 325, 326, 327, 328, 329, 330, 331, 332, 333, 334, 335, 336, 337, 338, 339, 340, 341, 342, 343, 344, 345, 346, 347, 348, 349, 350, 351, 352, 353, 354, 355, 356, 357, 358, 359, 360, 361, 362, 363, 364, 365, 366, 367, 368, 369, 370, 371, 372, 373, 374, 375, 376, 377, 378, 379, 380, 381, 382, 383, 384, 385, 386, 387, 388, 389, 390, 391, 392, 393, 394, 395, 396, 397, 398, 399, 400, 401, 402, 403, 404, 405, 406, 407, 408, 409, 410, 411, 412, 413, 414, 415, 416, 417, 418, 419, 420, 421, 422, 423, 424, 425, 426, 427, 428, 429, 430, 431, 432, 433, 434, 435, 436, 437, 438, 439, 440, 441, 442, 443, 444, 445, 446, 447, 448, 449, 450, 451, 452, 453, 454, 455, 456, 457, 458, 459, 460, 461, 462, 463, 464, 465, 466, 467, 468, 469, 470, 471, 472, 473, 474, 475, 476, 477, 478, 479, 480, 481, 482, 483, 484, 485, 486, 487, 488, 489, 490, 491, 492, 493, 494, 495, 496, 497, 498, 499, 500, 501, 502, 503, 504, 505, 506, 507, 508, 509, 510, 511, 512, 513, 514, 515, 516, 517, 518, 519, 520, 521, 522, 523, 524, 525, 526, 527, 528, 529, 530, 531, 532, 533, 534, 535, 536, 537, 538, 539, 540, 541, 542, 543, 544, 545, 546, 547, 548, 549, 550, 551, 552, 553, 554, 555, 556, 557, 558, 559, 560, 561, 562, 563, 564, 565, 566, 567, 568, 569, 570, 571, 572, 573, 574, 575, 576, 577, 578, 579, 580, 581, 582, 583, 584, 585, 586, 587, 588, 589, 590, 591, 592, 593, 594, 595, 596, 597, 598, 599, 600, 601, 602, 603, 604, 605, 606, 607, 608, 609, 610, 611, 612, 613, 614, 615, 616, 617, 618, 619, 620, 621, 622, 623, 624, 625, 626, 627, 628, 629, 630, 631, 632, 633, 634, 635, 636, 637, 638, 639, 640, 641, 642, 643, 644, 645, 646, 647, 648, 649, 650, 651, 652, 653, 654, 655, 656, 657, 658, 659, 660, 661, 662, 663, 664, 665, 666, 667, 668, 669, 670, 671, 672, 673, 674, 675, 676, 677, 678, 679, 680, 681, 682, 683, 684, 685, 686, 687, 688, 689, 690, 691, 692, 693, 694, 695, 696, 697, 698, 699, 700, 701, 702, 703, 704, 705, 706, 707, 708, 709, 710, 711, 712, 713, 714, 715, 716, 717, 718, 719, 720, 721, 722, 723, 724, 725, 726, 727, 728, 729, 730, 731, 732, 733, 734, 735, 736, 737, 738, 739, 740, 741, 742, 743, 744, 745, 746, 747, 748, 749, 750, 751, 752, 753, 754, 755, 756, 757, 758, 759, 760, 761, 762, 763, 764, 765, 766, 767, 768, 769, 770, 771, 772, 773, 774, 775, 776, 777, 778, 779, 780, 781, 782, 783, 784, 785, 786, 787, 788, 789, 790, 791, 792, 793, 794, 795, 796, 797, 798, 799, 800, 801, 802, 803, 804, 805, 806, 807, 808, 809, 810, 811, 812, 813, 814, 815, 816, 817, 818, 819, 820, 821, 822, 823, 824, 825, 826, 827, 828, 829, 830, 831, 832, 833, 834, 835, 836, 837, 838, 839, 840, 841, 842, 843, 844, 845, 846, 847, 848, 849, 850, 851, 852, 853, 854, 855, 856, 857, 858, 859, 860, 861, 862, 863, 864, 865, 866, 867, 868, 869, 870, 871, 872],
      "AcquisitionTime": ["153203.637500", "153204.097500", "153204.557500", "153205.017500", "153205.477500", "153205.937500", "153206.397500", "153206.857500", "153207.317500", "153207.777500", "153208.237500", "153208.697500", "153209.157500", "153209.617500", "153210.077500", "153210.537500", "153210.997500", "153211.457500", "153211.917500", "153212.377500", "153212.837500", "153213.297500", "153213.757500", "153214.217500", "153214.677500", "153215.137500", "153215.597500", "153216.057500", "153216.517500", "153216.977500", "153217.437500", "153217.897500", "153218.357500", "153218.817500", "153219.277500", "153219.737500", "153220.197500", "153220.657500", "153221.117500", "153221.577500", "153222.037500", "153222.497500", "153222.957500", "153223.417500", "153223.877500", "153224.337500", "153224.797500", "153225.257500", "153225.717500", "153226.177500", "153226.637500", "153227.097500", "153227.557500", "153228.017500", "153228.477500", "153228.937500", "153229.397500", "153229.857500", "153230.317500", "153230.777500", "153231.237500", "153231.697500", "153232.157500", "153232.617500", "153233.077500", "153233.537500", "153233.997500", "153234.457500", "153234.917500", "153235.377500", "153235.837500", "153236.297500", "153236.757500", "153237.217500", "153237.677500", "153238.137500", "153238.597500", "153239.057500", "153239.517500", "153239.977500", "153240.437500", "153240.897500", "153241.357500", "153241.817500", "153242.277500", "153242.737500", "153243.197500", "153243.657500", "153244.117500", "153244.577500", "153245.037500", "153245.497500", "153245.957500", "153246.417500", "153246.877500", "153247.337500", "153247.797500", "153248.257500", "153248.717500", "153249.177500", "153249.637500", "153250.097500", "153250.557500", "153251.017500", "153251.477500", "153251.937500", "153252.397500", "153252.857500", "153253.317500", "153253.777500", "153254.237500", "153254.697500", "153255.157500", "153255.617500", "153256.077500", "153256.537500", "153256.997500", "153257.457500", "153257.917500", "153258.377500", "153258.837500", "153259.297500", "153259.757500", "153300.217500", "153300.677500", "153301.137500", "153301.597500", "153302.057500", "153302.517500", "153302.977500", "153303.437500", "153303.897500", "153304.357500", "153304.817500", "153305.277500", "153305.737500", "153306.197500", "153306.657500", "153307.117500", "153307.577500", "153308.037500", "153308.497500", "153308.957500", "153309.417500", "153309.877500", "153310.337500", "153310.797500", "153311.257500", "153311.717500", "153312.177500", "153312.637500", "153313.097500", "153313.557500", "153314.017500", "153314.477500", "153314.937500", "153315.397500", "153315.857500", "153316.317500", "153316.777500", "153317.237500", "153317.697500", "153318.157500", "153318.617500", "153319.077500", "153319.537500", "153319.997500", "153320.457500", "153320.917500", "153321.377500", "153321.837500", "153322.297500", "153322.757500", "153323.217500", "153323.677500", "153324.137500", "153324.597500", "153325.057500", "153325.517500", "153325.977500", "153326.437500", "153326.897500", "153327.357500", "153327.817500", "153328.277500", "153328.737500", "153329.197500", "153329.657500", "153330.117500", "153330.577500", "153331.037500", "153331.497500", "153331.957500", "153332.417500", "153332.877500", "153333.337500", "153333.797500", "153334.257500", "153334.717500", "153335.177500", "153335.637500", "153336.097500", "153336.557500", "153337.017500", "153337.477500", "153337.937500", "153338.397500", "153338.857500", "153339.317500", "153339.777500", "153340.237500", "153340.697500", "153341.157500", "153341.617500", "153342.077500", "153342.537500", "153342.997500", "153343.457500", "153343.917500", "153344.377500", "153344.837500", "153345.297500", "153345.757500", "153346.217500", "153346.677500", "153347.137500", "153347.597500", "153348.057500", "153348.517500", "153348.977500", "153349.437500", "153349.897500", "153350.357500", "153350.817500", "153351.277500", "153351.737500", "153352.197500", "153352.657500", "153353.117500", "153353.577500", "153354.037500", "153354.497500", "153354.957500", "153355.417500", "153355.877500", "153356.337500", "153356.797500", "153357.257500", "153357.717500", "153358.177500", "153358.637500", "153359.097500", "153359.557500", "153400.017500", "153400.477500", "153400.937500", "153401.397500", "153401.857500", "153402.317500", "153402.777500", "153403.237500", "153403.697500", "153404.157500", "153404.617500", "153405.077500", "153405.537500", "153405.997500", "153406.457500", "153406.917500", "153407.377500", "153407.837500", "153408.297500", "153408.757500", "153409.217500", "153409.677500", "153410.137500", "153410.597500", "153411.057500", "153411.517500", "153411.977500", "153412.437500", "153412.897500", "153413.357500", "153413.817500", "153414.277500", "153414.737500", "153415.197500", "153415.657500", "153416.117500", "153416.577500", "153417.037500", "153417.497500", "153417.957500", "153418.417500", "153418.877500", "153419.337500", "153419.797500", "153420.257500", "153420.717500", "153421.177500", "153421.637500", "153422.097500", "153422.557500", "153423.017500", "153423.477500", "153423.937500", "153424.397500", "153424.857500", "153425.317500", "153425.777500", "153426.237500", "153426.697500", "153427.157500", "153427.617500", "153428.077500", "153428.537500", "153428.997500", "153429.457500", "153429.917500", "153430.377500", "153430.837500", "153431.297500", "153431.757500", "153432.217500", "153432.677500", "153433.137500", "153433.597500", "153434.057500", "153434.517500", "153434.977500", "153435.437500", "153435.897500", "153436.357500", "153436.817500", "153437.277500", "153437.737500", "153438.197500", "153438.657500", "153439.117500", "153439.577500", "153440.037500", "153440.497500", "153440.957500", "153441.417500", "153441.877500", "153442.337500", "153442.797500", "153443.257500", "153443.717500", "153444.177500", "153444.637500", "153445.097500", "153445.557500", "153446.017500", "153446.477500", "153446.937500", "153447.397500", "153447.857500", "153448.317500", "153448.777500", "153449.237500", "153449.697500", "153450.157500", "153450.617500", "153451.077500", "153451.537500", "153451.997500", "153452.457500", "153452.917500", "153453.377500", "153453.837500", "153454.297500", "153454.757500", "153455.217500", "153455.677500", "153456.137500", "153456.597500", "153457.057500", "153457.517500", "153457.977500", "153458.437500", "153458.897500", "153459.357500", "153459.817500", "153500.277500", "153500.737500", "153501.197500", "153501.657500", "153502.117500", "153502.577500", "153503.037500", "153503.497500", "153503.957500", "153504.417500", "153504.877500", "153505.337500", "153505.797500", "153506.257500", "153506.717500", "153507.177500", "153507.637500", "153508.097500", "153508.557500", "153509.017500", "153509.477500", "153509.937500", "153510.397500", "153510.857500", "153511.317500", "153511.777500", "153512.237500", "153512.697500", "153513.157500", "153513.617500", "153514.077500", "153514.537500", "153514.997500", "153515.457500", "153515.917500", "153516.377500", "153516.837500", "153517.297500", "153517.757500", "153518.217500", "153518.677500", "153519.137500", "153519.597500", "153520.057500", "153520.517500", "153520.977500", "153521.437500", "153521.897500", "153522.357500", "153522.817500", "153523.277500", "153523.737500", "153524.197500", "153524.657500", "153525.117500", "153525.577500", "153526.037500", "153526.497500", "153526.957500", "153527.417500", "153527.877500", "153528.337500", "153528.797500", "153529.257500", "153529.717500", "153530.177500", "153530.637500", "153531.097500", "153531.557500", "153532.017500", "153532.477500", "153532.937500", "153533.397500", "153533.857500", "153534.317500", "153534.777500", "153535.237500", "153535.697500", "153536.157500", "153536.617500", "153537.077500", "153537.537500", "153537.997500", "153538.457500", "153538.917500", "153539.377500", "153539.837500", "153540.297500", "153540.757500", "153541.217500", "153541.677500", "153542.137500", "153542.597500", "153543.057500", "153543.517500", "153543.977500", "153544.437500", "153544.897500", "153545.357500", "153545.817500", "153546.277500", "153546.737500", "153547.197500", "153547.657500", "153548.117500", "153548.577500", "153549.037500", "153549.497500", "153549.957500", "153550.417500", "153550.877500", "153551.337500", "153551.797500", "153552.257500", "153552.717500", "153553.177500", "153553.637500", "153554.097500", "153554.557500", "153555.017500", "153555.477500", "153555.937500", "153556.397500", "153556.857500", "153557.317500", "153557.777500", "153558.237500", "153558.697500", "153559.157500", "153559.617500", "153600.077500", "153600.537500", "153600.997500", "153601.457500", "153601.917500", "153602.377500", "153602.837500", "153603.297500", "153603.757500", "153604.217500", "153604.677500", "153605.137500", "153605.597500", "153606.057500", "153606.517500", "153606.977500", "153607.437500", "153607.897500", "153608.357500", "153608.817500", "153609.277500", "153609.737500", "153610.197500", "153610.657500", "153611.117500", "153611.577500", "153612.037500", "153612.497500", "153612.957500", "153613.417500", "153613.877500", "153614.337500", "153614.797500", "153615.257500", "153615.717500", "153616.177500", "153616.637500", "153617.097500", "153617.557500", "153618.017500", "153618.477500", "153618.937500", "153619.397500", "153619.857500", "153620.317500", "153620.777500", "153621.237500", "153621.697500", "153622.157500", "153622.617500", "153623.077500", "153623.537500", "153623.997500", "153624.457500", "153624.917500", "153625.377500", "153625.837500", "153626.297500", "153626.757500", "153627.217500", "153627.677500", "153628.137500", "153628.597500", "153629.057500", "153629.517500", "153629.977500", "153630.437500", "153630.897500", "153631.357500", "153631.817500", "153632.277500", "153632.737500", "153633.197500", "153633.657500", "153634.117500", "153634.577500", "153635.037500", "153635.497500", "153635.957500", "153636.417500", "153636.877500", "153637.337500", "153637.797500", "153638.257500", "153638.717500", "153639.177500", "153639.637500", "153640.097500", "153640.557500", "153641.017500", "153641.477500", "153641.937500", "153642.397500", "153642.857500", "153643.317500", "153643.777500", "153644.237500", "153644.697500", "153645.157500", "153645.617500", "153646.077500", "153646.537500", "153646.997500", "153647.457500", "153647.917500", "153648.377500", "153648.837500", "153649.297500", "153649.757500", "153650.217500", "153650.677500", "153651.137500", "153651.597500", "153652.057500", "153652.517500", "153652.977500", "153653.437500", "153653.897500", "153654.357500", "153654.817500", "153655.277500", "153655.737500", "153656.197500", "153656.657500", "153657.117500", "153657.577500", "153658.037500", "153658.497500", "153658.957500", "153659.417500", "153659.877500", "153700.337500", "153700.797500", "153701.257500", "153701.717500", "153702.177500", "153702.637500", "153703.097500", "153703.557500", "153704.017500", "153704.477500", "153704.937500", "153705.397500", "153705.857500", "153706.317500", "153706.777500", "153707.237500", "153707.697500", "153708.157500", "153708.617500", "153709.077500", "153709.537500", "153709.997500", "153710.457500", "153710.917500", "153711.377500", "153711.837500", "153712.297500", "153712.757500", "153713.217500", "153713.677500", "153714.137500", "153714.597500", "153715.057500", "153715.517500", "153715.977500", "153716.437500", "153716.897500", "153717.357500", "153717.817500", "153718.277500", "153718.737500", "153719.197500", "153719.657500", "153720.117500", "153720.577500", "153721.037500", "153721.497500", "153721.957500", "153722.417500", "153722.877500", "153723.337500", "153723.797500", "153724.257500", "153724.717500", "153725.177500", "153725.637500", "153726.097500", "153726.557500", "153727.017500", "153727.477500", "153727.937500", "153728.397500", "153728.857500", "153729.317500", "153729.777500", "153730.237500", "153730.697500", "153731.157500", "153731.617500", "153732.077500", "153732.537500", "153732.997500", "153733.457500", "153733.917500", "153734.377500", "153734.837500", "153735.297500", "153735.757500", "153736.217500", "153736.677500", "153737.137500", "153737.597500", "153738.057500", "153738.517500", "153738.977500", "153739.437500", "153739.897500", "153740.357500", "153740.817500", "153741.277500", "153741.737500", "153742.197500", "153742.657500", "153743.117500", "153743.577500", "153744.037500", "153744.497500", "153744.957500", "153745.417500", "153745.877500", "153746.337500", "153746.797500", "153747.257500", "153747.717500", "153748.177500", "153748.637500", "153749.097500", "153749.557500", "153750.017500", "153750.477500", "153750.937500", "153751.397500", "153751.857500", "153752.317500", "153752.777500", "153753.237500", "153753.697500", "153754.157500", "153754.617500", "153755.077500", "153755.537500", "153755.997500", "153756.457500", "153756.917500", "153757.377500", "153757.837500", "153758.297500", "153758.757500", "153759.217500", "153759.677500", "153800.137500", "153800.597500", "153801.057500", "153801.517500", "153801.977500", "153802.437500", "153802.897500", "153803.357500", "153803.817500", "153804.277500", "153804.737500", "153805.197500", "153805.657500", "153806.117500", "153806.577500", "153807.037500", "153807.497500", "153807.957500", "153808.417500", "153808.877500", "153809.337500", "153809.797500", "153810.257500", "153810.717500", "153811.177500", "153811.637500", "153812.097500", "153812.557500", "153813.017500", "153813.477500", "153813.937500", "153814.397500", "153814.857500", "153815.317500", "153815.777500", "153816.237500", "153816.697500", "153817.157500", "153817.617500", "153818.077500", "153818.537500", "153818.997500", "153819.457500", "153819.917500", "153820.377500", "153820.837500", "153821.297500", "153821.757500", "153822.217500", "153822.677500", "153823.137500", "153823.597500", "153824.057500", "153824.517500", "153824.977500", "153825.437500", "153825.897500", "153826.357500", "153826.817500", "153827.277500", "153827.737500", "153828.197500", "153828.657500", "153829.117500", "153829.577500", "153830.037500", "153830.497500", "153830.957500", "153831.417500", "153831.877500", "153832.337500", "153832.797500", "153833.257500", "153833.717500", "153834.177500", "153834.637500", "153835.097500", "153835.557500", "153836.017500", "153836.477500", "153836.937500", "153837.397500", "153837.857500", "153838.317500", "153838.777500", "153839.237500", "153839.697500", "153840.157500", "153840.617500", "153841.077500", "153841.537500", "153841.997500", "153842.457500", "153842.917500", "153843.377500", "153843.837500", "153844.297500"],
