{
  "AcquisitionMatrixPE": 82,
  "AcquisitionNumber": 1,
  "AcquisitionTime": "15:57:47.445000",
  "BandwidthPerPixelPhaseEncode": 24.888,
  "BaseResolution": 82,
  "BodyPartExamined": "BRAIN",
  "ConsistencyInfo": "N4_VE11C_LATEST_20160120",
  "ConversionSoftware": "dcm2niix",
  "ConversionSoftwareVersion": "v1.0.20201102",
  "DerivedVendorReportedEchoSpacing": 0.00049,
  "DeviceSerialNumber": "66112",
  "DwellTime": 2e-06,
  "EchoTime": 0.0272,
  "EchoTrainLength": 82,
  "EffectiveEchoSpacing": 0.00049,
  "FlipAngle": 44,
  "ImageComments": "Unaliased MB8/PE3",
  "ImageOrientationPatientDICOM": [0.999993, -0.000892317, 0.00368918, 0.00104718, 0.999109, -0.0421916],
  "ImageType": [
    "ORIGINAL",
    "PRIMARY",
    "M",
    "MB",
    "ND",
    "NORM",
    "MOSAIC"
],
  "ImagingFrequency": 123.252,
  "InPlanePhaseEncodingDirectionDICOM": "COL",
  "InstitutionAddress": "Maynard 3,Hanover,NH,US,03755",
  "InstitutionName": "Dartmouth College - PBS",
  "InstitutionalDepartmentName": "Department",
  "MRAcquisitionType": "2D",
  "MagneticFieldStrength": 3,
  "Manufacturer": "Siemens",
  "ManufacturersModelName": "Prisma",
  "Modality": "MR",
  "MultibandAccelerationFactor": 8,
  "PartialFourier": 1,
  "PatientPosition": "HFS",
  "PercentPhaseFOV": 100,
  "PercentSampling": 100,
  "PhaseEncodingDirection": "j-",
  "PhaseEncodingSteps": 82,
  "PhaseResolution": 1,
  "PixelBandwidth": 3050,
  "ProcedureStepDescription": "Wager_Wager^1076_spacetop",
  "ProtocolName": "func_run-01_task-alignvideo_acq-ap-mb8",
  "PulseSequenceDetails": "%CustomerSeq%\\cmrr_mbep2d_bold",
  "ReceiveCoilActiveElements": "HEA;HEP",
  "ReceiveCoilName": "Head_32",
  "ReconMatrixPE": 82,
  "RepetitionTime": 0.46,
  "SAR": 0.079658,
  "ScanOptions": "FS",
  "ScanningSequence": "EP",
  "SequenceName": "epfid2d1_82",
  "SequenceVariant": "SK\\SS",
  "SeriesDescription": "func_run-01_task-alignvideo_acq-ap-mb8",
  "SeriesNumber": 32,
  "ShimSetting": [4132, -7754, -7252, 485, -66, -10, -75, 70],
  "SliceThickness": 2.7,
  "SliceTiming": [0, 0.25, 0.0625, 0.3125, 0.125, 0.3775, 0.1875, 0, 0.25, 0.0625, 0.3125, 0.125, 0.3775, 0.1875, 0, 0.25, 0.0625, 0.3125, 0.125, 0.3775, 0.1875, 0, 0.25, 0.0625, 0.3125, 0.125, 0.3775, 0.1875, 0, 0.25, 0.0625, 0.3125, 0.125, 0.3775, 0.1875, 0, 0.25, 0.0625, 0.3125, 0.125, 0.3775, 0.1875, 0, 0.25, 0.0625, 0.3125, 0.125, 0.3775, 0.1875, 0, 0.25, 0.0625, 0.3125, 0.125, 0.3775, 0.1875],
  "SoftwareVersions": "syngo MR E11",
  "SpacingBetweenSlices": 2.7,
  "StationName": "AWP66112",
  "TaskName": "alignvideo",
  "TotalReadoutTime": 0.03969,
  "TxRefAmp": 257.728,
  "WipMemBlock": "d22d37fb-ef93-4434-96aa-6b31f453ab55||Sequence: R016 ve11c/master r/e634e98; Dec 19 2017 11:00:25 by eja",
  "dcmmeta_affine": [
    [-2.6829075813293457, 0.0028095138259232044, 0.009850268252193928, 116.09673309326172],
    [0.0023940219543874264, 2.6805362701416016, -0.11392701417207718, -89.87918090820312],
    [0.00989780854433775, 0.11319706588983536, 2.6975772380828857, -53.57762908935547],
    [0.0, 0.0, 0.0, 1.0]
],
  "dcmmeta_reorient_transform": [
    [0.0, -1.0, 0.0, 81.0],
    [1.0, 0.0, 0.0, 0.0],
    [0.0, 0.0, 1.0, 0.0],
    [0.0, 0.0, 0.0, 1.0]
],
  "dcmmeta_shape": [82, 82, 56, 1073],
  "dcmmeta_slice_dim": 2,
  "dcmmeta_version": 0.6,
  "global": {
    "const": {
      "AccessionNumber": "A003446",
      "AcquisitionMatrix": [82, 0, 0, 82],
      "AngioFlag": "N",
      "BitsAllocated": 16,
      "BitsStored": 16,
      "BodyPartExamined": "BRAIN",
      "Columns": 656,
      "EchoNumbers": 1,
      "EchoTime": 27.2,
      "EchoTrainLength": 82,
      "FlipAngle": 44.0,
      "HighBit": 15,
      "ImageOrientationPatient": [0.99999279682313, -0.0008923172728, 0.00368918307258, 0.0010471824059, 0.99910898783624, -0.0421916322728],
      "ImagePositionPatient": [-887.12510262655, -895.87111691203, -14.76178005319],
      "ImageType": [
        "ORIGINAL",
        "PRIMARY",
        "M",
        "MB",
        "ND",
        "NORM",
        "MOSAIC"
],
      "ImagedNucleus": "1H",
      "ImagingFrequency": 123.252129,
      "InPlanePhaseEncodingDirection": "COL",
      "MRAcquisitionType": "2D",
      "MagneticFieldStrength": 3.0,
      "Manufacturer": "SIEMENS",
      "ManufacturerModelName": "Prisma",
      "Modality": "MR",
      "NumberOfAverages": 1.0,
      "NumberOfPhaseEncodingSteps": 82,
      "PercentPhaseFieldOfView": 100.0,
      "PercentSampling": 100.0,
      "PerformedProcedureStepStartTime": "135910.764000",
      "PhotometricInterpretation": "MONOCHROME2",
      "PixelBandwidth": 3050.0,
      "PixelRepresentation": 0,
      "PixelSpacing": [2.6829268932343, 2.6829268932343],
      "ProtocolName": "func_run-01_task-alignvideo_acq-ap-mb8",
      "RepetitionTime": 460.0,
      "Rows": 656,
      "SAR": 0.07965804829006,
      "SamplesPerPixel": 1,
      "ScanOptions": "FS",
      "ScanningSequence": "EP",
      "SequenceName": "epfid2d1_82",
      "SequenceVariant": [
        "SK",
        "SS"
],
      "SeriesDescription": "func_run-01_task-alignvideo_acq-ap-mb8",
      "SeriesNumber": 32,
      "SeriesTime": "155808.965000",
      "SliceLocation": -49.31353605228,
      "SliceThickness": 2.7000000476837,
      "SmallestImagePixelValue": 0,
      "SoftwareVersions": "syngo MR E11",
      "SpacingBetweenSlices": 2.6999999612806,
      "SpecificCharacterSet": "ISO_IR 100",
      "StudyID": "1",
      "StudyTime": "135910.610000",
      "TransmitCoilName": "Body",
      "VariableFlipAngleFlag": "N",
      "WindowCenterWidthExplanation": "Algo1",
      "dBdt": 0.0},
    "slices": {}
  },
  "time": {
    "samples": {
      "AcquisitionNumber": [1, 2, 3, 4, 5, 6, 7, 8, 9, 10, 11, 12, 13, 14, 15, 16, 17, 18, 19, 20, 21, 22, 23, 24, 25, 26, 27, 28, 29, 30, 31, 32, 33, 34, 35, 36, 37, 38, 39, 40, 41, 42, 43, 44, 45, 46, 47, 48, 49, 50, 51, 52, 53, 54, 55, 56, 57, 58, 59, 60, 61, 62, 63, 64, 65, 66, 67, 68, 69, 70, 71, 72, 73, 74, 75, 76, 77, 78, 79, 80, 81, 82, 83, 84, 85, 86, 87, 88, 89, 90, 91, 92, 93, 94, 95, 96, 97, 98, 99, 100, 101, 102, 103, 104, 105, 106, 107, 108, 109, 110, 111, 112, 113, 114, 115, 116, 117, 118, 119, 120, 121, 122, 123, 124, 125, 126, 127, 128, 129, 130, 131, 132, 133, 134, 135, 136, 137, 138, 139, 140, 141, 142, 143, 144, 145, 146, 147, 148, 149, 150, 151, 152, 153, 154, 155, 156, 157, 158, 159, 160, 161, 162, 163, 164, 165, 166, 167, 168, 169, 170, 171, 172, 173, 174, 175, 176, 177, 178, 179, 180, 181, 182, 183, 184, 185, 186, 187, 188, 189, 190, 191, 192, 193, 194, 195, 196, 197, 198, 199, 200, 201, 202, 203, 204, 205, 206, 207, 208, 209, 210, 211, 212, 213, 214, 215, 216, 217, 218, 219, 220, 221, 222, 223, 224, 225, 226, 227, 228, 229, 230, 231, 232, 233, 234, 235, 236, 237, 238, 239, 240, 241, 242, 243, 244, 245, 246, 247, 248, 249, 250, 251, 252, 253, 254, 255, 256, 257, 258, 259, 260, 261, 262, 263, 264, 265, 266, 267, 268, 269, 270, 271, 272, 273, 274, 275, 276, 277, 278, 279, 280, 281, 282, 283, 284, 285, 286, 287, 288, 289, 290, 291, 292, 293, 294, 295, 296, 297, 298, 299, 300, 301, 302, 303, 304, 305, 306, 307, 308, 309, 310, 311, 312, 313, 314, 315, 316, 317, 318, 319, 320, 321, 322, 323, 324, 325, 326, 327, 328, 329, 330, 331, 332, 333, 334, 335, 336, 337, 338, 339, 340, 341, 342, 343, 344, 345, 346, 347, 348, 349, 350, 351, 352, 353, 354, 355, 356, 357, 358, 359, 360, 361, 362, 363, 364, 365, 366, 367, 368, 369, 370, 371, 372, 373, 374, 375, 376, 377, 378, 379, 380, 381, 382, 383, 384, 385, 386, 387, 388, 389, 390, 391, 392, 393, 394, 395, 396, 397, 398, 399, 400, 401, 402, 403, 404, 405, 406, 407, 408, 409, 410, 411, 412, 413, 414, 415, 416, 417, 418, 419, 420, 421, 422, 423, 424, 425, 426, 427, 428, 429, 430, 431, 432, 433, 434, 435, 436, 437, 438, 439, 440, 441, 442, 443, 444, 445, 446, 447, 448, 449, 450, 451, 452, 453, 454, 455, 456, 457, 458, 459, 460, 461, 462, 463, 464, 465, 466, 467, 468, 469, 470, 471, 472, 473, 474, 475, 476, 477, 478, 479, 480, 481, 482, 483, 484, 485, 486, 487, 488, 489, 490, 491, 492, 493, 494, 495, 496, 497, 498, 499, 500, 501, 502, 503, 504, 505, 506, 507, 508, 509, 510, 511, 512, 513, 514, 515, 516, 517, 518, 519, 520, 521, 522, 523, 524, 525, 526, 527, 528, 529, 530, 531, 532, 533, 534, 535, 536, 537, 538, 539, 540, 541, 542, 543, 544, 545, 546, 547, 548, 549, 550, 551, 552, 553, 554, 555, 556, 557, 558, 559, 560, 561, 562, 563, 564, 565, 566, 567, 568, 569, 570, 571, 572, 573, 574, 575, 576, 577, 578, 579, 580, 581, 582, 583, 584, 585, 586, 587, 588, 589, 590, 591, 592, 593, 594, 595, 596, 597, 598, 599, 600, 601, 602, 603, 604, 605, 606, 607, 608, 609, 610, 611, 612, 613, 614, 615, 616, 617, 618, 619, 620, 621, 622, 623, 624, 625, 626, 627, 628, 629, 630, 631, 632, 633, 634, 635, 636, 637, 638, 639, 640, 641, 642, 643, 644, 645, 646, 647, 648, 649, 650, 651, 652, 653, 654, 655, 656, 657, 658, 659, 660, 661, 662, 663, 664, 665, 666, 667, 668, 669, 670, 671, 672, 673, 674, 675, 676, 677, 678, 679, 680, 681, 682, 683, 684, 685, 686, 687, 688, 689, 690, 691, 692, 693, 694, 695, 696, 697, 698, 699, 700, 701, 702, 703, 704, 705, 706, 707, 708, 709, 710, 711, 712, 713, 714, 715, 716, 717, 718, 719, 720, 721, 722, 723, 724, 725, 726, 727, 728, 729, 730, 731, 732, 733, 734, 735, 736, 737, 738, 739, 740, 741, 742, 743, 744, 745, 746, 747, 748, 749, 750, 751, 752, 753, 754, 755, 756, 757, 758, 759, 760, 761, 762, 763, 764, 765, 766, 767, 768, 769, 770, 771, 772, 773, 774, 775, 776, 777, 778, 779, 780, 781, 782, 783, 784, 785, 786, 787, 788, 789, 790, 791, 792, 793, 794, 795, 796, 797, 798, 799, 800, 801, 802, 803, 804, 805, 806, 807, 808, 809, 810, 811, 812, 813, 814, 815, 816, 817, 818, 819, 820, 821, 822, 823, 824, 825, 826, 827, 828, 829, 830, 831, 832, 833, 834, 835, 836, 837, 838, 839, 840, 841, 842, 843, 844, 845, 846, 847, 848, 849, 850, 851, 852, 853, 854, 855, 856, 857, 858, 859, 860, 861, 862, 863, 864, 865, 866, 867, 868, 869, 870, 871, 872, 873, 874, 875, 876, 877, 878, 879, 880, 881, 882, 883, 884, 885, 886, 887, 888, 889, 890, 891, 892, 893, 894, 895, 896, 897, 898, 899, 900, 901, 902, 903, 904, 905, 906, 907, 908, 909, 910, 911, 912, 913, 914, 915, 916, 917, 918, 919, 920, 921, 922, 923, 924, 925, 926, 927, 928, 929, 930, 931, 932, 933, 934, 935, 936, 937, 938, 939, 940, 941, 942, 943, 944, 945, 946, 947, 948, 949, 950, 951, 952, 953, 954, 955, 956, 957, 958, 959, 960, 961, 962, 963, 964, 965, 966, 967, 968, 969, 970, 971, 972, 973, 974, 975, 976, 977, 978, 979, 980, 981, 982, 983, 984, 985, 986, 987, 988, 989, 990, 991, 992, 993, 994, 995, 996, 997, 998, 999, 1000, 1001, 1002, 1003, 1004, 1005, 1006, 1007, 1008, 1009, 1010, 1011, 1012, 1013, 1014, 1015, 1016, 1017, 1018, 1019, 1020, 1021, 1022, 1023, 1024, 1025, 1026, 1027, 1028, 1029, 1030, 1031, 1032, 1033, 1034, 1035, 1036, 1037, 1038, 1039, 1040, 1041, 1042, 1043, 1044, 1045, 1046, 1047, 1048, 1049, 1050, 1051, 1052, 1053, 1054, 1055, 1056, 1057, 1058, 1059, 1060, 1061, 1062, 1063, 1064, 1065, 1066, 1067, 1068, 1069, 1070, 1071, 1072, 1073],
      "AcquisitionTime": ["155747.445000", "155747.905000", "155748.365000", "155748.825000", "155749.285000", "155749.745000", "155750.205000", "155750.665000", "155751.125000", "155751.585000", "155752.045000", "155752.505000", "155752.965000", "155753.425000", "155753.885000", "155754.345000", "155754.805000", "155755.265000", "155755.725000", "155756.185000", "155756.645000", "155757.105000", "155757.565000", "155758.025000", "155758.485000", "155758.945000", "155759.405000", "155759.865000", "155800.325000", "155800.785000", "155801.245000", "155801.705000", "155802.165000", "155802.625000", "155803.085000", "155803.545000", "155804.005000", "155804.465000", "155804.925000", "155805.385000", "155805.845000", "155806.305000", "155806.765000", "155807.225000", "155807.685000", "155808.145000", "155808.605000", "155809.065000", "155809.525000", "155809.985000", "155810.445000", "155810.905000", "155811.365000", "155811.825000", "155812.285000", "155812.745000", "155813.205000", "155813.665000", "155814.125000", "155814.585000", "155815.045000", "155815.505000", "155815.965000", "155816.425000", "155816.885000", "155817.345000", "155817.805000", "155818.265000", "155818.725000", "155819.185000", "155819.645000", "155820.105000", "155820.565000", "155821.025000", "155821.485000", "155821.945000", "155822.405000", "155822.865000", "155823.325000", "155823.785000", "155824.245000", "155824.705000", "155825.165000", "155825.625000", "155826.085000", "155826.545000", "155827.005000", "155827.465000", "155827.925000", "155828.385000", "155828.845000", "155829.305000", "155829.765000", "155830.225000", "155830.685000", "155831.145000", "155831.605000", "155832.065000", "155832.525000", "155832.985000", "155833.445000", "155833.905000", "155834.365000", "155834.825000", "155835.285000", "155835.745000", "155836.205000", "155836.665000", "155837.125000", "155837.585000", "155838.045000", "155838.505000", "155838.965000", "155839.425000", "155839.885000", "155840.345000", "155840.805000", "155841.265000", "155841.725000", "155842.185000", "155842.645000", "155843.105000", "155843.565000", "155844.025000", "155844.485000", "155844.945000", "155845.405000", "155845.865000", "155846.325000", "155846.785000", "155847.245000", "155847.705000", "155848.165000", "155848.625000", "155849.085000", "155849.545000", "155850.005000", "155850.465000", "155850.925000", "155851.385000", "155851.845000", "155852.305000", "155852.765000", "155853.225000", "155853.685000", "155854.145000", "155854.605000", "155855.065000", "155855.525000", "155855.985000", "155856.445000", "155856.905000", "155857.365000", "155857.825000", "155858.285000", "155858.745000", "155859.205000", "155859.665000", "155900.125000", "155900.585000", "155901.045000", "155901.505000", "155901.965000", "155902.425000", "155902.885000", "155903.345000", "155903.805000", "155904.265000", "155904.725000", "155905.185000", "155905.645000", "155906.105000", "155906.565000", "155907.025000", "155907.485000", "155907.945000", "155908.405000", "155908.865000", "155909.325000", "155909.785000", "155910.245000", "155910.705000", "155911.165000", "155911.625000", "155912.085000", "155912.545000", "155913.005000", "155913.465000", "155913.925000", "155914.385000", "155914.845000", "155915.305000", "155915.765000", "155916.225000", "155916.685000", "155917.145000", "155917.605000", "155918.065000", "155918.525000", "155918.985000", "155919.445000", "155919.905000", "155920.365000", "155920.825000", "155921.285000", "155921.745000", "155922.205000", "155922.665000", "155923.125000", "155923.585000", "155924.045000", "155924.505000", "155924.965000", "155925.425000", "155925.885000", "155926.345000", "155926.805000", "155927.265000", "155927.725000", "155928.185000", "155928.645000", "155929.105000", "155929.565000", "155930.025000", "155930.485000", "155930.945000", "155931.405000", "155931.865000", "155932.325000", "155932.785000", "155933.245000", "155933.705000", "155934.165000", "155934.625000", "155935.085000", "155935.545000", "155936.005000", "155936.465000", "155936.925000", "155937.385000", "155937.845000", "155938.305000", "155938.765000", "155939.225000", "155939.685000", "155940.145000", "155940.605000", "155941.065000", "155941.525000", "155941.985000", "155942.445000", "155942.905000", "155943.365000", "155943.825000", "155944.285000", "155944.745000", "155945.205000", "155945.665000", "155946.125000", "155946.585000", "155947.045000", "155947.505000", "155947.965000", "155948.425000", "155948.885000", "155949.345000", "155949.805000", "155950.265000", "155950.725000", "155951.185000", "155951.645000", "155952.105000", "155952.565000", "155953.025000", "155953.485000", "155953.945000", "155954.405000", "155954.865000", "155955.325000", "155955.785000", "155956.245000", "155956.705000", "155957.165000", "155957.625000", "155958.085000", "155958.545000", "155959.005000", "155959.465000", "155959.925000", "160000.385000", "160000.845000", "160001.305000", "160001.765000", "160002.225000", "160002.685000", "160003.145000", "160003.605000", "160004.065000", "160004.525000", "160004.985000", "160005.445000", "160005.905000", "160006.365000", "160006.825000", "160007.285000", "160007.745000", "160008.205000", "160008.665000", "160009.125000", "160009.585000", "160010.045000", "160010.505000", "160010.965000", "160011.425000", "160011.885000", "160012.345000", "160012.805000", "160013.265000", "160013.725000", "160014.185000", "160014.645000", "160015.105000", "160015.565000", "160016.025000", "160016.485000", "160016.945000", "160017.405000", "160017.865000", "160018.325000", "160018.785000", "160019.245000", "160019.705000", "160020.165000", "160020.625000", "160021.085000", "160021.545000", "160022.005000", "160022.465000", "160022.925000", "160023.385000", "160023.845000", "160024.305000", "160024.765000", "160025.225000", "160025.685000", "160026.145000", "160026.605000", "160027.065000", "160027.525000", "160027.985000", "160028.445000", "160028.905000", "160029.365000", "160029.825000", "160030.285000", "160030.745000", "160031.205000", "160031.665000", "160032.125000", "160032.585000", "160033.045000", "160033.505000", "160033.965000", "160034.425000", "160034.885000", "160035.345000", "160035.805000", "160036.265000", "160036.725000", "160037.185000", "160037.645000", "160038.105000", "160038.565000", "160039.025000", "160039.485000", "160039.945000", "160040.405000", "160040.865000", "160041.325000", "160041.785000", "160042.245000", "160042.705000", "160043.165000", "160043.625000", "160044.085000", "160044.545000", "160045.005000", "160045.465000", "160045.925000", "160046.385000", "160046.845000", "160047.305000", "160047.765000", "160048.225000", "160048.685000", "160049.145000", "160049.605000", "160050.065000", "160050.525000", "160050.985000", "160051.445000", "160051.905000", "160052.365000", "160052.825000", "160053.285000", "160053.745000", "160054.205000", "160054.665000", "160055.125000", "160055.585000", "160056.045000", "160056.505000", "160056.965000", "160057.425000", "160057.885000", "160058.345000", "160058.805000", "160059.265000", "160059.725000", "160100.185000", "160100.645000", "160101.105000", "160101.565000", "160102.025000", "160102.485000", "160102.945000", "160103.405000", "160103.865000", "160104.325000", "160104.785000", "160105.245000", "160105.705000", "160106.165000", "160106.625000", "160107.085000", "160107.545000", "160108.005000", "160108.465000", "160108.925000", "160109.385000", "160109.845000", "160110.305000", "160110.765000", "160111.225000", "160111.685000", "160112.145000", "160112.605000", "160113.065000", "160113.525000", "160113.985000", "160114.445000", "160114.905000", "160115.365000", "160115.825000", "160116.285000", "160116.745000", "160117.205000", "160117.665000", "160118.125000", "160118.585000", "160119.045000", "160119.505000", "160119.965000", "160120.425000", "160120.885000", "160121.345000", "160121.805000", "160122.265000", "160122.725000", "160123.185000", "160123.645000", "160124.105000", "160124.565000", "160125.025000", "160125.485000", "160125.945000", "160126.405000", "160126.865000", "160127.325000", "160127.785000", "160128.245000", "160128.705000", "160129.165000", "160129.625000", "160130.085000", "160130.545000", "160131.005000", "160131.465000", "160131.925000", "160132.385000", "160132.845000", "160133.305000", "160133.765000", "160134.225000", "160134.685000", "160135.145000", "160135.605000", "160136.065000", "160136.525000", "160136.985000", "160137.445000", "160137.905000", "160138.365000", "160138.825000", "160139.285000", "160139.745000", "160140.205000", "160140.665000", "160141.125000", "160141.585000", "160142.045000", "160142.505000", "160142.965000", "160143.425000", "160143.885000", "160144.345000", "160144.805000", "160145.265000", "160145.725000", "160146.185000", "160146.645000", "160147.105000", "160147.565000", "160148.025000", "160148.485000", "160148.945000", "160149.405000", "160149.865000", "160150.325000", "160150.785000", "160151.245000", "160151.705000", "160152.165000", "160152.625000", "160153.085000", "160153.545000", "160154.005000", "160154.465000", "160154.925000", "160155.385000", "160155.845000", "160156.305000", "160156.765000", "160157.225000", "160157.685000", "160158.145000", "160158.605000", "160159.065000", "160159.525000", "160159.985000", "160200.445000", "160200.905000", "160201.365000", "160201.825000", "160202.285000", "160202.745000", "160203.205000", "160203.665000", "160204.125000", "160204.585000", "160205.045000", "160205.505000", "160205.965000", "160206.425000", "160206.885000", "160207.345000", "160207.805000", "160208.265000", "160208.725000", "160209.185000", "160209.645000", "160210.105000", "160210.565000", "160211.025000", "160211.485000", "160211.945000", "160212.405000", "160212.865000", "160213.325000", "160213.785000", "160214.245000", "160214.705000", "160215.165000", "160215.625000", "160216.085000", "160216.545000", "160217.005000", "160217.465000", "160217.925000", "160218.385000", "160218.845000", "160219.305000", "160219.765000", "160220.225000", "160220.685000", "160221.145000", "160221.605000", "160222.065000", "160222.525000", "160222.985000", "160223.445000", "160223.905000", "160224.365000", "160224.825000", "160225.285000", "160225.745000", "160226.205000", "160226.665000", "160227.125000", "160227.585000", "160228.045000", "160228.505000", "160228.965000", "160229.425000", "160229.885000", "160230.345000", "160230.805000", "160231.265000", "160231.725000", "160232.185000", "160232.645000", "160233.105000", "160233.565000", "160234.025000", "160234.485000", "160234.945000", "160235.405000", "160235.865000", "160236.325000", "160236.785000", "160237.245000", "160237.705000", "160238.165000", "160238.625000", "160239.085000", "160239.545000", "160240.005000", "160240.465000", "160240.925000", "160241.385000", "160241.845000", "160242.305000", "160242.765000", "160243.225000", "160243.685000", "160244.145000", "160244.605000", "160245.065000", "160245.525000", "160245.985000", "160246.445000", "160246.905000", "160247.365000", "160247.825000", "160248.285000", "160248.745000", "160249.205000", "160249.665000", "160250.125000", "160250.585000", "160251.045000", "160251.505000", "160251.965000", "160252.425000", "160252.885000", "160253.345000", "160253.805000", "160254.265000", "160254.725000", "160255.185000", "160255.645000", "160256.105000", "160256.565000", "160257.025000", "160257.485000", "160257.945000", "160258.405000", "160258.865000", "160259.325000", "160259.785000", "160300.245000", "160300.705000", "160301.165000", "160301.625000", "160302.085000", "160302.545000", "160303.005000", "160303.465000", "160303.925000", "160304.385000", "160304.845000", "160305.305000", "160305.765000", "160306.225000", "160306.685000", "160307.145000", "160307.605000", "160308.065000", "160308.525000", "160308.985000", "160309.445000", "160309.905000", "160310.365000", "160310.825000", "160311.285000", "160311.745000", "160312.205000", "160312.665000", "160313.125000", "160313.585000", "160314.045000", "160314.505000", "160314.965000", "160315.425000", "160315.885000", "160316.345000", "160316.805000", "160317.265000", "160317.725000", "160318.185000", "160318.645000", "160319.105000", "160319.565000", "160320.025000", "160320.485000", "160320.945000", "160321.405000", "160321.865000", "160322.325000", "160322.785000", "160323.245000", "160323.705000", "160324.165000", "160324.625000", "160325.085000", "160325.545000", "160326.005000", "160326.465000", "160326.925000", "160327.385000", "160327.845000", "160328.305000", "160328.765000", "160329.225000", "160329.685000", "160330.145000", "160330.605000", "160331.065000", "160331.525000", "160331.985000", "160332.445000", "160332.905000", "160333.365000", "160333.825000", "160334.285000", "160334.745000", "160335.205000", "160335.665000", "160336.125000", "160336.585000", "160337.045000", "160337.505000", "160337.965000", "160338.425000", "160338.885000", "160339.345000", "160339.805000", "160340.265000", "160340.725000", "160341.185000", "160341.645000", "160342.105000", "160342.565000", "160343.025000", "160343.485000", "160343.945000", "160344.405000", "160344.865000", "160345.325000", "160345.785000", "160346.245000", "160346.705000", "160347.165000", "160347.625000", "160348.085000", "160348.545000", "160349.005000", "160349.465000", "160349.925000", "160350.385000", "160350.845000", "160351.305000", "160351.765000", "160352.225000", "160352.685000", "160353.145000", "160353.605000", "160354.065000", "160354.525000", "160354.985000", "160355.445000", "160355.905000", "160356.365000", "160356.825000", "160357.285000", "160357.745000", "160358.205000", "160358.665000", "160359.125000", "160359.585000", "160400.045000", "160400.505000", "160400.965000", "160401.425000", "160401.885000", "160402.345000", "160402.805000", "160403.265000", "160403.725000", "160404.185000", "160404.645000", "160405.105000", "160405.565000", "160406.025000", "160406.485000", "160406.945000", "160407.405000", "160407.865000", "160408.325000", "160408.785000", "160409.245000", "160409.705000", "160410.165000", "160410.625000", "160411.085000", "160411.545000", "160412.005000", "160412.465000", "160412.925000", "160413.385000", "160413.845000", "160414.305000", "160414.765000", "160415.225000", "160415.685000", "160416.145000", "160416.605000", "160417.065000", "160417.525000", "160417.985000", "160418.445000", "160418.905000", "160419.365000", "160419.825000", "160420.285000", "160420.745000", "160421.205000", "160421.665000", "160422.125000", "160422.585000", "160423.045000", "160423.505000", "160423.965000", "160424.425000", "160424.885000", "160425.345000", "160425.805000", "160426.265000", "160426.725000", "160427.185000", "160427.645000", "160428.105000", "160428.565000", "160429.025000", "160429.485000", "160429.945000", "160430.405000", "160430.865000", "160431.325000", "160431.785000", "160432.245000", "160432.705000", "160433.165000", "160433.625000", "160434.085000", "160434.545000", "160435.005000", "160435.465000", "160435.925000", "160436.385000", "160436.845000", "160437.305000", "160437.765000", "160438.225000", "160438.685000", "160439.145000", "160439.605000", "160440.065000", "160440.525000", "160440.985000", "160441.445000", "160441.905000", "160442.365000", "160442.825000", "160443.285000", "160443.745000", "160444.205000", "160444.665000", "160445.125000", "160445.585000", "160446.045000", "160446.505000", "160446.965000", "160447.425000", "160447.885000", "160448.345000", "160448.805000", "160449.265000", "160449.725000", "160450.185000", "160450.645000", "160451.105000", "160451.565000", "160452.025000", "160452.485000", "160452.945000", "160453.405000", "160453.865000", "160454.325000", "160454.785000", "160455.245000", "160455.705000", "160456.165000", "160456.625000", "160457.085000", "160457.545000", "160458.005000", "160458.465000", "160458.925000", "160459.385000", "160459.845000", "160500.305000", "160500.765000", "160501.225000", "160501.685000", "160502.145000", "160502.605000", "160503.065000", "160503.525000", "160503.985000", "160504.445000", "160504.905000", "160505.365000", "160505.825000", "160506.285000", "160506.745000", "160507.205000", "160507.665000", "160508.125000", "160508.585000", "160509.045000", "160509.505000", "160509.965000", "160510.425000", "160510.885000", "160511.345000", "160511.805000", "160512.265000", "160512.725000", "160513.185000", "160513.645000", "160514.105000", "160514.565000", "160515.025000", "160515.485000", "160515.945000", "160516.405000", "160516.865000", "160517.325000", "160517.785000", "160518.245000", "160518.705000", "160519.165000", "160519.625000", "160520.085000", "160520.545000", "160521.005000", "160521.465000", "160521.925000", "160522.385000", "160522.845000", "160523.305000", "160523.765000", "160524.225000", "160524.685000", "160525.145000", "160525.605000", "160526.065000", "160526.525000", "160526.985000", "160527.445000", "160527.905000", "160528.365000", "160528.825000", "160529.285000", "160529.745000", "160530.205000", "160530.665000", "160531.125000", "160531.585000", "160532.045000", "160532.505000", "160532.965000", "160533.425000", "160533.885000", "160534.345000", "160534.805000", "160535.265000", "160535.725000", "160536.185000", "160536.645000", "160537.105000", "160537.565000", "160538.025000", "160538.485000", "160538.945000", "160539.405000", "160539.865000", "160540.325000", "160540.785000", "160541.245000", "160541.705000", "160542.165000", "160542.625000", "160543.085000", "160543.545000", "160544.005000", "160544.465000", "160544.925000", "160545.385000", "160545.845000", "160546.305000", "160546.765000", "160547.225000", "160547.685000", "160548.145000", "160548.605000", "160549.065000", "160549.525000", "160549.985000", "160550.445000", "160550.905000", "160551.365000", "160551.825000", "160552.285000", "160552.745000", "160553.205000", "160553.665000", "160554.125000", "160554.585000", "160555.045000", "160555.505000", "160555.965000", "160556.425000", "160556.885000", "160557.345000", "160557.805000", "160558.265000", "160558.725000", "160559.185000", "160559.645000", "160600.105000", "160600.565000"],
