{
  "AcquisitionMatrixPE": 82,
  "AcquisitionNumber": 1,
  "AcquisitionTime": "15:18:1.792500",
  "BandwidthPerPixelPhaseEncode": 24.888,
  "BaseResolution": 82,
  "BodyPartExamined": "BRAIN",
  "ConsistencyInfo": "N4_VE11C_LATEST_20160120",
  "ConversionSoftware": "dcm2niix",
  "ConversionSoftwareVersion": "v1.0.20201102",
  "DerivedVendorReportedEchoSpacing": 0.00049,
  "DeviceSerialNumber": "66112",
  "DwellTime": 2e-06,
  "EchoTime": 0.0272,
  "EchoTrainLength": 82,
  "EffectiveEchoSpacing": 0.00049,
  "FlipAngle": 44,
  "ImageComments": "Unaliased MB8/PE3",
  "ImageOrientationPatientDICOM": [0.999449, 0.0189586, -0.0272404, -0.0200629, 0.998964, -0.0408536],
  "ImageType": [
    "ORIGINAL",
    "PRIMARY",
    "M",
    "MB",
    "ND",
    "NORM",
    "MOSAIC"
],
  "ImagingFrequency": 123.252,
  "InPlanePhaseEncodingDirectionDICOM": "COL",
  "InstitutionAddress": "Maynard 3,Hanover,NH,US,03755",
  "InstitutionName": "Dartmouth College - PBS",
  "InstitutionalDepartmentName": "Department",
  "MRAcquisitionType": "2D",
  "MagneticFieldStrength": 3,
  "Manufacturer": "Siemens",
  "ManufacturersModelName": "Prisma",
  "Modality": "MR",
  "MultibandAccelerationFactor": 8,
  "PartialFourier": 1,
  "PatientPosition": "HFS",
  "PercentPhaseFOV": 100,
  "PercentSampling": 100,
  "PhaseEncodingDirection": "j-",
  "PhaseEncodingSteps": 82,
  "PhaseResolution": 1,
  "PixelBandwidth": 3050,
  "ProcedureStepDescription": "Wager_Wager^1076_spacetop",
  "ProtocolName": "func_run-02_task-social_acq-ap-mb8",
  "PulseSequenceDetails": "%CustomerSeq%\\cmrr_mbep2d_bold",
  "ReceiveCoilActiveElements": "HEA;HEP",
  "ReceiveCoilName": "Head_32",
  "ReconMatrixPE": 82,
  "RepetitionTime": 0.46,
  "SAR": 0.0795652,
  "ScanOptions": "FS",
  "ScanningSequence": "EP",
  "SequenceName": "epfid2d1_82",
  "SequenceVariant": "SK\\SS",
  "SeriesDescription": "func_run-02_task-social_acq-ap-mb8",
  "SeriesNumber": 16,
  "ShimSetting": [4129, -7753, -7253, 481, -78, -10, -75, 64],
  "SliceThickness": 2.7,
  "SliceTiming": [0, 0.2525, 0.0625, 0.315, 0.1275, 0.3775, 0.19, 0, 0.2525, 0.0625, 0.315, 0.1275, 0.3775, 0.19, 0, 0.2525, 0.0625, 0.315, 0.1275, 0.3775, 0.19, 0, 0.2525, 0.0625, 0.315, 0.1275, 0.3775, 0.19, 0, 0.2525, 0.0625, 0.315, 0.1275, 0.3775, 0.19, 0, 0.2525, 0.0625, 0.315, 0.1275, 0.3775, 0.19, 0, 0.2525, 0.0625, 0.315, 0.1275, 0.3775, 0.19, 0, 0.2525, 0.0625, 0.315, 0.1275, 0.3775, 0.19],
  "SoftwareVersions": "syngo MR E11",
  "SpacingBetweenSlices": 2.7,
  "StationName": "AWP66112",
  "TaskName": "social",
  "TotalReadoutTime": 0.03969,
  "TxRefAmp": 257.728,
  "WipMemBlock": "075fe54b-3d95-405a-865c-79e539a39e3f||Sequence: R016 ve11c/master r/e634e98; Dec 19 2017 11:00:25 by eja",
  "dcmmeta_affine": [
    [-2.6814489364624023, -0.05382716655731201, -0.07138160616159439, 118.90250396728516],
    [-0.05086447671055794, 2.6801464557647705, -0.11171967536211014, -88.51456451416016],
    [-0.07308396697044373, 0.10960733145475388, 2.6967432498931885, -50.972007751464844],
    [0.0, 0.0, 0.0, 1.0]
],
  "dcmmeta_reorient_transform": [
    [0.0, -1.0, 0.0, 81.0],
    [1.0, 0.0, 0.0, 0.0],
    [0.0, 0.0, 1.0, 0.0],
    [0.0, 0.0, 0.0, 1.0]
],
  "dcmmeta_shape": [82, 82, 56, 872],
  "dcmmeta_slice_dim": 2,
  "dcmmeta_version": 0.6,
  "global": {
    "const": {
      "AccessionNumber": "A003446",
      "AcquisitionMatrix": [82, 0, 0, 82],
      "AngioFlag": "N",
      "BitsAllocated": 16,
      "BitsStored": 16,
      "BodyPartExamined": "BRAIN",
      "Columns": 656,
      "EchoNumbers": 1,
      "EchoTime": 27.2,
      "EchoTrainLength": 82,
      "FlipAngle": 44.0,
      "HighBit": 15,
      "ImageOrientationPatient": [0.99944911506567, 0.0189585776929, -0.0272403877784, -0.0200628521704, 0.99896369399577, -0.0408536417117],
      "ImagePositionPatient": [-868.66994662092, -912.37747829201, 10.338591343589],
      "ImageType": [
        "ORIGINAL",
        "PRIMARY",
        "M",
        "MB",
        "ND",
        "NORM",
        "MOSAIC"
],
      "ImagedNucleus": "1H",
      "ImagingFrequency": 123.252117,
      "InPlanePhaseEncodingDirection": "COL",
      "MRAcquisitionType": "2D",
      "MagneticFieldStrength": 3.0,
      "Manufacturer": "SIEMENS",
      "ManufacturerModelName": "Prisma",
      "Modality": "MR",
      "NumberOfAverages": 1.0,
      "NumberOfPhaseEncodingSteps": 82,
      "PercentPhaseFieldOfView": 100.0,
      "PercentSampling": 100.0,
      "PerformedProcedureStepStartTime": "135910.764000",
      "PhotometricInterpretation": "MONOCHROME2",
      "PixelBandwidth": 3050.0,
      "PixelRepresentation": 0,
      "PixelSpacing": [2.6829268932343, 2.6829268932343],
      "ProtocolName": "func_run-02_task-social_acq-ap-mb8",
      "RepetitionTime": 460.0,
      "Rows": 656,
      "SAR": 0.07956525142336,
      "SamplesPerPixel": 1,
      "ScanOptions": "FS",
      "ScanningSequence": "EP",
      "SequenceName": "epfid2d1_82",
      "SequenceVariant": [
        "SK",
        "SS"
],
      "SeriesDescription": "func_run-02_task-social_acq-ap-mb8",
      "SeriesNumber": 16,
      "SeriesTime": "151829.043000",
      "SliceLocation": -50.391496937474,
      "SliceThickness": 2.7000000476837,
      "SmallestImagePixelValue": 0,
      "SoftwareVersions": "syngo MR E11",
      "SpacingBetweenSlices": 2.700000044283,
      "SpecificCharacterSet": "ISO_IR 100",
      "StudyID": "1",
      "StudyTime": "135910.610000",
      "TransmitCoilName": "Body",
      "VariableFlipAngleFlag": "N",
      "WindowCenterWidthExplanation": "Algo1",
      "dBdt": 0.0},
    "slices": {}
  },
  "time": {
    "samples": {
      "AcquisitionNumber": [1, 2, 3, 4, 5, 6, 7, 8, 9, 10, 11, 12, 13, 14, 15, 16, 17, 18, 19, 20, 21, 22, 23, 24, 25, 26, 27, 28, 29, 30, 31, 32, 33, 34, 35, 36, 37, 38, 39, 40, 41, 42, 43, 44, 45, 46, 47, 48, 49, 50, 51, 52, 53, 54, 55, 56, 57, 58, 59, 60, 61, 62, 63, 64, 65, 66, 67, 68, 69, 70, 71, 72, 73, 74, 75, 76, 77, 78, 79, 80, 81, 82, 83, 84, 85, 86, 87, 88, 89, 90, 91, 92, 93, 94, 95, 96, 97, 98, 99, 100, 101, 102, 103, 104, 105, 106, 107, 108, 109, 110, 111, 112, 113, 114, 115, 116, 117, 118, 119, 120, 121, 122, 123, 124, 125, 126, 127, 128, 129, 130, 131, 132, 133, 134, 135, 136, 137, 138, 139, 140, 141, 142, 143, 144, 145, 146, 147, 148, 149, 150, 151, 152, 153, 154, 155, 156, 157, 158, 159, 160, 161, 162, 163, 164, 165, 166, 167, 168, 169, 170, 171, 172, 173, 174, 175, 176, 177, 178, 179, 180, 181, 182, 183, 184, 185, 186, 187, 188, 189, 190, 191, 192, 193, 194, 195, 196, 197, 198, 199, 200, 201, 202, 203, 204, 205, 206, 207, 208, 209, 210, 211, 212, 213, 214, 215, 216, 217, 218, 219, 220, 221, 222, 223, 224, 225, 226, 227, 228, 229, 230, 231, 232, 233, 234, 235, 236, 237, 238, 239, 240, 241, 242, 243, 244, 245, 246, 247, 248, 249, 250, 251, 252, 253, 254, 255, 256, 257, 258, 259, 260, 261, 262, 263, 264, 265, 266, 267, 268, 269, 270, 271, 272, 273, 274, 275, 276, 277, 278, 279, 280, 281, 282, 283, 284, 285, 286, 287, 288, 289, 290, 291, 292, 293, 294, 295, 296, 297, 298, 299, 300, 301, 302, 303, 304, 305, 306, 307, 308, 309, 310, 311, 312, 313, 314, 315, 316, 317, 318, 319, 320, 321, 322, 323, 324, 325, 326, 327, 328, 329, 330, 331, 332, 333, 334, 335, 336, 337, 338, 339, 340, 341, 342, 343, 344, 345, 346, 347, 348, 349, 350, 351, 352, 353, 354, 355, 356, 357, 358, 359, 360, 361, 362, 363, 364, 365, 366, 367, 368, 369, 370, 371, 372, 373, 374, 375, 376, 377, 378, 379, 380, 381, 382, 383, 384, 385, 386, 387, 388, 389, 390, 391, 392, 393, 394, 395, 396, 397, 398, 399, 400, 401, 402, 403, 404, 405, 406, 407, 408, 409, 410, 411, 412, 413, 414, 415, 416, 417, 418, 419, 420, 421, 422, 423, 424, 425, 426, 427, 428, 429, 430, 431, 432, 433, 434, 435, 436, 437, 438, 439, 440, 441, 442, 443, 444, 445, 446, 447, 448, 449, 450, 451, 452, 453, 454, 455, 456, 457, 458, 459, 460, 461, 462, 463, 464, 465, 466, 467, 468, 469, 470, 471, 472, 473, 474, 475, 476, 477, 478, 479, 480, 481, 482, 483, 484, 485, 486, 487, 488, 489, 490, 491, 492, 493, 494, 495, 496, 497, 498, 499, 500, 501, 502, 503, 504, 505, 506, 507, 508, 509, 510, 511, 512, 513, 514, 515, 516, 517, 518, 519, 520, 521, 522, 523, 524, 525, 526, 527, 528, 529, 530, 531, 532, 533, 534, 535, 536, 537, 538, 539, 540, 541, 542, 543, 544, 545, 546, 547, 548, 549, 550, 551, 552, 553, 554, 555, 556, 557, 558, 559, 560, 561, 562, 563, 564, 565, 566, 567, 568, 569, 570, 571, 572, 573, 574, 575, 576, 577, 578, 579, 580, 581, 582, 583, 584, 585, 586, 587, 588, 589, 590, 591, 592, 593, 594, 595, 596, 597, 598, 599, 600, 601, 602, 603, 604, 605, 606, 607, 608, 609, 610, 611, 612, 613, 614, 615, 616, 617, 618, 619, 620, 621, 622, 623, 624, 625, 626, 627, 628, 629, 630, 631, 632, 633, 634, 635, 636, 637, 638, 639, 640, 641, 642, 643, 644, 645, 646, 647, 648, 649, 650, 651, 652, 653, 654, 655, 656, 657, 658, 659, 660, 661, 662, 663, 664, 665, 666, 667, 668, 669, 670, 671, 672, 673, 674, 675, 676, 677, 678, 679, 680, 681, 682, 683, 684, 685, 686, 687, 688, 689, 690, 691, 692, 693, 694, 695, 696, 697, 698, 699, 700, 701, 702, 703, 704, 705, 706, 707, 708, 709, 710, 711, 712, 713, 714, 715, 716, 717, 718, 719, 720, 721, 722, 723, 724, 725, 726, 727, 728, 729, 730, 731, 732, 733, 734, 735, 736, 737, 738, 739, 740, 741, 742, 743, 744, 745, 746, 747, 748, 749, 750, 751, 752, 753, 754, 755, 756, 757, 758, 759, 760, 761, 762, 763, 764, 765, 766, 767, 768, 769, 770, 771, 772, 773, 774, 775, 776, 777, 778, 779, 780, 781, 782, 783, 784, 785, 786, 787, 788, 789, 790, 791, 792, 793, 794, 795, 796, 797, 798, 799, 800, 801, 802, 803, 804, 805, 806, 807, 808, 809, 810, 811, 812, 813, 814, 815, 816, 817, 818, 819, 820, 821, 822, 823, 824, 825, 826, 827, 828, 829, 830, 831, 832, 833, 834, 835, 836, 837, 838, 839, 840, 841, 842, 843, 844, 845, 846, 847, 848, 849, 850, 851, 852, 853, 854, 855, 856, 857, 858, 859, 860, 861, 862, 863, 864, 865, 866, 867, 868, 869, 870, 871, 872],
      "AcquisitionTime": ["151801.792500", "151802.252500", "151802.712500", "151803.172500", "151803.632500", "151804.092500", "151804.552500", "151805.012500", "151805.472500", "151805.932500", "151806.392500", "151806.852500", "151807.312500", "151807.772500", "151808.232500", "151808.692500", "151809.152500", "151809.612500", "151810.072500", "151810.532500", "151810.992500", "151811.452500", "151811.912500", "151812.372500", "151812.832500", "151813.292500", "151813.752500", "151814.212500", "151814.672500", "151815.132500", "151815.592500", "151816.052500", "151816.512500", "151816.972500", "151817.432500", "151817.892500", "151818.352500", "151818.812500", "151819.272500", "151819.732500", "151820.192500", "151820.652500", "151821.112500", "151821.572500", "151822.032500", "151822.492500", "151822.952500", "151823.412500", "151823.872500", "151824.332500", "151824.792500", "151825.252500", "151825.712500", "151826.172500", "151826.632500", "151827.092500", "151827.552500", "151828.012500", "151828.472500", "151828.932500", "151829.392500", "151829.852500", "151830.312500", "151830.772500", "151831.232500", "151831.692500", "151832.152500", "151832.612500", "151833.072500", "151833.532500", "151833.992500", "151834.452500", "151834.912500", "151835.372500", "151835.832500", "151836.292500", "151836.752500", "151837.212500", "151837.672500", "151838.132500", "151838.592500", "151839.052500", "151839.512500", "151839.972500", "151840.432500", "151840.892500", "151841.352500", "151841.812500", "151842.272500", "151842.732500", "151843.192500", "151843.652500", "151844.112500", "151844.572500", "151845.032500", "151845.492500", "151845.952500", "151846.412500", "151846.872500", "151847.332500", "151847.792500", "151848.252500", "151848.712500", "151849.172500", "151849.632500", "151850.092500", "151850.552500", "151851.012500", "151851.472500", "151851.932500", "151852.392500", "151852.852500", "151853.312500", "151853.772500", "151854.232500", "151854.692500", "151855.152500", "151855.612500", "151856.072500", "151856.532500", "151856.992500", "151857.452500", "151857.912500", "151858.372500", "151858.832500", "151859.292500", "151859.752500", "151900.212500", "151900.672500", "151901.132500", "151901.592500", "151902.052500", "151902.512500", "151902.972500", "151903.432500", "151903.892500", "151904.352500", "151904.812500", "151905.272500", "151905.732500", "151906.192500", "151906.652500", "151907.112500", "151907.572500", "151908.032500", "151908.492500", "151908.952500", "151909.412500", "151909.872500", "151910.332500", "151910.792500", "151911.252500", "151911.712500", "151912.172500", "151912.632500", "151913.092500", "151913.552500", "151914.012500", "151914.472500", "151914.932500", "151915.392500", "151915.852500", "151916.312500", "151916.772500", "151917.232500", "151917.692500", "151918.152500", "151918.612500", "151919.072500", "151919.532500", "151919.992500", "151920.452500", "151920.912500", "151921.372500", "151921.832500", "151922.292500", "151922.752500", "151923.212500", "151923.672500", "151924.132500", "151924.592500", "151925.052500", "151925.512500", "151925.972500", "151926.432500", "151926.892500", "151927.352500", "151927.812500", "151928.272500", "151928.732500", "151929.192500", "151929.652500", "151930.112500", "151930.572500", "151931.032500", "151931.492500", "151931.952500", "151932.412500", "151932.872500", "151933.332500", "151933.792500", "151934.252500", "151934.712500", "151935.172500", "151935.632500", "151936.092500", "151936.552500", "151937.012500", "151937.472500", "151937.932500", "151938.392500", "151938.852500", "151939.312500", "151939.772500", "151940.232500", "151940.692500", "151941.152500", "151941.612500", "151942.072500", "151942.532500", "151942.992500", "151943.452500", "151943.912500", "151944.372500", "151944.832500", "151945.292500", "151945.752500", "151946.212500", "151946.672500", "151947.132500", "151947.592500", "151948.052500", "151948.512500", "151948.972500", "151949.432500", "151949.892500", "151950.352500", "151950.812500", "151951.272500", "151951.732500", "151952.192500", "151952.652500", "151953.112500", "151953.572500", "151954.032500", "151954.492500", "151954.952500", "151955.412500", "151955.872500", "151956.332500", "151956.792500", "151957.252500", "151957.712500", "151958.172500", "151958.632500", "151959.092500", "151959.552500", "152000.012500", "152000.472500", "152000.932500", "152001.392500", "152001.852500", "152002.312500", "152002.772500", "152003.232500", "152003.692500", "152004.152500", "152004.612500", "152005.072500", "152005.532500", "152005.992500", "152006.452500", "152006.912500", "152007.372500", "152007.832500", "152008.292500", "152008.752500", "152009.212500", "152009.672500", "152010.132500", "152010.592500", "152011.052500", "152011.512500", "152011.972500", "152012.432500", "152012.892500", "152013.352500", "152013.812500", "152014.272500", "152014.732500", "152015.192500", "152015.652500", "152016.112500", "152016.572500", "152017.032500", "152017.492500", "152017.952500", "152018.412500", "152018.872500", "152019.332500", "152019.792500", "152020.252500", "152020.712500", "152021.172500", "152021.632500", "152022.092500", "152022.552500", "152023.012500", "152023.472500", "152023.932500", "152024.392500", "152024.852500", "152025.312500", "152025.772500", "152026.232500", "152026.692500", "152027.152500", "152027.612500", "152028.072500", "152028.532500", "152028.992500", "152029.452500", "152029.912500", "152030.372500", "152030.832500", "152031.292500", "152031.752500", "152032.212500", "152032.672500", "152033.132500", "152033.592500", "152034.052500", "152034.512500", "152034.972500", "152035.432500", "152035.892500", "152036.352500", "152036.812500", "152037.272500", "152037.732500", "152038.192500", "152038.652500", "152039.112500", "152039.572500", "152040.032500", "152040.492500", "152040.952500", "152041.412500", "152041.872500", "152042.332500", "152042.792500", "152043.252500", "152043.712500", "152044.172500", "152044.632500", "152045.092500", "152045.552500", "152046.012500", "152046.472500", "152046.932500", "152047.392500", "152047.852500", "152048.312500", "152048.772500", "152049.232500", "152049.692500", "152050.152500", "152050.612500", "152051.072500", "152051.532500", "152051.992500", "152052.452500", "152052.912500", "152053.372500", "152053.832500", "152054.292500", "152054.752500", "152055.212500", "152055.672500", "152056.132500", "152056.592500", "152057.052500", "152057.512500", "152057.972500", "152058.432500", "152058.892500", "152059.352500", "152059.812500", "152100.272500", "152100.732500", "152101.192500", "152101.652500", "152102.112500", "152102.572500", "152103.032500", "152103.492500", "152103.952500", "152104.412500", "152104.872500", "152105.332500", "152105.792500", "152106.252500", "152106.712500", "152107.172500", "152107.632500", "152108.092500", "152108.552500", "152109.012500", "152109.472500", "152109.932500", "152110.392500", "152110.852500", "152111.312500", "152111.772500", "152112.232500", "152112.692500", "152113.152500", "152113.612500", "152114.072500", "152114.532500", "152114.992500", "152115.452500", "152115.912500", "152116.372500", "152116.832500", "152117.292500", "152117.752500", "152118.212500", "152118.672500", "152119.132500", "152119.592500", "152120.052500", "152120.512500", "152120.972500", "152121.432500", "152121.892500", "152122.352500", "152122.812500", "152123.272500", "152123.732500", "152124.192500", "152124.652500", "152125.112500", "152125.572500", "152126.032500", "152126.492500", "152126.952500", "152127.412500", "152127.872500", "152128.332500", "152128.792500", "152129.252500", "152129.712500", "152130.172500", "152130.632500", "152131.092500", "152131.552500", "152132.012500", "152132.472500", "152132.932500", "152133.392500", "152133.852500", "152134.312500", "152134.772500", "152135.232500", "152135.692500", "152136.152500", "152136.612500", "152137.072500", "152137.532500", "152137.992500", "152138.452500", "152138.912500", "152139.372500", "152139.832500", "152140.292500", "152140.752500", "152141.212500", "152141.672500", "152142.132500", "152142.592500", "152143.052500", "152143.512500", "152143.972500", "152144.432500", "152144.892500", "152145.352500", "152145.812500", "152146.272500", "152146.732500", "152147.192500", "152147.652500", "152148.112500", "152148.572500", "152149.032500", "152149.492500", "152149.952500", "152150.412500", "152150.872500", "152151.332500", "152151.792500", "152152.252500", "152152.712500", "152153.172500", "152153.632500", "152154.092500", "152154.552500", "152155.012500", "152155.472500", "152155.932500", "152156.392500", "152156.852500", "152157.312500", "152157.772500", "152158.232500", "152158.692500", "152159.152500", "152159.612500", "152200.072500", "152200.532500", "152200.992500", "152201.452500", "152201.912500", "152202.372500", "152202.832500", "152203.292500", "152203.752500", "152204.212500", "152204.672500", "152205.132500", "152205.592500", "152206.052500", "152206.512500", "152206.972500", "152207.432500", "152207.892500", "152208.352500", "152208.812500", "152209.272500", "152209.732500", "152210.192500", "152210.652500", "152211.112500", "152211.572500", "152212.032500", "152212.492500", "152212.952500", "152213.412500", "152213.872500", "152214.332500", "152214.792500", "152215.252500", "152215.712500", "152216.172500", "152216.632500", "152217.092500", "152217.552500", "152218.012500", "152218.472500", "152218.932500", "152219.392500", "152219.852500", "152220.312500", "152220.772500", "152221.232500", "152221.692500", "152222.152500", "152222.612500", "152223.072500", "152223.532500", "152223.992500", "152224.452500", "152224.912500", "152225.372500", "152225.832500", "152226.292500", "152226.752500", "152227.212500", "152227.672500", "152228.132500", "152228.592500", "152229.052500", "152229.512500", "152229.972500", "152230.432500", "152230.892500", "152231.352500", "152231.812500", "152232.272500", "152232.732500", "152233.192500", "152233.652500", "152234.112500", "152234.572500", "152235.032500", "152235.492500", "152235.952500", "152236.412500", "152236.872500", "152237.332500", "152237.792500", "152238.252500", "152238.712500", "152239.172500", "152239.632500", "152240.092500", "152240.552500", "152241.012500", "152241.472500", "152241.932500", "152242.392500", "152242.852500", "152243.312500", "152243.772500", "152244.232500", "152244.692500", "152245.152500", "152245.612500", "152246.072500", "152246.532500", "152246.992500", "152247.452500", "152247.912500", "152248.372500", "152248.832500", "152249.292500", "152249.752500", "152250.212500", "152250.672500", "152251.132500", "152251.592500", "152252.052500", "152252.512500", "152252.972500", "152253.432500", "152253.892500", "152254.352500", "152254.812500", "152255.272500", "152255.732500", "152256.192500", "152256.652500", "152257.112500", "152257.572500", "152258.032500", "152258.492500", "152258.952500", "152259.412500", "152259.872500", "152300.332500", "152300.792500", "152301.252500", "152301.712500", "152302.172500", "152302.632500", "152303.092500", "152303.552500", "152304.012500", "152304.472500", "152304.932500", "152305.392500", "152305.852500", "152306.312500", "152306.772500", "152307.232500", "152307.692500", "152308.152500", "152308.612500", "152309.072500", "152309.532500", "152309.992500", "152310.452500", "152310.912500", "152311.372500", "152311.832500", "152312.292500", "152312.752500", "152313.212500", "152313.672500", "152314.132500", "152314.592500", "152315.052500", "152315.512500", "152315.972500", "152316.432500", "152316.892500", "152317.352500", "152317.812500", "152318.272500", "152318.732500", "152319.192500", "152319.652500", "152320.112500", "152320.572500", "152321.032500", "152321.492500", "152321.952500", "152322.412500", "152322.872500", "152323.332500", "152323.792500", "152324.252500", "152324.712500", "152325.172500", "152325.632500", "152326.092500", "152326.552500", "152327.012500", "152327.472500", "152327.932500", "152328.392500", "152328.852500", "152329.312500", "152329.772500", "152330.232500", "152330.692500", "152331.152500", "152331.612500", "152332.072500", "152332.532500", "152332.992500", "152333.452500", "152333.912500", "152334.372500", "152334.832500", "152335.292500", "152335.752500", "152336.212500", "152336.672500", "152337.132500", "152337.592500", "152338.052500", "152338.512500", "152338.972500", "152339.432500", "152339.892500", "152340.352500", "152340.812500", "152341.272500", "152341.732500", "152342.192500", "152342.652500", "152343.112500", "152343.572500", "152344.032500", "152344.492500", "152344.952500", "152345.412500", "152345.872500", "152346.332500", "152346.792500", "152347.252500", "152347.712500", "152348.172500", "152348.632500", "152349.092500", "152349.552500", "152350.012500", "152350.472500", "152350.932500", "152351.392500", "152351.852500", "152352.312500", "152352.772500", "152353.232500", "152353.692500", "152354.152500", "152354.612500", "152355.072500", "152355.532500", "152355.992500", "152356.452500", "152356.912500", "152357.372500", "152357.832500", "152358.292500", "152358.752500", "152359.212500", "152359.672500", "152400.132500", "152400.592500", "152401.052500", "152401.512500", "152401.972500", "152402.432500", "152402.892500", "152403.352500", "152403.812500", "152404.272500", "152404.732500", "152405.192500", "152405.652500", "152406.112500", "152406.572500", "152407.032500", "152407.492500", "152407.952500", "152408.412500", "152408.872500", "152409.332500", "152409.792500", "152410.252500", "152410.712500", "152411.172500", "152411.632500", "152412.092500", "152412.552500", "152413.012500", "152413.472500", "152413.932500", "152414.392500", "152414.852500", "152415.312500", "152415.772500", "152416.232500", "152416.692500", "152417.152500", "152417.612500", "152418.072500", "152418.532500", "152418.992500", "152419.452500", "152419.912500", "152420.372500", "152420.832500", "152421.292500", "152421.752500", "152422.212500", "152422.672500", "152423.132500", "152423.592500", "152424.052500", "152424.512500", "152424.972500", "152425.432500", "152425.892500", "152426.352500", "152426.812500", "152427.272500", "152427.732500", "152428.192500", "152428.652500", "152429.112500", "152429.572500", "152430.032500", "152430.492500", "152430.952500", "152431.412500", "152431.872500", "152432.332500", "152432.792500", "152433.252500", "152433.712500", "152434.172500", "152434.632500", "152435.092500", "152435.552500", "152436.012500", "152436.472500", "152436.932500", "152437.392500", "152437.852500", "152438.312500", "152438.772500", "152439.232500", "152439.692500", "152440.152500", "152440.612500", "152441.072500", "152441.532500", "152441.992500", "152442.452500"],
