{
  "AcquisitionMatrixPE": 82,
  "AcquisitionNumber": 1,
  "AcquisitionTime": "15:48:20.585000",
  "BandwidthPerPixelPhaseEncode": 24.888,
  "BaseResolution": 82,
  "BodyPartExamined": "BRAIN",
  "ConsistencyInfo": "N4_VE11C_LATEST_20160120",
  "ConversionSoftware": "dcm2niix",
  "ConversionSoftwareVersion": "v1.0.20201102",
  "DerivedVendorReportedEchoSpacing": 0.00049,
  "DeviceSerialNumber": "66112",
  "DwellTime": 2e-06,
  "EchoTime": 0.0272,
  "EchoTrainLength": 82,
  "EffectiveEchoSpacing": 0.00049,
  "FlipAngle": 44,
  "ImageComments": "Unaliased MB8/PE3",
  "ImageOrientationPatientDICOM": [0.999449, 0.0189586, -0.0272404, -0.0200629, 0.998964, -0.0408536],
  "ImageType": [
    "ORIGINAL",
    "PRIMARY",
    "M",
    "MB",
    "ND",
    "NORM",
    "MOSAIC"
],
  "ImagingFrequency": 123.252,
  "InPlanePhaseEncodingDirectionDICOM": "COL",
  "InstitutionAddress": "Maynard 3,Hanover,NH,US,03755",
  "InstitutionName": "Dartmouth College - PBS",
  "InstitutionalDepartmentName": "Department",
  "MRAcquisitionType": "2D",
  "MagneticFieldStrength": 3,
  "Manufacturer": "Siemens",
  "ManufacturersModelName": "Prisma",
  "Modality": "MR",
  "MultibandAccelerationFactor": 8,
  "PartialFourier": 1,
  "PatientPosition": "HFS",
  "PercentPhaseFOV": 100,
  "PercentSampling": 100,
  "PhaseEncodingDirection": "j-",
  "PhaseEncodingSteps": 82,
  "PhaseResolution": 1,
  "PixelBandwidth": 3050,
  "ProcedureStepDescription": "Wager_Wager^1076_spacetop",
  "ProtocolName": "func_run-06_task-social_acq-ap-mb8",
  "PulseSequenceDetails": "%CustomerSeq%\\cmrr_mbep2d_bold",
  "ReceiveCoilActiveElements": "HEA;HEP",
  "ReceiveCoilName": "Head_32",
  "ReconMatrixPE": 82,
  "RepetitionTime": 0.46,
  "SAR": 0.0795652,
  "ScanOptions": "FS",
  "ScanningSequence": "EP",
  "SequenceName": "epfid2d1_82",
  "SequenceVariant": "SK\\SS",
  "SeriesDescription": "func_run-06_task-social_acq-ap-mb8",
  "SeriesNumber": 24,
  "ShimSetting": [4129, -7753, -7253, 481, -78, -10, -75, 64],
  "SliceThickness": 2.7,
  "SliceTiming": [0, 0.2525, 0.0625, 0.315, 0.1275, 0.3775, 0.19, 0, 0.2525, 0.0625, 0.315, 0.1275, 0.3775, 0.19, 0, 0.2525, 0.0625, 0.315, 0.1275, 0.3775, 0.19, 0, 0.2525, 0.0625, 0.315, 0.1275, 0.3775, 0.19, 0, 0.2525, 0.0625, 0.315, 0.1275, 0.3775, 0.19, 0, 0.2525, 0.0625, 0.315, 0.1275, 0.3775, 0.19, 0, 0.2525, 0.0625, 0.315, 0.1275, 0.3775, 0.19, 0, 0.2525, 0.0625, 0.315, 0.1275, 0.3775, 0.19],
  "SoftwareVersions": "syngo MR E11",
  "SpacingBetweenSlices": 2.7,
  "StationName": "AWP66112",
  "TaskName": "social",
  "TotalReadoutTime": 0.03969,
  "TxRefAmp": 257.728,
  "WipMemBlock": "8101ad8d-d65c-4089-9907-0470b25cef15||Sequence: R016 ve11c/master r/e634e98; Dec 19 2017 11:00:25 by eja",
  "dcmmeta_affine": [
    [-2.6814489364624023, -0.05382716655731201, -0.07138160616159439, 118.90250396728516],
    [-0.05086447671055794, 2.6801464557647705, -0.11171967536211014, -88.51456451416016],
    [-0.07308396697044373, 0.10960733145475388, 2.6967432498931885, -50.972007751464844],
    [0.0, 0.0, 0.0, 1.0]
],
  "dcmmeta_reorient_transform": [
    [0.0, -1.0, 0.0, 81.0],
    [1.0, 0.0, 0.0, 0.0],
    [0.0, 0.0, 1.0, 0.0],
    [0.0, 0.0, 0.0, 1.0]
],
  "dcmmeta_shape": [82, 82, 56, 872],
  "dcmmeta_slice_dim": 2,
  "dcmmeta_version": 0.6,
  "global": {
    "const": {
      "AccessionNumber": "A003446",
      "AcquisitionMatrix": [82, 0, 0, 82],
      "AngioFlag": "N",
      "BitsAllocated": 16,
      "BitsStored": 16,
      "BodyPartExamined": "BRAIN",
      "Columns": 656,
      "EchoNumbers": 1,
      "EchoTime": 27.2,
      "EchoTrainLength": 82,
      "FlipAngle": 44.0,
      "HighBit": 15,
      "ImageOrientationPatient": [0.99944911506567, 0.0189585776929, -0.0272403877784, -0.0200628521704, 0.99896369399577, -0.0408536417117],
      "ImagePositionPatient": [-868.66994662092, -912.37747829201, 10.338591343589],
      "ImageType": [
        "ORIGINAL",
        "PRIMARY",
        "M",
        "MB",
        "ND",
        "NORM",
        "MOSAIC"
],
      "ImagedNucleus": "1H",
      "ImagingFrequency": 123.252129,
      "InPlanePhaseEncodingDirection": "COL",
      "MRAcquisitionType": "2D",
      "MagneticFieldStrength": 3.0,
      "Manufacturer": "SIEMENS",
      "ManufacturerModelName": "Prisma",
      "Modality": "MR",
      "NumberOfAverages": 1.0,
      "NumberOfPhaseEncodingSteps": 82,
      "PercentPhaseFieldOfView": 100.0,
      "PercentSampling": 100.0,
      "PerformedProcedureStepStartTime": "135910.764000",
      "PhotometricInterpretation": "MONOCHROME2",
      "PixelBandwidth": 3050.0,
      "PixelRepresentation": 0,
      "PixelSpacing": [2.6829268932343, 2.6829268932343],
      "ProtocolName": "func_run-06_task-social_acq-ap-mb8",
      "RepetitionTime": 460.0,
      "Rows": 656,
      "SAR": 0.07956525142336,
      "SamplesPerPixel": 1,
      "ScanOptions": "FS",
      "ScanningSequence": "EP",
      "SequenceName": "epfid2d1_82",
      "SequenceVariant": [
        "SK",
        "SS"
],
      "SeriesDescription": "func_run-06_task-social_acq-ap-mb8",
      "SeriesNumber": 24,
      "SeriesTime": "154849.114000",
      "SliceLocation": -50.391496937474,
      "SliceThickness": 2.7000000476837,
      "SmallestImagePixelValue": 0,
      "SoftwareVersions": "syngo MR E11",
      "SpacingBetweenSlices": 2.700000044283,
      "SpecificCharacterSet": "ISO_IR 100",
      "StudyID": "1",
      "StudyTime": "135910.610000",
      "TransmitCoilName": "Body",
      "VariableFlipAngleFlag": "N",
      "WindowCenterWidthExplanation": "Algo1",
      "dBdt": 0.0},
    "slices": {}
  },
  "time": {
    "samples": {
      "AcquisitionNumber": [1, 2, 3, 4, 5, 6, 7, 8, 9, 10, 11, 12, 13, 14, 15, 16, 17, 18, 19, 20, 21, 22, 23, 24, 25, 26, 27, 28, 29, 30, 31, 32, 33, 34, 35, 36, 37, 38, 39, 40, 41, 42, 43, 44, 45, 46, 47, 48, 49, 50, 51, 52, 53, 54, 55, 56, 57, 58, 59, 60, 61, 62, 63, 64, 65, 66, 67, 68, 69, 70, 71, 72, 73, 74, 75, 76, 77, 78, 79, 80, 81, 82, 83, 84, 85, 86, 87, 88, 89, 90, 91, 92, 93, 94, 95, 96, 97, 98, 99, 100, 101, 102, 103, 104, 105, 106, 107, 108, 109, 110, 111, 112, 113, 114, 115, 116, 117, 118, 119, 120, 121, 122, 123, 124, 125, 126, 127, 128, 129, 130, 131, 132, 133, 134, 135, 136, 137, 138, 139, 140, 141, 142, 143, 144, 145, 146, 147, 148, 149, 150, 151, 152, 153, 154, 155, 156, 157, 158, 159, 160, 161, 162, 163, 164, 165, 166, 167, 168, 169, 170, 171, 172, 173, 174, 175, 176, 177, 178, 179, 180, 181, 182, 183, 184, 185, 186, 187, 188, 189, 190, 191, 192, 193, 194, 195, 196, 197, 198, 199, 200, 201, 202, 203, 204, 205, 206, 207, 208, 209, 210, 211, 212, 213, 214, 215, 216, 217, 218, 219, 220, 221, 222, 223, 224, 225, 226, 227, 228, 229, 230, 231, 232, 233, 234, 235, 236, 237, 238, 239, 240, 241, 242, 243, 244, 245, 246, 247, 248, 249, 250, 251, 252, 253, 254, 255, 256, 257, 258, 259, 260, 261, 262, 263, 264, 265, 266, 267, 268, 269, 270, 271, 272, 273, 274, 275, 276, 277, 278, 279, 280, 281, 282, 283, 284, 285, 286, 287, 288, 289, 290, 291, 292, 293, 294, 295, 296, 297, 298, 299, 300, 301, 302, 303, 304, 305, 306, 307, 308, 309, 310, 311, 312, 313, 314, 315, 316, 317, 318, 319, 320, 321, 322, 323, 324, 325, 326, 327, 328, 329, 330, 331, 332, 333, 334, 335, 336, 337, 338, 339, 340, 341, 342, 343, 344, 345, 346, 347, 348, 349, 350, 351, 352, 353, 354, 355, 356, 357, 358, 359, 360, 361, 362, 363, 364, 365, 366, 367, 368, 369, 370, 371, 372, 373, 374, 375, 376, 377, 378, 379, 380, 381, 382, 383, 384, 385, 386, 387, 388, 389, 390, 391, 392, 393, 394, 395, 396, 397, 398, 399, 400, 401, 402, 403, 404, 405, 406, 407, 408, 409, 410, 411, 412, 413, 414, 415, 416, 417, 418, 419, 420, 421, 422, 423, 424, 425, 426, 427, 428, 429, 430, 431, 432, 433, 434, 435, 436, 437, 438, 439, 440, 441, 442, 443, 444, 445, 446, 447, 448, 449, 450, 451, 452, 453, 454, 455, 456, 457, 458, 459, 460, 461, 462, 463, 464, 465, 466, 467, 468, 469, 470, 471, 472, 473, 474, 475, 476, 477, 478, 479, 480, 481, 482, 483, 484, 485, 486, 487, 488, 489, 490, 491, 492, 493, 494, 495, 496, 497, 498, 499, 500, 501, 502, 503, 504, 505, 506, 507, 508, 509, 510, 511, 512, 513, 514, 515, 516, 517, 518, 519, 520, 521, 522, 523, 524, 525, 526, 527, 528, 529, 530, 531, 532, 533, 534, 535, 536, 537, 538, 539, 540, 541, 542, 543, 544, 545, 546, 547, 548, 549, 550, 551, 552, 553, 554, 555, 556, 557, 558, 559, 560, 561, 562, 563, 564, 565, 566, 567, 568, 569, 570, 571, 572, 573, 574, 575, 576, 577, 578, 579, 580, 581, 582, 583, 584, 585, 586, 587, 588, 589, 590, 591, 592, 593, 594, 595, 596, 597, 598, 599, 600, 601, 602, 603, 604, 605, 606, 607, 608, 609, 610, 611, 612, 613, 614, 615, 616, 617, 618, 619, 620, 621, 622, 623, 624, 625, 626, 627, 628, 629, 630, 631, 632, 633, 634, 635, 636, 637, 638, 639, 640, 641, 642, 643, 644, 645, 646, 647, 648, 649, 650, 651, 652, 653, 654, 655, 656, 657, 658, 659, 660, 661, 662, 663, 664, 665, 666, 667, 668, 669, 670, 671, 672, 673, 674, 675, 676, 677, 678, 679, 680, 681, 682, 683, 684, 685, 686, 687, 688, 689, 690, 691, 692, 693, 694, 695, 696, 697, 698, 699, 700, 701, 702, 703, 704, 705, 706, 707, 708, 709, 710, 711, 712, 713, 714, 715, 716, 717, 718, 719, 720, 721, 722, 723, 724, 725, 726, 727, 728, 729, 730, 731, 732, 733, 734, 735, 736, 737, 738, 739, 740, 741, 742, 743, 744, 745, 746, 747, 748, 749, 750, 751, 752, 753, 754, 755, 756, 757, 758, 759, 760, 761, 762, 763, 764, 765, 766, 767, 768, 769, 770, 771, 772, 773, 774, 775, 776, 777, 778, 779, 780, 781, 782, 783, 784, 785, 786, 787, 788, 789, 790, 791, 792, 793, 794, 795, 796, 797, 798, 799, 800, 801, 802, 803, 804, 805, 806, 807, 808, 809, 810, 811, 812, 813, 814, 815, 816, 817, 818, 819, 820, 821, 822, 823, 824, 825, 826, 827, 828, 829, 830, 831, 832, 833, 834, 835, 836, 837, 838, 839, 840, 841, 842, 843, 844, 845, 846, 847, 848, 849, 850, 851, 852, 853, 854, 855, 856, 857, 858, 859, 860, 861, 862, 863, 864, 865, 866, 867, 868, 869, 870, 871, 872],
      "AcquisitionTime": ["154820.585000", "154821.045000", "154821.505000", "154821.965000", "154822.425000", "154822.885000", "154823.345000", "154823.805000", "154824.265000", "154824.725000", "154825.185000", "154825.645000", "154826.105000", "154826.565000", "154827.025000", "154827.485000", "154827.945000", "154828.405000", "154828.865000", "154829.325000", "154829.785000", "154830.245000", "154830.705000", "154831.165000", "154831.625000", "154832.085000", "154832.545000", "154833.005000", "154833.465000", "154833.925000", "154834.385000", "154834.845000", "154835.305000", "154835.765000", "154836.225000", "154836.685000", "154837.145000", "154837.605000", "154838.065000", "154838.525000", "154838.985000", "154839.445000", "154839.905000", "154840.365000", "154840.825000", "154841.285000", "154841.745000", "154842.205000", "154842.665000", "154843.125000", "154843.585000", "154844.045000", "154844.505000", "154844.965000", "154845.425000", "154845.885000", "154846.345000", "154846.805000", "154847.265000", "154847.725000", "154848.185000", "154848.645000", "154849.105000", "154849.565000", "154850.025000", "154850.485000", "154850.945000", "154851.405000", "154851.865000", "154852.325000", "154852.785000", "154853.245000", "154853.705000", "154854.165000", "154854.625000", "154855.085000", "154855.545000", "154856.005000", "154856.465000", "154856.925000", "154857.385000", "154857.845000", "154858.305000", "154858.765000", "154859.225000", "154859.685000", "154900.145000", "154900.605000", "154901.065000", "154901.525000", "154901.985000", "154902.445000", "154902.905000", "154903.365000", "154903.825000", "154904.285000", "154904.745000", "154905.205000", "154905.665000", "154906.125000", "154906.585000", "154907.045000", "154907.505000", "154907.965000", "154908.425000", "154908.885000", "154909.345000", "154909.805000", "154910.265000", "154910.725000", "154911.185000", "154911.645000", "154912.105000", "154912.565000", "154913.025000", "154913.485000", "154913.945000", "154914.405000", "154914.865000", "154915.325000", "154915.785000", "154916.245000", "154916.705000", "154917.165000", "154917.625000", "154918.085000", "154918.545000", "154919.005000", "154919.465000", "154919.925000", "154920.385000", "154920.845000", "154921.305000", "154921.765000", "154922.225000", "154922.685000", "154923.145000", "154923.605000", "154924.065000", "154924.525000", "154924.985000", "154925.445000", "154925.905000", "154926.365000", "154926.825000", "154927.285000", "154927.745000", "154928.205000", "154928.665000", "154929.125000", "154929.585000", "154930.045000", "154930.505000", "154930.965000", "154931.425000", "154931.885000", "154932.345000", "154932.805000", "154933.265000", "154933.725000", "154934.185000", "154934.645000", "154935.105000", "154935.565000", "154936.025000", "154936.485000", "154936.945000", "154937.405000", "154937.865000", "154938.325000", "154938.785000", "154939.245000", "154939.705000", "154940.165000", "154940.625000", "154941.085000", "154941.545000", "154942.005000", "154942.465000", "154942.925000", "154943.385000", "154943.845000", "154944.305000", "154944.765000", "154945.225000", "154945.685000", "154946.145000", "154946.605000", "154947.065000", "154947.525000", "154947.985000", "154948.445000", "154948.905000", "154949.365000", "154949.825000", "154950.285000", "154950.745000", "154951.205000", "154951.665000", "154952.125000", "154952.585000", "154953.045000", "154953.505000", "154953.965000", "154954.425000", "154954.885000", "154955.345000", "154955.805000", "154956.265000", "154956.725000", "154957.185000", "154957.645000", "154958.105000", "154958.565000", "154959.025000", "154959.485000", "154959.945000", "155000.405000", "155000.865000", "155001.325000", "155001.785000", "155002.245000", "155002.705000", "155003.165000", "155003.625000", "155004.085000", "155004.545000", "155005.005000", "155005.465000", "155005.925000", "155006.385000", "155006.845000", "155007.305000", "155007.765000", "155008.225000", "155008.685000", "155009.145000", "155009.605000", "155010.065000", "155010.525000", "155010.985000", "155011.445000", "155011.905000", "155012.365000", "155012.825000", "155013.285000", "155013.745000", "155014.205000", "155014.665000", "155015.125000", "155015.585000", "155016.045000", "155016.505000", "155016.965000", "155017.425000", "155017.885000", "155018.345000", "155018.805000", "155019.265000", "155019.725000", "155020.185000", "155020.645000", "155021.105000", "155021.565000", "155022.025000", "155022.485000", "155022.945000", "155023.405000", "155023.865000", "155024.325000", "155024.785000", "155025.245000", "155025.705000", "155026.165000", "155026.625000", "155027.085000", "155027.545000", "155028.005000", "155028.465000", "155028.925000", "155029.385000", "155029.845000", "155030.305000", "155030.765000", "155031.225000", "155031.685000", "155032.145000", "155032.605000", "155033.065000", "155033.525000", "155033.985000", "155034.445000", "155034.905000", "155035.365000", "155035.825000", "155036.285000", "155036.745000", "155037.205000", "155037.665000", "155038.125000", "155038.585000", "155039.045000", "155039.505000", "155039.965000", "155040.425000", "155040.885000", "155041.345000", "155041.805000", "155042.265000", "155042.725000", "155043.185000", "155043.645000", "155044.105000", "155044.565000", "155045.025000", "155045.485000", "155045.945000", "155046.405000", "155046.865000", "155047.325000", "155047.785000", "155048.245000", "155048.705000", "155049.165000", "155049.625000", "155050.085000", "155050.545000", "155051.005000", "155051.465000", "155051.925000", "155052.385000", "155052.845000", "155053.305000", "155053.765000", "155054.225000", "155054.685000", "155055.145000", "155055.605000", "155056.065000", "155056.525000", "155056.985000", "155057.445000", "155057.905000", "155058.365000", "155058.825000", "155059.285000", "155059.745000", "155100.205000", "155100.665000", "155101.125000", "155101.585000", "155102.045000", "155102.505000", "155102.965000", "155103.425000", "155103.885000", "155104.345000", "155104.805000", "155105.265000", "155105.725000", "155106.185000", "155106.645000", "155107.105000", "155107.565000", "155108.025000", "155108.485000", "155108.945000", "155109.405000", "155109.865000", "155110.325000", "155110.785000", "155111.245000", "155111.705000", "155112.165000", "155112.625000", "155113.085000", "155113.545000", "155114.005000", "155114.465000", "155114.925000", "155115.385000", "155115.845000", "155116.305000", "155116.765000", "155117.225000", "155117.685000", "155118.145000", "155118.605000", "155119.065000", "155119.525000", "155119.985000", "155120.445000", "155120.905000", "155121.365000", "155121.825000", "155122.285000", "155122.745000", "155123.205000", "155123.665000", "155124.125000", "155124.585000", "155125.045000", "155125.505000", "155125.965000", "155126.425000", "155126.885000", "155127.345000", "155127.805000", "155128.265000", "155128.725000", "155129.185000", "155129.645000", "155130.105000", "155130.565000", "155131.025000", "155131.485000", "155131.945000", "155132.405000", "155132.865000", "155133.325000", "155133.785000", "155134.245000", "155134.705000", "155135.165000", "155135.625000", "155136.085000", "155136.545000", "155137.005000", "155137.465000", "155137.925000", "155138.385000", "155138.845000", "155139.305000", "155139.765000", "155140.225000", "155140.685000", "155141.145000", "155141.605000", "155142.065000", "155142.525000", "155142.985000", "155143.445000", "155143.905000", "155144.365000", "155144.825000", "155145.285000", "155145.745000", "155146.205000", "155146.665000", "155147.125000", "155147.585000", "155148.045000", "155148.505000", "155148.965000", "155149.425000", "155149.885000", "155150.345000", "155150.805000", "155151.265000", "155151.725000", "155152.185000", "155152.645000", "155153.105000", "155153.565000", "155154.025000", "155154.485000", "155154.945000", "155155.405000", "155155.865000", "155156.325000", "155156.785000", "155157.245000", "155157.705000", "155158.165000", "155158.625000", "155159.085000", "155159.545000", "155200.005000", "155200.465000", "155200.925000", "155201.385000", "155201.845000", "155202.305000", "155202.765000", "155203.225000", "155203.685000", "155204.145000", "155204.605000", "155205.065000", "155205.525000", "155205.985000", "155206.445000", "155206.905000", "155207.365000", "155207.825000", "155208.285000", "155208.745000", "155209.205000", "155209.665000", "155210.125000", "155210.585000", "155211.045000", "155211.505000", "155211.965000", "155212.425000", "155212.885000", "155213.345000", "155213.805000", "155214.265000", "155214.725000", "155215.185000", "155215.645000", "155216.105000", "155216.565000", "155217.025000", "155217.485000", "155217.945000", "155218.405000", "155218.865000", "155219.325000", "155219.785000", "155220.245000", "155220.705000", "155221.165000", "155221.625000", "155222.085000", "155222.545000", "155223.005000", "155223.465000", "155223.925000", "155224.385000", "155224.845000", "155225.305000", "155225.765000", "155226.225000", "155226.685000", "155227.145000", "155227.605000", "155228.065000", "155228.525000", "155228.985000", "155229.445000", "155229.905000", "155230.365000", "155230.825000", "155231.285000", "155231.745000", "155232.205000", "155232.665000", "155233.125000", "155233.585000", "155234.045000", "155234.505000", "155234.965000", "155235.425000", "155235.885000", "155236.345000", "155236.805000", "155237.265000", "155237.725000", "155238.185000", "155238.645000", "155239.105000", "155239.565000", "155240.025000", "155240.485000", "155240.945000", "155241.405000", "155241.865000", "155242.325000", "155242.785000", "155243.245000", "155243.705000", "155244.165000", "155244.625000", "155245.085000", "155245.545000", "155246.005000", "155246.465000", "155246.925000", "155247.385000", "155247.845000", "155248.305000", "155248.765000", "155249.225000", "155249.685000", "155250.145000", "155250.605000", "155251.065000", "155251.525000", "155251.985000", "155252.445000", "155252.905000", "155253.365000", "155253.825000", "155254.285000", "155254.745000", "155255.205000", "155255.665000", "155256.125000", "155256.585000", "155257.045000", "155257.505000", "155257.965000", "155258.425000", "155258.885000", "155259.345000", "155259.805000", "155300.265000", "155300.725000", "155301.185000", "155301.645000", "155302.105000", "155302.565000", "155303.025000", "155303.485000", "155303.945000", "155304.405000", "155304.865000", "155305.325000", "155305.785000", "155306.245000", "155306.705000", "155307.165000", "155307.625000", "155308.085000", "155308.545000", "155309.005000", "155309.465000", "155309.925000", "155310.385000", "155310.845000", "155311.305000", "155311.765000", "155312.225000", "155312.685000", "155313.145000", "155313.605000", "155314.065000", "155314.525000", "155314.985000", "155315.445000", "155315.905000", "155316.365000", "155316.825000", "155317.285000", "155317.745000", "155318.205000", "155318.665000", "155319.125000", "155319.585000", "155320.045000", "155320.505000", "155320.965000", "155321.425000", "155321.885000", "155322.345000", "155322.805000", "155323.265000", "155323.725000", "155324.185000", "155324.645000", "155325.105000", "155325.565000", "155326.025000", "155326.485000", "155326.945000", "155327.405000", "155327.865000", "155328.325000", "155328.785000", "155329.245000", "155329.705000", "155330.165000", "155330.625000", "155331.085000", "155331.545000", "155332.005000", "155332.465000", "155332.925000", "155333.385000", "155333.845000", "155334.305000", "155334.765000", "155335.225000", "155335.685000", "155336.145000", "155336.605000", "155337.065000", "155337.525000", "155337.985000", "155338.445000", "155338.905000", "155339.365000", "155339.825000", "155340.285000", "155340.745000", "155341.205000", "155341.665000", "155342.125000", "155342.585000", "155343.045000", "155343.505000", "155343.965000", "155344.425000", "155344.885000", "155345.345000", "155345.805000", "155346.265000", "155346.725000", "155347.185000", "155347.645000", "155348.105000", "155348.565000", "155349.025000", "155349.485000", "155349.945000", "155350.405000", "155350.865000", "155351.325000", "155351.785000", "155352.245000", "155352.705000", "155353.165000", "155353.625000", "155354.085000", "155354.545000", "155355.005000", "155355.465000", "155355.925000", "155356.385000", "155356.845000", "155357.305000", "155357.765000", "155358.225000", "155358.685000", "155359.145000", "155359.605000", "155400.065000", "155400.525000", "155400.985000", "155401.445000", "155401.905000", "155402.365000", "155402.825000", "155403.285000", "155403.745000", "155404.205000", "155404.665000", "155405.125000", "155405.585000", "155406.045000", "155406.505000", "155406.965000", "155407.425000", "155407.885000", "155408.345000", "155408.805000", "155409.265000", "155409.725000", "155410.185000", "155410.645000", "155411.105000", "155411.565000", "155412.025000", "155412.485000", "155412.945000", "155413.405000", "155413.865000", "155414.325000", "155414.785000", "155415.245000", "155415.705000", "155416.165000", "155416.625000", "155417.085000", "155417.545000", "155418.005000", "155418.465000", "155418.925000", "155419.385000", "155419.845000", "155420.305000", "155420.765000", "155421.225000", "155421.685000", "155422.145000", "155422.605000", "155423.065000", "155423.525000", "155423.985000", "155424.445000", "155424.905000", "155425.365000", "155425.825000", "155426.285000", "155426.745000", "155427.205000", "155427.665000", "155428.125000", "155428.585000", "155429.045000", "155429.505000", "155429.965000", "155430.425000", "155430.885000", "155431.345000", "155431.805000", "155432.265000", "155432.725000", "155433.185000", "155433.645000", "155434.105000", "155434.565000", "155435.025000", "155435.485000", "155435.945000", "155436.405000", "155436.865000", "155437.325000", "155437.785000", "155438.245000", "155438.705000", "155439.165000", "155439.625000", "155440.085000", "155440.545000", "155441.005000", "155441.465000", "155441.925000", "155442.385000", "155442.845000", "155443.305000", "155443.765000", "155444.225000", "155444.685000", "155445.145000", "155445.605000", "155446.065000", "155446.525000", "155446.985000", "155447.445000", "155447.905000", "155448.365000", "155448.825000", "155449.285000", "155449.745000", "155450.205000", "155450.665000", "155451.125000", "155451.585000", "155452.045000", "155452.505000", "155452.965000", "155453.425000", "155453.885000", "155454.345000", "155454.805000", "155455.265000", "155455.725000", "155456.185000", "155456.645000", "155457.105000", "155457.565000", "155458.025000", "155458.485000", "155458.945000", "155459.405000", "155459.865000", "155500.325000", "155500.785000", "155501.245000"],
