{
  "AcquisitionMatrixPE": 82,
  "AcquisitionNumber": 1,
  "AcquisitionTime": "16:17:15.050000",
  "BandwidthPerPixelPhaseEncode": 24.888,
  "BaseResolution": 82,
  "BodyPartExamined": "BRAIN",
  "ConsistencyInfo": "N4_VE11C_LATEST_20160120",
  "ConversionSoftware": "dcm2niix",
  "ConversionSoftwareVersion": "v1.0.20201102",
  "DerivedVendorReportedEchoSpacing": 0.00049,
  "DeviceSerialNumber": "66112",
  "DwellTime": 2e-06,
  "EchoTime": 0.0272,
  "EchoTrainLength": 82,
  "EffectiveEchoSpacing": 0.00049,
  "FlipAngle": 44,
  "ImageComments": "Unaliased MB8/PE3",
  "ImageOrientationPatientDICOM": [0.999993, -0.000892317, 0.00368918, 0.00104718, 0.999109, -0.0421916],
  "ImageType": [
    "ORIGINAL",
    "PRIMARY",
    "M",
    "MB",
    "ND",
    "NORM",
    "MOSAIC"
],
  "ImagingFrequency": 123.252,
  "InPlanePhaseEncodingDirectionDICOM": "COL",
  "InstitutionAddress": "Maynard 3,Hanover,NH,US,03755",
  "InstitutionName": "Dartmouth College - PBS",
  "InstitutionalDepartmentName": "Department",
  "MRAcquisitionType": "2D",
  "MagneticFieldStrength": 3,
  "Manufacturer": "Siemens",
  "ManufacturersModelName": "Prisma",
  "Modality": "MR",
  "MultibandAccelerationFactor": 8,
  "PartialFourier": 1,
  "PatientPosition": "HFS",
  "PercentPhaseFOV": 100,
  "PercentSampling": 100,
  "PhaseEncodingDirection": "j-",
  "PhaseEncodingSteps": 82,
  "PhaseResolution": 1,
  "PixelBandwidth": 3050,
  "ProcedureStepDescription": "Wager_Wager^1076_spacetop",
  "ProtocolName": "func_run-03_task-alignvideo_acq-ap-mb8",
  "PulseSequenceDetails": "%CustomerSeq%\\cmrr_mbep2d_bold",
  "ReceiveCoilActiveElements": "HEA;HEP",
  "ReceiveCoilName": "Head_32",
  "ReconMatrixPE": 82,
  "RepetitionTime": 0.46,
  "SAR": 0.0796354,
  "ScanOptions": "FS",
  "ScanningSequence": "EP",
  "SequenceName": "epfid2d1_82",
  "SequenceVariant": "SK\\SS",
  "SeriesDescription": "func_run-03_task-alignvideo_acq-ap-mb8",
  "SeriesNumber": 36,
  "ShimSetting": [4132, -7754, -7252, 485, -66, -10, -75, 70],
  "SliceThickness": 2.7,
  "SliceTiming": [0, 0.2525, 0.065, 0.315, 0.1275, 0.3775, 0.19, 0, 0.2525, 0.065, 0.315, 0.1275, 0.3775, 0.19, 0, 0.2525, 0.065, 0.315, 0.1275, 0.3775, 0.19, 0, 0.2525, 0.065, 0.315, 0.1275, 0.3775, 0.19, 0, 0.2525, 0.065, 0.315, 0.1275, 0.3775, 0.19, 0, 0.2525, 0.065, 0.315, 0.1275, 0.3775, 0.19, 0, 0.2525, 0.065, 0.315, 0.1275, 0.3775, 0.19, 0, 0.2525, 0.065, 0.315, 0.1275, 0.3775, 0.19],
  "SoftwareVersions": "syngo MR E11",
  "SpacingBetweenSlices": 2.7,
  "StationName": "AWP66112",
  "TaskName": "alignvideo",
  "TotalReadoutTime": 0.03969,
  "TxRefAmp": 257.728,
  "WipMemBlock": "ce336ed5-28bf-4584-8dfa-f617a07dd95d||Sequence: R016 ve11c/master r/e634e98; Dec 19 2017 11:00:25 by eja",
  "dcmmeta_affine": [
    [-2.6829075813293457, 0.0028095138259232044, 0.009850268252193928, 116.09673309326172],
    [0.0023940219543874264, 2.6805362701416016, -0.11392701417207718, -89.87918090820312],
    [0.00989780854433775, 0.11319706588983536, 2.6975772380828857, -53.57762908935547],
    [0.0, 0.0, 0.0, 1.0]
],
  "dcmmeta_reorient_transform": [
    [0.0, -1.0, 0.0, 81.0],
    [1.0, 0.0, 0.0, 0.0],
    [0.0, 0.0, 1.0, 0.0],
    [0.0, 0.0, 0.0, 1.0]
],
  "dcmmeta_shape": [82, 82, 56, 1016],
  "dcmmeta_slice_dim": 2,
  "dcmmeta_version": 0.6,
  "global": {
    "const": {
      "AccessionNumber": "A003446",
      "AcquisitionMatrix": [82, 0, 0, 82],
      "AngioFlag": "N",
      "BitsAllocated": 16,
      "BitsStored": 16,
      "BodyPartExamined": "BRAIN",
      "Columns": 656,
      "EchoNumbers": 1,
      "EchoTime": 27.2,
      "EchoTrainLength": 82,
      "FlipAngle": 44.0,
      "HighBit": 15,
      "ImageOrientationPatient": [0.99999279682313, -0.0008923172728, 0.00368918307258, 0.0010471824059, 0.99910898783624, -0.0421916322728],
      "ImagePositionPatient": [-887.12510262655, -895.87111691203, -14.76178005319],
      "ImageType": [
        "ORIGINAL",
        "PRIMARY",
        "M",
        "MB",
        "ND",
        "NORM",
        "MOSAIC"
],
      "ImagedNucleus": "1H",
      "ImagingFrequency": 123.252132,
      "InPlanePhaseEncodingDirection": "COL",
      "MRAcquisitionType": "2D",
      "MagneticFieldStrength": 3.0,
      "Manufacturer": "SIEMENS",
      "ManufacturerModelName": "Prisma",
      "Modality": "MR",
      "NumberOfAverages": 1.0,
      "NumberOfPhaseEncodingSteps": 82,
      "PercentPhaseFieldOfView": 100.0,
      "PercentSampling": 100.0,
      "PerformedProcedureStepStartTime": "135910.764000",
      "PhotometricInterpretation": "MONOCHROME2",
      "PixelBandwidth": 3050.0,
      "PixelRepresentation": 0,
      "PixelSpacing": [2.6829268932343, 2.6829268932343],
      "ProtocolName": "func_run-03_task-alignvideo_acq-ap-mb8",
      "RepetitionTime": 460.0,
      "Rows": 656,
      "SAR": 0.0796354039865,
      "SamplesPerPixel": 1,
      "ScanOptions": "FS",
      "ScanningSequence": "EP",
      "SequenceName": "epfid2d1_82",
      "SequenceVariant": [
        "SK",
        "SS"
],
      "SeriesDescription": "func_run-03_task-alignvideo_acq-ap-mb8",
      "SeriesNumber": 36,
      "SeriesTime": "161729.115000",
      "SliceLocation": -49.31353605228,
      "SliceThickness": 2.7000000476837,
      "SmallestImagePixelValue": 0,
      "SoftwareVersions": "syngo MR E11",
      "SpacingBetweenSlices": 2.6999999612806,
      "SpecificCharacterSet": "ISO_IR 100",
      "StudyID": "1",
      "StudyTime": "135910.610000",
      "TransmitCoilName": "Body",
      "VariableFlipAngleFlag": "N",
      "WindowCenterWidthExplanation": "Algo1",
      "dBdt": 0.0},
    "slices": {}
  },
  "time": {
    "samples": {
      "AcquisitionNumber": [1, 2, 3, 4, 5, 6, 7, 8, 9, 10, 11, 12, 13, 14, 15, 16, 17, 18, 19, 20, 21, 22, 23, 24, 25, 26, 27, 28, 29, 30, 31, 32, 33, 34, 35, 36, 37, 38, 39, 40, 41, 42, 43, 44, 45, 46, 47, 48, 49, 50, 51, 52, 53, 54, 55, 56, 57, 58, 59, 60, 61, 62, 63, 64, 65, 66, 67, 68, 69, 70, 71, 72, 73, 74, 75, 76, 77, 78, 79, 80, 81, 82, 83, 84, 85, 86, 87, 88, 89, 90, 91, 92, 93, 94, 95, 96, 97, 98, 99, 100, 101, 102, 103, 104, 105, 106, 107, 108, 109, 110, 111, 112, 113, 114, 115, 116, 117, 118, 119, 120, 121, 122, 123, 124, 125, 126, 127, 128, 129, 130, 131, 132, 133, 134, 135, 136, 137, 138, 139, 140, 141, 142, 143, 144, 145, 146, 147, 148, 149, 150, 151, 152, 153, 154, 155, 156, 157, 158, 159, 160, 161, 162, 163, 164, 165, 166, 167, 168, 169, 170, 171, 172, 173, 174, 175, 176, 177, 178, 179, 180, 181, 182, 183, 184, 185, 186, 187, 188, 189, 190, 191, 192, 193, 194, 195, 196, 197, 198, 199, 200, 201, 202, 203, 204, 205, 206, 207, 208, 209, 210, 211, 212, 213, 214, 215, 216, 217, 218, 219, 220, 221, 222, 223, 224, 225, 226, 227, 228, 229, 230, 231, 232, 233, 234, 235, 236, 237, 238, 239, 240, 241, 242, 243, 244, 245, 246, 247, 248, 249, 250, 251, 252, 253, 254, 255, 256, 257, 258, 259, 260, 261, 262, 263, 264, 265, 266, 267, 268, 269, 270, 271, 272, 273, 274, 275, 276, 277, 278, 279, 280, 281, 282, 283, 284, 285, 286, 287, 288, 289, 290, 291, 292, 293, 294, 295, 296, 297, 298, 299, 300, 301, 302, 303, 304, 305, 306, 307, 308, 309, 310, 311, 312, 313, 314, 315, 316, 317, 318, 319, 320, 321, 322, 323, 324, 325, 326, 327, 328, 329, 330, 331, 332, 333, 334, 335, 336, 337, 338, 339, 340, 341, 342, 343, 344, 345, 346, 347, 348, 349, 350, 351, 352, 353, 354, 355, 356, 357, 358, 359, 360, 361, 362, 363, 364, 365, 366, 367, 368, 369, 370, 371, 372, 373, 374, 375, 376, 377, 378, 379, 380, 381, 382, 383, 384, 385, 386, 387, 388, 389, 390, 391, 392, 393, 394, 395, 396, 397, 398, 399, 400, 401, 402, 403, 404, 405, 406, 407, 408, 409, 410, 411, 412, 413, 414, 415, 416, 417, 418, 419, 420, 421, 422, 423, 424, 425, 426, 427, 428, 429, 430, 431, 432, 433, 434, 435, 436, 437, 438, 439, 440, 441, 442, 443, 444, 445, 446, 447, 448, 449, 450, 451, 452, 453, 454, 455, 456, 457, 458, 459, 460, 461, 462, 463, 464, 465, 466, 467, 468, 469, 470, 471, 472, 473, 474, 475, 476, 477, 478, 479, 480, 481, 482, 483, 484, 485, 486, 487, 488, 489, 490, 491, 492, 493, 494, 495, 496, 497, 498, 499, 500, 501, 502, 503, 504, 505, 506, 507, 508, 509, 510, 511, 512, 513, 514, 515, 516, 517, 518, 519, 520, 521, 522, 523, 524, 525, 526, 527, 528, 529, 530, 531, 532, 533, 534, 535, 536, 537, 538, 539, 540, 541, 542, 543, 544, 545, 546, 547, 548, 549, 550, 551, 552, 553, 554, 555, 556, 557, 558, 559, 560, 561, 562, 563, 564, 565, 566, 567, 568, 569, 570, 571, 572, 573, 574, 575, 576, 577, 578, 579, 580, 581, 582, 583, 584, 585, 586, 587, 588, 589, 590, 591, 592, 593, 594, 595, 596, 597, 598, 599, 600, 601, 602, 603, 604, 605, 606, 607, 608, 609, 610, 611, 612, 613, 614, 615, 616, 617, 618, 619, 620, 621, 622, 623, 624, 625, 626, 627, 628, 629, 630, 631, 632, 633, 634, 635, 636, 637, 638, 639, 640, 641, 642, 643, 644, 645, 646, 647, 648, 649, 650, 651, 652, 653, 654, 655, 656, 657, 658, 659, 660, 661, 662, 663, 664, 665, 666, 667, 668, 669, 670, 671, 672, 673, 674, 675, 676, 677, 678, 679, 680, 681, 682, 683, 684, 685, 686, 687, 688, 689, 690, 691, 692, 693, 694, 695, 696, 697, 698, 699, 700, 701, 702, 703, 704, 705, 706, 707, 708, 709, 710, 711, 712, 713, 714, 715, 716, 717, 718, 719, 720, 721, 722, 723, 724, 725, 726, 727, 728, 729, 730, 731, 732, 733, 734, 735, 736, 737, 738, 739, 740, 741, 742, 743, 744, 745, 746, 747, 748, 749, 750, 751, 752, 753, 754, 755, 756, 757, 758, 759, 760, 761, 762, 763, 764, 765, 766, 767, 768, 769, 770, 771, 772, 773, 774, 775, 776, 777, 778, 779, 780, 781, 782, 783, 784, 785, 786, 787, 788, 789, 790, 791, 792, 793, 794, 795, 796, 797, 798, 799, 800, 801, 802, 803, 804, 805, 806, 807, 808, 809, 810, 811, 812, 813, 814, 815, 816, 817, 818, 819, 820, 821, 822, 823, 824, 825, 826, 827, 828, 829, 830, 831, 832, 833, 834, 835, 836, 837, 838, 839, 840, 841, 842, 843, 844, 845, 846, 847, 848, 849, 850, 851, 852, 853, 854, 855, 856, 857, 858, 859, 860, 861, 862, 863, 864, 865, 866, 867, 868, 869, 870, 871, 872, 873, 874, 875, 876, 877, 878, 879, 880, 881, 882, 883, 884, 885, 886, 887, 888, 889, 890, 891, 892, 893, 894, 895, 896, 897, 898, 899, 900, 901, 902, 903, 904, 905, 906, 907, 908, 909, 910, 911, 912, 913, 914, 915, 916, 917, 918, 919, 920, 921, 922, 923, 924, 925, 926, 927, 928, 929, 930, 931, 932, 933, 934, 935, 936, 937, 938, 939, 940, 941, 942, 943, 944, 945, 946, 947, 948, 949, 950, 951, 952, 953, 954, 955, 956, 957, 958, 959, 960, 961, 962, 963, 964, 965, 966, 967, 968, 969, 970, 971, 972, 973, 974, 975, 976, 977, 978, 979, 980, 981, 982, 983, 984, 985, 986, 987, 988, 989, 990, 991, 992, 993, 994, 995, 996, 997, 998, 999, 1000, 1001, 1002, 1003, 1004, 1005, 1006, 1007, 1008, 1009, 1010, 1011, 1012, 1013, 1014, 1015, 1016],
      "AcquisitionTime": ["161715.050000", "161715.510000", "161715.970000", "161716.430000", "161716.890000", "161717.350000", "161717.810000", "161718.270000", "161718.730000", "161719.190000", "161719.650000", "161720.110000", "161720.570000", "161721.030000", "161721.490000", "161721.950000", "161722.410000", "161722.870000", "161723.330000", "161723.790000", "161724.250000", "161724.710000", "161725.170000", "161725.630000", "161726.090000", "161726.550000", "161727.010000", "161727.470000", "161727.930000", "161728.390000", "161728.850000", "161729.310000", "161729.770000", "161730.230000", "161730.690000", "161731.150000", "161731.610000", "161732.070000", "161732.530000", "161732.990000", "161733.450000", "161733.910000", "161734.370000", "161734.830000", "161735.290000", "161735.750000", "161736.210000", "161736.670000", "161737.130000", "161737.590000", "161738.050000", "161738.510000", "161738.970000", "161739.430000", "161739.890000", "161740.350000", "161740.810000", "161741.270000", "161741.730000", "161742.190000", "161742.650000", "161743.110000", "161743.570000", "161744.030000", "161744.490000", "161744.950000", "161745.410000", "161745.870000", "161746.330000", "161746.790000", "161747.250000", "161747.710000", "161748.170000", "161748.630000", "161749.090000", "161749.550000", "161750.010000", "161750.470000", "161750.930000", "161751.390000", "161751.850000", "161752.310000", "161752.770000", "161753.230000", "161753.690000", "161754.150000", "161754.610000", "161755.070000", "161755.530000", "161755.990000", "161756.450000", "161756.910000", "161757.370000", "161757.830000", "161758.290000", "161758.750000", "161759.210000", "161759.670000", "161800.130000", "161800.590000", "161801.050000", "161801.510000", "161801.970000", "161802.430000", "161802.890000", "161803.350000", "161803.810000", "161804.270000", "161804.730000", "161805.190000", "161805.650000", "161806.110000", "161806.570000", "161807.030000", "161807.490000", "161807.950000", "161808.410000", "161808.870000", "161809.330000", "161809.790000", "161810.250000", "161810.710000", "161811.170000", "161811.630000", "161812.090000", "161812.550000", "161813.010000", "161813.470000", "161813.930000", "161814.390000", "161814.850000", "161815.310000", "161815.770000", "161816.230000", "161816.690000", "161817.150000", "161817.610000", "161818.070000", "161818.530000", "161818.990000", "161819.450000", "161819.910000", "161820.370000", "161820.830000", "161821.290000", "161821.750000", "161822.210000", "161822.670000", "161823.130000", "161823.590000", "161824.050000", "161824.510000", "161824.970000", "161825.430000", "161825.890000", "161826.350000", "161826.810000", "161827.270000", "161827.730000", "161828.190000", "161828.650000", "161829.110000", "161829.570000", "161830.030000", "161830.490000", "161830.950000", "161831.410000", "161831.870000", "161832.330000", "161832.790000", "161833.250000", "161833.710000", "161834.170000", "161834.630000", "161835.090000", "161835.550000", "161836.010000", "161836.470000", "161836.930000", "161837.390000", "161837.850000", "161838.310000", "161838.770000", "161839.230000", "161839.690000", "161840.150000", "161840.610000", "161841.070000", "161841.530000", "161841.990000", "161842.450000", "161842.910000", "161843.370000", "161843.830000", "161844.290000", "161844.750000", "161845.210000", "161845.670000", "161846.130000", "161846.590000", "161847.050000", "161847.510000", "161847.970000", "161848.430000", "161848.890000", "161849.350000", "161849.810000", "161850.270000", "161850.730000", "161851.190000", "161851.650000", "161852.110000", "161852.570000", "161853.030000", "161853.490000", "161853.950000", "161854.410000", "161854.870000", "161855.330000", "161855.790000", "161856.250000", "161856.710000", "161857.170000", "161857.630000", "161858.090000", "161858.550000", "161859.010000", "161859.470000", "161859.930000", "161900.390000", "161900.850000", "161901.310000", "161901.770000", "161902.230000", "161902.690000", "161903.150000", "161903.610000", "161904.070000", "161904.530000", "161904.990000", "161905.450000", "161905.910000", "161906.370000", "161906.830000", "161907.290000", "161907.750000", "161908.210000", "161908.670000", "161909.130000", "161909.590000", "161910.050000", "161910.510000", "161910.970000", "161911.430000", "161911.890000", "161912.350000", "161912.810000", "161913.270000", "161913.730000", "161914.190000", "161914.650000", "161915.110000", "161915.570000", "161916.030000", "161916.490000", "161916.950000", "161917.410000", "161917.870000", "161918.330000", "161918.790000", "161919.250000", "161919.710000", "161920.170000", "161920.630000", "161921.090000", "161921.550000", "161922.010000", "161922.470000", "161922.930000", "161923.390000", "161923.850000", "161924.310000", "161924.770000", "161925.230000", "161925.690000", "161926.150000", "161926.610000", "161927.070000", "161927.530000", "161927.990000", "161928.450000", "161928.910000", "161929.370000", "161929.830000", "161930.290000", "161930.750000", "161931.210000", "161931.670000", "161932.130000", "161932.590000", "161933.050000", "161933.510000", "161933.970000", "161934.430000", "161934.890000", "161935.350000", "161935.810000", "161936.270000", "161936.730000", "161937.190000", "161937.650000", "161938.110000", "161938.570000", "161939.030000", "161939.490000", "161939.950000", "161940.410000", "161940.870000", "161941.330000", "161941.790000", "161942.250000", "161942.710000", "161943.170000", "161943.630000", "161944.090000", "161944.550000", "161945.010000", "161945.470000", "161945.930000", "161946.390000", "161946.850000", "161947.310000", "161947.770000", "161948.230000", "161948.690000", "161949.150000", "161949.610000", "161950.070000", "161950.530000", "161950.990000", "161951.450000", "161951.910000", "161952.370000", "161952.830000", "161953.290000", "161953.750000", "161954.210000", "161954.670000", "161955.130000", "161955.590000", "161956.050000", "161956.510000", "161956.970000", "161957.430000", "161957.890000", "161958.350000", "161958.810000", "161959.270000", "161959.730000", "162000.190000", "162000.650000", "162001.110000", "162001.570000", "162002.030000", "162002.490000", "162002.950000", "162003.410000", "162003.870000", "162004.330000", "162004.790000", "162005.250000", "162005.710000", "162006.170000", "162006.630000", "162007.090000", "162007.550000", "162008.010000", "162008.470000", "162008.930000", "162009.390000", "162009.850000", "162010.310000", "162010.770000", "162011.230000", "162011.690000", "162012.150000", "162012.610000", "162013.070000", "162013.530000", "162013.990000", "162014.450000", "162014.910000", "162015.370000", "162015.830000", "162016.290000", "162016.750000", "162017.210000", "162017.670000", "162018.130000", "162018.590000", "162019.050000", "162019.510000", "162019.970000", "162020.430000", "162020.890000", "162021.350000", "162021.810000", "162022.270000", "162022.730000", "162023.190000", "162023.650000", "162024.110000", "162024.570000", "162025.030000", "162025.490000", "162025.950000", "162026.410000", "162026.870000", "162027.330000", "162027.790000", "162028.250000", "162028.710000", "162029.170000", "162029.630000", "162030.090000", "162030.550000", "162031.010000", "162031.470000", "162031.930000", "162032.390000", "162032.850000", "162033.310000", "162033.770000", "162034.230000", "162034.690000", "162035.150000", "162035.610000", "162036.070000", "162036.530000", "162036.990000", "162037.450000", "162037.910000", "162038.370000", "162038.830000", "162039.290000", "162039.750000", "162040.210000", "162040.670000", "162041.130000", "162041.590000", "162042.050000", "162042.510000", "162042.970000", "162043.430000", "162043.890000", "162044.350000", "162044.810000", "162045.270000", "162045.730000", "162046.190000", "162046.650000", "162047.110000", "162047.570000", "162048.030000", "162048.490000", "162048.950000", "162049.410000", "162049.870000", "162050.330000", "162050.790000", "162051.250000", "162051.710000", "162052.170000", "162052.630000", "162053.090000", "162053.550000", "162054.010000", "162054.470000", "162054.930000", "162055.390000", "162055.850000", "162056.310000", "162056.770000", "162057.230000", "162057.690000", "162058.150000", "162058.610000", "162059.070000", "162059.530000", "162059.990000", "162100.450000", "162100.910000", "162101.370000", "162101.830000", "162102.290000", "162102.750000", "162103.210000", "162103.670000", "162104.130000", "162104.590000", "162105.050000", "162105.510000", "162105.970000", "162106.430000", "162106.890000", "162107.350000", "162107.810000", "162108.270000", "162108.730000", "162109.190000", "162109.650000", "162110.110000", "162110.570000", "162111.030000", "162111.490000", "162111.950000", "162112.410000", "162112.870000", "162113.330000", "162113.790000", "162114.250000", "162114.710000", "162115.170000", "162115.630000", "162116.090000", "162116.550000", "162117.010000", "162117.470000", "162117.930000", "162118.390000", "162118.850000", "162119.310000", "162119.770000", "162120.230000", "162120.690000", "162121.150000", "162121.610000", "162122.070000", "162122.530000", "162122.990000", "162123.450000", "162123.910000", "162124.370000", "162124.830000", "162125.290000", "162125.750000", "162126.210000", "162126.670000", "162127.130000", "162127.590000", "162128.050000", "162128.510000", "162128.970000", "162129.430000", "162129.890000", "162130.350000", "162130.810000", "162131.270000", "162131.730000", "162132.190000", "162132.650000", "162133.110000", "162133.570000", "162134.030000", "162134.490000", "162134.950000", "162135.410000", "162135.870000", "162136.330000", "162136.790000", "162137.250000", "162137.710000", "162138.170000", "162138.630000", "162139.090000", "162139.550000", "162140.010000", "162140.470000", "162140.930000", "162141.390000", "162141.850000", "162142.310000", "162142.770000", "162143.230000", "162143.690000", "162144.150000", "162144.610000", "162145.070000", "162145.530000", "162145.990000", "162146.450000", "162146.910000", "162147.370000", "162147.830000", "162148.290000", "162148.750000", "162149.210000", "162149.670000", "162150.130000", "162150.590000", "162151.050000", "162151.510000", "162151.970000", "162152.430000", "162152.890000", "162153.350000", "162153.810000", "162154.270000", "162154.730000", "162155.190000", "162155.650000", "162156.110000", "162156.570000", "162157.030000", "162157.490000", "162157.950000", "162158.410000", "162158.870000", "162159.330000", "162159.790000", "162200.250000", "162200.710000", "162201.170000", "162201.630000", "162202.090000", "162202.550000", "162203.010000", "162203.470000", "162203.930000", "162204.390000", "162204.850000", "162205.310000", "162205.770000", "162206.230000", "162206.690000", "162207.150000", "162207.610000", "162208.070000", "162208.530000", "162208.990000", "162209.450000", "162209.910000", "162210.370000", "162210.830000", "162211.290000", "162211.750000", "162212.210000", "162212.670000", "162213.130000", "162213.590000", "162214.050000", "162214.510000", "162214.970000", "162215.430000", "162215.890000", "162216.350000", "162216.810000", "162217.270000", "162217.730000", "162218.190000", "162218.650000", "162219.110000", "162219.570000", "162220.030000", "162220.490000", "162220.950000", "162221.410000", "162221.870000", "162222.330000", "162222.790000", "162223.250000", "162223.710000", "162224.170000", "162224.630000", "162225.090000", "162225.550000", "162226.010000", "162226.470000", "162226.930000", "162227.390000", "162227.850000", "162228.310000", "162228.770000", "162229.230000", "162229.690000", "162230.150000", "162230.610000", "162231.070000", "162231.530000", "162231.990000", "162232.450000", "162232.910000", "162233.370000", "162233.830000", "162234.290000", "162234.750000", "162235.210000", "162235.670000", "162236.130000", "162236.590000", "162237.050000", "162237.510000", "162237.970000", "162238.430000", "162238.890000", "162239.350000", "162239.810000", "162240.270000", "162240.730000", "162241.190000", "162241.650000", "162242.110000", "162242.570000", "162243.030000", "162243.490000", "162243.950000", "162244.410000", "162244.870000", "162245.330000", "162245.790000", "162246.250000", "162246.710000", "162247.170000", "162247.630000", "162248.090000", "162248.550000", "162249.010000", "162249.470000", "162249.930000", "162250.390000", "162250.850000", "162251.310000", "162251.770000", "162252.230000", "162252.690000", "162253.150000", "162253.610000", "162254.070000", "162254.530000", "162254.990000", "162255.450000", "162255.910000", "162256.370000", "162256.830000", "162257.290000", "162257.750000", "162258.210000", "162258.670000", "162259.130000", "162259.590000", "162300.050000", "162300.510000", "162300.970000", "162301.430000", "162301.890000", "162302.350000", "162302.810000", "162303.270000", "162303.730000", "162304.190000", "162304.650000", "162305.110000", "162305.570000", "162306.030000", "162306.490000", "162306.950000", "162307.410000", "162307.870000", "162308.330000", "162308.790000", "162309.250000", "162309.710000", "162310.170000", "162310.630000", "162311.090000", "162311.550000", "162312.010000", "162312.470000", "162312.930000", "162313.390000", "162313.850000", "162314.310000", "162314.770000", "162315.230000", "162315.690000", "162316.150000", "162316.610000", "162317.070000", "162317.530000", "162317.990000", "162318.450000", "162318.910000", "162319.370000", "162319.830000", "162320.290000", "162320.750000", "162321.210000", "162321.670000", "162322.130000", "162322.590000", "162323.050000", "162323.510000", "162323.970000", "162324.430000", "162324.890000", "162325.350000", "162325.810000", "162326.270000", "162326.730000", "162327.190000", "162327.650000", "162328.110000", "162328.570000", "162329.030000", "162329.490000", "162329.950000", "162330.410000", "162330.870000", "162331.330000", "162331.790000", "162332.250000", "162332.710000", "162333.170000", "162333.630000", "162334.090000", "162334.550000", "162335.010000", "162335.470000", "162335.930000", "162336.390000", "162336.850000", "162337.310000", "162337.770000", "162338.230000", "162338.690000", "162339.150000", "162339.610000", "162340.070000", "162340.530000", "162340.990000", "162341.450000", "162341.910000", "162342.370000", "162342.830000", "162343.290000", "162343.750000", "162344.210000", "162344.670000", "162345.130000", "162345.590000", "162346.050000", "162346.510000", "162346.970000", "162347.430000", "162347.890000", "162348.350000", "162348.810000", "162349.270000", "162349.730000", "162350.190000", "162350.650000", "162351.110000", "162351.570000", "162352.030000", "162352.490000", "162352.950000", "162353.410000", "162353.870000", "162354.330000", "162354.790000", "162355.250000", "162355.710000", "162356.170000", "162356.630000", "162357.090000", "162357.550000", "162358.010000", "162358.470000", "162358.930000", "162359.390000", "162359.850000", "162400.310000", "162400.770000", "162401.230000", "162401.690000", "162402.150000", "162402.610000", "162403.070000", "162403.530000", "162403.990000", "162404.450000", "162404.910000", "162405.370000", "162405.830000", "162406.290000", "162406.750000", "162407.210000", "162407.670000", "162408.130000", "162408.590000", "162409.050000", "162409.510000", "162409.970000", "162410.430000", "162410.890000", "162411.350000", "162411.810000", "162412.270000", "162412.730000", "162413.190000", "162413.650000", "162414.110000", "162414.570000", "162415.030000", "162415.490000", "162415.950000", "162416.410000", "162416.870000", "162417.330000", "162417.790000", "162418.250000", "162418.710000", "162419.170000", "162419.630000", "162420.090000", "162420.550000", "162421.010000", "162421.470000", "162421.930000", "162422.390000", "162422.850000", "162423.310000", "162423.770000", "162424.230000", "162424.690000", "162425.150000", "162425.610000", "162426.070000", "162426.530000", "162426.990000", "162427.450000", "162427.910000", "162428.370000", "162428.830000", "162429.290000", "162429.750000", "162430.210000", "162430.670000", "162431.130000", "162431.590000", "162432.050000", "162432.510000", "162432.970000", "162433.430000", "162433.890000", "162434.350000", "162434.810000", "162435.270000", "162435.730000", "162436.190000", "162436.650000", "162437.110000", "162437.570000", "162438.030000", "162438.490000", "162438.950000", "162439.410000", "162439.870000", "162440.330000", "162440.790000", "162441.250000", "162441.710000", "162442.170000", "162442.630000", "162443.090000", "162443.550000", "162444.010000", "162444.470000", "162444.930000", "162445.390000", "162445.850000", "162446.310000", "162446.770000", "162447.230000", "162447.690000", "162448.150000", "162448.610000", "162449.070000", "162449.530000", "162449.990000", "162450.450000", "162450.910000", "162451.370000", "162451.830000", "162452.290000", "162452.750000", "162453.210000", "162453.670000", "162454.130000", "162454.590000", "162455.050000", "162455.510000", "162455.970000", "162456.430000", "162456.890000", "162457.350000", "162457.810000", "162458.270000", "162458.730000", "162459.190000", "162459.650000", "162500.110000", "162500.570000", "162501.030000", "162501.490000", "162501.950000"],
