{
  "AcquisitionMatrixPE": 82,
  "AcquisitionNumber": 1,
  "AcquisitionTime": "16:58:2.140000",
  "BandwidthPerPixelPhaseEncode": 24.888,
  "BaseResolution": 82,
  "BodyPartExamined": "BRAIN",
  "ConsistencyInfo": "N4_VE11E_LATEST_20181129",
  "ConversionSoftware": "dcm2niix",
  "ConversionSoftwareVersion": "v1.0.20201102",
  "DerivedVendorReportedEchoSpacing": 0.00049,
  "DeviceSerialNumber": "66112",
  "DwellTime": 2e-06,
  "EchoTime": 0.0272,
  "EchoTrainLength": 82,
  "EffectiveEchoSpacing": 0.00049,
  "FlipAngle": 44,
  "ImageComments": "Unaliased MB8/PE3",
  "ImageOrientationPatientDICOM": [0.997864, 0.0438205, 0.0484414, -0.0374621, 0.991429, -0.125159],
  "ImageType": [
    "ORIGINAL",
    "PRIMARY",
    "M",
    "MB",
    "ND",
    "NORM",
    "MOSAIC"
],
  "ImagingFrequency": 123.259,
  "InPlanePhaseEncodingDirectionDICOM": "COL",
  "InstitutionAddress": "Maynard 3,Hanover,NH,US,03755",
  "InstitutionName": "Dartmouth College - PBS",
  "InstitutionalDepartmentName": "Department",
  "MRAcquisitionType": "2D",
  "MagneticFieldStrength": 3,
  "Manufacturer": "Siemens",
  "ManufacturersModelName": "Prisma",
  "Modality": "MR",
  "MultibandAccelerationFactor": 8,
  "PartialFourier": 1,
  "PatientPosition": "HFS",
  "PercentPhaseFOV": 100,
  "PercentSampling": 100,
  "PhaseEncodingDirection": "j-",
  "PhaseEncodingSteps": 82,
  "PhaseResolution": 1,
  "PixelBandwidth": 3050,
  "ProcedureStepDescription": "Wager_Wager^1076_spacetop",
  "ProtocolName": "func_run-06_task-social_acq-ap-mb8",
  "PulseSequenceDetails": "%CustomerSeq%\\cmrr_mbep2d_bold",
  "ReceiveCoilActiveElements": "HEA;HEP",
  "ReceiveCoilName": "Head_32",
  "ReconMatrixPE": 82,
  "RepetitionTime": 0.46,
  "SAR": 0.125183,
  "ScanOptions": "FS",
  "ScanningSequence": "EP",
  "SequenceName": "epfid2d1_82",
  "SequenceVariant": "SK\\SS",
  "SeriesDescription": "func_run-06_task-social_acq-ap-mb8",
  "SeriesNumber": 18,
  "ShimSetting": [4244, -7752, -7229, 4, -164, -105, -47, 53],
  "SliceThickness": 2.7,
  "SliceTiming": [0, 0.25, 0.0625, 0.3125, 0.125, 0.375, 0.1875, 0, 0.25, 0.0625, 0.3125, 0.125, 0.375, 0.1875, 0, 0.25, 0.0625, 0.3125, 0.125, 0.375, 0.1875, 0, 0.25, 0.0625, 0.3125, 0.125, 0.375, 0.1875, 0, 0.25, 0.0625, 0.3125, 0.125, 0.375, 0.1875, 0, 0.25, 0.0625, 0.3125, 0.125, 0.375, 0.1875, 0, 0.25, 0.0625, 0.3125, 0.125, 0.375, 0.1875, 0, 0.25, 0.0625, 0.3125, 0.125, 0.375, 0.1875],
  "SoftwareVersions": "syngo MR E11",
  "SpacingBetweenSlices": 2.7,
  "StationName": "AWP66112",
  "TaskName": "social",
  "TotalReadoutTime": 0.03969,
  "TxRefAmp": 313.619,
  "WipMemBlock": "1fdb1a35-dc50-4f05-b2db-799476b23e17||Sequence: R016 ve11e/master r/434b28f1; Aug  7 2019 18:53:46 by eja",
  "dcmmeta_affine": [
    [-2.677196979522705, -0.10050800442695618, 0.14447888731956482, 112.00318145751953],
    [-0.11756720393896103, 2.6599321365356445, -0.33230727910995483, -83.87351989746094],
    [0.12996463477611542, 0.33579185605049133, 2.67557430267334, -111.34806823730469],
    [0.0, 0.0, 0.0, 1.0]
],
  "dcmmeta_reorient_transform": [
    [0.0, -1.0, 0.0, 81.0],
    [1.0, 0.0, 0.0, 0.0],
    [0.0, 0.0, 1.0, 0.0],
    [0.0, 0.0, 0.0, 1.0]
],
  "dcmmeta_shape": [82, 82, 56, 872],
  "dcmmeta_slice_dim": 2,
  "dcmmeta_version": 0.6,
  "global": {
    "const": {
      "AccessionNumber": "A004340",
      "AcquisitionMatrix": [82, 0, 0, 82],
      "AngioFlag": "N",
      "BitsAllocated": 16,
      "BitsStored": 16,
      "BodyPartExamined": "BRAIN",
      "Columns": 656,
      "EchoNumbers": 1,
      "EchoTime": 27.2,
      "EchoTrainLength": 82,
      "FlipAngle": 44.0,
      "HighBit": 15,
      "ImageOrientationPatient": [0.99786431841268, 0.04382050349829, 0.04844136158228, -0.037462072145, 0.99142920666616, -0.1251587844296],
      "ImagePositionPatient": [-843.37177960145, -928.72327694954, -25.076511133362],
      "ImageType": [
        "ORIGINAL",
        "PRIMARY",
        "M",
        "MB",
        "ND",
        "NORM",
        "MOSAIC"
],
      "ImagedNucleus": "1H",
      "ImagingFrequency": 123.259139,
      "InPlanePhaseEncodingDirection": "COL",
      "MRAcquisitionType": "2D",
      "MagneticFieldStrength": 3.0,
      "Manufacturer": "SIEMENS",
      "ManufacturerModelName": "Prisma",
      "Modality": "MR",
      "NumberOfAverages": 1.0,
      "NumberOfPhaseEncodingSteps": 82,
      "PercentPhaseFieldOfView": 100.0,
      "PercentSampling": 100.0,
      "PerformedProcedureStepStartTime": "160510.737000",
      "PhotometricInterpretation": "MONOCHROME2",
      "PixelBandwidth": 3050.0,
      "PixelRepresentation": 0,
      "PixelSpacing": [2.6829268932343, 2.6829268932343],
      "ProtocolName": "func_run-06_task-social_acq-ap-mb8",
      "RepetitionTime": 460.0,
      "Rows": 656,
      "SAR": 0.12518291324938,
      "SamplesPerPixel": 1,
      "ScanOptions": "FS",
      "ScanningSequence": "EP",
      "SequenceName": "epfid2d1_82",
      "SequenceVariant": [
        "SK",
        "SS"
],
      "SeriesDescription": "func_run-06_task-social_acq-ap-mb8",
      "SeriesNumber": 18,
      "SeriesTime": "165817.729000",
      "SliceLocation": -94.024501607589,
      "SliceThickness": 2.7000000476837,
      "SmallestImagePixelValue": 0,
      "SoftwareVersions": "syngo MR E11",
      "SpacingBetweenSlices": 2.6999999403963,
      "SpecificCharacterSet": "ISO_IR 100",
      "StudyID": "3",
      "StudyTime": "160510.685000",
      "TransmitCoilName": "Body",
      "VariableFlipAngleFlag": "N",
      "WindowCenterWidthExplanation": "Algo1"
    },
    "slices": {}
  },
  "time": {
    "samples": {
      "AcquisitionNumber": [1, 2, 3, 4, 5, 6, 7, 8, 9, 10, 11, 12, 13, 14, 15, 16, 17, 18, 19, 20, 21, 22, 23, 24, 25, 26, 27, 28, 29, 30, 31, 32, 33, 34, 35, 36, 37, 38, 39, 40, 41, 42, 43, 44, 45, 46, 47, 48, 49, 50, 51, 52, 53, 54, 55, 56, 57, 58, 59, 60, 61, 62, 63, 64, 65, 66, 67, 68, 69, 70, 71, 72, 73, 74, 75, 76, 77, 78, 79, 80, 81, 82, 83, 84, 85, 86, 87, 88, 89, 90, 91, 92, 93, 94, 95, 96, 97, 98, 99, 100, 101, 102, 103, 104, 105, 106, 107, 108, 109, 110, 111, 112, 113, 114, 115, 116, 117, 118, 119, 120, 121, 122, 123, 124, 125, 126, 127, 128, 129, 130, 131, 132, 133, 134, 135, 136, 137, 138, 139, 140, 141, 142, 143, 144, 145, 146, 147, 148, 149, 150, 151, 152, 153, 154, 155, 156, 157, 158, 159, 160, 161, 162, 163, 164, 165, 166, 167, 168, 169, 170, 171, 172, 173, 174, 175, 176, 177, 178, 179, 180, 181, 182, 183, 184, 185, 186, 187, 188, 189, 190, 191, 192, 193, 194, 195, 196, 197, 198, 199, 200, 201, 202, 203, 204, 205, 206, 207, 208, 209, 210, 211, 212, 213, 214, 215, 216, 217, 218, 219, 220, 221, 222, 223, 224, 225, 226, 227, 228, 229, 230, 231, 232, 233, 234, 235, 236, 237, 238, 239, 240, 241, 242, 243, 244, 245, 246, 247, 248, 249, 250, 251, 252, 253, 254, 255, 256, 257, 258, 259, 260, 261, 262, 263, 264, 265, 266, 267, 268, 269, 270, 271, 272, 273, 274, 275, 276, 277, 278, 279, 280, 281, 282, 283, 284, 285, 286, 287, 288, 289, 290, 291, 292, 293, 294, 295, 296, 297, 298, 299, 300, 301, 302, 303, 304, 305, 306, 307, 308, 309, 310, 311, 312, 313, 314, 315, 316, 317, 318, 319, 320, 321, 322, 323, 324, 325, 326, 327, 328, 329, 330, 331, 332, 333, 334, 335, 336, 337, 338, 339, 340, 341, 342, 343, 344, 345, 346, 347, 348, 349, 350, 351, 352, 353, 354, 355, 356, 357, 358, 359, 360, 361, 362, 363, 364, 365, 366, 367, 368, 369, 370, 371, 372, 373, 374, 375, 376, 377, 378, 379, 380, 381, 382, 383, 384, 385, 386, 387, 388, 389, 390, 391, 392, 393, 394, 395, 396, 397, 398, 399, 400, 401, 402, 403, 404, 405, 406, 407, 408, 409, 410, 411, 412, 413, 414, 415, 416, 417, 418, 419, 420, 421, 422, 423, 424, 425, 426, 427, 428, 429, 430, 431, 432, 433, 434, 435, 436, 437, 438, 439, 440, 441, 442, 443, 444, 445, 446, 447, 448, 449, 450, 451, 452, 453, 454, 455, 456, 457, 458, 459, 460, 461, 462, 463, 464, 465, 466, 467, 468, 469, 470, 471, 472, 473, 474, 475, 476, 477, 478, 479, 480, 481, 482, 483, 484, 485, 486, 487, 488, 489, 490, 491, 492, 493, 494, 495, 496, 497, 498, 499, 500, 501, 502, 503, 504, 505, 506, 507, 508, 509, 510, 511, 512, 513, 514, 515, 516, 517, 518, 519, 520, 521, 522, 523, 524, 525, 526, 527, 528, 529, 530, 531, 532, 533, 534, 535, 536, 537, 538, 539, 540, 541, 542, 543, 544, 545, 546, 547, 548, 549, 550, 551, 552, 553, 554, 555, 556, 557, 558, 559, 560, 561, 562, 563, 564, 565, 566, 567, 568, 569, 570, 571, 572, 573, 574, 575, 576, 577, 578, 579, 580, 581, 582, 583, 584, 585, 586, 587, 588, 589, 590, 591, 592, 593, 594, 595, 596, 597, 598, 599, 600, 601, 602, 603, 604, 605, 606, 607, 608, 609, 610, 611, 612, 613, 614, 615, 616, 617, 618, 619, 620, 621, 622, 623, 624, 625, 626, 627, 628, 629, 630, 631, 632, 633, 634, 635, 636, 637, 638, 639, 640, 641, 642, 643, 644, 645, 646, 647, 648, 649, 650, 651, 652, 653, 654, 655, 656, 657, 658, 659, 660, 661, 662, 663, 664, 665, 666, 667, 668, 669, 670, 671, 672, 673, 674, 675, 676, 677, 678, 679, 680, 681, 682, 683, 684, 685, 686, 687, 688, 689, 690, 691, 692, 693, 694, 695, 696, 697, 698, 699, 700, 701, 702, 703, 704, 705, 706, 707, 708, 709, 710, 711, 712, 713, 714, 715, 716, 717, 718, 719, 720, 721, 722, 723, 724, 725, 726, 727, 728, 729, 730, 731, 732, 733, 734, 735, 736, 737, 738, 739, 740, 741, 742, 743, 744, 745, 746, 747, 748, 749, 750, 751, 752, 753, 754, 755, 756, 757, 758, 759, 760, 761, 762, 763, 764, 765, 766, 767, 768, 769, 770, 771, 772, 773, 774, 775, 776, 777, 778, 779, 780, 781, 782, 783, 784, 785, 786, 787, 788, 789, 790, 791, 792, 793, 794, 795, 796, 797, 798, 799, 800, 801, 802, 803, 804, 805, 806, 807, 808, 809, 810, 811, 812, 813, 814, 815, 816, 817, 818, 819, 820, 821, 822, 823, 824, 825, 826, 827, 828, 829, 830, 831, 832, 833, 834, 835, 836, 837, 838, 839, 840, 841, 842, 843, 844, 845, 846, 847, 848, 849, 850, 851, 852, 853, 854, 855, 856, 857, 858, 859, 860, 861, 862, 863, 864, 865, 866, 867, 868, 869, 870, 871, 872],
      "AcquisitionTime": ["165802.140000", "165802.600000", "165803.060000", "165803.520000", "165803.980000", "165804.440000", "165804.900000", "165805.360000", "165805.820000", "165806.280000", "165806.740000", "165807.200000", "165807.660000", "165808.120000", "165808.580000", "165809.040000", "165809.500000", "165809.960000", "165810.420000", "165810.880000", "165811.340000", "165811.800000", "165812.260000", "165812.720000", "165813.180000", "165813.640000", "165814.100000", "165814.560000", "165815.020000", "165815.480000", "165815.940000", "165816.400000", "165816.860000", "165817.320000", "165817.780000", "165818.240000", "165818.700000", "165819.160000", "165819.620000", "165820.080000", "165820.540000", "165821.000000", "165821.460000", "165821.920000", "165822.380000", "165822.840000", "165823.300000", "165823.760000", "165824.220000", "165824.680000", "165825.140000", "165825.600000", "165826.060000", "165826.520000", "165826.980000", "165827.440000", "165827.900000", "165828.360000", "165828.820000", "165829.280000", "165829.740000", "165830.200000", "165830.660000", "165831.120000", "165831.580000", "165832.040000", "165832.500000", "165832.960000", "165833.420000", "165833.880000", "165834.340000", "165834.800000", "165835.260000", "165835.720000", "165836.180000", "165836.640000", "165837.100000", "165837.560000", "165838.020000", "165838.480000", "165838.940000", "165839.400000", "165839.860000", "165840.320000", "165840.780000", "165841.240000", "165841.700000", "165842.160000", "165842.620000", "165843.080000", "165843.540000", "165844.000000", "165844.460000", "165844.920000", "165845.380000", "165845.840000", "165846.300000", "165846.760000", "165847.220000", "165847.680000", "165848.140000", "165848.600000", "165849.060000", "165849.520000", "165849.980000", "165850.440000", "165850.900000", "165851.360000", "165851.820000", "165852.280000", "165852.740000", "165853.200000", "165853.660000", "165854.120000", "165854.580000", "165855.040000", "165855.500000", "165855.960000", "165856.420000", "165856.880000", "165857.340000", "165857.800000", "165858.260000", "165858.720000", "165859.180000", "165859.640000", "165900.100000", "165900.560000", "165901.020000", "165901.480000", "165901.940000", "165902.400000", "165902.860000", "165903.320000", "165903.780000", "165904.240000", "165904.700000", "165905.160000", "165905.620000", "165906.080000", "165906.540000", "165907.000000", "165907.460000", "165907.920000", "165908.380000", "165908.840000", "165909.300000", "165909.760000", "165910.220000", "165910.680000", "165911.140000", "165911.600000", "165912.060000", "165912.520000", "165912.980000", "165913.440000", "165913.900000", "165914.360000", "165914.820000", "165915.280000", "165915.740000", "165916.200000", "165916.660000", "165917.120000", "165917.580000", "165918.040000", "165918.500000", "165918.960000", "165919.420000", "165919.880000", "165920.340000", "165920.800000", "165921.260000", "165921.720000", "165922.180000", "165922.640000", "165923.100000", "165923.560000", "165924.020000", "165924.480000", "165924.940000", "165925.400000", "165925.860000", "165926.320000", "165926.780000", "165927.240000", "165927.700000", "165928.160000", "165928.620000", "165929.080000", "165929.540000", "165930.000000", "165930.460000", "165930.920000", "165931.380000", "165931.840000", "165932.300000", "165932.760000", "165933.220000", "165933.680000", "165934.140000", "165934.600000", "165935.060000", "165935.520000", "165935.980000", "165936.440000", "165936.900000", "165937.360000", "165937.820000", "165938.280000", "165938.740000", "165939.200000", "165939.660000", "165940.120000", "165940.580000", "165941.040000", "165941.500000", "165941.960000", "165942.420000", "165942.880000", "165943.340000", "165943.800000", "165944.260000", "165944.720000", "165945.180000", "165945.640000", "165946.100000", "165946.560000", "165947.020000", "165947.480000", "165947.940000", "165948.400000", "165948.860000", "165949.320000", "165949.780000", "165950.240000", "165950.700000", "165951.160000", "165951.620000", "165952.080000", "165952.540000", "165953.000000", "165953.460000", "165953.920000", "165954.380000", "165954.840000", "165955.300000", "165955.760000", "165956.220000", "165956.680000", "165957.140000", "165957.600000", "165958.060000", "165958.520000", "165958.980000", "165959.440000", "165959.900000", "170000.360000", "170000.820000", "170001.280000", "170001.740000", "170002.200000", "170002.660000", "170003.120000", "170003.580000", "170004.040000", "170004.500000", "170004.960000", "170005.420000", "170005.880000", "170006.340000", "170006.800000", "170007.260000", "170007.720000", "170008.180000", "170008.640000", "170009.100000", "170009.560000", "170010.020000", "170010.480000", "170010.940000", "170011.400000", "170011.860000", "170012.320000", "170012.780000", "170013.240000", "170013.700000", "170014.160000", "170014.620000", "170015.080000", "170015.540000", "170016.000000", "170016.460000", "170016.920000", "170017.380000", "170017.840000", "170018.300000", "170018.760000", "170019.220000", "170019.680000", "170020.140000", "170020.600000", "170021.060000", "170021.520000", "170021.980000", "170022.440000", "170022.900000", "170023.360000", "170023.820000", "170024.280000", "170024.740000", "170025.200000", "170025.660000", "170026.120000", "170026.580000", "170027.040000", "170027.500000", "170027.960000", "170028.420000", "170028.880000", "170029.340000", "170029.800000", "170030.260000", "170030.720000", "170031.180000", "170031.640000", "170032.100000", "170032.560000", "170033.020000", "170033.480000", "170033.940000", "170034.400000", "170034.860000", "170035.320000", "170035.780000", "170036.240000", "170036.700000", "170037.160000", "170037.620000", "170038.080000", "170038.540000", "170039.000000", "170039.460000", "170039.920000", "170040.380000", "170040.840000", "170041.300000", "170041.760000", "170042.220000", "170042.680000", "170043.140000", "170043.600000", "170044.060000", "170044.520000", "170044.980000", "170045.440000", "170045.900000", "170046.360000", "170046.820000", "170047.280000", "170047.740000", "170048.200000", "170048.660000", "170049.120000", "170049.580000", "170050.040000", "170050.500000", "170050.960000", "170051.420000", "170051.880000", "170052.340000", "170052.800000", "170053.260000", "170053.720000", "170054.180000", "170054.640000", "170055.100000", "170055.560000", "170056.020000", "170056.480000", "170056.940000", "170057.400000", "170057.860000", "170058.320000", "170058.780000", "170059.240000", "170059.700000", "170100.160000", "170100.620000", "170101.080000", "170101.540000", "170102.000000", "170102.460000", "170102.920000", "170103.380000", "170103.840000", "170104.300000", "170104.760000", "170105.220000", "170105.680000", "170106.140000", "170106.600000", "170107.060000", "170107.520000", "170107.980000", "170108.440000", "170108.900000", "170109.360000", "170109.820000", "170110.280000", "170110.740000", "170111.200000", "170111.660000", "170112.120000", "170112.580000", "170113.040000", "170113.500000", "170113.960000", "170114.420000", "170114.880000", "170115.340000", "170115.800000", "170116.260000", "170116.720000", "170117.180000", "170117.640000", "170118.100000", "170118.560000", "170119.020000", "170119.480000", "170119.940000", "170120.400000", "170120.860000", "170121.320000", "170121.780000", "170122.240000", "170122.700000", "170123.160000", "170123.620000", "170124.080000", "170124.540000", "170125.000000", "170125.460000", "170125.920000", "170126.380000", "170126.840000", "170127.300000", "170127.760000", "170128.220000", "170128.680000", "170129.140000", "170129.600000", "170130.060000", "170130.520000", "170130.980000", "170131.440000", "170131.900000", "170132.360000", "170132.820000", "170133.280000", "170133.740000", "170134.200000", "170134.660000", "170135.120000", "170135.580000", "170136.040000", "170136.500000", "170136.960000", "170137.420000", "170137.880000", "170138.340000", "170138.800000", "170139.260000", "170139.720000", "170140.180000", "170140.640000", "170141.100000", "170141.560000", "170142.020000", "170142.480000", "170142.940000", "170143.400000", "170143.860000", "170144.320000", "170144.780000", "170145.240000", "170145.700000", "170146.160000", "170146.620000", "170147.080000", "170147.540000", "170148.000000", "170148.460000", "170148.920000", "170149.380000", "170149.840000", "170150.300000", "170150.760000", "170151.220000", "170151.680000", "170152.140000", "170152.600000", "170153.060000", "170153.520000", "170153.980000", "170154.440000", "170154.900000", "170155.360000", "170155.820000", "170156.280000", "170156.740000", "170157.200000", "170157.660000", "170158.120000", "170158.580000", "170159.040000", "170159.500000", "170159.960000", "170200.420000", "170200.880000", "170201.340000", "170201.800000", "170202.260000", "170202.720000", "170203.180000", "170203.640000", "170204.100000", "170204.560000", "170205.020000", "170205.480000", "170205.940000", "170206.400000", "170206.860000", "170207.320000", "170207.780000", "170208.240000", "170208.700000", "170209.160000", "170209.620000", "170210.080000", "170210.540000", "170211.000000", "170211.460000", "170211.920000", "170212.380000", "170212.840000", "170213.300000", "170213.760000", "170214.220000", "170214.680000", "170215.140000", "170215.600000", "170216.060000", "170216.520000", "170216.980000", "170217.440000", "170217.900000", "170218.360000", "170218.820000", "170219.280000", "170219.740000", "170220.200000", "170220.660000", "170221.120000", "170221.580000", "170222.040000", "170222.500000", "170222.960000", "170223.420000", "170223.880000", "170224.340000", "170224.800000", "170225.260000", "170225.720000", "170226.180000", "170226.640000", "170227.100000", "170227.560000", "170228.020000", "170228.480000", "170228.940000", "170229.400000", "170229.860000", "170230.320000", "170230.780000", "170231.240000", "170231.700000", "170232.160000", "170232.620000", "170233.080000", "170233.540000", "170234.000000", "170234.460000", "170234.920000", "170235.380000", "170235.840000", "170236.300000", "170236.760000", "170237.220000", "170237.680000", "170238.140000", "170238.600000", "170239.060000", "170239.520000", "170239.980000", "170240.440000", "170240.900000", "170241.360000", "170241.820000", "170242.280000", "170242.740000", "170243.200000", "170243.660000", "170244.120000", "170244.580000", "170245.040000", "170245.500000", "170245.960000", "170246.420000", "170246.880000", "170247.340000", "170247.800000", "170248.260000", "170248.720000", "170249.180000", "170249.640000", "170250.100000", "170250.560000", "170251.020000", "170251.480000", "170251.940000", "170252.400000", "170252.860000", "170253.320000", "170253.780000", "170254.240000", "170254.700000", "170255.160000", "170255.620000", "170256.080000", "170256.540000", "170257.000000", "170257.460000", "170257.920000", "170258.380000", "170258.840000", "170259.300000", "170259.760000", "170300.220000", "170300.680000", "170301.140000", "170301.600000", "170302.060000", "170302.520000", "170302.980000", "170303.440000", "170303.900000", "170304.360000", "170304.820000", "170305.280000", "170305.740000", "170306.200000", "170306.660000", "170307.120000", "170307.580000", "170308.040000", "170308.500000", "170308.960000", "170309.420000", "170309.880000", "170310.340000", "170310.800000", "170311.260000", "170311.720000", "170312.180000", "170312.640000", "170313.100000", "170313.560000", "170314.020000", "170314.480000", "170314.940000", "170315.400000", "170315.860000", "170316.320000", "170316.780000", "170317.240000", "170317.700000", "170318.160000", "170318.620000", "170319.080000", "170319.540000", "170320.000000", "170320.460000", "170320.920000", "170321.380000", "170321.840000", "170322.300000", "170322.760000", "170323.220000", "170323.680000", "170324.140000", "170324.600000", "170325.060000", "170325.520000", "170325.980000", "170326.440000", "170326.900000", "170327.360000", "170327.820000", "170328.280000", "170328.740000", "170329.200000", "170329.660000", "170330.120000", "170330.580000", "170331.040000", "170331.500000", "170331.960000", "170332.420000", "170332.880000", "170333.340000", "170333.800000", "170334.260000", "170334.720000", "170335.180000", "170335.640000", "170336.100000", "170336.560000", "170337.020000", "170337.480000", "170337.940000", "170338.400000", "170338.860000", "170339.320000", "170339.780000", "170340.240000", "170340.700000", "170341.160000", "170341.620000", "170342.080000", "170342.540000", "170343.000000", "170343.460000", "170343.920000", "170344.380000", "170344.840000", "170345.300000", "170345.760000", "170346.220000", "170346.680000", "170347.140000", "170347.600000", "170348.060000", "170348.520000", "170348.980000", "170349.440000", "170349.900000", "170350.360000", "170350.820000", "170351.280000", "170351.740000", "170352.200000", "170352.660000", "170353.120000", "170353.580000", "170354.040000", "170354.500000", "170354.960000", "170355.420000", "170355.880000", "170356.340000", "170356.800000", "170357.260000", "170357.720000", "170358.180000", "170358.640000", "170359.100000", "170359.560000", "170400.020000", "170400.480000", "170400.940000", "170401.400000", "170401.860000", "170402.320000", "170402.780000", "170403.240000", "170403.700000", "170404.160000", "170404.620000", "170405.080000", "170405.540000", "170406.000000", "170406.460000", "170406.920000", "170407.380000", "170407.840000", "170408.300000", "170408.760000", "170409.220000", "170409.680000", "170410.140000", "170410.600000", "170411.060000", "170411.520000", "170411.980000", "170412.440000", "170412.900000", "170413.360000", "170413.820000", "170414.280000", "170414.740000", "170415.200000", "170415.660000", "170416.120000", "170416.580000", "170417.040000", "170417.500000", "170417.960000", "170418.420000", "170418.880000", "170419.340000", "170419.800000", "170420.260000", "170420.720000", "170421.180000", "170421.640000", "170422.100000", "170422.560000", "170423.020000", "170423.480000", "170423.940000", "170424.400000", "170424.860000", "170425.320000", "170425.780000", "170426.240000", "170426.700000", "170427.160000", "170427.620000", "170428.080000", "170428.540000", "170429.000000", "170429.460000", "170429.920000", "170430.380000", "170430.840000", "170431.300000", "170431.760000", "170432.220000", "170432.680000", "170433.140000", "170433.600000", "170434.060000", "170434.520000", "170434.980000", "170435.440000", "170435.900000", "170436.360000", "170436.820000", "170437.280000", "170437.740000", "170438.200000", "170438.660000", "170439.120000", "170439.580000", "170440.040000", "170440.500000", "170440.960000", "170441.420000", "170441.880000", "170442.340000", "170442.800000"],
