{
  "AcquisitionMatrixPE": 82,
  "AcquisitionNumber": 1,
  "AcquisitionTime": "16:35:30.195000",
  "BandwidthPerPixelPhaseEncode": 24.888,
  "BaseResolution": 82,
  "BodyPartExamined": "BRAIN",
  "ConsistencyInfo": "N4_VE11E_LATEST_20181129",
  "ConversionSoftware": "dcm2niix",
  "ConversionSoftwareVersion": "v1.0.20201102",
  "DerivedVendorReportedEchoSpacing": 0.00049,
  "DeviceSerialNumber": "66112",
  "DwellTime": 2e-06,
  "EchoTime": 0.0272,
  "EchoTrainLength": 82,
  "EffectiveEchoSpacing": 0.00049,
  "FlipAngle": 44,
  "ImageComments": "Unaliased MB8/PE3",
  "ImageOrientationPatientDICOM": [0.997864, 0.0438205, 0.0484414, -0.0374621, 0.991429, -0.125159],
  "ImageType": [
    "ORIGINAL",
    "PRIMARY",
    "M",
    "MB",
    "ND",
    "NORM",
    "MOSAIC"
],
  "ImagingFrequency": 123.259,
  "InPlanePhaseEncodingDirectionDICOM": "COL",
  "InstitutionAddress": "Maynard 3,Hanover,NH,US,03755",
  "InstitutionName": "Dartmouth College - PBS",
  "InstitutionalDepartmentName": "Department",
  "MRAcquisitionType": "2D",
  "MagneticFieldStrength": 3,
  "Manufacturer": "Siemens",
  "ManufacturersModelName": "Prisma",
  "Modality": "MR",
  "MultibandAccelerationFactor": 8,
  "PartialFourier": 1,
  "PatientPosition": "HFS",
  "PercentPhaseFOV": 100,
  "PercentSampling": 100,
  "PhaseEncodingDirection": "j-",
  "PhaseEncodingSteps": 82,
  "PhaseResolution": 1,
  "PixelBandwidth": 3050,
  "ProcedureStepDescription": "Wager_Wager^1076_spacetop",
  "ProtocolName": "func_run-03_task-social_acq-ap-mb8",
  "PulseSequenceDetails": "%CustomerSeq%\\cmrr_mbep2d_bold",
  "ReceiveCoilActiveElements": "HEA;HEP",
  "ReceiveCoilName": "Head_32",
  "ReconMatrixPE": 82,
  "RepetitionTime": 0.46,
  "SAR": 0.125183,
  "ScanOptions": "FS",
  "ScanningSequence": "EP",
  "SequenceName": "epfid2d1_82",
  "SequenceVariant": "SK\\SS",
  "SeriesDescription": "func_run-03_task-social_acq-ap-mb8",
  "SeriesNumber": 12,
  "ShimSetting": [4244, -7752, -7229, 4, -164, -105, -47, 53],
  "SliceThickness": 2.7,
  "SliceTiming": [0, 0.25, 0.0625, 0.315, 0.125, 0.3775, 0.1875, 0, 0.25, 0.0625, 0.315, 0.125, 0.3775, 0.1875, 0, 0.25, 0.0625, 0.315, 0.125, 0.3775, 0.1875, 0, 0.25, 0.0625, 0.315, 0.125, 0.3775, 0.1875, 0, 0.25, 0.0625, 0.315, 0.125, 0.3775, 0.1875, 0, 0.25, 0.0625, 0.315, 0.125, 0.3775, 0.1875, 0, 0.25, 0.0625, 0.315, 0.125, 0.3775, 0.1875, 0, 0.25, 0.0625, 0.315, 0.125, 0.3775, 0.1875],
  "SoftwareVersions": "syngo MR E11",
  "SpacingBetweenSlices": 2.7,
  "StationName": "AWP66112",
  "TaskName": "social",
  "TotalReadoutTime": 0.03969,
  "TxRefAmp": 313.619,
  "WipMemBlock": "9793856a-f793-4ae8-99c7-e9aea6de1212||Sequence: R016 ve11e/master r/434b28f1; Aug  7 2019 18:53:46 by eja",
  "dcmmeta_affine": [
    [-2.677196979522705, -0.10050800442695618, 0.14447888731956482, 112.00318145751953],
    [-0.11756720393896103, 2.6599321365356445, -0.33230727910995483, -83.87351989746094],
    [0.12996463477611542, 0.33579185605049133, 2.67557430267334, -111.34806823730469],
    [0.0, 0.0, 0.0, 1.0]
],
  "dcmmeta_reorient_transform": [
    [0.0, -1.0, 0.0, 81.0],
    [1.0, 0.0, 0.0, 0.0],
    [0.0, 0.0, 1.0, 0.0],
    [0.0, 0.0, 0.0, 1.0]
],
  "dcmmeta_shape": [82, 82, 56, 872],
  "dcmmeta_slice_dim": 2,
  "dcmmeta_version": 0.6,
  "global": {
    "const": {
      "AccessionNumber": "A004340",
      "AcquisitionMatrix": [82, 0, 0, 82],
      "AngioFlag": "N",
      "BitsAllocated": 16,
      "BitsStored": 16,
      "BodyPartExamined": "BRAIN",
      "Columns": 656,
      "EchoNumbers": 1,
      "EchoTime": 27.2,
      "EchoTrainLength": 82,
      "FlipAngle": 44.0,
      "HighBit": 15,
      "ImageOrientationPatient": [0.99786431841268, 0.04382050349829, 0.04844136158228, -0.037462072145, 0.99142920666616, -0.1251587844296],
      "ImagePositionPatient": [-843.37177960145, -928.72327694954, -25.076511133362],
      "ImageType": [
        "ORIGINAL",
        "PRIMARY",
        "M",
        "MB",
        "ND",
        "NORM",
        "MOSAIC"
],
      "ImagedNucleus": "1H",
      "ImagingFrequency": 123.259134,
      "InPlanePhaseEncodingDirection": "COL",
      "MRAcquisitionType": "2D",
      "MagneticFieldStrength": 3.0,
      "Manufacturer": "SIEMENS",
      "ManufacturerModelName": "Prisma",
      "Modality": "MR",
      "NumberOfAverages": 1.0,
      "NumberOfPhaseEncodingSteps": 82,
      "PercentPhaseFieldOfView": 100.0,
      "PercentSampling": 100.0,
      "PerformedProcedureStepStartTime": "160510.737000",
      "PhotometricInterpretation": "MONOCHROME2",
      "PixelBandwidth": 3050.0,
      "PixelRepresentation": 0,
      "PixelSpacing": [2.6829268932343, 2.6829268932343],
      "ProtocolName": "func_run-03_task-social_acq-ap-mb8",
      "RepetitionTime": 460.0,
      "Rows": 656,
      "SAR": 0.12518291324938,
      "SamplesPerPixel": 1,
      "ScanOptions": "FS",
      "ScanningSequence": "EP",
      "SequenceName": "epfid2d1_82",
      "SequenceVariant": [
        "SK",
        "SS"
],
      "SeriesDescription": "func_run-03_task-social_acq-ap-mb8",
      "SeriesNumber": 12,
      "SeriesTime": "163537.719000",
      "SliceLocation": -94.024501607589,
      "SliceThickness": 2.7000000476837,
      "SmallestImagePixelValue": 0,
      "SoftwareVersions": "syngo MR E11",
      "SpacingBetweenSlices": 2.6999999403963,
      "SpecificCharacterSet": "ISO_IR 100",
      "StudyID": "3",
      "StudyTime": "160510.685000",
      "TransmitCoilName": "Body",
      "VariableFlipAngleFlag": "N",
      "WindowCenterWidthExplanation": "Algo1"
    },
    "slices": {}
  },
  "time": {
    "samples": {
      "AcquisitionNumber": [1, 2, 3, 4, 5, 6, 7, 8, 9, 10, 11, 12, 13, 14, 15, 16, 17, 18, 19, 20, 21, 22, 23, 24, 25, 26, 27, 28, 29, 30, 31, 32, 33, 34, 35, 36, 37, 38, 39, 40, 41, 42, 43, 44, 45, 46, 47, 48, 49, 50, 51, 52, 53, 54, 55, 56, 57, 58, 59, 60, 61, 62, 63, 64, 65, 66, 67, 68, 69, 70, 71, 72, 73, 74, 75, 76, 77, 78, 79, 80, 81, 82, 83, 84, 85, 86, 87, 88, 89, 90, 91, 92, 93, 94, 95, 96, 97, 98, 99, 100, 101, 102, 103, 104, 105, 106, 107, 108, 109, 110, 111, 112, 113, 114, 115, 116, 117, 118, 119, 120, 121, 122, 123, 124, 125, 126, 127, 128, 129, 130, 131, 132, 133, 134, 135, 136, 137, 138, 139, 140, 141, 142, 143, 144, 145, 146, 147, 148, 149, 150, 151, 152, 153, 154, 155, 156, 157, 158, 159, 160, 161, 162, 163, 164, 165, 166, 167, 168, 169, 170, 171, 172, 173, 174, 175, 176, 177, 178, 179, 180, 181, 182, 183, 184, 185, 186, 187, 188, 189, 190, 191, 192, 193, 194, 195, 196, 197, 198, 199, 200, 201, 202, 203, 204, 205, 206, 207, 208, 209, 210, 211, 212, 213, 214, 215, 216, 217, 218, 219, 220, 221, 222, 223, 224, 225, 226, 227, 228, 229, 230, 231, 232, 233, 234, 235, 236, 237, 238, 239, 240, 241, 242, 243, 244, 245, 246, 247, 248, 249, 250, 251, 252, 253, 254, 255, 256, 257, 258, 259, 260, 261, 262, 263, 264, 265, 266, 267, 268, 269, 270, 271, 272, 273, 274, 275, 276, 277, 278, 279, 280, 281, 282, 283, 284, 285, 286, 287, 288, 289, 290, 291, 292, 293, 294, 295, 296, 297, 298, 299, 300, 301, 302, 303, 304, 305, 306, 307, 308, 309, 310, 311, 312, 313, 314, 315, 316, 317, 318, 319, 320, 321, 322, 323, 324, 325, 326, 327, 328, 329, 330, 331, 332, 333, 334, 335, 336, 337, 338, 339, 340, 341, 342, 343, 344, 345, 346, 347, 348, 349, 350, 351, 352, 353, 354, 355, 356, 357, 358, 359, 360, 361, 362, 363, 364, 365, 366, 367, 368, 369, 370, 371, 372, 373, 374, 375, 376, 377, 378, 379, 380, 381, 382, 383, 384, 385, 386, 387, 388, 389, 390, 391, 392, 393, 394, 395, 396, 397, 398, 399, 400, 401, 402, 403, 404, 405, 406, 407, 408, 409, 410, 411, 412, 413, 414, 415, 416, 417, 418, 419, 420, 421, 422, 423, 424, 425, 426, 427, 428, 429, 430, 431, 432, 433, 434, 435, 436, 437, 438, 439, 440, 441, 442, 443, 444, 445, 446, 447, 448, 449, 450, 451, 452, 453, 454, 455, 456, 457, 458, 459, 460, 461, 462, 463, 464, 465, 466, 467, 468, 469, 470, 471, 472, 473, 474, 475, 476, 477, 478, 479, 480, 481, 482, 483, 484, 485, 486, 487, 488, 489, 490, 491, 492, 493, 494, 495, 496, 497, 498, 499, 500, 501, 502, 503, 504, 505, 506, 507, 508, 509, 510, 511, 512, 513, 514, 515, 516, 517, 518, 519, 520, 521, 522, 523, 524, 525, 526, 527, 528, 529, 530, 531, 532, 533, 534, 535, 536, 537, 538, 539, 540, 541, 542, 543, 544, 545, 546, 547, 548, 549, 550, 551, 552, 553, 554, 555, 556, 557, 558, 559, 560, 561, 562, 563, 564, 565, 566, 567, 568, 569, 570, 571, 572, 573, 574, 575, 576, 577, 578, 579, 580, 581, 582, 583, 584, 585, 586, 587, 588, 589, 590, 591, 592, 593, 594, 595, 596, 597, 598, 599, 600, 601, 602, 603, 604, 605, 606, 607, 608, 609, 610, 611, 612, 613, 614, 615, 616, 617, 618, 619, 620, 621, 622, 623, 624, 625, 626, 627, 628, 629, 630, 631, 632, 633, 634, 635, 636, 637, 638, 639, 640, 641, 642, 643, 644, 645, 646, 647, 648, 649, 650, 651, 652, 653, 654, 655, 656, 657, 658, 659, 660, 661, 662, 663, 664, 665, 666, 667, 668, 669, 670, 671, 672, 673, 674, 675, 676, 677, 678, 679, 680, 681, 682, 683, 684, 685, 686, 687, 688, 689, 690, 691, 692, 693, 694, 695, 696, 697, 698, 699, 700, 701, 702, 703, 704, 705, 706, 707, 708, 709, 710, 711, 712, 713, 714, 715, 716, 717, 718, 719, 720, 721, 722, 723, 724, 725, 726, 727, 728, 729, 730, 731, 732, 733, 734, 735, 736, 737, 738, 739, 740, 741, 742, 743, 744, 745, 746, 747, 748, 749, 750, 751, 752, 753, 754, 755, 756, 757, 758, 759, 760, 761, 762, 763, 764, 765, 766, 767, 768, 769, 770, 771, 772, 773, 774, 775, 776, 777, 778, 779, 780, 781, 782, 783, 784, 785, 786, 787, 788, 789, 790, 791, 792, 793, 794, 795, 796, 797, 798, 799, 800, 801, 802, 803, 804, 805, 806, 807, 808, 809, 810, 811, 812, 813, 814, 815, 816, 817, 818, 819, 820, 821, 822, 823, 824, 825, 826, 827, 828, 829, 830, 831, 832, 833, 834, 835, 836, 837, 838, 839, 840, 841, 842, 843, 844, 845, 846, 847, 848, 849, 850, 851, 852, 853, 854, 855, 856, 857, 858, 859, 860, 861, 862, 863, 864, 865, 866, 867, 868, 869, 870, 871, 872],
      "AcquisitionTime": ["163530.195000", "163530.655000", "163531.115000", "163531.575000", "163532.035000", "163532.495000", "163532.955000", "163533.415000", "163533.875000", "163534.335000", "163534.795000", "163535.255000", "163535.715000", "163536.175000", "163536.635000", "163537.095000", "163537.555000", "163538.015000", "163538.475000", "163538.935000", "163539.395000", "163539.855000", "163540.315000", "163540.775000", "163541.235000", "163541.695000", "163542.155000", "163542.615000", "163543.075000", "163543.535000", "163543.995000", "163544.455000", "163544.915000", "163545.375000", "163545.835000", "163546.295000", "163546.755000", "163547.215000", "163547.675000", "163548.135000", "163548.595000", "163549.055000", "163549.515000", "163549.975000", "163550.435000", "163550.895000", "163551.355000", "163551.815000", "163552.275000", "163552.735000", "163553.195000", "163553.655000", "163554.115000", "163554.575000", "163555.035000", "163555.495000", "163555.955000", "163556.415000", "163556.875000", "163557.335000", "163557.795000", "163558.255000", "163558.715000", "163559.175000", "163559.635000", "163600.095000", "163600.555000", "163601.015000", "163601.475000", "163601.935000", "163602.395000", "163602.855000", "163603.315000", "163603.775000", "163604.235000", "163604.695000", "163605.155000", "163605.615000", "163606.075000", "163606.535000", "163606.995000", "163607.455000", "163607.915000", "163608.375000", "163608.835000", "163609.295000", "163609.755000", "163610.215000", "163610.675000", "163611.135000", "163611.595000", "163612.055000", "163612.515000", "163612.975000", "163613.435000", "163613.895000", "163614.355000", "163614.815000", "163615.275000", "163615.735000", "163616.195000", "163616.655000", "163617.115000", "163617.575000", "163618.035000", "163618.495000", "163618.955000", "163619.415000", "163619.875000", "163620.335000", "163620.795000", "163621.255000", "163621.715000", "163622.175000", "163622.635000", "163623.095000", "163623.555000", "163624.015000", "163624.475000", "163624.935000", "163625.395000", "163625.855000", "163626.315000", "163626.775000", "163627.235000", "163627.695000", "163628.155000", "163628.615000", "163629.075000", "163629.535000", "163629.995000", "163630.455000", "163630.915000", "163631.375000", "163631.835000", "163632.295000", "163632.755000", "163633.215000", "163633.675000", "163634.135000", "163634.595000", "163635.055000", "163635.515000", "163635.975000", "163636.435000", "163636.895000", "163637.355000", "163637.815000", "163638.275000", "163638.735000", "163639.195000", "163639.655000", "163640.115000", "163640.575000", "163641.035000", "163641.495000", "163641.955000", "163642.415000", "163642.875000", "163643.335000", "163643.795000", "163644.255000", "163644.715000", "163645.175000", "163645.635000", "163646.095000", "163646.555000", "163647.015000", "163647.475000", "163647.935000", "163648.395000", "163648.855000", "163649.315000", "163649.775000", "163650.235000", "163650.695000", "163651.155000", "163651.615000", "163652.075000", "163652.535000", "163652.995000", "163653.455000", "163653.915000", "163654.375000", "163654.835000", "163655.295000", "163655.755000", "163656.215000", "163656.675000", "163657.135000", "163657.595000", "163658.055000", "163658.515000", "163658.975000", "163659.435000", "163659.895000", "163700.355000", "163700.815000", "163701.275000", "163701.735000", "163702.195000", "163702.655000", "163703.115000", "163703.575000", "163704.035000", "163704.495000", "163704.955000", "163705.415000", "163705.875000", "163706.335000", "163706.795000", "163707.255000", "163707.715000", "163708.175000", "163708.635000", "163709.095000", "163709.555000", "163710.015000", "163710.475000", "163710.935000", "163711.395000", "163711.855000", "163712.315000", "163712.775000", "163713.235000", "163713.695000", "163714.155000", "163714.615000", "163715.075000", "163715.535000", "163715.995000", "163716.455000", "163716.915000", "163717.375000", "163717.835000", "163718.295000", "163718.755000", "163719.215000", "163719.675000", "163720.135000", "163720.595000", "163721.055000", "163721.515000", "163721.975000", "163722.435000", "163722.895000", "163723.355000", "163723.815000", "163724.275000", "163724.735000", "163725.195000", "163725.655000", "163726.115000", "163726.575000", "163727.035000", "163727.495000", "163727.955000", "163728.415000", "163728.875000", "163729.335000", "163729.795000", "163730.255000", "163730.715000", "163731.175000", "163731.635000", "163732.095000", "163732.555000", "163733.015000", "163733.475000", "163733.935000", "163734.395000", "163734.855000", "163735.315000", "163735.775000", "163736.235000", "163736.695000", "163737.155000", "163737.615000", "163738.075000", "163738.535000", "163738.995000", "163739.455000", "163739.915000", "163740.375000", "163740.835000", "163741.295000", "163741.755000", "163742.215000", "163742.675000", "163743.135000", "163743.595000", "163744.055000", "163744.515000", "163744.975000", "163745.435000", "163745.895000", "163746.355000", "163746.815000", "163747.275000", "163747.735000", "163748.195000", "163748.655000", "163749.115000", "163749.575000", "163750.035000", "163750.495000", "163750.955000", "163751.415000", "163751.875000", "163752.335000", "163752.795000", "163753.255000", "163753.715000", "163754.175000", "163754.635000", "163755.095000", "163755.555000", "163756.015000", "163756.475000", "163756.935000", "163757.395000", "163757.855000", "163758.315000", "163758.775000", "163759.235000", "163759.695000", "163800.155000", "163800.615000", "163801.075000", "163801.535000", "163801.995000", "163802.455000", "163802.915000", "163803.375000", "163803.835000", "163804.295000", "163804.755000", "163805.215000", "163805.675000", "163806.135000", "163806.595000", "163807.055000", "163807.515000", "163807.975000", "163808.435000", "163808.895000", "163809.355000", "163809.815000", "163810.275000", "163810.735000", "163811.195000", "163811.655000", "163812.115000", "163812.575000", "163813.035000", "163813.495000", "163813.955000", "163814.415000", "163814.875000", "163815.335000", "163815.795000", "163816.255000", "163816.715000", "163817.175000", "163817.635000", "163818.095000", "163818.555000", "163819.015000", "163819.475000", "163819.935000", "163820.395000", "163820.855000", "163821.315000", "163821.775000", "163822.235000", "163822.695000", "163823.155000", "163823.615000", "163824.075000", "163824.535000", "163824.995000", "163825.455000", "163825.915000", "163826.375000", "163826.835000", "163827.295000", "163827.755000", "163828.215000", "163828.675000", "163829.135000", "163829.595000", "163830.055000", "163830.515000", "163830.975000", "163831.435000", "163831.895000", "163832.355000", "163832.815000", "163833.275000", "163833.735000", "163834.195000", "163834.655000", "163835.115000", "163835.575000", "163836.035000", "163836.495000", "163836.955000", "163837.415000", "163837.875000", "163838.335000", "163838.795000", "163839.255000", "163839.715000", "163840.175000", "163840.635000", "163841.095000", "163841.555000", "163842.015000", "163842.475000", "163842.935000", "163843.395000", "163843.855000", "163844.315000", "163844.775000", "163845.235000", "163845.695000", "163846.155000", "163846.615000", "163847.075000", "163847.535000", "163847.995000", "163848.455000", "163848.915000", "163849.375000", "163849.835000", "163850.295000", "163850.755000", "163851.215000", "163851.675000", "163852.135000", "163852.595000", "163853.055000", "163853.515000", "163853.975000", "163854.435000", "163854.895000", "163855.355000", "163855.815000", "163856.275000", "163856.735000", "163857.195000", "163857.655000", "163858.115000", "163858.575000", "163859.035000", "163859.495000", "163859.955000", "163900.415000", "163900.875000", "163901.335000", "163901.795000", "163902.255000", "163902.715000", "163903.175000", "163903.635000", "163904.095000", "163904.555000", "163905.015000", "163905.475000", "163905.935000", "163906.395000", "163906.855000", "163907.315000", "163907.775000", "163908.235000", "163908.695000", "163909.155000", "163909.615000", "163910.075000", "163910.535000", "163910.995000", "163911.455000", "163911.915000", "163912.375000", "163912.835000", "163913.295000", "163913.755000", "163914.215000", "163914.675000", "163915.135000", "163915.595000", "163916.055000", "163916.515000", "163916.975000", "163917.435000", "163917.895000", "163918.355000", "163918.815000", "163919.275000", "163919.735000", "163920.195000", "163920.655000", "163921.115000", "163921.575000", "163922.035000", "163922.495000", "163922.955000", "163923.415000", "163923.875000", "163924.335000", "163924.795000", "163925.255000", "163925.715000", "163926.175000", "163926.635000", "163927.095000", "163927.555000", "163928.015000", "163928.475000", "163928.935000", "163929.395000", "163929.855000", "163930.315000", "163930.775000", "163931.235000", "163931.695000", "163932.155000", "163932.615000", "163933.075000", "163933.535000", "163933.995000", "163934.455000", "163934.915000", "163935.375000", "163935.835000", "163936.295000", "163936.755000", "163937.215000", "163937.675000", "163938.135000", "163938.595000", "163939.055000", "163939.515000", "163939.975000", "163940.435000", "163940.895000", "163941.355000", "163941.815000", "163942.275000", "163942.735000", "163943.195000", "163943.655000", "163944.115000", "163944.575000", "163945.035000", "163945.495000", "163945.955000", "163946.415000", "163946.875000", "163947.335000", "163947.795000", "163948.255000", "163948.715000", "163949.175000", "163949.635000", "163950.095000", "163950.555000", "163951.015000", "163951.475000", "163951.935000", "163952.395000", "163952.855000", "163953.315000", "163953.775000", "163954.235000", "163954.695000", "163955.155000", "163955.615000", "163956.075000", "163956.535000", "163956.995000", "163957.455000", "163957.915000", "163958.375000", "163958.835000", "163959.295000", "163959.755000", "164000.215000", "164000.675000", "164001.135000", "164001.595000", "164002.055000", "164002.515000", "164002.975000", "164003.435000", "164003.895000", "164004.355000", "164004.815000", "164005.275000", "164005.735000", "164006.195000", "164006.655000", "164007.115000", "164007.575000", "164008.035000", "164008.495000", "164008.955000", "164009.415000", "164009.875000", "164010.335000", "164010.795000", "164011.255000", "164011.715000", "164012.175000", "164012.635000", "164013.095000", "164013.555000", "164014.015000", "164014.475000", "164014.935000", "164015.395000", "164015.855000", "164016.315000", "164016.775000", "164017.235000", "164017.695000", "164018.155000", "164018.615000", "164019.075000", "164019.535000", "164019.995000", "164020.455000", "164020.915000", "164021.375000", "164021.835000", "164022.295000", "164022.755000", "164023.215000", "164023.675000", "164024.135000", "164024.595000", "164025.055000", "164025.515000", "164025.975000", "164026.435000", "164026.895000", "164027.355000", "164027.815000", "164028.275000", "164028.735000", "164029.195000", "164029.655000", "164030.115000", "164030.575000", "164031.035000", "164031.495000", "164031.955000", "164032.415000", "164032.875000", "164033.335000", "164033.795000", "164034.255000", "164034.715000", "164035.175000", "164035.635000", "164036.095000", "164036.555000", "164037.015000", "164037.475000", "164037.935000", "164038.395000", "164038.855000", "164039.315000", "164039.775000", "164040.235000", "164040.695000", "164041.155000", "164041.615000", "164042.075000", "164042.535000", "164042.995000", "164043.455000", "164043.915000", "164044.375000", "164044.835000", "164045.295000", "164045.755000", "164046.215000", "164046.675000", "164047.135000", "164047.595000", "164048.055000", "164048.515000", "164048.975000", "164049.435000", "164049.895000", "164050.355000", "164050.815000", "164051.275000", "164051.735000", "164052.195000", "164052.655000", "164053.115000", "164053.575000", "164054.035000", "164054.495000", "164054.955000", "164055.415000", "164055.875000", "164056.335000", "164056.795000", "164057.255000", "164057.715000", "164058.175000", "164058.635000", "164059.095000", "164059.555000", "164100.015000", "164100.475000", "164100.935000", "164101.395000", "164101.855000", "164102.315000", "164102.775000", "164103.235000", "164103.695000", "164104.155000", "164104.615000", "164105.075000", "164105.535000", "164105.995000", "164106.455000", "164106.915000", "164107.375000", "164107.835000", "164108.295000", "164108.755000", "164109.215000", "164109.675000", "164110.135000", "164110.595000", "164111.055000", "164111.515000", "164111.975000", "164112.435000", "164112.895000", "164113.355000", "164113.815000", "164114.275000", "164114.735000", "164115.195000", "164115.655000", "164116.115000", "164116.575000", "164117.035000", "164117.495000", "164117.955000", "164118.415000", "164118.875000", "164119.335000", "164119.795000", "164120.255000", "164120.715000", "164121.175000", "164121.635000", "164122.095000", "164122.555000", "164123.015000", "164123.475000", "164123.935000", "164124.395000", "164124.855000", "164125.315000", "164125.775000", "164126.235000", "164126.695000", "164127.155000", "164127.615000", "164128.075000", "164128.535000", "164128.995000", "164129.455000", "164129.915000", "164130.375000", "164130.835000", "164131.295000", "164131.755000", "164132.215000", "164132.675000", "164133.135000", "164133.595000", "164134.055000", "164134.515000", "164134.975000", "164135.435000", "164135.895000", "164136.355000", "164136.815000", "164137.275000", "164137.735000", "164138.195000", "164138.655000", "164139.115000", "164139.575000", "164140.035000", "164140.495000", "164140.955000", "164141.415000", "164141.875000", "164142.335000", "164142.795000", "164143.255000", "164143.715000", "164144.175000", "164144.635000", "164145.095000", "164145.555000", "164146.015000", "164146.475000", "164146.935000", "164147.395000", "164147.855000", "164148.315000", "164148.775000", "164149.235000", "164149.695000", "164150.155000", "164150.615000", "164151.075000", "164151.535000", "164151.995000", "164152.455000", "164152.915000", "164153.375000", "164153.835000", "164154.295000", "164154.755000", "164155.215000", "164155.675000", "164156.135000", "164156.595000", "164157.055000", "164157.515000", "164157.975000", "164158.435000", "164158.895000", "164159.355000", "164159.815000", "164200.275000", "164200.735000", "164201.195000", "164201.655000", "164202.115000", "164202.575000", "164203.035000", "164203.495000", "164203.955000", "164204.415000", "164204.875000", "164205.335000", "164205.795000", "164206.255000", "164206.715000", "164207.175000", "164207.635000", "164208.095000", "164208.555000", "164209.015000", "164209.475000", "164209.935000", "164210.395000", "164210.855000"],
