{
  "AcquisitionMatrixPE": 82,
  "AcquisitionNumber": 1,
  "AcquisitionTime": "16:42:37.575000",
  "BandwidthPerPixelPhaseEncode": 24.888,
  "BaseResolution": 82,
  "BodyPartExamined": "BRAIN",
  "ConsistencyInfo": "N4_VE11E_LATEST_20181129",
  "ConversionSoftware": "dcm2niix",
  "ConversionSoftwareVersion": "v1.0.20201102",
  "DerivedVendorReportedEchoSpacing": 0.00049,
  "DeviceSerialNumber": "66112",
  "DwellTime": 2e-06,
  "EchoTime": 0.0272,
  "EchoTrainLength": 82,
  "EffectiveEchoSpacing": 0.00049,
  "FlipAngle": 44,
  "ImageComments": "Unaliased MB8/PE3",
  "ImageOrientationPatientDICOM": [0.997864, 0.0438205, 0.0484414, -0.0374621, 0.991429, -0.125159],
  "ImageType": [
    "ORIGINAL",
    "PRIMARY",
    "M",
    "MB",
    "ND",
    "NORM",
    "MOSAIC"
],
  "ImagingFrequency": 123.259,
  "InPlanePhaseEncodingDirectionDICOM": "COL",
  "InstitutionAddress": "Maynard 3,Hanover,NH,US,03755",
  "InstitutionName": "Dartmouth College - PBS",
  "InstitutionalDepartmentName": "Department",
  "MRAcquisitionType": "2D",
  "MagneticFieldStrength": 3,
  "Manufacturer": "Siemens",
  "ManufacturersModelName": "Prisma",
  "Modality": "MR",
  "MultibandAccelerationFactor": 8,
  "PartialFourier": 1,
  "PatientPosition": "HFS",
  "PercentPhaseFOV": 100,
  "PercentSampling": 100,
  "PhaseEncodingDirection": "j-",
  "PhaseEncodingSteps": 82,
  "PhaseResolution": 1,
  "PixelBandwidth": 3050,
  "ProcedureStepDescription": "Wager_Wager^1076_spacetop",
  "ProtocolName": "func_run-04_task-social_acq-ap-mb8",
  "PulseSequenceDetails": "%CustomerSeq%\\cmrr_mbep2d_bold",
  "ReceiveCoilActiveElements": "HEA;HEP",
  "ReceiveCoilName": "Head_32",
  "ReconMatrixPE": 82,
  "RepetitionTime": 0.46,
  "SAR": 0.125183,
  "ScanOptions": "FS",
  "ScanningSequence": "EP",
  "SequenceName": "epfid2d1_82",
  "SequenceVariant": "SK\\SS",
  "SeriesDescription": "func_run-04_task-social_acq-ap-mb8",
  "SeriesNumber": 14,
  "ShimSetting": [4244, -7752, -7229, 4, -164, -105, -47, 53],
  "SliceThickness": 2.7,
  "SliceTiming": [0, 0.25, 0.0625, 0.3125, 0.125, 0.3775, 0.1875, 0, 0.25, 0.0625, 0.3125, 0.125, 0.3775, 0.1875, 0, 0.25, 0.0625, 0.3125, 0.125, 0.3775, 0.1875, 0, 0.25, 0.0625, 0.3125, 0.125, 0.3775, 0.1875, 0, 0.25, 0.0625, 0.3125, 0.125, 0.3775, 0.1875, 0, 0.25, 0.0625, 0.3125, 0.125, 0.3775, 0.1875, 0, 0.25, 0.0625, 0.3125, 0.125, 0.3775, 0.1875, 0, 0.25, 0.0625, 0.3125, 0.125, 0.3775, 0.1875],
  "SoftwareVersions": "syngo MR E11",
  "SpacingBetweenSlices": 2.7,
  "StationName": "AWP66112",
  "TaskName": "social",
  "TotalReadoutTime": 0.03969,
  "TxRefAmp": 313.619,
  "WipMemBlock": "4c5294ed-a81b-4c5a-96e0-cc80709cac1d||Sequence: R016 ve11e/master r/434b28f1; Aug  7 2019 18:53:46 by eja",
  "dcmmeta_affine": [
    [-2.677196979522705, -0.10050800442695618, 0.14447888731956482, 112.00318145751953],
    [-0.11756720393896103, 2.6599321365356445, -0.33230727910995483, -83.87351989746094],
    [0.12996463477611542, 0.33579185605049133, 2.67557430267334, -111.34806823730469],
    [0.0, 0.0, 0.0, 1.0]
],
  "dcmmeta_reorient_transform": [
    [0.0, -1.0, 0.0, 81.0],
    [1.0, 0.0, 0.0, 0.0],
    [0.0, 0.0, 1.0, 0.0],
    [0.0, 0.0, 0.0, 1.0]
],
  "dcmmeta_shape": [82, 82, 56, 872],
  "dcmmeta_slice_dim": 2,
  "dcmmeta_version": 0.6,
  "global": {
    "const": {
      "AccessionNumber": "A004340",
      "AcquisitionMatrix": [82, 0, 0, 82],
      "AngioFlag": "N",
      "BitsAllocated": 16,
      "BitsStored": 16,
      "BodyPartExamined": "BRAIN",
      "Columns": 656,
      "EchoNumbers": 1,
      "EchoTime": 27.2,
      "EchoTrainLength": 82,
      "FlipAngle": 44.0,
      "HighBit": 15,
      "ImageOrientationPatient": [0.99786431841268, 0.04382050349829, 0.04844136158228, -0.037462072145, 0.99142920666616, -0.1251587844296],
      "ImagePositionPatient": [-843.37177960145, -928.72327694954, -25.076511133362],
      "ImageType": [
        "ORIGINAL",
        "PRIMARY",
        "M",
        "MB",
        "ND",
        "NORM",
        "MOSAIC"
],
      "ImagedNucleus": "1H",
      "ImagingFrequency": 123.259137,
      "InPlanePhaseEncodingDirection": "COL",
      "MRAcquisitionType": "2D",
      "MagneticFieldStrength": 3.0,
      "Manufacturer": "SIEMENS",
      "ManufacturerModelName": "Prisma",
      "Modality": "MR",
      "NumberOfAverages": 1.0,
      "NumberOfPhaseEncodingSteps": 82,
      "PercentPhaseFieldOfView": 100.0,
      "PercentSampling": 100.0,
      "PerformedProcedureStepStartTime": "160510.737000",
      "PhotometricInterpretation": "MONOCHROME2",
      "PixelBandwidth": 3050.0,
      "PixelRepresentation": 0,
      "PixelSpacing": [2.6829268932343, 2.6829268932343],
      "ProtocolName": "func_run-04_task-social_acq-ap-mb8",
      "RepetitionTime": 460.0,
      "Rows": 656,
      "SAR": 0.12518291324938,
      "SamplesPerPixel": 1,
      "ScanOptions": "FS",
      "ScanningSequence": "EP",
      "SequenceName": "epfid2d1_82",
      "SequenceVariant": [
        "SK",
        "SS"
],
      "SeriesDescription": "func_run-04_task-social_acq-ap-mb8",
      "SeriesNumber": 14,
      "SeriesTime": "164257.568000",
      "SliceLocation": -94.024501607589,
      "SliceThickness": 2.7000000476837,
      "SmallestImagePixelValue": 0,
      "SoftwareVersions": "syngo MR E11",
      "SpacingBetweenSlices": 2.6999999403963,
      "SpecificCharacterSet": "ISO_IR 100",
      "StudyID": "3",
      "StudyTime": "160510.685000",
      "TransmitCoilName": "Body",
      "VariableFlipAngleFlag": "N",
      "WindowCenterWidthExplanation": "Algo1"
    },
    "slices": {}
  },
  "time": {
    "samples": {
      "AcquisitionNumber": [1, 2, 3, 4, 5, 6, 7, 8, 9, 10, 11, 12, 13, 14, 15, 16, 17, 18, 19, 20, 21, 22, 23, 24, 25, 26, 27, 28, 29, 30, 31, 32, 33, 34, 35, 36, 37, 38, 39, 40, 41, 42, 43, 44, 45, 46, 47, 48, 49, 50, 51, 52, 53, 54, 55, 56, 57, 58, 59, 60, 61, 62, 63, 64, 65, 66, 67, 68, 69, 70, 71, 72, 73, 74, 75, 76, 77, 78, 79, 80, 81, 82, 83, 84, 85, 86, 87, 88, 89, 90, 91, 92, 93, 94, 95, 96, 97, 98, 99, 100, 101, 102, 103, 104, 105, 106, 107, 108, 109, 110, 111, 112, 113, 114, 115, 116, 117, 118, 119, 120, 121, 122, 123, 124, 125, 126, 127, 128, 129, 130, 131, 132, 133, 134, 135, 136, 137, 138, 139, 140, 141, 142, 143, 144, 145, 146, 147, 148, 149, 150, 151, 152, 153, 154, 155, 156, 157, 158, 159, 160, 161, 162, 163, 164, 165, 166, 167, 168, 169, 170, 171, 172, 173, 174, 175, 176, 177, 178, 179, 180, 181, 182, 183, 184, 185, 186, 187, 188, 189, 190, 191, 192, 193, 194, 195, 196, 197, 198, 199, 200, 201, 202, 203, 204, 205, 206, 207, 208, 209, 210, 211, 212, 213, 214, 215, 216, 217, 218, 219, 220, 221, 222, 223, 224, 225, 226, 227, 228, 229, 230, 231, 232, 233, 234, 235, 236, 237, 238, 239, 240, 241, 242, 243, 244, 245, 246, 247, 248, 249, 250, 251, 252, 253, 254, 255, 256, 257, 258, 259, 260, 261, 262, 263, 264, 265, 266, 267, 268, 269, 270, 271, 272, 273, 274, 275, 276, 277, 278, 279, 280, 281, 282, 283, 284, 285, 286, 287, 288, 289, 290, 291, 292, 293, 294, 295, 296, 297, 298, 299, 300, 301, 302, 303, 304, 305, 306, 307, 308, 309, 310, 311, 312, 313, 314, 315, 316, 317, 318, 319, 320, 321, 322, 323, 324, 325, 326, 327, 328, 329, 330, 331, 332, 333, 334, 335, 336, 337, 338, 339, 340, 341, 342, 343, 344, 345, 346, 347, 348, 349, 350, 351, 352, 353, 354, 355, 356, 357, 358, 359, 360, 361, 362, 363, 364, 365, 366, 367, 368, 369, 370, 371, 372, 373, 374, 375, 376, 377, 378, 379, 380, 381, 382, 383, 384, 385, 386, 387, 388, 389, 390, 391, 392, 393, 394, 395, 396, 397, 398, 399, 400, 401, 402, 403, 404, 405, 406, 407, 408, 409, 410, 411, 412, 413, 414, 415, 416, 417, 418, 419, 420, 421, 422, 423, 424, 425, 426, 427, 428, 429, 430, 431, 432, 433, 434, 435, 436, 437, 438, 439, 440, 441, 442, 443, 444, 445, 446, 447, 448, 449, 450, 451, 452, 453, 454, 455, 456, 457, 458, 459, 460, 461, 462, 463, 464, 465, 466, 467, 468, 469, 470, 471, 472, 473, 474, 475, 476, 477, 478, 479, 480, 481, 482, 483, 484, 485, 486, 487, 488, 489, 490, 491, 492, 493, 494, 495, 496, 497, 498, 499, 500, 501, 502, 503, 504, 505, 506, 507, 508, 509, 510, 511, 512, 513, 514, 515, 516, 517, 518, 519, 520, 521, 522, 523, 524, 525, 526, 527, 528, 529, 530, 531, 532, 533, 534, 535, 536, 537, 538, 539, 540, 541, 542, 543, 544, 545, 546, 547, 548, 549, 550, 551, 552, 553, 554, 555, 556, 557, 558, 559, 560, 561, 562, 563, 564, 565, 566, 567, 568, 569, 570, 571, 572, 573, 574, 575, 576, 577, 578, 579, 580, 581, 582, 583, 584, 585, 586, 587, 588, 589, 590, 591, 592, 593, 594, 595, 596, 597, 598, 599, 600, 601, 602, 603, 604, 605, 606, 607, 608, 609, 610, 611, 612, 613, 614, 615, 616, 617, 618, 619, 620, 621, 622, 623, 624, 625, 626, 627, 628, 629, 630, 631, 632, 633, 634, 635, 636, 637, 638, 639, 640, 641, 642, 643, 644, 645, 646, 647, 648, 649, 650, 651, 652, 653, 654, 655, 656, 657, 658, 659, 660, 661, 662, 663, 664, 665, 666, 667, 668, 669, 670, 671, 672, 673, 674, 675, 676, 677, 678, 679, 680, 681, 682, 683, 684, 685, 686, 687, 688, 689, 690, 691, 692, 693, 694, 695, 696, 697, 698, 699, 700, 701, 702, 703, 704, 705, 706, 707, 708, 709, 710, 711, 712, 713, 714, 715, 716, 717, 718, 719, 720, 721, 722, 723, 724, 725, 726, 727, 728, 729, 730, 731, 732, 733, 734, 735, 736, 737, 738, 739, 740, 741, 742, 743, 744, 745, 746, 747, 748, 749, 750, 751, 752, 753, 754, 755, 756, 757, 758, 759, 760, 761, 762, 763, 764, 765, 766, 767, 768, 769, 770, 771, 772, 773, 774, 775, 776, 777, 778, 779, 780, 781, 782, 783, 784, 785, 786, 787, 788, 789, 790, 791, 792, 793, 794, 795, 796, 797, 798, 799, 800, 801, 802, 803, 804, 805, 806, 807, 808, 809, 810, 811, 812, 813, 814, 815, 816, 817, 818, 819, 820, 821, 822, 823, 824, 825, 826, 827, 828, 829, 830, 831, 832, 833, 834, 835, 836, 837, 838, 839, 840, 841, 842, 843, 844, 845, 846, 847, 848, 849, 850, 851, 852, 853, 854, 855, 856, 857, 858, 859, 860, 861, 862, 863, 864, 865, 866, 867, 868, 869, 870, 871, 872],
      "AcquisitionTime": ["164237.575000", "164238.035000", "164238.495000", "164238.955000", "164239.415000", "164239.875000", "164240.335000", "164240.795000", "164241.255000", "164241.715000", "164242.175000", "164242.635000", "164243.095000", "164243.555000", "164244.015000", "164244.475000", "164244.935000", "164245.395000", "164245.855000", "164246.315000", "164246.775000", "164247.235000", "164247.695000", "164248.155000", "164248.615000", "164249.075000", "164249.535000", "164249.995000", "164250.455000", "164250.915000", "164251.375000", "164251.835000", "164252.295000", "164252.755000", "164253.215000", "164253.675000", "164254.135000", "164254.595000", "164255.055000", "164255.515000", "164255.975000", "164256.435000", "164256.895000", "164257.355000", "164257.815000", "164258.275000", "164258.735000", "164259.195000", "164259.655000", "164300.115000", "164300.575000", "164301.035000", "164301.495000", "164301.955000", "164302.415000", "164302.875000", "164303.335000", "164303.795000", "164304.255000", "164304.715000", "164305.175000", "164305.635000", "164306.095000", "164306.555000", "164307.015000", "164307.475000", "164307.935000", "164308.395000", "164308.855000", "164309.315000", "164309.775000", "164310.235000", "164310.695000", "164311.155000", "164311.615000", "164312.075000", "164312.535000", "164312.995000", "164313.455000", "164313.915000", "164314.375000", "164314.835000", "164315.295000", "164315.755000", "164316.215000", "164316.675000", "164317.135000", "164317.595000", "164318.055000", "164318.515000", "164318.975000", "164319.435000", "164319.895000", "164320.355000", "164320.815000", "164321.275000", "164321.735000", "164322.195000", "164322.655000", "164323.115000", "164323.575000", "164324.035000", "164324.495000", "164324.955000", "164325.415000", "164325.875000", "164326.335000", "164326.795000", "164327.255000", "164327.715000", "164328.175000", "164328.635000", "164329.095000", "164329.555000", "164330.015000", "164330.475000", "164330.935000", "164331.395000", "164331.855000", "164332.315000", "164332.775000", "164333.235000", "164333.695000", "164334.155000", "164334.615000", "164335.075000", "164335.535000", "164335.995000", "164336.455000", "164336.915000", "164337.375000", "164337.835000", "164338.295000", "164338.755000", "164339.215000", "164339.675000", "164340.135000", "164340.595000", "164341.055000", "164341.515000", "164341.975000", "164342.435000", "164342.895000", "164343.355000", "164343.815000", "164344.275000", "164344.735000", "164345.195000", "164345.655000", "164346.115000", "164346.575000", "164347.035000", "164347.495000", "164347.955000", "164348.415000", "164348.875000", "164349.335000", "164349.795000", "164350.255000", "164350.715000", "164351.175000", "164351.635000", "164352.095000", "164352.555000", "164353.015000", "164353.475000", "164353.935000", "164354.395000", "164354.855000", "164355.315000", "164355.775000", "164356.235000", "164356.695000", "164357.155000", "164357.615000", "164358.075000", "164358.535000", "164358.995000", "164359.455000", "164359.915000", "164400.375000", "164400.835000", "164401.295000", "164401.755000", "164402.215000", "164402.675000", "164403.135000", "164403.595000", "164404.055000", "164404.515000", "164404.975000", "164405.435000", "164405.895000", "164406.355000", "164406.815000", "164407.275000", "164407.735000", "164408.195000", "164408.655000", "164409.115000", "164409.575000", "164410.035000", "164410.495000", "164410.955000", "164411.415000", "164411.875000", "164412.335000", "164412.795000", "164413.255000", "164413.715000", "164414.175000", "164414.635000", "164415.095000", "164415.555000", "164416.015000", "164416.475000", "164416.935000", "164417.395000", "164417.855000", "164418.315000", "164418.775000", "164419.235000", "164419.695000", "164420.155000", "164420.615000", "164421.075000", "164421.535000", "164421.995000", "164422.455000", "164422.915000", "164423.375000", "164423.835000", "164424.295000", "164424.755000", "164425.215000", "164425.675000", "164426.135000", "164426.595000", "164427.055000", "164427.515000", "164427.975000", "164428.435000", "164428.895000", "164429.355000", "164429.815000", "164430.275000", "164430.735000", "164431.195000", "164431.655000", "164432.115000", "164432.575000", "164433.035000", "164433.495000", "164433.955000", "164434.415000", "164434.875000", "164435.335000", "164435.795000", "164436.255000", "164436.715000", "164437.175000", "164437.635000", "164438.095000", "164438.555000", "164439.015000", "164439.475000", "164439.935000", "164440.395000", "164440.855000", "164441.315000", "164441.775000", "164442.235000", "164442.695000", "164443.155000", "164443.615000", "164444.075000", "164444.535000", "164444.995000", "164445.455000", "164445.915000", "164446.375000", "164446.835000", "164447.295000", "164447.755000", "164448.215000", "164448.675000", "164449.135000", "164449.595000", "164450.055000", "164450.515000", "164450.975000", "164451.435000", "164451.895000", "164452.355000", "164452.815000", "164453.275000", "164453.735000", "164454.195000", "164454.655000", "164455.115000", "164455.575000", "164456.035000", "164456.495000", "164456.955000", "164457.415000", "164457.875000", "164458.335000", "164458.795000", "164459.255000", "164459.715000", "164500.175000", "164500.635000", "164501.095000", "164501.555000", "164502.015000", "164502.475000", "164502.935000", "164503.395000", "164503.855000", "164504.315000", "164504.775000", "164505.235000", "164505.695000", "164506.155000", "164506.615000", "164507.075000", "164507.535000", "164507.995000", "164508.455000", "164508.915000", "164509.375000", "164509.835000", "164510.295000", "164510.755000", "164511.215000", "164511.675000", "164512.135000", "164512.595000", "164513.055000", "164513.515000", "164513.975000", "164514.435000", "164514.895000", "164515.355000", "164515.815000", "164516.275000", "164516.735000", "164517.195000", "164517.655000", "164518.115000", "164518.575000", "164519.035000", "164519.495000", "164519.955000", "164520.415000", "164520.875000", "164521.335000", "164521.795000", "164522.255000", "164522.715000", "164523.175000", "164523.635000", "164524.095000", "164524.555000", "164525.015000", "164525.475000", "164525.935000", "164526.395000", "164526.855000", "164527.315000", "164527.775000", "164528.235000", "164528.695000", "164529.155000", "164529.615000", "164530.075000", "164530.535000", "164530.995000", "164531.455000", "164531.915000", "164532.375000", "164532.835000", "164533.295000", "164533.755000", "164534.215000", "164534.675000", "164535.135000", "164535.595000", "164536.055000", "164536.515000", "164536.975000", "164537.435000", "164537.895000", "164538.355000", "164538.815000", "164539.275000", "164539.735000", "164540.195000", "164540.655000", "164541.115000", "164541.575000", "164542.035000", "164542.495000", "164542.955000", "164543.415000", "164543.875000", "164544.335000", "164544.795000", "164545.255000", "164545.715000", "164546.175000", "164546.635000", "164547.095000", "164547.555000", "164548.015000", "164548.475000", "164548.935000", "164549.395000", "164549.855000", "164550.315000", "164550.775000", "164551.235000", "164551.695000", "164552.155000", "164552.615000", "164553.075000", "164553.535000", "164553.995000", "164554.455000", "164554.915000", "164555.375000", "164555.835000", "164556.295000", "164556.755000", "164557.215000", "164557.675000", "164558.135000", "164558.595000", "164559.055000", "164559.515000", "164559.975000", "164600.435000", "164600.895000", "164601.355000", "164601.815000", "164602.275000", "164602.735000", "164603.195000", "164603.655000", "164604.115000", "164604.575000", "164605.035000", "164605.495000", "164605.955000", "164606.415000", "164606.875000", "164607.335000", "164607.795000", "164608.255000", "164608.715000", "164609.175000", "164609.635000", "164610.095000", "164610.555000", "164611.015000", "164611.475000", "164611.935000", "164612.395000", "164612.855000", "164613.315000", "164613.775000", "164614.235000", "164614.695000", "164615.155000", "164615.615000", "164616.075000", "164616.535000", "164616.995000", "164617.455000", "164617.915000", "164618.375000", "164618.835000", "164619.295000", "164619.755000", "164620.215000", "164620.675000", "164621.135000", "164621.595000", "164622.055000", "164622.515000", "164622.975000", "164623.435000", "164623.895000", "164624.355000", "164624.815000", "164625.275000", "164625.735000", "164626.195000", "164626.655000", "164627.115000", "164627.575000", "164628.035000", "164628.495000", "164628.955000", "164629.415000", "164629.875000", "164630.335000", "164630.795000", "164631.255000", "164631.715000", "164632.175000", "164632.635000", "164633.095000", "164633.555000", "164634.015000", "164634.475000", "164634.935000", "164635.395000", "164635.855000", "164636.315000", "164636.775000", "164637.235000", "164637.695000", "164638.155000", "164638.615000", "164639.075000", "164639.535000", "164639.995000", "164640.455000", "164640.915000", "164641.375000", "164641.835000", "164642.295000", "164642.755000", "164643.215000", "164643.675000", "164644.135000", "164644.595000", "164645.055000", "164645.515000", "164645.975000", "164646.435000", "164646.895000", "164647.355000", "164647.815000", "164648.275000", "164648.735000", "164649.195000", "164649.655000", "164650.115000", "164650.575000", "164651.035000", "164651.495000", "164651.955000", "164652.415000", "164652.875000", "164653.335000", "164653.795000", "164654.255000", "164654.715000", "164655.175000", "164655.635000", "164656.095000", "164656.555000", "164657.015000", "164657.475000", "164657.935000", "164658.395000", "164658.855000", "164659.315000", "164659.775000", "164700.235000", "164700.695000", "164701.155000", "164701.615000", "164702.075000", "164702.535000", "164702.995000", "164703.455000", "164703.915000", "164704.375000", "164704.835000", "164705.295000", "164705.755000", "164706.215000", "164706.675000", "164707.135000", "164707.595000", "164708.055000", "164708.515000", "164708.975000", "164709.435000", "164709.895000", "164710.355000", "164710.815000", "164711.275000", "164711.735000", "164712.195000", "164712.655000", "164713.115000", "164713.575000", "164714.035000", "164714.495000", "164714.955000", "164715.415000", "164715.875000", "164716.335000", "164716.795000", "164717.255000", "164717.715000", "164718.175000", "164718.635000", "164719.095000", "164719.555000", "164720.015000", "164720.475000", "164720.935000", "164721.395000", "164721.855000", "164722.315000", "164722.775000", "164723.235000", "164723.695000", "164724.155000", "164724.615000", "164725.075000", "164725.535000", "164725.995000", "164726.455000", "164726.915000", "164727.375000", "164727.835000", "164728.295000", "164728.755000", "164729.215000", "164729.675000", "164730.135000", "164730.595000", "164731.055000", "164731.515000", "164731.975000", "164732.435000", "164732.895000", "164733.355000", "164733.815000", "164734.275000", "164734.735000", "164735.195000", "164735.655000", "164736.115000", "164736.575000", "164737.035000", "164737.495000", "164737.955000", "164738.415000", "164738.875000", "164739.335000", "164739.795000", "164740.255000", "164740.715000", "164741.175000", "164741.635000", "164742.095000", "164742.555000", "164743.015000", "164743.475000", "164743.935000", "164744.395000", "164744.855000", "164745.315000", "164745.775000", "164746.235000", "164746.695000", "164747.155000", "164747.615000", "164748.075000", "164748.535000", "164748.995000", "164749.455000", "164749.915000", "164750.375000", "164750.835000", "164751.295000", "164751.755000", "164752.215000", "164752.675000", "164753.135000", "164753.595000", "164754.055000", "164754.515000", "164754.975000", "164755.435000", "164755.895000", "164756.355000", "164756.815000", "164757.275000", "164757.735000", "164758.195000", "164758.655000", "164759.115000", "164759.575000", "164800.035000", "164800.495000", "164800.955000", "164801.415000", "164801.875000", "164802.335000", "164802.795000", "164803.255000", "164803.715000", "164804.175000", "164804.635000", "164805.095000", "164805.555000", "164806.015000", "164806.475000", "164806.935000", "164807.395000", "164807.855000", "164808.315000", "164808.775000", "164809.235000", "164809.695000", "164810.155000", "164810.615000", "164811.075000", "164811.535000", "164811.995000", "164812.455000", "164812.915000", "164813.375000", "164813.835000", "164814.295000", "164814.755000", "164815.215000", "164815.675000", "164816.135000", "164816.595000", "164817.055000", "164817.515000", "164817.975000", "164818.435000", "164818.895000", "164819.355000", "164819.815000", "164820.275000", "164820.735000", "164821.195000", "164821.655000", "164822.115000", "164822.575000", "164823.035000", "164823.495000", "164823.955000", "164824.415000", "164824.875000", "164825.335000", "164825.795000", "164826.255000", "164826.715000", "164827.175000", "164827.635000", "164828.095000", "164828.555000", "164829.015000", "164829.475000", "164829.935000", "164830.395000", "164830.855000", "164831.315000", "164831.775000", "164832.235000", "164832.695000", "164833.155000", "164833.615000", "164834.075000", "164834.535000", "164834.995000", "164835.455000", "164835.915000", "164836.375000", "164836.835000", "164837.295000", "164837.755000", "164838.215000", "164838.675000", "164839.135000", "164839.595000", "164840.055000", "164840.515000", "164840.975000", "164841.435000", "164841.895000", "164842.355000", "164842.815000", "164843.275000", "164843.735000", "164844.195000", "164844.655000", "164845.115000", "164845.575000", "164846.035000", "164846.495000", "164846.955000", "164847.415000", "164847.875000", "164848.335000", "164848.795000", "164849.255000", "164849.715000", "164850.175000", "164850.635000", "164851.095000", "164851.555000", "164852.015000", "164852.475000", "164852.935000", "164853.395000", "164853.855000", "164854.315000", "164854.775000", "164855.235000", "164855.695000", "164856.155000", "164856.615000", "164857.075000", "164857.535000", "164857.995000", "164858.455000", "164858.915000", "164859.375000", "164859.835000", "164900.295000", "164900.755000", "164901.215000", "164901.675000", "164902.135000", "164902.595000", "164903.055000", "164903.515000", "164903.975000", "164904.435000", "164904.895000", "164905.355000", "164905.815000", "164906.275000", "164906.735000", "164907.195000", "164907.655000", "164908.115000", "164908.575000", "164909.035000", "164909.495000", "164909.955000", "164910.415000", "164910.875000", "164911.335000", "164911.795000", "164912.255000", "164912.715000", "164913.175000", "164913.635000", "164914.095000", "164914.555000", "164915.015000", "164915.475000", "164915.935000", "164916.395000", "164916.855000", "164917.315000", "164917.775000", "164918.235000"],
