{
  "AcquisitionMatrixPE": 82,
  "AcquisitionNumber": 1,
  "AcquisitionTime": "16:28:25.037500",
  "BandwidthPerPixelPhaseEncode": 24.888,
  "BaseResolution": 82,
  "BodyPartExamined": "BRAIN",
  "ConsistencyInfo": "N4_VE11E_LATEST_20181129",
  "ConversionSoftware": "dcm2niix",
  "ConversionSoftwareVersion": "v1.0.20201102",
  "DerivedVendorReportedEchoSpacing": 0.00049,
  "DeviceSerialNumber": "66112",
  "DwellTime": 2e-06,
  "EchoTime": 0.0272,
  "EchoTrainLength": 82,
  "EffectiveEchoSpacing": 0.00049,
  "FlipAngle": 44,
  "ImageComments": "Unaliased MB8/PE3",
  "ImageOrientationPatientDICOM": [0.997864, 0.0438205, 0.0484414, -0.0374621, 0.991429, -0.125159],
  "ImageType": [
    "ORIGINAL",
    "PRIMARY",
    "M",
    "MB",
    "ND",
    "NORM",
    "MOSAIC"
],
  "ImagingFrequency": 123.259,
  "InPlanePhaseEncodingDirectionDICOM": "COL",
  "InstitutionAddress": "Maynard 3,Hanover,NH,US,03755",
  "InstitutionName": "Dartmouth College - PBS",
  "InstitutionalDepartmentName": "Department",
  "MRAcquisitionType": "2D",
  "MagneticFieldStrength": 3,
  "Manufacturer": "Siemens",
  "ManufacturersModelName": "Prisma",
  "Modality": "MR",
  "MultibandAccelerationFactor": 8,
  "PartialFourier": 1,
  "PatientPosition": "HFS",
  "PercentPhaseFOV": 100,
  "PercentSampling": 100,
  "PhaseEncodingDirection": "j-",
  "PhaseEncodingSteps": 82,
  "PhaseResolution": 1,
  "PixelBandwidth": 3050,
  "ProcedureStepDescription": "Wager_Wager^1076_spacetop",
  "ProtocolName": "func_run-02_task-social_acq-ap-mb8",
  "PulseSequenceDetails": "%CustomerSeq%\\cmrr_mbep2d_bold",
  "ReceiveCoilActiveElements": "HEA;HEP",
  "ReceiveCoilName": "Head_32",
  "ReconMatrixPE": 82,
  "RepetitionTime": 0.46,
  "SAR": 0.125183,
  "ScanOptions": "FS",
  "ScanningSequence": "EP",
  "SequenceName": "epfid2d1_82",
  "SequenceVariant": "SK\\SS",
  "SeriesDescription": "func_run-02_task-social_acq-ap-mb8",
  "SeriesNumber": 10,
  "ShimSetting": [4244, -7752, -7229, 4, -164, -105, -47, 53],
  "SliceThickness": 2.7,
  "SliceTiming": [0, 0.25, 0.0625, 0.3125, 0.125, 0.3775, 0.1875, 0, 0.25, 0.0625, 0.3125, 0.125, 0.3775, 0.1875, 0, 0.25, 0.0625, 0.3125, 0.125, 0.3775, 0.1875, 0, 0.25, 0.0625, 0.3125, 0.125, 0.3775, 0.1875, 0, 0.25, 0.0625, 0.3125, 0.125, 0.3775, 0.1875, 0, 0.25, 0.0625, 0.3125, 0.125, 0.3775, 0.1875, 0, 0.25, 0.0625, 0.3125, 0.125, 0.3775, 0.1875, 0, 0.25, 0.0625, 0.3125, 0.125, 0.3775, 0.1875],
  "SoftwareVersions": "syngo MR E11",
  "SpacingBetweenSlices": 2.7,
  "StationName": "AWP66112",
  "TaskName": "social",
  "TotalReadoutTime": 0.03969,
  "TxRefAmp": 313.619,
  "WipMemBlock": "3cfda3e1-4939-4019-9c0b-6576ee1d94b8||Sequence: R016 ve11e/master r/434b28f1; Aug  7 2019 18:53:46 by eja",
  "dcmmeta_affine": [
    [-2.677196979522705, -0.10050800442695618, 0.14447888731956482, 112.00318145751953],
    [-0.11756720393896103, 2.6599321365356445, -0.33230727910995483, -83.87351989746094],
    [0.12996463477611542, 0.33579185605049133, 2.67557430267334, -111.34806823730469],
    [0.0, 0.0, 0.0, 1.0]
],
  "dcmmeta_reorient_transform": [
    [0.0, -1.0, 0.0, 81.0],
    [1.0, 0.0, 0.0, 0.0],
    [0.0, 0.0, 1.0, 0.0],
    [0.0, 0.0, 0.0, 1.0]
],
  "dcmmeta_shape": [82, 82, 56, 872],
  "dcmmeta_slice_dim": 2,
  "dcmmeta_version": 0.6,
  "global": {
    "const": {
      "AccessionNumber": "A004340",
      "AcquisitionMatrix": [82, 0, 0, 82],
      "AngioFlag": "N",
      "BitsAllocated": 16,
      "BitsStored": 16,
      "BodyPartExamined": "BRAIN",
      "Columns": 656,
      "EchoNumbers": 1,
      "EchoTime": 27.2,
      "EchoTrainLength": 82,
      "FlipAngle": 44.0,
      "HighBit": 15,
      "ImageOrientationPatient": [0.99786431841268, 0.04382050349829, 0.04844136158228, -0.037462072145, 0.99142920666616, -0.1251587844296],
      "ImagePositionPatient": [-843.37177960145, -928.72327694954, -25.076511133362],
      "ImageType": [
        "ORIGINAL",
        "PRIMARY",
        "M",
        "MB",
        "ND",
        "NORM",
        "MOSAIC"
],
      "ImagedNucleus": "1H",
      "ImagingFrequency": 123.259131,
      "InPlanePhaseEncodingDirection": "COL",
      "MRAcquisitionType": "2D",
      "MagneticFieldStrength": 3.0,
      "Manufacturer": "SIEMENS",
      "ManufacturerModelName": "Prisma",
      "Modality": "MR",
      "NumberOfAverages": 1.0,
      "NumberOfPhaseEncodingSteps": 82,
      "PercentPhaseFieldOfView": 100.0,
      "PercentSampling": 100.0,
      "PerformedProcedureStepStartTime": "160510.737000",
      "PhotometricInterpretation": "MONOCHROME2",
      "PixelBandwidth": 3050.0,
      "PixelRepresentation": 0,
      "PixelSpacing": [2.6829268932343, 2.6829268932343],
      "ProtocolName": "func_run-02_task-social_acq-ap-mb8",
      "RepetitionTime": 460.0,
      "Rows": 656,
      "SAR": 0.12518291324938,
      "SamplesPerPixel": 1,
      "ScanOptions": "FS",
      "ScanningSequence": "EP",
      "SequenceName": "epfid2d1_82",
      "SequenceVariant": [
        "SK",
        "SS"
],
      "SeriesDescription": "func_run-02_task-social_acq-ap-mb8",
      "SeriesNumber": 10,
      "SeriesTime": "162837.647000",
      "SliceLocation": -94.024501607589,
      "SliceThickness": 2.7000000476837,
      "SmallestImagePixelValue": 0,
      "SoftwareVersions": "syngo MR E11",
      "SpacingBetweenSlices": 2.6999999403963,
      "SpecificCharacterSet": "ISO_IR 100",
      "StudyID": "3",
      "StudyTime": "160510.685000",
      "TransmitCoilName": "Body",
      "VariableFlipAngleFlag": "N",
      "WindowCenterWidthExplanation": "Algo1"
    },
    "slices": {}
  },
  "time": {
    "samples": {
      "AcquisitionNumber": [1, 2, 3, 4, 5, 6, 7, 8, 9, 10, 11, 12, 13, 14, 15, 16, 17, 18, 19, 20, 21, 22, 23, 24, 25, 26, 27, 28, 29, 30, 31, 32, 33, 34, 35, 36, 37, 38, 39, 40, 41, 42, 43, 44, 45, 46, 47, 48, 49, 50, 51, 52, 53, 54, 55, 56, 57, 58, 59, 60, 61, 62, 63, 64, 65, 66, 67, 68, 69, 70, 71, 72, 73, 74, 75, 76, 77, 78, 79, 80, 81, 82, 83, 84, 85, 86, 87, 88, 89, 90, 91, 92, 93, 94, 95, 96, 97, 98, 99, 100, 101, 102, 103, 104, 105, 106, 107, 108, 109, 110, 111, 112, 113, 114, 115, 116, 117, 118, 119, 120, 121, 122, 123, 124, 125, 126, 127, 128, 129, 130, 131, 132, 133, 134, 135, 136, 137, 138, 139, 140, 141, 142, 143, 144, 145, 146, 147, 148, 149, 150, 151, 152, 153, 154, 155, 156, 157, 158, 159, 160, 161, 162, 163, 164, 165, 166, 167, 168, 169, 170, 171, 172, 173, 174, 175, 176, 177, 178, 179, 180, 181, 182, 183, 184, 185, 186, 187, 188, 189, 190, 191, 192, 193, 194, 195, 196, 197, 198, 199, 200, 201, 202, 203, 204, 205, 206, 207, 208, 209, 210, 211, 212, 213, 214, 215, 216, 217, 218, 219, 220, 221, 222, 223, 224, 225, 226, 227, 228, 229, 230, 231, 232, 233, 234, 235, 236, 237, 238, 239, 240, 241, 242, 243, 244, 245, 246, 247, 248, 249, 250, 251, 252, 253, 254, 255, 256, 257, 258, 259, 260, 261, 262, 263, 264, 265, 266, 267, 268, 269, 270, 271, 272, 273, 274, 275, 276, 277, 278, 279, 280, 281, 282, 283, 284, 285, 286, 287, 288, 289, 290, 291, 292, 293, 294, 295, 296, 297, 298, 299, 300, 301, 302, 303, 304, 305, 306, 307, 308, 309, 310, 311, 312, 313, 314, 315, 316, 317, 318, 319, 320, 321, 322, 323, 324, 325, 326, 327, 328, 329, 330, 331, 332, 333, 334, 335, 336, 337, 338, 339, 340, 341, 342, 343, 344, 345, 346, 347, 348, 349, 350, 351, 352, 353, 354, 355, 356, 357, 358, 359, 360, 361, 362, 363, 364, 365, 366, 367, 368, 369, 370, 371, 372, 373, 374, 375, 376, 377, 378, 379, 380, 381, 382, 383, 384, 385, 386, 387, 388, 389, 390, 391, 392, 393, 394, 395, 396, 397, 398, 399, 400, 401, 402, 403, 404, 405, 406, 407, 408, 409, 410, 411, 412, 413, 414, 415, 416, 417, 418, 419, 420, 421, 422, 423, 424, 425, 426, 427, 428, 429, 430, 431, 432, 433, 434, 435, 436, 437, 438, 439, 440, 441, 442, 443, 444, 445, 446, 447, 448, 449, 450, 451, 452, 453, 454, 455, 456, 457, 458, 459, 460, 461, 462, 463, 464, 465, 466, 467, 468, 469, 470, 471, 472, 473, 474, 475, 476, 477, 478, 479, 480, 481, 482, 483, 484, 485, 486, 487, 488, 489, 490, 491, 492, 493, 494, 495, 496, 497, 498, 499, 500, 501, 502, 503, 504, 505, 506, 507, 508, 509, 510, 511, 512, 513, 514, 515, 516, 517, 518, 519, 520, 521, 522, 523, 524, 525, 526, 527, 528, 529, 530, 531, 532, 533, 534, 535, 536, 537, 538, 539, 540, 541, 542, 543, 544, 545, 546, 547, 548, 549, 550, 551, 552, 553, 554, 555, 556, 557, 558, 559, 560, 561, 562, 563, 564, 565, 566, 567, 568, 569, 570, 571, 572, 573, 574, 575, 576, 577, 578, 579, 580, 581, 582, 583, 584, 585, 586, 587, 588, 589, 590, 591, 592, 593, 594, 595, 596, 597, 598, 599, 600, 601, 602, 603, 604, 605, 606, 607, 608, 609, 610, 611, 612, 613, 614, 615, 616, 617, 618, 619, 620, 621, 622, 623, 624, 625, 626, 627, 628, 629, 630, 631, 632, 633, 634, 635, 636, 637, 638, 639, 640, 641, 642, 643, 644, 645, 646, 647, 648, 649, 650, 651, 652, 653, 654, 655, 656, 657, 658, 659, 660, 661, 662, 663, 664, 665, 666, 667, 668, 669, 670, 671, 672, 673, 674, 675, 676, 677, 678, 679, 680, 681, 682, 683, 684, 685, 686, 687, 688, 689, 690, 691, 692, 693, 694, 695, 696, 697, 698, 699, 700, 701, 702, 703, 704, 705, 706, 707, 708, 709, 710, 711, 712, 713, 714, 715, 716, 717, 718, 719, 720, 721, 722, 723, 724, 725, 726, 727, 728, 729, 730, 731, 732, 733, 734, 735, 736, 737, 738, 739, 740, 741, 742, 743, 744, 745, 746, 747, 748, 749, 750, 751, 752, 753, 754, 755, 756, 757, 758, 759, 760, 761, 762, 763, 764, 765, 766, 767, 768, 769, 770, 771, 772, 773, 774, 775, 776, 777, 778, 779, 780, 781, 782, 783, 784, 785, 786, 787, 788, 789, 790, 791, 792, 793, 794, 795, 796, 797, 798, 799, 800, 801, 802, 803, 804, 805, 806, 807, 808, 809, 810, 811, 812, 813, 814, 815, 816, 817, 818, 819, 820, 821, 822, 823, 824, 825, 826, 827, 828, 829, 830, 831, 832, 833, 834, 835, 836, 837, 838, 839, 840, 841, 842, 843, 844, 845, 846, 847, 848, 849, 850, 851, 852, 853, 854, 855, 856, 857, 858, 859, 860, 861, 862, 863, 864, 865, 866, 867, 868, 869, 870, 871, 872],
      "AcquisitionTime": ["162825.037500", "162825.497500", "162825.957500", "162826.417500", "162826.877500", "162827.337500", "162827.797500", "162828.257500", "162828.717500", "162829.177500", "162829.637500", "162830.097500", "162830.557500", "162831.017500", "162831.477500", "162831.937500", "162832.397500", "162832.857500", "162833.317500", "162833.777500", "162834.237500", "162834.697500", "162835.157500", "162835.617500", "162836.077500", "162836.537500", "162836.997500", "162837.457500", "162837.917500", "162838.377500", "162838.837500", "162839.297500", "162839.757500", "162840.217500", "162840.677500", "162841.137500", "162841.597500", "162842.057500", "162842.517500", "162842.977500", "162843.437500", "162843.897500", "162844.357500", "162844.817500", "162845.277500", "162845.737500", "162846.197500", "162846.657500", "162847.117500", "162847.577500", "162848.037500", "162848.497500", "162848.957500", "162849.417500", "162849.877500", "162850.337500", "162850.797500", "162851.257500", "162851.717500", "162852.177500", "162852.637500", "162853.097500", "162853.557500", "162854.017500", "162854.477500", "162854.937500", "162855.397500", "162855.857500", "162856.317500", "162856.777500", "162857.237500", "162857.697500", "162858.157500", "162858.617500", "162859.077500", "162859.537500", "162859.997500", "162900.457500", "162900.917500", "162901.377500", "162901.837500", "162902.297500", "162902.757500", "162903.217500", "162903.677500", "162904.137500", "162904.597500", "162905.057500", "162905.517500", "162905.977500", "162906.437500", "162906.897500", "162907.357500", "162907.817500", "162908.277500", "162908.737500", "162909.197500", "162909.657500", "162910.117500", "162910.577500", "162911.037500", "162911.497500", "162911.957500", "162912.417500", "162912.877500", "162913.337500", "162913.797500", "162914.257500", "162914.717500", "162915.177500", "162915.637500", "162916.097500", "162916.557500", "162917.017500", "162917.477500", "162917.937500", "162918.397500", "162918.857500", "162919.317500", "162919.777500", "162920.237500", "162920.697500", "162921.157500", "162921.617500", "162922.077500", "162922.537500", "162922.997500", "162923.457500", "162923.917500", "162924.377500", "162924.837500", "162925.297500", "162925.757500", "162926.217500", "162926.677500", "162927.137500", "162927.597500", "162928.057500", "162928.517500", "162928.977500", "162929.437500", "162929.897500", "162930.357500", "162930.817500", "162931.277500", "162931.737500", "162932.197500", "162932.657500", "162933.117500", "162933.577500", "162934.037500", "162934.497500", "162934.957500", "162935.417500", "162935.877500", "162936.337500", "162936.797500", "162937.257500", "162937.717500", "162938.177500", "162938.637500", "162939.097500", "162939.557500", "162940.017500", "162940.477500", "162940.937500", "162941.397500", "162941.857500", "162942.317500", "162942.777500", "162943.237500", "162943.697500", "162944.157500", "162944.617500", "162945.077500", "162945.537500", "162945.997500", "162946.457500", "162946.917500", "162947.377500", "162947.837500", "162948.297500", "162948.757500", "162949.217500", "162949.677500", "162950.137500", "162950.597500", "162951.057500", "162951.517500", "162951.977500", "162952.437500", "162952.897500", "162953.357500", "162953.817500", "162954.277500", "162954.737500", "162955.197500", "162955.657500", "162956.117500", "162956.577500", "162957.037500", "162957.497500", "162957.957500", "162958.417500", "162958.877500", "162959.337500", "162959.797500", "163000.257500", "163000.717500", "163001.177500", "163001.637500", "163002.097500", "163002.557500", "163003.017500", "163003.477500", "163003.937500", "163004.397500", "163004.857500", "163005.317500", "163005.777500", "163006.237500", "163006.697500", "163007.157500", "163007.617500", "163008.077500", "163008.537500", "163008.997500", "163009.457500", "163009.917500", "163010.377500", "163010.837500", "163011.297500", "163011.757500", "163012.217500", "163012.677500", "163013.137500", "163013.597500", "163014.057500", "163014.517500", "163014.977500", "163015.437500", "163015.897500", "163016.357500", "163016.817500", "163017.277500", "163017.737500", "163018.197500", "163018.657500", "163019.117500", "163019.577500", "163020.037500", "163020.497500", "163020.957500", "163021.417500", "163021.877500", "163022.337500", "163022.797500", "163023.257500", "163023.717500", "163024.177500", "163024.637500", "163025.097500", "163025.557500", "163026.017500", "163026.477500", "163026.937500", "163027.397500", "163027.857500", "163028.317500", "163028.777500", "163029.237500", "163029.697500", "163030.157500", "163030.617500", "163031.077500", "163031.537500", "163031.997500", "163032.457500", "163032.917500", "163033.377500", "163033.837500", "163034.297500", "163034.757500", "163035.217500", "163035.677500", "163036.137500", "163036.597500", "163037.057500", "163037.517500", "163037.977500", "163038.437500", "163038.897500", "163039.357500", "163039.817500", "163040.277500", "163040.737500", "163041.197500", "163041.657500", "163042.117500", "163042.577500", "163043.037500", "163043.497500", "163043.957500", "163044.417500", "163044.877500", "163045.337500", "163045.797500", "163046.257500", "163046.717500", "163047.177500", "163047.637500", "163048.097500", "163048.557500", "163049.017500", "163049.477500", "163049.937500", "163050.397500", "163050.857500", "163051.317500", "163051.777500", "163052.237500", "163052.697500", "163053.157500", "163053.617500", "163054.077500", "163054.537500", "163054.997500", "163055.457500", "163055.917500", "163056.377500", "163056.837500", "163057.297500", "163057.757500", "163058.217500", "163058.677500", "163059.137500", "163059.597500", "163100.057500", "163100.517500", "163100.977500", "163101.437500", "163101.897500", "163102.357500", "163102.817500", "163103.277500", "163103.737500", "163104.197500", "163104.657500", "163105.117500", "163105.577500", "163106.037500", "163106.497500", "163106.957500", "163107.417500", "163107.877500", "163108.337500", "163108.797500", "163109.257500", "163109.717500", "163110.177500", "163110.637500", "163111.097500", "163111.557500", "163112.017500", "163112.477500", "163112.937500", "163113.397500", "163113.857500", "163114.317500", "163114.777500", "163115.237500", "163115.697500", "163116.157500", "163116.617500", "163117.077500", "163117.537500", "163117.997500", "163118.457500", "163118.917500", "163119.377500", "163119.837500", "163120.297500", "163120.757500", "163121.217500", "163121.677500", "163122.137500", "163122.597500", "163123.057500", "163123.517500", "163123.977500", "163124.437500", "163124.897500", "163125.357500", "163125.817500", "163126.277500", "163126.737500", "163127.197500", "163127.657500", "163128.117500", "163128.577500", "163129.037500", "163129.497500", "163129.957500", "163130.417500", "163130.877500", "163131.337500", "163131.797500", "163132.257500", "163132.717500", "163133.177500", "163133.637500", "163134.097500", "163134.557500", "163135.017500", "163135.477500", "163135.937500", "163136.397500", "163136.857500", "163137.317500", "163137.777500", "163138.237500", "163138.697500", "163139.157500", "163139.617500", "163140.077500", "163140.537500", "163140.997500", "163141.457500", "163141.917500", "163142.377500", "163142.837500", "163143.297500", "163143.757500", "163144.217500", "163144.677500", "163145.137500", "163145.597500", "163146.057500", "163146.517500", "163146.977500", "163147.437500", "163147.897500", "163148.357500", "163148.817500", "163149.277500", "163149.737500", "163150.197500", "163150.657500", "163151.117500", "163151.577500", "163152.037500", "163152.497500", "163152.957500", "163153.417500", "163153.877500", "163154.337500", "163154.797500", "163155.257500", "163155.717500", "163156.177500", "163156.637500", "163157.097500", "163157.557500", "163158.017500", "163158.477500", "163158.937500", "163159.397500", "163159.857500", "163200.317500", "163200.777500", "163201.237500", "163201.697500", "163202.157500", "163202.617500", "163203.077500", "163203.537500", "163203.997500", "163204.457500", "163204.917500", "163205.377500", "163205.837500", "163206.297500", "163206.757500", "163207.217500", "163207.677500", "163208.137500", "163208.597500", "163209.057500", "163209.517500", "163209.977500", "163210.437500", "163210.897500", "163211.357500", "163211.817500", "163212.277500", "163212.737500", "163213.197500", "163213.657500", "163214.117500", "163214.577500", "163215.037500", "163215.497500", "163215.957500", "163216.417500", "163216.877500", "163217.337500", "163217.797500", "163218.257500", "163218.717500", "163219.177500", "163219.637500", "163220.097500", "163220.557500", "163221.017500", "163221.477500", "163221.937500", "163222.397500", "163222.857500", "163223.317500", "163223.777500", "163224.237500", "163224.697500", "163225.157500", "163225.617500", "163226.077500", "163226.537500", "163226.997500", "163227.457500", "163227.917500", "163228.377500", "163228.837500", "163229.297500", "163229.757500", "163230.217500", "163230.677500", "163231.137500", "163231.597500", "163232.057500", "163232.517500", "163232.977500", "163233.437500", "163233.897500", "163234.357500", "163234.817500", "163235.277500", "163235.737500", "163236.197500", "163236.657500", "163237.117500", "163237.577500", "163238.037500", "163238.497500", "163238.957500", "163239.417500", "163239.877500", "163240.337500", "163240.797500", "163241.257500", "163241.717500", "163242.177500", "163242.637500", "163243.097500", "163243.557500", "163244.017500", "163244.477500", "163244.937500", "163245.397500", "163245.857500", "163246.317500", "163246.777500", "163247.237500", "163247.697500", "163248.157500", "163248.617500", "163249.077500", "163249.537500", "163249.997500", "163250.457500", "163250.917500", "163251.377500", "163251.837500", "163252.297500", "163252.757500", "163253.217500", "163253.677500", "163254.137500", "163254.597500", "163255.057500", "163255.517500", "163255.977500", "163256.437500", "163256.897500", "163257.357500", "163257.817500", "163258.277500", "163258.737500", "163259.197500", "163259.657500", "163300.117500", "163300.577500", "163301.037500", "163301.497500", "163301.957500", "163302.417500", "163302.877500", "163303.337500", "163303.797500", "163304.257500", "163304.717500", "163305.177500", "163305.637500", "163306.097500", "163306.557500", "163307.017500", "163307.477500", "163307.937500", "163308.397500", "163308.857500", "163309.317500", "163309.777500", "163310.237500", "163310.697500", "163311.157500", "163311.617500", "163312.077500", "163312.537500", "163312.997500", "163313.457500", "163313.917500", "163314.377500", "163314.837500", "163315.297500", "163315.757500", "163316.217500", "163316.677500", "163317.137500", "163317.597500", "163318.057500", "163318.517500", "163318.977500", "163319.437500", "163319.897500", "163320.357500", "163320.817500", "163321.277500", "163321.737500", "163322.197500", "163322.657500", "163323.117500", "163323.577500", "163324.037500", "163324.497500", "163324.957500", "163325.417500", "163325.877500", "163326.337500", "163326.797500", "163327.257500", "163327.717500", "163328.177500", "163328.637500", "163329.097500", "163329.557500", "163330.017500", "163330.477500", "163330.937500", "163331.397500", "163331.857500", "163332.317500", "163332.777500", "163333.237500", "163333.697500", "163334.157500", "163334.617500", "163335.077500", "163335.537500", "163335.997500", "163336.457500", "163336.917500", "163337.377500", "163337.837500", "163338.297500", "163338.757500", "163339.217500", "163339.677500", "163340.137500", "163340.597500", "163341.057500", "163341.517500", "163341.977500", "163342.437500", "163342.897500", "163343.357500", "163343.817500", "163344.277500", "163344.737500", "163345.197500", "163345.657500", "163346.117500", "163346.577500", "163347.037500", "163347.497500", "163347.957500", "163348.417500", "163348.877500", "163349.337500", "163349.797500", "163350.257500", "163350.717500", "163351.177500", "163351.637500", "163352.097500", "163352.557500", "163353.017500", "163353.477500", "163353.937500", "163354.397500", "163354.857500", "163355.317500", "163355.777500", "163356.237500", "163356.697500", "163357.157500", "163357.617500", "163358.077500", "163358.537500", "163358.997500", "163359.457500", "163359.917500", "163400.377500", "163400.837500", "163401.297500", "163401.757500", "163402.217500", "163402.677500", "163403.137500", "163403.597500", "163404.057500", "163404.517500", "163404.977500", "163405.437500", "163405.897500", "163406.357500", "163406.817500", "163407.277500", "163407.737500", "163408.197500", "163408.657500", "163409.117500", "163409.577500", "163410.037500", "163410.497500", "163410.957500", "163411.417500", "163411.877500", "163412.337500", "163412.797500", "163413.257500", "163413.717500", "163414.177500", "163414.637500", "163415.097500", "163415.557500", "163416.017500", "163416.477500", "163416.937500", "163417.397500", "163417.857500", "163418.317500", "163418.777500", "163419.237500", "163419.697500", "163420.157500", "163420.617500", "163421.077500", "163421.537500", "163421.997500", "163422.457500", "163422.917500", "163423.377500", "163423.837500", "163424.297500", "163424.757500", "163425.217500", "163425.677500", "163426.137500", "163426.597500", "163427.057500", "163427.517500", "163427.977500", "163428.437500", "163428.897500", "163429.357500", "163429.817500", "163430.277500", "163430.737500", "163431.197500", "163431.657500", "163432.117500", "163432.577500", "163433.037500", "163433.497500", "163433.957500", "163434.417500", "163434.877500", "163435.337500", "163435.797500", "163436.257500", "163436.717500", "163437.177500", "163437.637500", "163438.097500", "163438.557500", "163439.017500", "163439.477500", "163439.937500", "163440.397500", "163440.857500", "163441.317500", "163441.777500", "163442.237500", "163442.697500", "163443.157500", "163443.617500", "163444.077500", "163444.537500", "163444.997500", "163445.457500", "163445.917500", "163446.377500", "163446.837500", "163447.297500", "163447.757500", "163448.217500", "163448.677500", "163449.137500", "163449.597500", "163450.057500", "163450.517500", "163450.977500", "163451.437500", "163451.897500", "163452.357500", "163452.817500", "163453.277500", "163453.737500", "163454.197500", "163454.657500", "163455.117500", "163455.577500", "163456.037500", "163456.497500", "163456.957500", "163457.417500", "163457.877500", "163458.337500", "163458.797500", "163459.257500", "163459.717500", "163500.177500", "163500.637500", "163501.097500", "163501.557500", "163502.017500", "163502.477500", "163502.937500", "163503.397500", "163503.857500", "163504.317500", "163504.777500", "163505.237500", "163505.697500"],
