{
  "AcquisitionMatrixPE": 82,
  "AcquisitionNumber": 1,
  "AcquisitionTime": "12:58:50.317500",
  "BandwidthPerPixelPhaseEncode": 24.888,
  "BaseResolution": 82,
  "BodyPartExamined": "BRAIN",
  "ConsistencyInfo": "N4_VE11E_LATEST_20181129",
  "ConversionSoftware": "dcm2niix",
  "ConversionSoftwareVersion": "v1.0.20201102",
  "DerivedVendorReportedEchoSpacing": 0.00049,
  "DeviceSerialNumber": "66112",
  "DwellTime": 2e-06,
  "EchoTime": 0.0272,
  "EchoTrainLength": 82,
  "EffectiveEchoSpacing": 0.00049,
  "FlipAngle": 44,
  "ImageComments": "Unaliased MB8/PE3",
  "ImageOrientationPatientDICOM": [0.998648, 0.0240638, -0.0460869, -0.0256272, 0.999105, -0.0336389],
  "ImageType": [
    "ORIGINAL",
    "PRIMARY",
    "M",
    "MB",
    "ND",
    "NORM",
    "MOSAIC"
],
  "ImagingFrequency": 123.252,
  "InPlanePhaseEncodingDirectionDICOM": "COL",
  "InstitutionAddress": "Maynard 3,Hanover,NH,US,03755",
  "InstitutionName": "Dartmouth College - PBS",
  "InstitutionalDepartmentName": "Department",
  "MRAcquisitionType": "2D",
  "MagneticFieldStrength": 3,
  "Manufacturer": "Siemens",
  "ManufacturersModelName": "Prisma",
  "Modality": "MR",
  "MultibandAccelerationFactor": 8,
  "PartialFourier": 1,
  "PatientPosition": "HFS",
  "PercentPhaseFOV": 100,
  "PercentSampling": 100,
  "PhaseEncodingDirection": "j-",
  "PhaseEncodingSteps": 82,
  "PhaseResolution": 1,
  "PixelBandwidth": 3050,
  "ProcedureStepDescription": "Wager_Wager^1076_spacetop",
  "ProtocolName": "func_run-04_task-social_acq-ap-mb8",
  "PulseSequenceDetails": "%CustomerSeq%\\cmrr_mbep2d_bold",
  "ReceiveCoilActiveElements": "HEA;HEP",
  "ReceiveCoilName": "Head_32",
  "ReconMatrixPE": 82,
  "RepetitionTime": 0.46,
  "SAR": 0.100318,
  "ScanOptions": "FS",
  "ScanningSequence": "EP",
  "SequenceName": "epfid2d1_82",
  "SequenceVariant": "SK\\SS",
  "SeriesDescription": "func_run-04_task-social_acq-ap-mb8",
  "SeriesNumber": 18,
  "ShimSetting": [4131, -7705, -7276, 540, -48, -1, -12, 120],
  "SliceThickness": 2.7,
  "SliceTiming": [0, 0.25, 0.0625, 0.3125, 0.125, 0.3775, 0.1875, 0, 0.25, 0.0625, 0.3125, 0.125, 0.3775, 0.1875, 0, 0.25, 0.0625, 0.3125, 0.125, 0.3775, 0.1875, 0, 0.25, 0.0625, 0.3125, 0.125, 0.3775, 0.1875, 0, 0.25, 0.0625, 0.3125, 0.125, 0.3775, 0.1875, 0, 0.25, 0.0625, 0.3125, 0.125, 0.3775, 0.1875, 0, 0.25, 0.0625, 0.3125, 0.125, 0.3775, 0.1875, 0, 0.25, 0.0625, 0.3125, 0.125, 0.3775, 0.1875],
  "SoftwareVersions": "syngo MR E11",
  "SpacingBetweenSlices": 2.7,
  "StationName": "AWP66112",
  "TaskName": "social",
  "TotalReadoutTime": 0.03969,
  "TxRefAmp": 250.749,
  "WipMemBlock": "5eab78cc-c816-48d0-9785-bd5cdf1dbdf7||Sequence: R016 ve11e/master r/434b28f1; Aug  7 2019 18:53:46 by eja",
  "dcmmeta_affine": [
    [-2.6792984008789062, -0.06875593960285187, -0.1221376433968544, 118.08679962158203],
    [-0.06456132978200912, 2.6805267333984375, -0.0938912108540535, -85.03668212890625],
    [-0.12364771217107773, 0.09025081992149353, 2.695601224899292, -82.84330749511719],
    [0.0, 0.0, 0.0, 1.0]
],
  "dcmmeta_reorient_transform": [
    [0.0, -1.0, 0.0, 81.0],
    [1.0, 0.0, 0.0, 0.0],
    [0.0, 0.0, 1.0, 0.0],
    [0.0, 0.0, 0.0, 1.0]
],
  "dcmmeta_shape": [82, 82, 56, 872],
  "dcmmeta_slice_dim": 2,
  "dcmmeta_version": 0.6,
  "global": {
    "const": {
      "AccessionNumber": "A003950",
      "AcquisitionMatrix": [82, 0, 0, 82],
      "AngioFlag": "N",
      "BitsAllocated": 16,
      "BitsStored": 16,
      "BodyPartExamined": "BRAIN",
      "Columns": 656,
      "EchoNumbers": 1,
      "EchoTime": 27.2,
      "EchoTrainLength": 82,
      "FlipAngle": 44.0,
      "HighBit": 15,
      "ImageOrientationPatient": [0.99864755307057, 0.02406376658261, -0.046086873229, -0.0256272130276, 0.99910543365719, -0.0336389415575],
      "ImagePositionPatient": [-861.74324785004, -919.92629598913, -14.144114872304],
      "ImageType": [
        "ORIGINAL",
        "PRIMARY",
        "M",
        "MB",
        "ND",
        "NORM",
        "MOSAIC"
],
      "ImagedNucleus": "1H",
      "ImagingFrequency": 123.252211,
      "InPlanePhaseEncodingDirection": "COL",
      "MRAcquisitionType": "2D",
      "MagneticFieldStrength": 3.0,
      "Manufacturer": "SIEMENS",
      "ManufacturerModelName": "Prisma",
      "Modality": "MR",
      "NumberOfAverages": 1.0,
      "NumberOfPhaseEncodingSteps": 82,
      "PercentPhaseFieldOfView": 100.0,
      "PercentSampling": 100.0,
      "PerformedProcedureStepStartTime": "114904.483000",
      "PhotometricInterpretation": "MONOCHROME2",
      "PixelBandwidth": 3050.0,
      "PixelRepresentation": 0,
      "PixelSpacing": [2.6829268932343, 2.6829268932343],
      "ProtocolName": "func_run-04_task-social_acq-ap-mb8",
      "RepetitionTime": 460.0,
      "Rows": 656,
      "SAR": 0.10031751730697,
      "SamplesPerPixel": 1,
      "ScanOptions": "FS",
      "ScanningSequence": "EP",
      "SequenceName": "epfid2d1_82",
      "SequenceVariant": [
        "SK",
        "SS"
],
      "SeriesDescription": "func_run-04_task-social_acq-ap-mb8",
      "SeriesNumber": 18,
      "SeriesTime": "125918.556000",
      "SliceLocation": -85.093032712212,
      "SliceThickness": 2.7000000476837,
      "SmallestImagePixelValue": 0,
      "SoftwareVersions": "syngo MR E11",
      "SpacingBetweenSlices": 2.6999999215862,
      "SpecificCharacterSet": "ISO_IR 100",
      "StudyID": "5",
      "StudyTime": "114904.432000",
      "TransmitCoilName": "Body",
      "VariableFlipAngleFlag": "N",
      "WindowCenterWidthExplanation": "Algo1"
    },
    "slices": {}
  },
  "time": {
    "samples": {
      "AcquisitionNumber": [1, 2, 3, 4, 5, 6, 7, 8, 9, 10, 11, 12, 13, 14, 15, 16, 17, 18, 19, 20, 21, 22, 23, 24, 25, 26, 27, 28, 29, 30, 31, 32, 33, 34, 35, 36, 37, 38, 39, 40, 41, 42, 43, 44, 45, 46, 47, 48, 49, 50, 51, 52, 53, 54, 55, 56, 57, 58, 59, 60, 61, 62, 63, 64, 65, 66, 67, 68, 69, 70, 71, 72, 73, 74, 75, 76, 77, 78, 79, 80, 81, 82, 83, 84, 85, 86, 87, 88, 89, 90, 91, 92, 93, 94, 95, 96, 97, 98, 99, 100, 101, 102, 103, 104, 105, 106, 107, 108, 109, 110, 111, 112, 113, 114, 115, 116, 117, 118, 119, 120, 121, 122, 123, 124, 125, 126, 127, 128, 129, 130, 131, 132, 133, 134, 135, 136, 137, 138, 139, 140, 141, 142, 143, 144, 145, 146, 147, 148, 149, 150, 151, 152, 153, 154, 155, 156, 157, 158, 159, 160, 161, 162, 163, 164, 165, 166, 167, 168, 169, 170, 171, 172, 173, 174, 175, 176, 177, 178, 179, 180, 181, 182, 183, 184, 185, 186, 187, 188, 189, 190, 191, 192, 193, 194, 195, 196, 197, 198, 199, 200, 201, 202, 203, 204, 205, 206, 207, 208, 209, 210, 211, 212, 213, 214, 215, 216, 217, 218, 219, 220, 221, 222, 223, 224, 225, 226, 227, 228, 229, 230, 231, 232, 233, 234, 235, 236, 237, 238, 239, 240, 241, 242, 243, 244, 245, 246, 247, 248, 249, 250, 251, 252, 253, 254, 255, 256, 257, 258, 259, 260, 261, 262, 263, 264, 265, 266, 267, 268, 269, 270, 271, 272, 273, 274, 275, 276, 277, 278, 279, 280, 281, 282, 283, 284, 285, 286, 287, 288, 289, 290, 291, 292, 293, 294, 295, 296, 297, 298, 299, 300, 301, 302, 303, 304, 305, 306, 307, 308, 309, 310, 311, 312, 313, 314, 315, 316, 317, 318, 319, 320, 321, 322, 323, 324, 325, 326, 327, 328, 329, 330, 331, 332, 333, 334, 335, 336, 337, 338, 339, 340, 341, 342, 343, 344, 345, 346, 347, 348, 349, 350, 351, 352, 353, 354, 355, 356, 357, 358, 359, 360, 361, 362, 363, 364, 365, 366, 367, 368, 369, 370, 371, 372, 373, 374, 375, 376, 377, 378, 379, 380, 381, 382, 383, 384, 385, 386, 387, 388, 389, 390, 391, 392, 393, 394, 395, 396, 397, 398, 399, 400, 401, 402, 403, 404, 405, 406, 407, 408, 409, 410, 411, 412, 413, 414, 415, 416, 417, 418, 419, 420, 421, 422, 423, 424, 425, 426, 427, 428, 429, 430, 431, 432, 433, 434, 435, 436, 437, 438, 439, 440, 441, 442, 443, 444, 445, 446, 447, 448, 449, 450, 451, 452, 453, 454, 455, 456, 457, 458, 459, 460, 461, 462, 463, 464, 465, 466, 467, 468, 469, 470, 471, 472, 473, 474, 475, 476, 477, 478, 479, 480, 481, 482, 483, 484, 485, 486, 487, 488, 489, 490, 491, 492, 493, 494, 495, 496, 497, 498, 499, 500, 501, 502, 503, 504, 505, 506, 507, 508, 509, 510, 511, 512, 513, 514, 515, 516, 517, 518, 519, 520, 521, 522, 523, 524, 525, 526, 527, 528, 529, 530, 531, 532, 533, 534, 535, 536, 537, 538, 539, 540, 541, 542, 543, 544, 545, 546, 547, 548, 549, 550, 551, 552, 553, 554, 555, 556, 557, 558, 559, 560, 561, 562, 563, 564, 565, 566, 567, 568, 569, 570, 571, 572, 573, 574, 575, 576, 577, 578, 579, 580, 581, 582, 583, 584, 585, 586, 587, 588, 589, 590, 591, 592, 593, 594, 595, 596, 597, 598, 599, 600, 601, 602, 603, 604, 605, 606, 607, 608, 609, 610, 611, 612, 613, 614, 615, 616, 617, 618, 619, 620, 621, 622, 623, 624, 625, 626, 627, 628, 629, 630, 631, 632, 633, 634, 635, 636, 637, 638, 639, 640, 641, 642, 643, 644, 645, 646, 647, 648, 649, 650, 651, 652, 653, 654, 655, 656, 657, 658, 659, 660, 661, 662, 663, 664, 665, 666, 667, 668, 669, 670, 671, 672, 673, 674, 675, 676, 677, 678, 679, 680, 681, 682, 683, 684, 685, 686, 687, 688, 689, 690, 691, 692, 693, 694, 695, 696, 697, 698, 699, 700, 701, 702, 703, 704, 705, 706, 707, 708, 709, 710, 711, 712, 713, 714, 715, 716, 717, 718, 719, 720, 721, 722, 723, 724, 725, 726, 727, 728, 729, 730, 731, 732, 733, 734, 735, 736, 737, 738, 739, 740, 741, 742, 743, 744, 745, 746, 747, 748, 749, 750, 751, 752, 753, 754, 755, 756, 757, 758, 759, 760, 761, 762, 763, 764, 765, 766, 767, 768, 769, 770, 771, 772, 773, 774, 775, 776, 777, 778, 779, 780, 781, 782, 783, 784, 785, 786, 787, 788, 789, 790, 791, 792, 793, 794, 795, 796, 797, 798, 799, 800, 801, 802, 803, 804, 805, 806, 807, 808, 809, 810, 811, 812, 813, 814, 815, 816, 817, 818, 819, 820, 821, 822, 823, 824, 825, 826, 827, 828, 829, 830, 831, 832, 833, 834, 835, 836, 837, 838, 839, 840, 841, 842, 843, 844, 845, 846, 847, 848, 849, 850, 851, 852, 853, 854, 855, 856, 857, 858, 859, 860, 861, 862, 863, 864, 865, 866, 867, 868, 869, 870, 871, 872],
      "AcquisitionTime": ["125850.317500", "125850.777500", "125851.237500", "125851.697500", "125852.157500", "125852.617500", "125853.077500", "125853.537500", "125853.997500", "125854.457500", "125854.917500", "125855.377500", "125855.837500", "125856.297500", "125856.757500", "125857.217500", "125857.677500", "125858.137500", "125858.597500", "125859.057500", "125859.517500", "125859.977500", "125900.437500", "125900.897500", "125901.357500", "125901.817500", "125902.277500", "125902.737500", "125903.197500", "125903.657500", "125904.117500", "125904.577500", "125905.037500", "125905.497500", "125905.957500", "125906.417500", "125906.877500", "125907.337500", "125907.797500", "125908.257500", "125908.717500", "125909.177500", "125909.637500", "125910.097500", "125910.557500", "125911.017500", "125911.477500", "125911.937500", "125912.397500", "125912.857500", "125913.317500", "125913.777500", "125914.237500", "125914.697500", "125915.157500", "125915.617500", "125916.077500", "125916.537500", "125916.997500", "125917.457500", "125917.917500", "125918.377500", "125918.837500", "125919.297500", "125919.757500", "125920.217500", "125920.677500", "125921.137500", "125921.597500", "125922.057500", "125922.517500", "125922.977500", "125923.437500", "125923.897500", "125924.357500", "125924.817500", "125925.277500", "125925.737500", "125926.197500", "125926.657500", "125927.117500", "125927.577500", "125928.037500", "125928.497500", "125928.957500", "125929.417500", "125929.877500", "125930.337500", "125930.797500", "125931.257500", "125931.717500", "125932.177500", "125932.637500", "125933.097500", "125933.557500", "125934.017500", "125934.477500", "125934.937500", "125935.397500", "125935.857500", "125936.317500", "125936.777500", "125937.237500", "125937.697500", "125938.157500", "125938.617500", "125939.077500", "125939.537500", "125939.997500", "125940.457500", "125940.917500", "125941.377500", "125941.837500", "125942.297500", "125942.757500", "125943.217500", "125943.677500", "125944.137500", "125944.597500", "125945.057500", "125945.517500", "125945.977500", "125946.437500", "125946.897500", "125947.357500", "125947.817500", "125948.277500", "125948.737500", "125949.197500", "125949.657500", "125950.117500", "125950.577500", "125951.037500", "125951.497500", "125951.957500", "125952.417500", "125952.877500", "125953.337500", "125953.797500", "125954.257500", "125954.717500", "125955.177500", "125955.637500", "125956.097500", "125956.557500", "125957.017500", "125957.477500", "125957.937500", "125958.397500", "125958.857500", "125959.317500", "125959.777500", "130000.237500", "130000.697500", "130001.157500", "130001.617500", "130002.077500", "130002.537500", "130002.997500", "130003.457500", "130003.917500", "130004.377500", "130004.837500", "130005.297500", "130005.757500", "130006.217500", "130006.677500", "130007.137500", "130007.597500", "130008.057500", "130008.517500", "130008.977500", "130009.437500", "130009.897500", "130010.357500", "130010.817500", "130011.277500", "130011.737500", "130012.197500", "130012.657500", "130013.117500", "130013.577500", "130014.037500", "130014.497500", "130014.957500", "130015.417500", "130015.877500", "130016.337500", "130016.797500", "130017.257500", "130017.717500", "130018.177500", "130018.637500", "130019.097500", "130019.557500", "130020.017500", "130020.477500", "130020.937500", "130021.397500", "130021.857500", "130022.317500", "130022.777500", "130023.237500", "130023.697500", "130024.157500", "130024.617500", "130025.077500", "130025.537500", "130025.997500", "130026.457500", "130026.917500", "130027.377500", "130027.837500", "130028.297500", "130028.757500", "130029.217500", "130029.677500", "130030.137500", "130030.597500", "130031.057500", "130031.517500", "130031.977500", "130032.437500", "130032.897500", "130033.357500", "130033.817500", "130034.277500", "130034.737500", "130035.197500", "130035.657500", "130036.117500", "130036.577500", "130037.037500", "130037.497500", "130037.957500", "130038.417500", "130038.877500", "130039.337500", "130039.797500", "130040.257500", "130040.717500", "130041.177500", "130041.637500", "130042.097500", "130042.557500", "130043.017500", "130043.477500", "130043.937500", "130044.397500", "130044.857500", "130045.317500", "130045.777500", "130046.237500", "130046.697500", "130047.157500", "130047.617500", "130048.077500", "130048.537500", "130048.997500", "130049.457500", "130049.917500", "130050.377500", "130050.837500", "130051.297500", "130051.757500", "130052.217500", "130052.677500", "130053.137500", "130053.597500", "130054.057500", "130054.517500", "130054.977500", "130055.437500", "130055.897500", "130056.357500", "130056.817500", "130057.277500", "130057.737500", "130058.197500", "130058.657500", "130059.117500", "130059.577500", "130100.037500", "130100.497500", "130100.957500", "130101.417500", "130101.877500", "130102.337500", "130102.797500", "130103.257500", "130103.717500", "130104.177500", "130104.637500", "130105.097500", "130105.557500", "130106.017500", "130106.477500", "130106.937500", "130107.397500", "130107.857500", "130108.317500", "130108.777500", "130109.237500", "130109.697500", "130110.157500", "130110.617500", "130111.077500", "130111.537500", "130111.997500", "130112.457500", "130112.917500", "130113.377500", "130113.837500", "130114.297500", "130114.757500", "130115.217500", "130115.677500", "130116.137500", "130116.597500", "130117.057500", "130117.517500", "130117.977500", "130118.437500", "130118.897500", "130119.357500", "130119.817500", "130120.277500", "130120.737500", "130121.197500", "130121.657500", "130122.117500", "130122.577500", "130123.037500", "130123.497500", "130123.957500", "130124.417500", "130124.877500", "130125.337500", "130125.797500", "130126.257500", "130126.717500", "130127.177500", "130127.637500", "130128.097500", "130128.557500", "130129.017500", "130129.477500", "130129.937500", "130130.397500", "130130.857500", "130131.317500", "130131.777500", "130132.237500", "130132.697500", "130133.157500", "130133.617500", "130134.077500", "130134.537500", "130134.997500", "130135.457500", "130135.917500", "130136.377500", "130136.837500", "130137.297500", "130137.757500", "130138.217500", "130138.677500", "130139.137500", "130139.597500", "130140.057500", "130140.517500", "130140.977500", "130141.437500", "130141.897500", "130142.357500", "130142.817500", "130143.277500", "130143.737500", "130144.197500", "130144.657500", "130145.117500", "130145.577500", "130146.037500", "130146.497500", "130146.957500", "130147.417500", "130147.877500", "130148.337500", "130148.797500", "130149.257500", "130149.717500", "130150.177500", "130150.637500", "130151.097500", "130151.557500", "130152.017500", "130152.477500", "130152.937500", "130153.397500", "130153.857500", "130154.317500", "130154.777500", "130155.237500", "130155.697500", "130156.157500", "130156.617500", "130157.077500", "130157.537500", "130157.997500", "130158.457500", "130158.917500", "130159.377500", "130159.837500", "130200.297500", "130200.757500", "130201.217500", "130201.677500", "130202.137500", "130202.597500", "130203.057500", "130203.517500", "130203.977500", "130204.437500", "130204.897500", "130205.357500", "130205.817500", "130206.277500", "130206.737500", "130207.197500", "130207.657500", "130208.117500", "130208.577500", "130209.037500", "130209.497500", "130209.957500", "130210.417500", "130210.877500", "130211.337500", "130211.797500", "130212.257500", "130212.717500", "130213.177500", "130213.637500", "130214.097500", "130214.557500", "130215.017500", "130215.477500", "130215.937500", "130216.397500", "130216.857500", "130217.317500", "130217.777500", "130218.237500", "130218.697500", "130219.157500", "130219.617500", "130220.077500", "130220.537500", "130220.997500", "130221.457500", "130221.917500", "130222.377500", "130222.837500", "130223.297500", "130223.757500", "130224.217500", "130224.677500", "130225.137500", "130225.597500", "130226.057500", "130226.517500", "130226.977500", "130227.437500", "130227.897500", "130228.357500", "130228.817500", "130229.277500", "130229.737500", "130230.197500", "130230.657500", "130231.117500", "130231.577500", "130232.037500", "130232.497500", "130232.957500", "130233.417500", "130233.877500", "130234.337500", "130234.797500", "130235.257500", "130235.717500", "130236.177500", "130236.637500", "130237.097500", "130237.557500", "130238.017500", "130238.477500", "130238.937500", "130239.397500", "130239.857500", "130240.317500", "130240.777500", "130241.237500", "130241.697500", "130242.157500", "130242.617500", "130243.077500", "130243.537500", "130243.997500", "130244.457500", "130244.917500", "130245.377500", "130245.837500", "130246.297500", "130246.757500", "130247.217500", "130247.677500", "130248.137500", "130248.597500", "130249.057500", "130249.517500", "130249.977500", "130250.437500", "130250.897500", "130251.357500", "130251.817500", "130252.277500", "130252.737500", "130253.197500", "130253.657500", "130254.117500", "130254.577500", "130255.037500", "130255.497500", "130255.957500", "130256.417500", "130256.877500", "130257.337500", "130257.797500", "130258.257500", "130258.717500", "130259.177500", "130259.637500", "130300.097500", "130300.557500", "130301.017500", "130301.477500", "130301.937500", "130302.397500", "130302.857500", "130303.317500", "130303.777500", "130304.237500", "130304.697500", "130305.157500", "130305.617500", "130306.077500", "130306.537500", "130306.997500", "130307.457500", "130307.917500", "130308.377500", "130308.837500", "130309.297500", "130309.757500", "130310.217500", "130310.677500", "130311.137500", "130311.597500", "130312.057500", "130312.517500", "130312.977500", "130313.437500", "130313.897500", "130314.357500", "130314.817500", "130315.277500", "130315.737500", "130316.197500", "130316.657500", "130317.117500", "130317.577500", "130318.037500", "130318.497500", "130318.957500", "130319.417500", "130319.877500", "130320.337500", "130320.797500", "130321.257500", "130321.717500", "130322.177500", "130322.637500", "130323.097500", "130323.557500", "130324.017500", "130324.477500", "130324.937500", "130325.397500", "130325.857500", "130326.317500", "130326.777500", "130327.237500", "130327.697500", "130328.157500", "130328.617500", "130329.077500", "130329.537500", "130329.997500", "130330.457500", "130330.917500", "130331.377500", "130331.837500", "130332.297500", "130332.757500", "130333.217500", "130333.677500", "130334.137500", "130334.597500", "130335.057500", "130335.517500", "130335.977500", "130336.437500", "130336.897500", "130337.357500", "130337.817500", "130338.277500", "130338.737500", "130339.197500", "130339.657500", "130340.117500", "130340.577500", "130341.037500", "130341.497500", "130341.957500", "130342.417500", "130342.877500", "130343.337500", "130343.797500", "130344.257500", "130344.717500", "130345.177500", "130345.637500", "130346.097500", "130346.557500", "130347.017500", "130347.477500", "130347.937500", "130348.397500", "130348.857500", "130349.317500", "130349.777500", "130350.237500", "130350.697500", "130351.157500", "130351.617500", "130352.077500", "130352.537500", "130352.997500", "130353.457500", "130353.917500", "130354.377500", "130354.837500", "130355.297500", "130355.757500", "130356.217500", "130356.677500", "130357.137500", "130357.597500", "130358.057500", "130358.517500", "130358.977500", "130359.437500", "130359.897500", "130400.357500", "130400.817500", "130401.277500", "130401.737500", "130402.197500", "130402.657500", "130403.117500", "130403.577500", "130404.037500", "130404.497500", "130404.957500", "130405.417500", "130405.877500", "130406.337500", "130406.797500", "130407.257500", "130407.717500", "130408.177500", "130408.637500", "130409.097500", "130409.557500", "130410.017500", "130410.477500", "130410.937500", "130411.397500", "130411.857500", "130412.317500", "130412.777500", "130413.237500", "130413.697500", "130414.157500", "130414.617500", "130415.077500", "130415.537500", "130415.997500", "130416.457500", "130416.917500", "130417.377500", "130417.837500", "130418.297500", "130418.757500", "130419.217500", "130419.677500", "130420.137500", "130420.597500", "130421.057500", "130421.517500", "130421.977500", "130422.437500", "130422.897500", "130423.357500", "130423.817500", "130424.277500", "130424.737500", "130425.197500", "130425.657500", "130426.117500", "130426.577500", "130427.037500", "130427.497500", "130427.957500", "130428.417500", "130428.877500", "130429.337500", "130429.797500", "130430.257500", "130430.717500", "130431.177500", "130431.637500", "130432.097500", "130432.557500", "130433.017500", "130433.477500", "130433.937500", "130434.397500", "130434.857500", "130435.317500", "130435.777500", "130436.237500", "130436.697500", "130437.157500", "130437.617500", "130438.077500", "130438.537500", "130438.997500", "130439.457500", "130439.917500", "130440.377500", "130440.837500", "130441.297500", "130441.757500", "130442.217500", "130442.677500", "130443.137500", "130443.597500", "130444.057500", "130444.517500", "130444.977500", "130445.437500", "130445.897500", "130446.357500", "130446.817500", "130447.277500", "130447.737500", "130448.197500", "130448.657500", "130449.117500", "130449.577500", "130450.037500", "130450.497500", "130450.957500", "130451.417500", "130451.877500", "130452.337500", "130452.797500", "130453.257500", "130453.717500", "130454.177500", "130454.637500", "130455.097500", "130455.557500", "130456.017500", "130456.477500", "130456.937500", "130457.397500", "130457.857500", "130458.317500", "130458.777500", "130459.237500", "130459.697500", "130500.157500", "130500.617500", "130501.077500", "130501.537500", "130501.997500", "130502.457500", "130502.917500", "130503.377500", "130503.837500", "130504.297500", "130504.757500", "130505.217500", "130505.677500", "130506.137500", "130506.597500", "130507.057500", "130507.517500", "130507.977500", "130508.437500", "130508.897500", "130509.357500", "130509.817500", "130510.277500", "130510.737500", "130511.197500", "130511.657500", "130512.117500", "130512.577500", "130513.037500", "130513.497500", "130513.957500", "130514.417500", "130514.877500", "130515.337500", "130515.797500", "130516.257500", "130516.717500", "130517.177500", "130517.637500", "130518.097500", "130518.557500", "130519.017500", "130519.477500", "130519.937500", "130520.397500", "130520.857500", "130521.317500", "130521.777500", "130522.237500", "130522.697500", "130523.157500", "130523.617500", "130524.077500", "130524.537500", "130524.997500", "130525.457500", "130525.917500", "130526.377500", "130526.837500", "130527.297500", "130527.757500", "130528.217500", "130528.677500", "130529.137500", "130529.597500", "130530.057500", "130530.517500", "130530.977500"],
