{
  "AcquisitionMatrixPE": 82,
  "AcquisitionNumber": 1,
  "AcquisitionTime": "13:33:30.960000",
  "BandwidthPerPixelPhaseEncode": 24.888,
  "BaseResolution": 82,
  "BodyPartExamined": "BRAIN",
  "ConsistencyInfo": "N4_VE11E_LATEST_20181129",
  "ConversionSoftware": "dcm2niix",
  "ConversionSoftwareVersion": "v1.0.20201102",
  "DerivedVendorReportedEchoSpacing": 0.00049,
  "DeviceSerialNumber": "66112",
  "DwellTime": 2e-06,
  "EchoTime": 0.0272,
  "EchoTrainLength": 82,
  "EffectiveEchoSpacing": 0.00049,
  "FlipAngle": 44,
  "ImageComments": "Unaliased MB8/PE3",
  "ImageOrientationPatientDICOM": [0.999096, 0.0127274, -0.040552, -0.0148229, 0.998547, -0.0518021],
  "ImageType": [
    "ORIGINAL",
    "PRIMARY",
    "M",
    "MB",
    "ND",
    "NORM",
    "MOSAIC"
],
  "ImagingFrequency": 123.252,
  "InPlanePhaseEncodingDirectionDICOM": "COL",
  "InstitutionAddress": "Maynard 3,Hanover,NH,US,03755",
  "InstitutionName": "Dartmouth College - PBS",
  "InstitutionalDepartmentName": "Department",
  "MRAcquisitionType": "2D",
  "MagneticFieldStrength": 3,
  "Manufacturer": "Siemens",
  "ManufacturersModelName": "Prisma",
  "Modality": "MR",
  "MultibandAccelerationFactor": 8,
  "PartialFourier": 1,
  "PatientPosition": "HFS",
  "PercentPhaseFOV": 100,
  "PercentSampling": 100,
  "PhaseEncodingDirection": "j-",
  "PhaseEncodingSteps": 82,
  "PhaseResolution": 1,
  "PixelBandwidth": 3050,
  "ProcedureStepDescription": "Wager_Wager^1076_spacetop",
  "ProtocolName": "func_run-02_task-alignvideo_acq-ap-mb8",
  "PulseSequenceDetails": "%CustomerSeq%\\cmrr_mbep2d_bold",
  "ReceiveCoilActiveElements": "HEA;HEP",
  "ReceiveCoilName": "Head_32",
  "ReconMatrixPE": 82,
  "RepetitionTime": 0.46,
  "SAR": 0.100354,
  "ScanOptions": "FS",
  "ScanningSequence": "EP",
  "SequenceName": "epfid2d1_82",
  "SequenceVariant": "SK\\SS",
  "SeriesDescription": "func_run-02_task-alignvideo_acq-ap-mb8",
  "SeriesNumber": 32,
  "ShimSetting": [4131, -7705, -7275, 539, -49, -3, -12, 121],
  "SliceThickness": 2.7,
  "SliceTiming": [0, 0.25, 0.0625, 0.3125, 0.125, 0.375, 0.1875, 0, 0.25, 0.0625, 0.3125, 0.125, 0.375, 0.1875, 0, 0.25, 0.0625, 0.3125, 0.125, 0.375, 0.1875, 0, 0.25, 0.0625, 0.3125, 0.125, 0.375, 0.1875, 0, 0.25, 0.0625, 0.3125, 0.125, 0.375, 0.1875, 0, 0.25, 0.0625, 0.3125, 0.125, 0.375, 0.1875, 0, 0.25, 0.0625, 0.3125, 0.125, 0.375, 0.1875, 0, 0.25, 0.0625, 0.3125, 0.125, 0.375, 0.1875],
  "SoftwareVersions": "syngo MR E11",
  "SpacingBetweenSlices": 2.7,
  "StationName": "AWP66112",
  "TaskName": "alignvideo",
  "TotalReadoutTime": 0.03969,
  "TxRefAmp": 250.749,
  "WipMemBlock": "117e83a9-55f5-48bf-b0f5-3fc43604af18||Sequence: R016 ve11e/master r/434b28f1; Aug  7 2019 18:53:46 by eja",
  "dcmmeta_affine": [
    [-2.680502414703369, -0.03976888209581375, -0.10755132883787155, 116.96063995361328],
    [-0.03414657339453697, 2.6790294647216797, -0.14136230945587158, -85.51769256591797],
    [-0.10879814624786377, 0.13898129761219025, 2.694150924682617, -85.64470672607422],
    [0.0, 0.0, 0.0, 1.0]
],
  "dcmmeta_reorient_transform": [
    [0.0, -1.0, 0.0, 81.0],
    [1.0, 0.0, 0.0, 0.0],
    [0.0, 0.0, 1.0, 0.0],
    [0.0, 0.0, 0.0, 1.0]
],
  "dcmmeta_shape": [82, 82, 56, 926],
  "dcmmeta_slice_dim": 2,
  "dcmmeta_version": 0.6,
  "global": {
    "const": {
      "AccessionNumber": "A003950",
      "AcquisitionMatrix": [82, 0, 0, 82],
      "AngioFlag": "N",
      "BitsAllocated": 16,
      "BitsStored": 16,
      "BodyPartExamined": "BRAIN",
      "Columns": 656,
      "EchoNumbers": 1,
      "EchoTime": 27.2,
      "EchoTrainLength": 82,
      "FlipAngle": 44.0,
      "HighBit": 15,
      "ImageOrientationPatient": [0.99909636504693, 0.01272735912508, -0.0405520366902, -0.0148229466929, 0.99854735535425, -0.0518021173928],
      "ImagePositionPatient": [-871.62991095272, -910.16524873422, -3.2745231943939],
      "ImageType": [
        "ORIGINAL",
        "PRIMARY",
        "M",
        "MB",
        "ND",
        "NORM",
        "MOSAIC"
],
      "ImagedNucleus": "1H",
      "ImagingFrequency": 123.252218,
      "InPlanePhaseEncodingDirection": "COL",
      "MRAcquisitionType": "2D",
      "MagneticFieldStrength": 3.0,
      "Manufacturer": "SIEMENS",
      "ManufacturerModelName": "Prisma",
      "Modality": "MR",
      "NumberOfAverages": 1.0,
      "NumberOfPhaseEncodingSteps": 82,
      "PercentPhaseFieldOfView": 100.0,
      "PercentSampling": 100.0,
      "PerformedProcedureStepStartTime": "114904.483000",
      "PhotometricInterpretation": "MONOCHROME2",
      "PixelBandwidth": 3050.0,
      "PixelRepresentation": 0,
      "PixelSpacing": [2.6829268932343, 2.6829268932343],
      "ProtocolName": "func_run-02_task-alignvideo_acq-ap-mb8",
      "RepetitionTime": 460.0,
      "Rows": 656,
      "SAR": 0.10035385165918,
      "SamplesPerPixel": 1,
      "ScanOptions": "FS",
      "ScanningSequence": "EP",
      "SequenceName": "epfid2d1_82",
      "SequenceVariant": [
        "SK",
        "SS"
],
      "SeriesDescription": "func_run-02_task-alignvideo_acq-ap-mb8",
      "SeriesNumber": 32,
      "SeriesTime": "133358.647000",
      "SliceLocation": -85.640765749222,
      "SliceThickness": 2.7000000476837,
      "SmallestImagePixelValue": 0,
      "SoftwareVersions": "syngo MR E11",
      "SpacingBetweenSlices": 2.7000000671494,
      "SpecificCharacterSet": "ISO_IR 100",
      "StudyID": "5",
      "StudyTime": "114904.432000",
      "TransmitCoilName": "Body",
      "VariableFlipAngleFlag": "N",
      "WindowCenterWidthExplanation": "Algo1"
    },
    "slices": {}
  },
  "time": {
    "samples": {
      "AcquisitionNumber": [1, 2, 3, 4, 5, 6, 7, 8, 9, 10, 11, 12, 13, 14, 15, 16, 17, 18, 19, 20, 21, 22, 23, 24, 25, 26, 27, 28, 29, 30, 31, 32, 33, 34, 35, 36, 37, 38, 39, 40, 41, 42, 43, 44, 45, 46, 47, 48, 49, 50, 51, 52, 53, 54, 55, 56, 57, 58, 59, 60, 61, 62, 63, 64, 65, 66, 67, 68, 69, 70, 71, 72, 73, 74, 75, 76, 77, 78, 79, 80, 81, 82, 83, 84, 85, 86, 87, 88, 89, 90, 91, 92, 93, 94, 95, 96, 97, 98, 99, 100, 101, 102, 103, 104, 105, 106, 107, 108, 109, 110, 111, 112, 113, 114, 115, 116, 117, 118, 119, 120, 121, 122, 123, 124, 125, 126, 127, 128, 129, 130, 131, 132, 133, 134, 135, 136, 137, 138, 139, 140, 141, 142, 143, 144, 145, 146, 147, 148, 149, 150, 151, 152, 153, 154, 155, 156, 157, 158, 159, 160, 161, 162, 163, 164, 165, 166, 167, 168, 169, 170, 171, 172, 173, 174, 175, 176, 177, 178, 179, 180, 181, 182, 183, 184, 185, 186, 187, 188, 189, 190, 191, 192, 193, 194, 195, 196, 197, 198, 199, 200, 201, 202, 203, 204, 205, 206, 207, 208, 209, 210, 211, 212, 213, 214, 215, 216, 217, 218, 219, 220, 221, 222, 223, 224, 225, 226, 227, 228, 229, 230, 231, 232, 233, 234, 235, 236, 237, 238, 239, 240, 241, 242, 243, 244, 245, 246, 247, 248, 249, 250, 251, 252, 253, 254, 255, 256, 257, 258, 259, 260, 261, 262, 263, 264, 265, 266, 267, 268, 269, 270, 271, 272, 273, 274, 275, 276, 277, 278, 279, 280, 281, 282, 283, 284, 285, 286, 287, 288, 289, 290, 291, 292, 293, 294, 295, 296, 297, 298, 299, 300, 301, 302, 303, 304, 305, 306, 307, 308, 309, 310, 311, 312, 313, 314, 315, 316, 317, 318, 319, 320, 321, 322, 323, 324, 325, 326, 327, 328, 329, 330, 331, 332, 333, 334, 335, 336, 337, 338, 339, 340, 341, 342, 343, 344, 345, 346, 347, 348, 349, 350, 351, 352, 353, 354, 355, 356, 357, 358, 359, 360, 361, 362, 363, 364, 365, 366, 367, 368, 369, 370, 371, 372, 373, 374, 375, 376, 377, 378, 379, 380, 381, 382, 383, 384, 385, 386, 387, 388, 389, 390, 391, 392, 393, 394, 395, 396, 397, 398, 399, 400, 401, 402, 403, 404, 405, 406, 407, 408, 409, 410, 411, 412, 413, 414, 415, 416, 417, 418, 419, 420, 421, 422, 423, 424, 425, 426, 427, 428, 429, 430, 431, 432, 433, 434, 435, 436, 437, 438, 439, 440, 441, 442, 443, 444, 445, 446, 447, 448, 449, 450, 451, 452, 453, 454, 455, 456, 457, 458, 459, 460, 461, 462, 463, 464, 465, 466, 467, 468, 469, 470, 471, 472, 473, 474, 475, 476, 477, 478, 479, 480, 481, 482, 483, 484, 485, 486, 487, 488, 489, 490, 491, 492, 493, 494, 495, 496, 497, 498, 499, 500, 501, 502, 503, 504, 505, 506, 507, 508, 509, 510, 511, 512, 513, 514, 515, 516, 517, 518, 519, 520, 521, 522, 523, 524, 525, 526, 527, 528, 529, 530, 531, 532, 533, 534, 535, 536, 537, 538, 539, 540, 541, 542, 543, 544, 545, 546, 547, 548, 549, 550, 551, 552, 553, 554, 555, 556, 557, 558, 559, 560, 561, 562, 563, 564, 565, 566, 567, 568, 569, 570, 571, 572, 573, 574, 575, 576, 577, 578, 579, 580, 581, 582, 583, 584, 585, 586, 587, 588, 589, 590, 591, 592, 593, 594, 595, 596, 597, 598, 599, 600, 601, 602, 603, 604, 605, 606, 607, 608, 609, 610, 611, 612, 613, 614, 615, 616, 617, 618, 619, 620, 621, 622, 623, 624, 625, 626, 627, 628, 629, 630, 631, 632, 633, 634, 635, 636, 637, 638, 639, 640, 641, 642, 643, 644, 645, 646, 647, 648, 649, 650, 651, 652, 653, 654, 655, 656, 657, 658, 659, 660, 661, 662, 663, 664, 665, 666, 667, 668, 669, 670, 671, 672, 673, 674, 675, 676, 677, 678, 679, 680, 681, 682, 683, 684, 685, 686, 687, 688, 689, 690, 691, 692, 693, 694, 695, 696, 697, 698, 699, 700, 701, 702, 703, 704, 705, 706, 707, 708, 709, 710, 711, 712, 713, 714, 715, 716, 717, 718, 719, 720, 721, 722, 723, 724, 725, 726, 727, 728, 729, 730, 731, 732, 733, 734, 735, 736, 737, 738, 739, 740, 741, 742, 743, 744, 745, 746, 747, 748, 749, 750, 751, 752, 753, 754, 755, 756, 757, 758, 759, 760, 761, 762, 763, 764, 765, 766, 767, 768, 769, 770, 771, 772, 773, 774, 775, 776, 777, 778, 779, 780, 781, 782, 783, 784, 785, 786, 787, 788, 789, 790, 791, 792, 793, 794, 795, 796, 797, 798, 799, 800, 801, 802, 803, 804, 805, 806, 807, 808, 809, 810, 811, 812, 813, 814, 815, 816, 817, 818, 819, 820, 821, 822, 823, 824, 825, 826, 827, 828, 829, 830, 831, 832, 833, 834, 835, 836, 837, 838, 839, 840, 841, 842, 843, 844, 845, 846, 847, 848, 849, 850, 851, 852, 853, 854, 855, 856, 857, 858, 859, 860, 861, 862, 863, 864, 865, 866, 867, 868, 869, 870, 871, 872, 873, 874, 875, 876, 877, 878, 879, 880, 881, 882, 883, 884, 885, 886, 887, 888, 889, 890, 891, 892, 893, 894, 895, 896, 897, 898, 899, 900, 901, 902, 903, 904, 905, 906, 907, 908, 909, 910, 911, 912, 913, 914, 915, 916, 917, 918, 919, 920, 921, 922, 923, 924, 925, 926],
      "AcquisitionTime": ["133330.960000", "133331.420000", "133331.880000", "133332.340000", "133332.800000", "133333.260000", "133333.720000", "133334.180000", "133334.640000", "133335.100000", "133335.560000", "133336.020000", "133336.480000", "133336.940000", "133337.400000", "133337.860000", "133338.320000", "133338.780000", "133339.240000", "133339.700000", "133340.160000", "133340.620000", "133341.080000", "133341.540000", "133342.000000", "133342.460000", "133342.920000", "133343.380000", "133343.840000", "133344.300000", "133344.760000", "133345.220000", "133345.680000", "133346.140000", "133346.600000", "133347.060000", "133347.520000", "133347.980000", "133348.440000", "133348.900000", "133349.360000", "133349.820000", "133350.280000", "133350.740000", "133351.200000", "133351.660000", "133352.120000", "133352.580000", "133353.040000", "133353.500000", "133353.960000", "133354.420000", "133354.880000", "133355.340000", "133355.800000", "133356.260000", "133356.720000", "133357.180000", "133357.640000", "133358.100000", "133358.560000", "133359.020000", "133359.480000", "133359.940000", "133400.400000", "133400.860000", "133401.320000", "133401.780000", "133402.240000", "133402.700000", "133403.160000", "133403.620000", "133404.080000", "133404.540000", "133405.000000", "133405.460000", "133405.920000", "133406.380000", "133406.840000", "133407.300000", "133407.760000", "133408.220000", "133408.680000", "133409.140000", "133409.600000", "133410.060000", "133410.520000", "133410.980000", "133411.440000", "133411.900000", "133412.360000", "133412.820000", "133413.280000", "133413.740000", "133414.200000", "133414.660000", "133415.120000", "133415.580000", "133416.040000", "133416.500000", "133416.960000", "133417.420000", "133417.880000", "133418.340000", "133418.800000", "133419.260000", "133419.720000", "133420.180000", "133420.640000", "133421.100000", "133421.560000", "133422.020000", "133422.480000", "133422.940000", "133423.400000", "133423.860000", "133424.320000", "133424.780000", "133425.240000", "133425.700000", "133426.160000", "133426.620000", "133427.080000", "133427.540000", "133428.000000", "133428.460000", "133428.920000", "133429.380000", "133429.840000", "133430.300000", "133430.760000", "133431.220000", "133431.680000", "133432.140000", "133432.600000", "133433.060000", "133433.520000", "133433.980000", "133434.440000", "133434.900000", "133435.360000", "133435.820000", "133436.280000", "133436.740000", "133437.200000", "133437.660000", "133438.120000", "133438.580000", "133439.040000", "133439.500000", "133439.960000", "133440.420000", "133440.880000", "133441.340000", "133441.800000", "133442.260000", "133442.720000", "133443.180000", "133443.640000", "133444.100000", "133444.560000", "133445.020000", "133445.480000", "133445.940000", "133446.400000", "133446.860000", "133447.320000", "133447.780000", "133448.240000", "133448.700000", "133449.160000", "133449.620000", "133450.080000", "133450.540000", "133451.000000", "133451.460000", "133451.920000", "133452.380000", "133452.840000", "133453.300000", "133453.760000", "133454.220000", "133454.680000", "133455.140000", "133455.600000", "133456.060000", "133456.520000", "133456.980000", "133457.440000", "133457.900000", "133458.360000", "133458.820000", "133459.280000", "133459.740000", "133500.200000", "133500.660000", "133501.120000", "133501.580000", "133502.040000", "133502.500000", "133502.960000", "133503.420000", "133503.880000", "133504.340000", "133504.800000", "133505.260000", "133505.720000", "133506.180000", "133506.640000", "133507.100000", "133507.560000", "133508.020000", "133508.480000", "133508.940000", "133509.400000", "133509.860000", "133510.320000", "133510.780000", "133511.240000", "133511.700000", "133512.160000", "133512.620000", "133513.080000", "133513.540000", "133514.000000", "133514.460000", "133514.920000", "133515.380000", "133515.840000", "133516.300000", "133516.760000", "133517.220000", "133517.680000", "133518.140000", "133518.600000", "133519.060000", "133519.520000", "133519.980000", "133520.440000", "133520.900000", "133521.360000", "133521.820000", "133522.280000", "133522.740000", "133523.200000", "133523.660000", "133524.120000", "133524.580000", "133525.040000", "133525.500000", "133525.960000", "133526.420000", "133526.880000", "133527.340000", "133527.800000", "133528.260000", "133528.720000", "133529.180000", "133529.640000", "133530.100000", "133530.560000", "133531.020000", "133531.480000", "133531.940000", "133532.400000", "133532.860000", "133533.320000", "133533.780000", "133534.240000", "133534.700000", "133535.160000", "133535.620000", "133536.080000", "133536.540000", "133537.000000", "133537.460000", "133537.920000", "133538.380000", "133538.840000", "133539.300000", "133539.760000", "133540.220000", "133540.680000", "133541.140000", "133541.600000", "133542.060000", "133542.520000", "133542.980000", "133543.440000", "133543.900000", "133544.360000", "133544.820000", "133545.280000", "133545.740000", "133546.200000", "133546.660000", "133547.120000", "133547.580000", "133548.040000", "133548.500000", "133548.960000", "133549.420000", "133549.880000", "133550.340000", "133550.800000", "133551.260000", "133551.720000", "133552.180000", "133552.640000", "133553.100000", "133553.560000", "133554.020000", "133554.480000", "133554.940000", "133555.400000", "133555.860000", "133556.320000", "133556.780000", "133557.240000", "133557.700000", "133558.160000", "133558.620000", "133559.080000", "133559.540000", "133600.000000", "133600.460000", "133600.920000", "133601.380000", "133601.840000", "133602.300000", "133602.760000", "133603.220000", "133603.680000", "133604.140000", "133604.600000", "133605.060000", "133605.520000", "133605.980000", "133606.440000", "133606.900000", "133607.360000", "133607.820000", "133608.280000", "133608.740000", "133609.200000", "133609.660000", "133610.120000", "133610.580000", "133611.040000", "133611.500000", "133611.960000", "133612.420000", "133612.880000", "133613.340000", "133613.800000", "133614.260000", "133614.720000", "133615.180000", "133615.640000", "133616.100000", "133616.560000", "133617.020000", "133617.480000", "133617.940000", "133618.400000", "133618.860000", "133619.320000", "133619.780000", "133620.240000", "133620.700000", "133621.160000", "133621.620000", "133622.080000", "133622.540000", "133623.000000", "133623.460000", "133623.920000", "133624.380000", "133624.840000", "133625.300000", "133625.760000", "133626.220000", "133626.680000", "133627.140000", "133627.600000", "133628.060000", "133628.520000", "133628.980000", "133629.440000", "133629.900000", "133630.360000", "133630.820000", "133631.280000", "133631.740000", "133632.200000", "133632.660000", "133633.120000", "133633.580000", "133634.040000", "133634.500000", "133634.960000", "133635.420000", "133635.880000", "133636.340000", "133636.800000", "133637.260000", "133637.720000", "133638.180000", "133638.640000", "133639.100000", "133639.560000", "133640.020000", "133640.480000", "133640.940000", "133641.400000", "133641.860000", "133642.320000", "133642.780000", "133643.240000", "133643.700000", "133644.160000", "133644.620000", "133645.080000", "133645.540000", "133646.000000", "133646.460000", "133646.920000", "133647.380000", "133647.840000", "133648.300000", "133648.760000", "133649.220000", "133649.680000", "133650.140000", "133650.600000", "133651.060000", "133651.520000", "133651.980000", "133652.440000", "133652.900000", "133653.360000", "133653.820000", "133654.280000", "133654.740000", "133655.200000", "133655.660000", "133656.120000", "133656.580000", "133657.040000", "133657.500000", "133657.960000", "133658.420000", "133658.880000", "133659.340000", "133659.800000", "133700.260000", "133700.720000", "133701.180000", "133701.640000", "133702.100000", "133702.560000", "133703.020000", "133703.480000", "133703.940000", "133704.400000", "133704.860000", "133705.320000", "133705.780000", "133706.240000", "133706.700000", "133707.160000", "133707.620000", "133708.080000", "133708.540000", "133709.000000", "133709.460000", "133709.920000", "133710.380000", "133710.840000", "133711.300000", "133711.760000", "133712.220000", "133712.680000", "133713.140000", "133713.600000", "133714.060000", "133714.520000", "133714.980000", "133715.440000", "133715.900000", "133716.360000", "133716.820000", "133717.280000", "133717.740000", "133718.200000", "133718.660000", "133719.120000", "133719.580000", "133720.040000", "133720.500000", "133720.960000", "133721.420000", "133721.880000", "133722.340000", "133722.800000", "133723.260000", "133723.720000", "133724.180000", "133724.640000", "133725.100000", "133725.560000", "133726.020000", "133726.480000", "133726.940000", "133727.400000", "133727.860000", "133728.320000", "133728.780000", "133729.240000", "133729.700000", "133730.160000", "133730.620000", "133731.080000", "133731.540000", "133732.000000", "133732.460000", "133732.920000", "133733.380000", "133733.840000", "133734.300000", "133734.760000", "133735.220000", "133735.680000", "133736.140000", "133736.600000", "133737.060000", "133737.520000", "133737.980000", "133738.440000", "133738.900000", "133739.360000", "133739.820000", "133740.280000", "133740.740000", "133741.200000", "133741.660000", "133742.120000", "133742.580000", "133743.040000", "133743.500000", "133743.960000", "133744.420000", "133744.880000", "133745.340000", "133745.800000", "133746.260000", "133746.720000", "133747.180000", "133747.640000", "133748.100000", "133748.560000", "133749.020000", "133749.480000", "133749.940000", "133750.400000", "133750.860000", "133751.320000", "133751.780000", "133752.240000", "133752.700000", "133753.160000", "133753.620000", "133754.080000", "133754.540000", "133755.000000", "133755.460000", "133755.920000", "133756.380000", "133756.840000", "133757.300000", "133757.760000", "133758.220000", "133758.680000", "133759.140000", "133759.600000", "133800.060000", "133800.520000", "133800.980000", "133801.440000", "133801.900000", "133802.360000", "133802.820000", "133803.280000", "133803.740000", "133804.200000", "133804.660000", "133805.120000", "133805.580000", "133806.040000", "133806.500000", "133806.960000", "133807.420000", "133807.880000", "133808.340000", "133808.800000", "133809.260000", "133809.720000", "133810.180000", "133810.640000", "133811.100000", "133811.560000", "133812.020000", "133812.480000", "133812.940000", "133813.400000", "133813.860000", "133814.320000", "133814.780000", "133815.240000", "133815.700000", "133816.160000", "133816.620000", "133817.080000", "133817.540000", "133818.000000", "133818.460000", "133818.920000", "133819.380000", "133819.840000", "133820.300000", "133820.760000", "133821.220000", "133821.680000", "133822.140000", "133822.600000", "133823.060000", "133823.520000", "133823.980000", "133824.440000", "133824.900000", "133825.360000", "133825.820000", "133826.280000", "133826.740000", "133827.200000", "133827.660000", "133828.120000", "133828.580000", "133829.040000", "133829.500000", "133829.960000", "133830.420000", "133830.880000", "133831.340000", "133831.800000", "133832.260000", "133832.720000", "133833.180000", "133833.640000", "133834.100000", "133834.560000", "133835.020000", "133835.480000", "133835.940000", "133836.400000", "133836.860000", "133837.320000", "133837.780000", "133838.240000", "133838.700000", "133839.160000", "133839.620000", "133840.080000", "133840.540000", "133841.000000", "133841.460000", "133841.920000", "133842.380000", "133842.840000", "133843.300000", "133843.760000", "133844.220000", "133844.680000", "133845.140000", "133845.600000", "133846.060000", "133846.520000", "133846.980000", "133847.440000", "133847.900000", "133848.360000", "133848.820000", "133849.280000", "133849.740000", "133850.200000", "133850.660000", "133851.120000", "133851.580000", "133852.040000", "133852.500000", "133852.960000", "133853.420000", "133853.880000", "133854.340000", "133854.800000", "133855.260000", "133855.720000", "133856.180000", "133856.640000", "133857.100000", "133857.560000", "133858.020000", "133858.480000", "133858.940000", "133859.400000", "133859.860000", "133900.320000", "133900.780000", "133901.240000", "133901.700000", "133902.160000", "133902.620000", "133903.080000", "133903.540000", "133904.000000", "133904.460000", "133904.920000", "133905.380000", "133905.840000", "133906.300000", "133906.760000", "133907.220000", "133907.680000", "133908.140000", "133908.600000", "133909.060000", "133909.520000", "133909.980000", "133910.440000", "133910.900000", "133911.360000", "133911.820000", "133912.280000", "133912.740000", "133913.200000", "133913.660000", "133914.120000", "133914.580000", "133915.040000", "133915.500000", "133915.960000", "133916.420000", "133916.880000", "133917.340000", "133917.800000", "133918.260000", "133918.720000", "133919.180000", "133919.640000", "133920.100000", "133920.560000", "133921.020000", "133921.480000", "133921.940000", "133922.400000", "133922.860000", "133923.320000", "133923.780000", "133924.240000", "133924.700000", "133925.160000", "133925.620000", "133926.080000", "133926.540000", "133927.000000", "133927.460000", "133927.920000", "133928.380000", "133928.840000", "133929.300000", "133929.760000", "133930.220000", "133930.680000", "133931.140000", "133931.600000", "133932.060000", "133932.520000", "133932.980000", "133933.440000", "133933.900000", "133934.360000", "133934.820000", "133935.280000", "133935.740000", "133936.200000", "133936.660000", "133937.120000", "133937.580000", "133938.040000", "133938.500000", "133938.960000", "133939.420000", "133939.880000", "133940.340000", "133940.800000", "133941.260000", "133941.720000", "133942.180000", "133942.640000", "133943.100000", "133943.560000", "133944.020000", "133944.480000", "133944.940000", "133945.400000", "133945.860000", "133946.320000", "133946.780000", "133947.240000", "133947.700000", "133948.160000", "133948.620000", "133949.080000", "133949.540000", "133950.000000", "133950.460000", "133950.920000", "133951.380000", "133951.840000", "133952.300000", "133952.760000", "133953.220000", "133953.680000", "133954.140000", "133954.600000", "133955.060000", "133955.520000", "133955.980000", "133956.440000", "133956.900000", "133957.360000", "133957.820000", "133958.280000", "133958.740000", "133959.200000", "133959.660000", "134000.120000", "134000.580000", "134001.040000", "134001.500000", "134001.960000", "134002.420000", "134002.880000", "134003.340000", "134003.800000", "134004.260000", "134004.720000", "134005.180000", "134005.640000", "134006.100000", "134006.560000", "134007.020000", "134007.480000", "134007.940000", "134008.400000", "134008.860000", "134009.320000", "134009.780000", "134010.240000", "134010.700000", "134011.160000", "134011.620000", "134012.080000", "134012.540000", "134013.000000", "134013.460000", "134013.920000", "134014.380000", "134014.840000", "134015.300000", "134015.760000", "134016.220000", "134016.680000", "134017.140000", "134017.600000", "134018.060000", "134018.520000", "134018.980000", "134019.440000", "134019.900000", "134020.360000", "134020.820000", "134021.280000", "134021.740000", "134022.200000", "134022.660000", "134023.120000", "134023.580000", "134024.040000", "134024.500000", "134024.960000", "134025.420000", "134025.880000", "134026.340000", "134026.800000", "134027.260000", "134027.720000", "134028.180000", "134028.640000", "134029.100000", "134029.560000", "134030.020000", "134030.480000", "134030.940000", "134031.400000", "134031.860000", "134032.320000", "134032.780000", "134033.240000", "134033.700000", "134034.160000", "134034.620000", "134035.080000", "134035.540000", "134036.000000", "134036.460000"],
