{
  "AcquisitionMatrixPE": 82,
  "AcquisitionNumber": 1,
  "AcquisitionTime": "13:12:44.535000",
  "BandwidthPerPixelPhaseEncode": 24.888,
  "BaseResolution": 82,
  "BodyPartExamined": "BRAIN",
  "ConsistencyInfo": "N4_VE11E_LATEST_20181129",
  "ConversionSoftware": "dcm2niix",
  "ConversionSoftwareVersion": "v1.0.20201102",
  "DerivedVendorReportedEchoSpacing": 0.00049,
  "DeviceSerialNumber": "66112",
  "DwellTime": 2e-06,
  "EchoTime": 0.0272,
  "EchoTrainLength": 82,
  "EffectiveEchoSpacing": 0.00049,
  "FlipAngle": 44,
  "ImageComments": "Unaliased MB8/PE3",
  "ImageOrientationPatientDICOM": [0.998648, 0.0240638, -0.0460869, -0.0256272, 0.999105, -0.0336389],
  "ImageType": [
    "ORIGINAL",
    "PRIMARY",
    "M",
    "MB",
    "ND",
    "NORM",
    "MOSAIC"
],
  "ImagingFrequency": 123.252,
  "InPlanePhaseEncodingDirectionDICOM": "COL",
  "InstitutionAddress": "Maynard 3,Hanover,NH,US,03755",
  "InstitutionName": "Dartmouth College - PBS",
  "InstitutionalDepartmentName": "Department",
  "MRAcquisitionType": "2D",
  "MagneticFieldStrength": 3,
  "Manufacturer": "Siemens",
  "ManufacturersModelName": "Prisma",
  "Modality": "MR",
  "MultibandAccelerationFactor": 8,
  "PartialFourier": 1,
  "PatientPosition": "HFS",
  "PercentPhaseFOV": 100,
  "PercentSampling": 100,
  "PhaseEncodingDirection": "j-",
  "PhaseEncodingSteps": 82,
  "PhaseResolution": 1,
  "PixelBandwidth": 3050,
  "ProcedureStepDescription": "Wager_Wager^1076_spacetop",
  "ProtocolName": "func_run-06_task-social_acq-ap-mb8",
  "PulseSequenceDetails": "%CustomerSeq%\\cmrr_mbep2d_bold",
  "ReceiveCoilActiveElements": "HEA;HEP",
  "ReceiveCoilName": "Head_32",
  "ReconMatrixPE": 82,
  "RepetitionTime": 0.46,
  "SAR": 0.100318,
  "ScanOptions": "FS",
  "ScanningSequence": "EP",
  "SequenceName": "epfid2d1_82",
  "SequenceVariant": "SK\\SS",
  "SeriesDescription": "func_run-06_task-social_acq-ap-mb8",
  "SeriesNumber": 22,
  "ShimSetting": [4131, -7705, -7276, 540, -48, -1, -12, 120],
  "SliceThickness": 2.7,
  "SliceTiming": [0, 0.25, 0.0625, 0.315, 0.125, 0.3775, 0.1875, 0, 0.25, 0.0625, 0.315, 0.125, 0.3775, 0.1875, 0, 0.25, 0.0625, 0.315, 0.125, 0.3775, 0.1875, 0, 0.25, 0.0625, 0.315, 0.125, 0.3775, 0.1875, 0, 0.25, 0.0625, 0.315, 0.125, 0.3775, 0.1875, 0, 0.25, 0.0625, 0.315, 0.125, 0.3775, 0.1875, 0, 0.25, 0.0625, 0.315, 0.125, 0.3775, 0.1875, 0, 0.25, 0.0625, 0.315, 0.125, 0.3775, 0.1875],
  "SoftwareVersions": "syngo MR E11",
  "SpacingBetweenSlices": 2.7,
  "StationName": "AWP66112",
  "TaskName": "social",
  "TotalReadoutTime": 0.03969,
  "TxRefAmp": 250.749,
  "WipMemBlock": "88807ebd-8120-49e3-b0dc-a77f9d6bb78d||Sequence: R016 ve11e/master r/434b28f1; Aug  7 2019 18:53:46 by eja",
  "dcmmeta_affine": [
    [-2.6792984008789062, -0.06875593960285187, -0.1221376433968544, 118.08679962158203],
    [-0.06456132978200912, 2.6805267333984375, -0.0938912108540535, -85.03668212890625],
    [-0.12364771217107773, 0.09025081992149353, 2.695601224899292, -82.84330749511719],
    [0.0, 0.0, 0.0, 1.0]
],
  "dcmmeta_reorient_transform": [
    [0.0, -1.0, 0.0, 81.0],
    [1.0, 0.0, 0.0, 0.0],
    [0.0, 0.0, 1.0, 0.0],
    [0.0, 0.0, 0.0, 1.0]
],
  "dcmmeta_shape": [82, 82, 56, 872],
  "dcmmeta_slice_dim": 2,
  "dcmmeta_version": 0.6,
  "global": {
    "const": {
      "AccessionNumber": "A003950",
      "AcquisitionMatrix": [82, 0, 0, 82],
      "AngioFlag": "N",
      "BitsAllocated": 16,
      "BitsStored": 16,
      "BodyPartExamined": "BRAIN",
      "Columns": 656,
      "EchoNumbers": 1,
      "EchoTime": 27.2,
      "EchoTrainLength": 82,
      "FlipAngle": 44.0,
      "HighBit": 15,
      "ImageOrientationPatient": [0.99864755307057, 0.02406376658261, -0.046086873229, -0.0256272130276, 0.99910543365719, -0.0336389415575],
      "ImagePositionPatient": [-861.74324785004, -919.92629598913, -14.144114872304],
      "ImageType": [
        "ORIGINAL",
        "PRIMARY",
        "M",
        "MB",
        "ND",
        "NORM",
        "MOSAIC"
],
      "ImagedNucleus": "1H",
      "ImagingFrequency": 123.252217,
      "InPlanePhaseEncodingDirection": "COL",
      "MRAcquisitionType": "2D",
      "MagneticFieldStrength": 3.0,
      "Manufacturer": "SIEMENS",
      "ManufacturerModelName": "Prisma",
      "Modality": "MR",
      "NumberOfAverages": 1.0,
      "NumberOfPhaseEncodingSteps": 82,
      "PercentPhaseFieldOfView": 100.0,
      "PercentSampling": 100.0,
      "PerformedProcedureStepStartTime": "114904.483000",
      "PhotometricInterpretation": "MONOCHROME2",
      "PixelBandwidth": 3050.0,
      "PixelRepresentation": 0,
      "PixelSpacing": [2.6829268932343, 2.6829268932343],
      "ProtocolName": "func_run-06_task-social_acq-ap-mb8",
      "RepetitionTime": 460.0,
      "Rows": 656,
      "SAR": 0.10031751730697,
      "SamplesPerPixel": 1,
      "ScanOptions": "FS",
      "ScanningSequence": "EP",
      "SequenceName": "epfid2d1_82",
      "SequenceVariant": [
        "SK",
        "SS"
],
      "SeriesDescription": "func_run-06_task-social_acq-ap-mb8",
      "SeriesNumber": 22,
      "SeriesTime": "131258.486000",
      "SliceLocation": -85.093032712212,
      "SliceThickness": 2.7000000476837,
      "SmallestImagePixelValue": 0,
      "SoftwareVersions": "syngo MR E11",
      "SpacingBetweenSlices": 2.6999999215862,
      "SpecificCharacterSet": "ISO_IR 100",
      "StudyID": "5",
      "StudyTime": "114904.432000",
      "TransmitCoilName": "Body",
      "VariableFlipAngleFlag": "N",
      "WindowCenterWidthExplanation": "Algo1"
    },
    "slices": {}
  },
  "time": {
    "samples": {
      "AcquisitionNumber": [1, 2, 3, 4, 5, 6, 7, 8, 9, 10, 11, 12, 13, 14, 15, 16, 17, 18, 19, 20, 21, 22, 23, 24, 25, 26, 27, 28, 29, 30, 31, 32, 33, 34, 35, 36, 37, 38, 39, 40, 41, 42, 43, 44, 45, 46, 47, 48, 49, 50, 51, 52, 53, 54, 55, 56, 57, 58, 59, 60, 61, 62, 63, 64, 65, 66, 67, 68, 69, 70, 71, 72, 73, 74, 75, 76, 77, 78, 79, 80, 81, 82, 83, 84, 85, 86, 87, 88, 89, 90, 91, 92, 93, 94, 95, 96, 97, 98, 99, 100, 101, 102, 103, 104, 105, 106, 107, 108, 109, 110, 111, 112, 113, 114, 115, 116, 117, 118, 119, 120, 121, 122, 123, 124, 125, 126, 127, 128, 129, 130, 131, 132, 133, 134, 135, 136, 137, 138, 139, 140, 141, 142, 143, 144, 145, 146, 147, 148, 149, 150, 151, 152, 153, 154, 155, 156, 157, 158, 159, 160, 161, 162, 163, 164, 165, 166, 167, 168, 169, 170, 171, 172, 173, 174, 175, 176, 177, 178, 179, 180, 181, 182, 183, 184, 185, 186, 187, 188, 189, 190, 191, 192, 193, 194, 195, 196, 197, 198, 199, 200, 201, 202, 203, 204, 205, 206, 207, 208, 209, 210, 211, 212, 213, 214, 215, 216, 217, 218, 219, 220, 221, 222, 223, 224, 225, 226, 227, 228, 229, 230, 231, 232, 233, 234, 235, 236, 237, 238, 239, 240, 241, 242, 243, 244, 245, 246, 247, 248, 249, 250, 251, 252, 253, 254, 255, 256, 257, 258, 259, 260, 261, 262, 263, 264, 265, 266, 267, 268, 269, 270, 271, 272, 273, 274, 275, 276, 277, 278, 279, 280, 281, 282, 283, 284, 285, 286, 287, 288, 289, 290, 291, 292, 293, 294, 295, 296, 297, 298, 299, 300, 301, 302, 303, 304, 305, 306, 307, 308, 309, 310, 311, 312, 313, 314, 315, 316, 317, 318, 319, 320, 321, 322, 323, 324, 325, 326, 327, 328, 329, 330, 331, 332, 333, 334, 335, 336, 337, 338, 339, 340, 341, 342, 343, 344, 345, 346, 347, 348, 349, 350, 351, 352, 353, 354, 355, 356, 357, 358, 359, 360, 361, 362, 363, 364, 365, 366, 367, 368, 369, 370, 371, 372, 373, 374, 375, 376, 377, 378, 379, 380, 381, 382, 383, 384, 385, 386, 387, 388, 389, 390, 391, 392, 393, 394, 395, 396, 397, 398, 399, 400, 401, 402, 403, 404, 405, 406, 407, 408, 409, 410, 411, 412, 413, 414, 415, 416, 417, 418, 419, 420, 421, 422, 423, 424, 425, 426, 427, 428, 429, 430, 431, 432, 433, 434, 435, 436, 437, 438, 439, 440, 441, 442, 443, 444, 445, 446, 447, 448, 449, 450, 451, 452, 453, 454, 455, 456, 457, 458, 459, 460, 461, 462, 463, 464, 465, 466, 467, 468, 469, 470, 471, 472, 473, 474, 475, 476, 477, 478, 479, 480, 481, 482, 483, 484, 485, 486, 487, 488, 489, 490, 491, 492, 493, 494, 495, 496, 497, 498, 499, 500, 501, 502, 503, 504, 505, 506, 507, 508, 509, 510, 511, 512, 513, 514, 515, 516, 517, 518, 519, 520, 521, 522, 523, 524, 525, 526, 527, 528, 529, 530, 531, 532, 533, 534, 535, 536, 537, 538, 539, 540, 541, 542, 543, 544, 545, 546, 547, 548, 549, 550, 551, 552, 553, 554, 555, 556, 557, 558, 559, 560, 561, 562, 563, 564, 565, 566, 567, 568, 569, 570, 571, 572, 573, 574, 575, 576, 577, 578, 579, 580, 581, 582, 583, 584, 585, 586, 587, 588, 589, 590, 591, 592, 593, 594, 595, 596, 597, 598, 599, 600, 601, 602, 603, 604, 605, 606, 607, 608, 609, 610, 611, 612, 613, 614, 615, 616, 617, 618, 619, 620, 621, 622, 623, 624, 625, 626, 627, 628, 629, 630, 631, 632, 633, 634, 635, 636, 637, 638, 639, 640, 641, 642, 643, 644, 645, 646, 647, 648, 649, 650, 651, 652, 653, 654, 655, 656, 657, 658, 659, 660, 661, 662, 663, 664, 665, 666, 667, 668, 669, 670, 671, 672, 673, 674, 675, 676, 677, 678, 679, 680, 681, 682, 683, 684, 685, 686, 687, 688, 689, 690, 691, 692, 693, 694, 695, 696, 697, 698, 699, 700, 701, 702, 703, 704, 705, 706, 707, 708, 709, 710, 711, 712, 713, 714, 715, 716, 717, 718, 719, 720, 721, 722, 723, 724, 725, 726, 727, 728, 729, 730, 731, 732, 733, 734, 735, 736, 737, 738, 739, 740, 741, 742, 743, 744, 745, 746, 747, 748, 749, 750, 751, 752, 753, 754, 755, 756, 757, 758, 759, 760, 761, 762, 763, 764, 765, 766, 767, 768, 769, 770, 771, 772, 773, 774, 775, 776, 777, 778, 779, 780, 781, 782, 783, 784, 785, 786, 787, 788, 789, 790, 791, 792, 793, 794, 795, 796, 797, 798, 799, 800, 801, 802, 803, 804, 805, 806, 807, 808, 809, 810, 811, 812, 813, 814, 815, 816, 817, 818, 819, 820, 821, 822, 823, 824, 825, 826, 827, 828, 829, 830, 831, 832, 833, 834, 835, 836, 837, 838, 839, 840, 841, 842, 843, 844, 845, 846, 847, 848, 849, 850, 851, 852, 853, 854, 855, 856, 857, 858, 859, 860, 861, 862, 863, 864, 865, 866, 867, 868, 869, 870, 871, 872],
      "AcquisitionTime": ["131244.535000", "131244.995000", "131245.455000", "131245.915000", "131246.375000", "131246.835000", "131247.295000", "131247.755000", "131248.215000", "131248.675000", "131249.135000", "131249.595000", "131250.055000", "131250.515000", "131250.975000", "131251.435000", "131251.895000", "131252.355000", "131252.815000", "131253.275000", "131253.735000", "131254.195000", "131254.655000", "131255.115000", "131255.575000", "131256.035000", "131256.495000", "131256.955000", "131257.415000", "131257.875000", "131258.335000", "131258.795000", "131259.255000", "131259.715000", "131300.175000", "131300.635000", "131301.095000", "131301.555000", "131302.015000", "131302.475000", "131302.935000", "131303.395000", "131303.855000", "131304.315000", "131304.775000", "131305.235000", "131305.695000", "131306.155000", "131306.615000", "131307.075000", "131307.535000", "131307.995000", "131308.455000", "131308.915000", "131309.375000", "131309.835000", "131310.295000", "131310.755000", "131311.215000", "131311.675000", "131312.135000", "131312.595000", "131313.055000", "131313.515000", "131313.975000", "131314.435000", "131314.895000", "131315.355000", "131315.815000", "131316.275000", "131316.735000", "131317.195000", "131317.655000", "131318.115000", "131318.575000", "131319.035000", "131319.495000", "131319.955000", "131320.415000", "131320.875000", "131321.335000", "131321.795000", "131322.255000", "131322.715000", "131323.175000", "131323.635000", "131324.095000", "131324.555000", "131325.015000", "131325.475000", "131325.935000", "131326.395000", "131326.855000", "131327.315000", "131327.775000", "131328.235000", "131328.695000", "131329.155000", "131329.615000", "131330.075000", "131330.535000", "131330.995000", "131331.455000", "131331.915000", "131332.375000", "131332.835000", "131333.295000", "131333.755000", "131334.215000", "131334.675000", "131335.135000", "131335.595000", "131336.055000", "131336.515000", "131336.975000", "131337.435000", "131337.895000", "131338.355000", "131338.815000", "131339.275000", "131339.735000", "131340.195000", "131340.655000", "131341.115000", "131341.575000", "131342.035000", "131342.495000", "131342.955000", "131343.415000", "131343.875000", "131344.335000", "131344.795000", "131345.255000", "131345.715000", "131346.175000", "131346.635000", "131347.095000", "131347.555000", "131348.015000", "131348.475000", "131348.935000", "131349.395000", "131349.855000", "131350.315000", "131350.775000", "131351.235000", "131351.695000", "131352.155000", "131352.615000", "131353.075000", "131353.535000", "131353.995000", "131354.455000", "131354.915000", "131355.375000", "131355.835000", "131356.295000", "131356.755000", "131357.215000", "131357.675000", "131358.135000", "131358.595000", "131359.055000", "131359.515000", "131359.975000", "131400.435000", "131400.895000", "131401.355000", "131401.815000", "131402.275000", "131402.735000", "131403.195000", "131403.655000", "131404.115000", "131404.575000", "131405.035000", "131405.495000", "131405.955000", "131406.415000", "131406.875000", "131407.335000", "131407.795000", "131408.255000", "131408.715000", "131409.175000", "131409.635000", "131410.095000", "131410.555000", "131411.015000", "131411.475000", "131411.935000", "131412.395000", "131412.855000", "131413.315000", "131413.775000", "131414.235000", "131414.695000", "131415.155000", "131415.615000", "131416.075000", "131416.535000", "131416.995000", "131417.455000", "131417.915000", "131418.375000", "131418.835000", "131419.295000", "131419.755000", "131420.215000", "131420.675000", "131421.135000", "131421.595000", "131422.055000", "131422.515000", "131422.975000", "131423.435000", "131423.895000", "131424.355000", "131424.815000", "131425.275000", "131425.735000", "131426.195000", "131426.655000", "131427.115000", "131427.575000", "131428.035000", "131428.495000", "131428.955000", "131429.415000", "131429.875000", "131430.335000", "131430.795000", "131431.255000", "131431.715000", "131432.175000", "131432.635000", "131433.095000", "131433.555000", "131434.015000", "131434.475000", "131434.935000", "131435.395000", "131435.855000", "131436.315000", "131436.775000", "131437.235000", "131437.695000", "131438.155000", "131438.615000", "131439.075000", "131439.535000", "131439.995000", "131440.455000", "131440.915000", "131441.375000", "131441.835000", "131442.295000", "131442.755000", "131443.215000", "131443.675000", "131444.135000", "131444.595000", "131445.055000", "131445.515000", "131445.975000", "131446.435000", "131446.895000", "131447.355000", "131447.815000", "131448.275000", "131448.735000", "131449.195000", "131449.655000", "131450.115000", "131450.575000", "131451.035000", "131451.495000", "131451.955000", "131452.415000", "131452.875000", "131453.335000", "131453.795000", "131454.255000", "131454.715000", "131455.175000", "131455.635000", "131456.095000", "131456.555000", "131457.015000", "131457.475000", "131457.935000", "131458.395000", "131458.855000", "131459.315000", "131459.775000", "131500.235000", "131500.695000", "131501.155000", "131501.615000", "131502.075000", "131502.535000", "131502.995000", "131503.455000", "131503.915000", "131504.375000", "131504.835000", "131505.295000", "131505.755000", "131506.215000", "131506.675000", "131507.135000", "131507.595000", "131508.055000", "131508.515000", "131508.975000", "131509.435000", "131509.895000", "131510.355000", "131510.815000", "131511.275000", "131511.735000", "131512.195000", "131512.655000", "131513.115000", "131513.575000", "131514.035000", "131514.495000", "131514.955000", "131515.415000", "131515.875000", "131516.335000", "131516.795000", "131517.255000", "131517.715000", "131518.175000", "131518.635000", "131519.095000", "131519.555000", "131520.015000", "131520.475000", "131520.935000", "131521.395000", "131521.855000", "131522.315000", "131522.775000", "131523.235000", "131523.695000", "131524.155000", "131524.615000", "131525.075000", "131525.535000", "131525.995000", "131526.455000", "131526.915000", "131527.375000", "131527.835000", "131528.295000", "131528.755000", "131529.215000", "131529.675000", "131530.135000", "131530.595000", "131531.055000", "131531.515000", "131531.975000", "131532.435000", "131532.895000", "131533.355000", "131533.815000", "131534.275000", "131534.735000", "131535.195000", "131535.655000", "131536.115000", "131536.575000", "131537.035000", "131537.495000", "131537.955000", "131538.415000", "131538.875000", "131539.335000", "131539.795000", "131540.255000", "131540.715000", "131541.175000", "131541.635000", "131542.095000", "131542.555000", "131543.015000", "131543.475000", "131543.935000", "131544.395000", "131544.855000", "131545.315000", "131545.775000", "131546.235000", "131546.695000", "131547.155000", "131547.615000", "131548.075000", "131548.535000", "131548.995000", "131549.455000", "131549.915000", "131550.375000", "131550.835000", "131551.295000", "131551.755000", "131552.215000", "131552.675000", "131553.135000", "131553.595000", "131554.055000", "131554.515000", "131554.975000", "131555.435000", "131555.895000", "131556.355000", "131556.815000", "131557.275000", "131557.735000", "131558.195000", "131558.655000", "131559.115000", "131559.575000", "131600.035000", "131600.495000", "131600.955000", "131601.415000", "131601.875000", "131602.335000", "131602.795000", "131603.255000", "131603.715000", "131604.175000", "131604.635000", "131605.095000", "131605.555000", "131606.015000", "131606.475000", "131606.935000", "131607.395000", "131607.855000", "131608.315000", "131608.775000", "131609.235000", "131609.695000", "131610.155000", "131610.615000", "131611.075000", "131611.535000", "131611.995000", "131612.455000", "131612.915000", "131613.375000", "131613.835000", "131614.295000", "131614.755000", "131615.215000", "131615.675000", "131616.135000", "131616.595000", "131617.055000", "131617.515000", "131617.975000", "131618.435000", "131618.895000", "131619.355000", "131619.815000", "131620.275000", "131620.735000", "131621.195000", "131621.655000", "131622.115000", "131622.575000", "131623.035000", "131623.495000", "131623.955000", "131624.415000", "131624.875000", "131625.335000", "131625.795000", "131626.255000", "131626.715000", "131627.175000", "131627.635000", "131628.095000", "131628.555000", "131629.015000", "131629.475000", "131629.935000", "131630.395000", "131630.855000", "131631.315000", "131631.775000", "131632.235000", "131632.695000", "131633.155000", "131633.615000", "131634.075000", "131634.535000", "131634.995000", "131635.455000", "131635.915000", "131636.375000", "131636.835000", "131637.295000", "131637.755000", "131638.215000", "131638.675000", "131639.135000", "131639.595000", "131640.055000", "131640.515000", "131640.975000", "131641.435000", "131641.895000", "131642.355000", "131642.815000", "131643.275000", "131643.735000", "131644.195000", "131644.655000", "131645.115000", "131645.575000", "131646.035000", "131646.495000", "131646.955000", "131647.415000", "131647.875000", "131648.335000", "131648.795000", "131649.255000", "131649.715000", "131650.175000", "131650.635000", "131651.095000", "131651.555000", "131652.015000", "131652.475000", "131652.935000", "131653.395000", "131653.855000", "131654.315000", "131654.775000", "131655.235000", "131655.695000", "131656.155000", "131656.615000", "131657.075000", "131657.535000", "131657.995000", "131658.455000", "131658.915000", "131659.375000", "131659.835000", "131700.295000", "131700.755000", "131701.215000", "131701.675000", "131702.135000", "131702.595000", "131703.055000", "131703.515000", "131703.975000", "131704.435000", "131704.895000", "131705.355000", "131705.815000", "131706.275000", "131706.735000", "131707.195000", "131707.655000", "131708.115000", "131708.575000", "131709.035000", "131709.495000", "131709.955000", "131710.415000", "131710.875000", "131711.335000", "131711.795000", "131712.255000", "131712.715000", "131713.175000", "131713.635000", "131714.095000", "131714.555000", "131715.015000", "131715.475000", "131715.935000", "131716.395000", "131716.855000", "131717.315000", "131717.775000", "131718.235000", "131718.695000", "131719.155000", "131719.615000", "131720.075000", "131720.535000", "131720.995000", "131721.455000", "131721.915000", "131722.375000", "131722.835000", "131723.295000", "131723.755000", "131724.215000", "131724.675000", "131725.135000", "131725.595000", "131726.055000", "131726.515000", "131726.975000", "131727.435000", "131727.895000", "131728.355000", "131728.815000", "131729.275000", "131729.735000", "131730.195000", "131730.655000", "131731.115000", "131731.575000", "131732.035000", "131732.495000", "131732.955000", "131733.415000", "131733.875000", "131734.335000", "131734.795000", "131735.255000", "131735.715000", "131736.175000", "131736.635000", "131737.095000", "131737.555000", "131738.015000", "131738.475000", "131738.935000", "131739.395000", "131739.855000", "131740.315000", "131740.775000", "131741.235000", "131741.695000", "131742.155000", "131742.615000", "131743.075000", "131743.535000", "131743.995000", "131744.455000", "131744.915000", "131745.375000", "131745.835000", "131746.295000", "131746.755000", "131747.215000", "131747.675000", "131748.135000", "131748.595000", "131749.055000", "131749.515000", "131749.975000", "131750.435000", "131750.895000", "131751.355000", "131751.815000", "131752.275000", "131752.735000", "131753.195000", "131753.655000", "131754.115000", "131754.575000", "131755.035000", "131755.495000", "131755.955000", "131756.415000", "131756.875000", "131757.335000", "131757.795000", "131758.255000", "131758.715000", "131759.175000", "131759.635000", "131800.095000", "131800.555000", "131801.015000", "131801.475000", "131801.935000", "131802.395000", "131802.855000", "131803.315000", "131803.775000", "131804.235000", "131804.695000", "131805.155000", "131805.615000", "131806.075000", "131806.535000", "131806.995000", "131807.455000", "131807.915000", "131808.375000", "131808.835000", "131809.295000", "131809.755000", "131810.215000", "131810.675000", "131811.135000", "131811.595000", "131812.055000", "131812.515000", "131812.975000", "131813.435000", "131813.895000", "131814.355000", "131814.815000", "131815.275000", "131815.735000", "131816.195000", "131816.655000", "131817.115000", "131817.575000", "131818.035000", "131818.495000", "131818.955000", "131819.415000", "131819.875000", "131820.335000", "131820.795000", "131821.255000", "131821.715000", "131822.175000", "131822.635000", "131823.095000", "131823.555000", "131824.015000", "131824.475000", "131824.935000", "131825.395000", "131825.855000", "131826.315000", "131826.775000", "131827.235000", "131827.695000", "131828.155000", "131828.615000", "131829.075000", "131829.535000", "131829.995000", "131830.455000", "131830.915000", "131831.375000", "131831.835000", "131832.295000", "131832.755000", "131833.215000", "131833.675000", "131834.135000", "131834.595000", "131835.055000", "131835.515000", "131835.975000", "131836.435000", "131836.895000", "131837.355000", "131837.815000", "131838.275000", "131838.735000", "131839.195000", "131839.655000", "131840.115000", "131840.575000", "131841.035000", "131841.495000", "131841.955000", "131842.415000", "131842.875000", "131843.335000", "131843.795000", "131844.255000", "131844.715000", "131845.175000", "131845.635000", "131846.095000", "131846.555000", "131847.015000", "131847.475000", "131847.935000", "131848.395000", "131848.855000", "131849.315000", "131849.775000", "131850.235000", "131850.695000", "131851.155000", "131851.615000", "131852.075000", "131852.535000", "131852.995000", "131853.455000", "131853.915000", "131854.375000", "131854.835000", "131855.295000", "131855.755000", "131856.215000", "131856.675000", "131857.135000", "131857.595000", "131858.055000", "131858.515000", "131858.975000", "131859.435000", "131859.895000", "131900.355000", "131900.815000", "131901.275000", "131901.735000", "131902.195000", "131902.655000", "131903.115000", "131903.575000", "131904.035000", "131904.495000", "131904.955000", "131905.415000", "131905.875000", "131906.335000", "131906.795000", "131907.255000", "131907.715000", "131908.175000", "131908.635000", "131909.095000", "131909.555000", "131910.015000", "131910.475000", "131910.935000", "131911.395000", "131911.855000", "131912.315000", "131912.775000", "131913.235000", "131913.695000", "131914.155000", "131914.615000", "131915.075000", "131915.535000", "131915.995000", "131916.455000", "131916.915000", "131917.375000", "131917.835000", "131918.295000", "131918.755000", "131919.215000", "131919.675000", "131920.135000", "131920.595000", "131921.055000", "131921.515000", "131921.975000", "131922.435000", "131922.895000", "131923.355000", "131923.815000", "131924.275000", "131924.735000", "131925.195000"],
