{
  "AcquisitionMatrixPE": 82,
  "AcquisitionNumber": 1,
  "AcquisitionTime": "13:05:46.862500",
  "BandwidthPerPixelPhaseEncode": 24.888,
  "BaseResolution": 82,
  "BodyPartExamined": "BRAIN",
  "ConsistencyInfo": "N4_VE11E_LATEST_20181129",
  "ConversionSoftware": "dcm2niix",
  "ConversionSoftwareVersion": "v1.0.20201102",
  "DerivedVendorReportedEchoSpacing": 0.00049,
  "DeviceSerialNumber": "66112",
  "DwellTime": 2e-06,
  "EchoTime": 0.0272,
  "EchoTrainLength": 82,
  "EffectiveEchoSpacing": 0.00049,
  "FlipAngle": 44,
  "ImageComments": "Unaliased MB8/PE3",
  "ImageOrientationPatientDICOM": [0.998648, 0.0240638, -0.0460869, -0.0256272, 0.999105, -0.0336389],
  "ImageType": [
    "ORIGINAL",
    "PRIMARY",
    "M",
    "MB",
    "ND",
    "NORM",
    "MOSAIC"
],
  "ImagingFrequency": 123.252,
  "InPlanePhaseEncodingDirectionDICOM": "COL",
  "InstitutionAddress": "Maynard 3,Hanover,NH,US,03755",
  "InstitutionName": "Dartmouth College - PBS",
  "InstitutionalDepartmentName": "Department",
  "MRAcquisitionType": "2D",
  "MagneticFieldStrength": 3,
  "Manufacturer": "Siemens",
  "ManufacturersModelName": "Prisma",
  "Modality": "MR",
  "MultibandAccelerationFactor": 8,
  "PartialFourier": 1,
  "PatientPosition": "HFS",
  "PercentPhaseFOV": 100,
  "PercentSampling": 100,
  "PhaseEncodingDirection": "j-",
  "PhaseEncodingSteps": 82,
  "PhaseResolution": 1,
  "PixelBandwidth": 3050,
  "ProcedureStepDescription": "Wager_Wager^1076_spacetop",
  "ProtocolName": "func_run-05_task-social_acq-ap-mb8",
  "PulseSequenceDetails": "%CustomerSeq%\\cmrr_mbep2d_bold",
  "ReceiveCoilActiveElements": "HEA;HEP",
  "ReceiveCoilName": "Head_32",
  "ReconMatrixPE": 82,
  "RepetitionTime": 0.46,
  "SAR": 0.100318,
  "ScanOptions": "FS",
  "ScanningSequence": "EP",
  "SequenceName": "epfid2d1_82",
  "SequenceVariant": "SK\\SS",
  "SeriesDescription": "func_run-05_task-social_acq-ap-mb8",
  "SeriesNumber": 20,
  "ShimSetting": [4131, -7705, -7276, 540, -48, -1, -12, 120],
  "SliceThickness": 2.7,
  "SliceTiming": [0, 0.25, 0.0625, 0.3125, 0.125, 0.375, 0.1875, 0, 0.25, 0.0625, 0.3125, 0.125, 0.375, 0.1875, 0, 0.25, 0.0625, 0.3125, 0.125, 0.375, 0.1875, 0, 0.25, 0.0625, 0.3125, 0.125, 0.375, 0.1875, 0, 0.25, 0.0625, 0.3125, 0.125, 0.375, 0.1875, 0, 0.25, 0.0625, 0.3125, 0.125, 0.375, 0.1875, 0, 0.25, 0.0625, 0.3125, 0.125, 0.375, 0.1875, 0, 0.25, 0.0625, 0.3125, 0.125, 0.375, 0.1875],
  "SoftwareVersions": "syngo MR E11",
  "SpacingBetweenSlices": 2.7,
  "StationName": "AWP66112",
  "TaskName": "social",
  "TotalReadoutTime": 0.03969,
  "TxRefAmp": 250.749,
  "WipMemBlock": "7ae3f7cf-0f4d-4daf-99ca-658b5a695557||Sequence: R016 ve11e/master r/434b28f1; Aug  7 2019 18:53:46 by eja",
  "dcmmeta_affine": [
    [-2.6792984008789062, -0.06875593960285187, -0.1221376433968544, 118.08679962158203],
    [-0.06456132978200912, 2.6805267333984375, -0.0938912108540535, -85.03668212890625],
    [-0.12364771217107773, 0.09025081992149353, 2.695601224899292, -82.84330749511719],
    [0.0, 0.0, 0.0, 1.0]
],
  "dcmmeta_reorient_transform": [
    [0.0, -1.0, 0.0, 81.0],
    [1.0, 0.0, 0.0, 0.0],
    [0.0, 0.0, 1.0, 0.0],
    [0.0, 0.0, 0.0, 1.0]
],
  "dcmmeta_shape": [82, 82, 56, 872],
  "dcmmeta_slice_dim": 2,
  "dcmmeta_version": 0.6,
  "global": {
    "const": {
      "AccessionNumber": "A003950",
      "AcquisitionMatrix": [82, 0, 0, 82],
      "AngioFlag": "N",
      "BitsAllocated": 16,
      "BitsStored": 16,
      "BodyPartExamined": "BRAIN",
      "Columns": 656,
      "EchoNumbers": 1,
      "EchoTime": 27.2,
      "EchoTrainLength": 82,
      "FlipAngle": 44.0,
      "HighBit": 15,
      "ImageOrientationPatient": [0.99864755307057, 0.02406376658261, -0.046086873229, -0.0256272130276, 0.99910543365719, -0.0336389415575],
      "ImagePositionPatient": [-861.74324785004, -919.92629598913, -14.144114872304],
      "ImageType": [
        "ORIGINAL",
        "PRIMARY",
        "M",
        "MB",
        "ND",
        "NORM",
        "MOSAIC"
],
      "ImagedNucleus": "1H",
      "ImagingFrequency": 123.252215,
      "InPlanePhaseEncodingDirection": "COL",
      "MRAcquisitionType": "2D",
      "MagneticFieldStrength": 3.0,
      "Manufacturer": "SIEMENS",
      "ManufacturerModelName": "Prisma",
      "Modality": "MR",
      "NumberOfAverages": 1.0,
      "NumberOfPhaseEncodingSteps": 82,
      "PercentPhaseFieldOfView": 100.0,
      "PercentSampling": 100.0,
      "PerformedProcedureStepStartTime": "114904.483000",
      "PhotometricInterpretation": "MONOCHROME2",
      "PixelBandwidth": 3050.0,
      "PixelRepresentation": 0,
      "PixelSpacing": [2.6829268932343, 2.6829268932343],
      "ProtocolName": "func_run-05_task-social_acq-ap-mb8",
      "RepetitionTime": 460.0,
      "Rows": 656,
      "SAR": 0.10031751730697,
      "SamplesPerPixel": 1,
      "ScanOptions": "FS",
      "ScanningSequence": "EP",
      "SequenceName": "epfid2d1_82",
      "SequenceVariant": [
        "SK",
        "SS"
],
      "SeriesDescription": "func_run-05_task-social_acq-ap-mb8",
      "SeriesNumber": 20,
      "SeriesTime": "130558.677000",
      "SliceLocation": -85.093032712212,
      "SliceThickness": 2.7000000476837,
      "SmallestImagePixelValue": 0,
      "SoftwareVersions": "syngo MR E11",
      "SpacingBetweenSlices": 2.6999999215862,
      "SpecificCharacterSet": "ISO_IR 100",
      "StudyID": "5",
      "StudyTime": "114904.432000",
      "TransmitCoilName": "Body",
      "VariableFlipAngleFlag": "N",
      "WindowCenterWidthExplanation": "Algo1"
    },
    "slices": {}
  },
  "time": {
    "samples": {
      "AcquisitionNumber": [1, 2, 3, 4, 5, 6, 7, 8, 9, 10, 11, 12, 13, 14, 15, 16, 17, 18, 19, 20, 21, 22, 23, 24, 25, 26, 27, 28, 29, 30, 31, 32, 33, 34, 35, 36, 37, 38, 39, 40, 41, 42, 43, 44, 45, 46, 47, 48, 49, 50, 51, 52, 53, 54, 55, 56, 57, 58, 59, 60, 61, 62, 63, 64, 65, 66, 67, 68, 69, 70, 71, 72, 73, 74, 75, 76, 77, 78, 79, 80, 81, 82, 83, 84, 85, 86, 87, 88, 89, 90, 91, 92, 93, 94, 95, 96, 97, 98, 99, 100, 101, 102, 103, 104, 105, 106, 107, 108, 109, 110, 111, 112, 113, 114, 115, 116, 117, 118, 119, 120, 121, 122, 123, 124, 125, 126, 127, 128, 129, 130, 131, 132, 133, 134, 135, 136, 137, 138, 139, 140, 141, 142, 143, 144, 145, 146, 147, 148, 149, 150, 151, 152, 153, 154, 155, 156, 157, 158, 159, 160, 161, 162, 163, 164, 165, 166, 167, 168, 169, 170, 171, 172, 173, 174, 175, 176, 177, 178, 179, 180, 181, 182, 183, 184, 185, 186, 187, 188, 189, 190, 191, 192, 193, 194, 195, 196, 197, 198, 199, 200, 201, 202, 203, 204, 205, 206, 207, 208, 209, 210, 211, 212, 213, 214, 215, 216, 217, 218, 219, 220, 221, 222, 223, 224, 225, 226, 227, 228, 229, 230, 231, 232, 233, 234, 235, 236, 237, 238, 239, 240, 241, 242, 243, 244, 245, 246, 247, 248, 249, 250, 251, 252, 253, 254, 255, 256, 257, 258, 259, 260, 261, 262, 263, 264, 265, 266, 267, 268, 269, 270, 271, 272, 273, 274, 275, 276, 277, 278, 279, 280, 281, 282, 283, 284, 285, 286, 287, 288, 289, 290, 291, 292, 293, 294, 295, 296, 297, 298, 299, 300, 301, 302, 303, 304, 305, 306, 307, 308, 309, 310, 311, 312, 313, 314, 315, 316, 317, 318, 319, 320, 321, 322, 323, 324, 325, 326, 327, 328, 329, 330, 331, 332, 333, 334, 335, 336, 337, 338, 339, 340, 341, 342, 343, 344, 345, 346, 347, 348, 349, 350, 351, 352, 353, 354, 355, 356, 357, 358, 359, 360, 361, 362, 363, 364, 365, 366, 367, 368, 369, 370, 371, 372, 373, 374, 375, 376, 377, 378, 379, 380, 381, 382, 383, 384, 385, 386, 387, 388, 389, 390, 391, 392, 393, 394, 395, 396, 397, 398, 399, 400, 401, 402, 403, 404, 405, 406, 407, 408, 409, 410, 411, 412, 413, 414, 415, 416, 417, 418, 419, 420, 421, 422, 423, 424, 425, 426, 427, 428, 429, 430, 431, 432, 433, 434, 435, 436, 437, 438, 439, 440, 441, 442, 443, 444, 445, 446, 447, 448, 449, 450, 451, 452, 453, 454, 455, 456, 457, 458, 459, 460, 461, 462, 463, 464, 465, 466, 467, 468, 469, 470, 471, 472, 473, 474, 475, 476, 477, 478, 479, 480, 481, 482, 483, 484, 485, 486, 487, 488, 489, 490, 491, 492, 493, 494, 495, 496, 497, 498, 499, 500, 501, 502, 503, 504, 505, 506, 507, 508, 509, 510, 511, 512, 513, 514, 515, 516, 517, 518, 519, 520, 521, 522, 523, 524, 525, 526, 527, 528, 529, 530, 531, 532, 533, 534, 535, 536, 537, 538, 539, 540, 541, 542, 543, 544, 545, 546, 547, 548, 549, 550, 551, 552, 553, 554, 555, 556, 557, 558, 559, 560, 561, 562, 563, 564, 565, 566, 567, 568, 569, 570, 571, 572, 573, 574, 575, 576, 577, 578, 579, 580, 581, 582, 583, 584, 585, 586, 587, 588, 589, 590, 591, 592, 593, 594, 595, 596, 597, 598, 599, 600, 601, 602, 603, 604, 605, 606, 607, 608, 609, 610, 611, 612, 613, 614, 615, 616, 617, 618, 619, 620, 621, 622, 623, 624, 625, 626, 627, 628, 629, 630, 631, 632, 633, 634, 635, 636, 637, 638, 639, 640, 641, 642, 643, 644, 645, 646, 647, 648, 649, 650, 651, 652, 653, 654, 655, 656, 657, 658, 659, 660, 661, 662, 663, 664, 665, 666, 667, 668, 669, 670, 671, 672, 673, 674, 675, 676, 677, 678, 679, 680, 681, 682, 683, 684, 685, 686, 687, 688, 689, 690, 691, 692, 693, 694, 695, 696, 697, 698, 699, 700, 701, 702, 703, 704, 705, 706, 707, 708, 709, 710, 711, 712, 713, 714, 715, 716, 717, 718, 719, 720, 721, 722, 723, 724, 725, 726, 727, 728, 729, 730, 731, 732, 733, 734, 735, 736, 737, 738, 739, 740, 741, 742, 743, 744, 745, 746, 747, 748, 749, 750, 751, 752, 753, 754, 755, 756, 757, 758, 759, 760, 761, 762, 763, 764, 765, 766, 767, 768, 769, 770, 771, 772, 773, 774, 775, 776, 777, 778, 779, 780, 781, 782, 783, 784, 785, 786, 787, 788, 789, 790, 791, 792, 793, 794, 795, 796, 797, 798, 799, 800, 801, 802, 803, 804, 805, 806, 807, 808, 809, 810, 811, 812, 813, 814, 815, 816, 817, 818, 819, 820, 821, 822, 823, 824, 825, 826, 827, 828, 829, 830, 831, 832, 833, 834, 835, 836, 837, 838, 839, 840, 841, 842, 843, 844, 845, 846, 847, 848, 849, 850, 851, 852, 853, 854, 855, 856, 857, 858, 859, 860, 861, 862, 863, 864, 865, 866, 867, 868, 869, 870, 871, 872],
      "AcquisitionTime": ["130546.862500", "130547.322500", "130547.782500", "130548.242500", "130548.702500", "130549.162500", "130549.622500", "130550.082500", "130550.542500", "130551.002500", "130551.462500", "130551.922500", "130552.382500", "130552.842500", "130553.302500", "130553.762500", "130554.222500", "130554.682500", "130555.142500", "130555.602500", "130556.062500", "130556.522500", "130556.982500", "130557.442500", "130557.902500", "130558.362500", "130558.822500", "130559.282500", "130559.742500", "130600.202500", "130600.662500", "130601.122500", "130601.582500", "130602.042500", "130602.502500", "130602.962500", "130603.422500", "130603.882500", "130604.342500", "130604.802500", "130605.262500", "130605.722500", "130606.182500", "130606.642500", "130607.102500", "130607.562500", "130608.022500", "130608.482500", "130608.942500", "130609.402500", "130609.862500", "130610.322500", "130610.782500", "130611.242500", "130611.702500", "130612.162500", "130612.622500", "130613.082500", "130613.542500", "130614.002500", "130614.462500", "130614.922500", "130615.382500", "130615.842500", "130616.302500", "130616.762500", "130617.222500", "130617.682500", "130618.142500", "130618.602500", "130619.062500", "130619.522500", "130619.982500", "130620.442500", "130620.902500", "130621.362500", "130621.822500", "130622.282500", "130622.742500", "130623.202500", "130623.662500", "130624.122500", "130624.582500", "130625.042500", "130625.502500", "130625.962500", "130626.422500", "130626.882500", "130627.342500", "130627.802500", "130628.262500", "130628.722500", "130629.182500", "130629.642500", "130630.102500", "130630.562500", "130631.022500", "130631.482500", "130631.942500", "130632.402500", "130632.862500", "130633.322500", "130633.782500", "130634.242500", "130634.702500", "130635.162500", "130635.622500", "130636.082500", "130636.542500", "130637.002500", "130637.462500", "130637.922500", "130638.382500", "130638.842500", "130639.302500", "130639.762500", "130640.222500", "130640.682500", "130641.142500", "130641.602500", "130642.062500", "130642.522500", "130642.982500", "130643.442500", "130643.902500", "130644.362500", "130644.822500", "130645.282500", "130645.742500", "130646.202500", "130646.662500", "130647.122500", "130647.582500", "130648.042500", "130648.502500", "130648.962500", "130649.422500", "130649.882500", "130650.342500", "130650.802500", "130651.262500", "130651.722500", "130652.182500", "130652.642500", "130653.102500", "130653.562500", "130654.022500", "130654.482500", "130654.942500", "130655.402500", "130655.862500", "130656.322500", "130656.782500", "130657.242500", "130657.702500", "130658.162500", "130658.622500", "130659.082500", "130659.542500", "130700.002500", "130700.462500", "130700.922500", "130701.382500", "130701.842500", "130702.302500", "130702.762500", "130703.222500", "130703.682500", "130704.142500", "130704.602500", "130705.062500", "130705.522500", "130705.982500", "130706.442500", "130706.902500", "130707.362500", "130707.822500", "130708.282500", "130708.742500", "130709.202500", "130709.662500", "130710.122500", "130710.582500", "130711.042500", "130711.502500", "130711.962500", "130712.422500", "130712.882500", "130713.342500", "130713.802500", "130714.262500", "130714.722500", "130715.182500", "130715.642500", "130716.102500", "130716.562500", "130717.022500", "130717.482500", "130717.942500", "130718.402500", "130718.862500", "130719.322500", "130719.782500", "130720.242500", "130720.702500", "130721.162500", "130721.622500", "130722.082500", "130722.542500", "130723.002500", "130723.462500", "130723.922500", "130724.382500", "130724.842500", "130725.302500", "130725.762500", "130726.222500", "130726.682500", "130727.142500", "130727.602500", "130728.062500", "130728.522500", "130728.982500", "130729.442500", "130729.902500", "130730.362500", "130730.822500", "130731.282500", "130731.742500", "130732.202500", "130732.662500", "130733.122500", "130733.582500", "130734.042500", "130734.502500", "130734.962500", "130735.422500", "130735.882500", "130736.342500", "130736.802500", "130737.262500", "130737.722500", "130738.182500", "130738.642500", "130739.102500", "130739.562500", "130740.022500", "130740.482500", "130740.942500", "130741.402500", "130741.862500", "130742.322500", "130742.782500", "130743.242500", "130743.702500", "130744.162500", "130744.622500", "130745.082500", "130745.542500", "130746.002500", "130746.462500", "130746.922500", "130747.382500", "130747.842500", "130748.302500", "130748.762500", "130749.222500", "130749.682500", "130750.142500", "130750.602500", "130751.062500", "130751.522500", "130751.982500", "130752.442500", "130752.902500", "130753.362500", "130753.822500", "130754.282500", "130754.742500", "130755.202500", "130755.662500", "130756.122500", "130756.582500", "130757.042500", "130757.502500", "130757.962500", "130758.422500", "130758.882500", "130759.342500", "130759.802500", "130800.262500", "130800.722500", "130801.182500", "130801.642500", "130802.102500", "130802.562500", "130803.022500", "130803.482500", "130803.942500", "130804.402500", "130804.862500", "130805.322500", "130805.782500", "130806.242500", "130806.702500", "130807.162500", "130807.622500", "130808.082500", "130808.542500", "130809.002500", "130809.462500", "130809.922500", "130810.382500", "130810.842500", "130811.302500", "130811.762500", "130812.222500", "130812.682500", "130813.142500", "130813.602500", "130814.062500", "130814.522500", "130814.982500", "130815.442500", "130815.902500", "130816.362500", "130816.822500", "130817.282500", "130817.742500", "130818.202500", "130818.662500", "130819.122500", "130819.582500", "130820.042500", "130820.502500", "130820.962500", "130821.422500", "130821.882500", "130822.342500", "130822.802500", "130823.262500", "130823.722500", "130824.182500", "130824.642500", "130825.102500", "130825.562500", "130826.022500", "130826.482500", "130826.942500", "130827.402500", "130827.862500", "130828.322500", "130828.782500", "130829.242500", "130829.702500", "130830.162500", "130830.622500", "130831.082500", "130831.542500", "130832.002500", "130832.462500", "130832.922500", "130833.382500", "130833.842500", "130834.302500", "130834.762500", "130835.222500", "130835.682500", "130836.142500", "130836.602500", "130837.062500", "130837.522500", "130837.982500", "130838.442500", "130838.902500", "130839.362500", "130839.822500", "130840.282500", "130840.742500", "130841.202500", "130841.662500", "130842.122500", "130842.582500", "130843.042500", "130843.502500", "130843.962500", "130844.422500", "130844.882500", "130845.342500", "130845.802500", "130846.262500", "130846.722500", "130847.182500", "130847.642500", "130848.102500", "130848.562500", "130849.022500", "130849.482500", "130849.942500", "130850.402500", "130850.862500", "130851.322500", "130851.782500", "130852.242500", "130852.702500", "130853.162500", "130853.622500", "130854.082500", "130854.542500", "130855.002500", "130855.462500", "130855.922500", "130856.382500", "130856.842500", "130857.302500", "130857.762500", "130858.222500", "130858.682500", "130859.142500", "130859.602500", "130900.062500", "130900.522500", "130900.982500", "130901.442500", "130901.902500", "130902.362500", "130902.822500", "130903.282500", "130903.742500", "130904.202500", "130904.662500", "130905.122500", "130905.582500", "130906.042500", "130906.502500", "130906.962500", "130907.422500", "130907.882500", "130908.342500", "130908.802500", "130909.262500", "130909.722500", "130910.182500", "130910.642500", "130911.102500", "130911.562500", "130912.022500", "130912.482500", "130912.942500", "130913.402500", "130913.862500", "130914.322500", "130914.782500", "130915.242500", "130915.702500", "130916.162500", "130916.622500", "130917.082500", "130917.542500", "130918.002500", "130918.462500", "130918.922500", "130919.382500", "130919.842500", "130920.302500", "130920.762500", "130921.222500", "130921.682500", "130922.142500", "130922.602500", "130923.062500", "130923.522500", "130923.982500", "130924.442500", "130924.902500", "130925.362500", "130925.822500", "130926.282500", "130926.742500", "130927.202500", "130927.662500", "130928.122500", "130928.582500", "130929.042500", "130929.502500", "130929.962500", "130930.422500", "130930.882500", "130931.342500", "130931.802500", "130932.262500", "130932.722500", "130933.182500", "130933.642500", "130934.102500", "130934.562500", "130935.022500", "130935.482500", "130935.942500", "130936.402500", "130936.862500", "130937.322500", "130937.782500", "130938.242500", "130938.702500", "130939.162500", "130939.622500", "130940.082500", "130940.542500", "130941.002500", "130941.462500", "130941.922500", "130942.382500", "130942.842500", "130943.302500", "130943.762500", "130944.222500", "130944.682500", "130945.142500", "130945.602500", "130946.062500", "130946.522500", "130946.982500", "130947.442500", "130947.902500", "130948.362500", "130948.822500", "130949.282500", "130949.742500", "130950.202500", "130950.662500", "130951.122500", "130951.582500", "130952.042500", "130952.502500", "130952.962500", "130953.422500", "130953.882500", "130954.342500", "130954.802500", "130955.262500", "130955.722500", "130956.182500", "130956.642500", "130957.102500", "130957.562500", "130958.022500", "130958.482500", "130958.942500", "130959.402500", "130959.862500", "131000.322500", "131000.782500", "131001.242500", "131001.702500", "131002.162500", "131002.622500", "131003.082500", "131003.542500", "131004.002500", "131004.462500", "131004.922500", "131005.382500", "131005.842500", "131006.302500", "131006.762500", "131007.222500", "131007.682500", "131008.142500", "131008.602500", "131009.062500", "131009.522500", "131009.982500", "131010.442500", "131010.902500", "131011.362500", "131011.822500", "131012.282500", "131012.742500", "131013.202500", "131013.662500", "131014.122500", "131014.582500", "131015.042500", "131015.502500", "131015.962500", "131016.422500", "131016.882500", "131017.342500", "131017.802500", "131018.262500", "131018.722500", "131019.182500", "131019.642500", "131020.102500", "131020.562500", "131021.022500", "131021.482500", "131021.942500", "131022.402500", "131022.862500", "131023.322500", "131023.782500", "131024.242500", "131024.702500", "131025.162500", "131025.622500", "131026.082500", "131026.542500", "131027.002500", "131027.462500", "131027.922500", "131028.382500", "131028.842500", "131029.302500", "131029.762500", "131030.222500", "131030.682500", "131031.142500", "131031.602500", "131032.062500", "131032.522500", "131032.982500", "131033.442500", "131033.902500", "131034.362500", "131034.822500", "131035.282500", "131035.742500", "131036.202500", "131036.662500", "131037.122500", "131037.582500", "131038.042500", "131038.502500", "131038.962500", "131039.422500", "131039.882500", "131040.342500", "131040.802500", "131041.262500", "131041.722500", "131042.182500", "131042.642500", "131043.102500", "131043.562500", "131044.022500", "131044.482500", "131044.942500", "131045.402500", "131045.862500", "131046.322500", "131046.782500", "131047.242500", "131047.702500", "131048.162500", "131048.622500", "131049.082500", "131049.542500", "131050.002500", "131050.462500", "131050.922500", "131051.382500", "131051.842500", "131052.302500", "131052.762500", "131053.222500", "131053.682500", "131054.142500", "131054.602500", "131055.062500", "131055.522500", "131055.982500", "131056.442500", "131056.902500", "131057.362500", "131057.822500", "131058.282500", "131058.742500", "131059.202500", "131059.662500", "131100.122500", "131100.582500", "131101.042500", "131101.502500", "131101.962500", "131102.422500", "131102.882500", "131103.342500", "131103.802500", "131104.262500", "131104.722500", "131105.182500", "131105.642500", "131106.102500", "131106.562500", "131107.022500", "131107.482500", "131107.942500", "131108.402500", "131108.862500", "131109.322500", "131109.782500", "131110.242500", "131110.702500", "131111.162500", "131111.622500", "131112.082500", "131112.542500", "131113.002500", "131113.462500", "131113.922500", "131114.382500", "131114.842500", "131115.302500", "131115.762500", "131116.222500", "131116.682500", "131117.142500", "131117.602500", "131118.062500", "131118.522500", "131118.982500", "131119.442500", "131119.902500", "131120.362500", "131120.822500", "131121.282500", "131121.742500", "131122.202500", "131122.662500", "131123.122500", "131123.582500", "131124.042500", "131124.502500", "131124.962500", "131125.422500", "131125.882500", "131126.342500", "131126.802500", "131127.262500", "131127.722500", "131128.182500", "131128.642500", "131129.102500", "131129.562500", "131130.022500", "131130.482500", "131130.942500", "131131.402500", "131131.862500", "131132.322500", "131132.782500", "131133.242500", "131133.702500", "131134.162500", "131134.622500", "131135.082500", "131135.542500", "131136.002500", "131136.462500", "131136.922500", "131137.382500", "131137.842500", "131138.302500", "131138.762500", "131139.222500", "131139.682500", "131140.142500", "131140.602500", "131141.062500", "131141.522500", "131141.982500", "131142.442500", "131142.902500", "131143.362500", "131143.822500", "131144.282500", "131144.742500", "131145.202500", "131145.662500", "131146.122500", "131146.582500", "131147.042500", "131147.502500", "131147.962500", "131148.422500", "131148.882500", "131149.342500", "131149.802500", "131150.262500", "131150.722500", "131151.182500", "131151.642500", "131152.102500", "131152.562500", "131153.022500", "131153.482500", "131153.942500", "131154.402500", "131154.862500", "131155.322500", "131155.782500", "131156.242500", "131156.702500", "131157.162500", "131157.622500", "131158.082500", "131158.542500", "131159.002500", "131159.462500", "131159.922500", "131200.382500", "131200.842500", "131201.302500", "131201.762500", "131202.222500", "131202.682500", "131203.142500", "131203.602500", "131204.062500", "131204.522500", "131204.982500", "131205.442500", "131205.902500", "131206.362500", "131206.822500", "131207.282500", "131207.742500", "131208.202500", "131208.662500", "131209.122500", "131209.582500", "131210.042500", "131210.502500", "131210.962500", "131211.422500", "131211.882500", "131212.342500", "131212.802500", "131213.262500", "131213.722500", "131214.182500", "131214.642500", "131215.102500", "131215.562500", "131216.022500", "131216.482500", "131216.942500", "131217.402500", "131217.862500", "131218.322500", "131218.782500", "131219.242500", "131219.702500", "131220.162500", "131220.622500", "131221.082500", "131221.542500", "131222.002500", "131222.462500", "131222.922500", "131223.382500", "131223.842500", "131224.302500", "131224.762500", "131225.222500", "131225.682500", "131226.142500", "131226.602500", "131227.062500", "131227.522500"],
