{
  "AcquisitionMatrixPE": 82,
  "AcquisitionNumber": 1,
  "AcquisitionTime": "12:35:11.992500",
  "BandwidthPerPixelPhaseEncode": 24.888,
  "BaseResolution": 82,
  "BodyPartExamined": "BRAIN",
  "ConsistencyInfo": "N4_VE11E_LATEST_20181129",
  "ConversionSoftware": "dcm2niix",
  "ConversionSoftwareVersion": "v1.0.20201102",
  "DerivedVendorReportedEchoSpacing": 0.00049,
  "DeviceSerialNumber": "66112",
  "DwellTime": 2e-06,
  "EchoTime": 0.0272,
  "EchoTrainLength": 82,
  "EffectiveEchoSpacing": 0.00049,
  "FlipAngle": 44,
  "ImageComments": "Unaliased MB8/PE3",
  "ImageOrientationPatientDICOM": [0.998648, 0.0240638, -0.0460869, -0.0256272, 0.999105, -0.0336389],
  "ImageType": [
    "ORIGINAL",
    "PRIMARY",
    "M",
    "MB",
    "ND",
    "NORM",
    "MOSAIC"
],
  "ImagingFrequency": 123.252,
  "InPlanePhaseEncodingDirectionDICOM": "COL",
  "InstitutionAddress": "Maynard 3,Hanover,NH,US,03755",
  "InstitutionName": "Dartmouth College - PBS",
  "InstitutionalDepartmentName": "Department",
  "MRAcquisitionType": "2D",
  "MagneticFieldStrength": 3,
  "Manufacturer": "Siemens",
  "ManufacturersModelName": "Prisma",
  "Modality": "MR",
  "MultibandAccelerationFactor": 8,
  "PartialFourier": 1,
  "PatientPosition": "HFS",
  "PercentPhaseFOV": 100,
  "PercentSampling": 100,
  "PhaseEncodingDirection": "j-",
  "PhaseEncodingSteps": 82,
  "PhaseResolution": 1,
  "PixelBandwidth": 3050,
  "ProcedureStepDescription": "Wager_Wager^1076_spacetop",
  "ProtocolName": "func_run-01_task-social_acq-ap-mb8",
  "PulseSequenceDetails": "%CustomerSeq%\\cmrr_mbep2d_bold",
  "ReceiveCoilActiveElements": "HEA;HEP",
  "ReceiveCoilName": "Head_32",
  "ReconMatrixPE": 82,
  "RepetitionTime": 0.46,
  "SAR": 0.100318,
  "ScanOptions": "FS",
  "ScanningSequence": "EP",
  "SequenceName": "epfid2d1_82",
  "SequenceVariant": "SK\\SS",
  "SeriesDescription": "func_run-01_task-social_acq-ap-mb8",
  "SeriesNumber": 12,
  "ShimSetting": [4131, -7705, -7276, 540, -48, -1, -12, 120],
  "SliceThickness": 2.7,
  "SliceTiming": [0, 0.2525, 0.0625, 0.315, 0.125, 0.3775, 0.19, 0, 0.2525, 0.0625, 0.315, 0.125, 0.3775, 0.19, 0, 0.2525, 0.0625, 0.315, 0.125, 0.3775, 0.19, 0, 0.2525, 0.0625, 0.315, 0.125, 0.3775, 0.19, 0, 0.2525, 0.0625, 0.315, 0.125, 0.3775, 0.19, 0, 0.2525, 0.0625, 0.315, 0.125, 0.3775, 0.19, 0, 0.2525, 0.0625, 0.315, 0.125, 0.3775, 0.19, 0, 0.2525, 0.0625, 0.315, 0.125, 0.3775, 0.19],
  "SoftwareVersions": "syngo MR E11",
  "SpacingBetweenSlices": 2.7,
  "StationName": "AWP66112",
  "TaskName": "social",
  "TotalReadoutTime": 0.03969,
  "TxRefAmp": 250.749,
  "WipMemBlock": "1a06f671-8b55-43a2-9b4c-2b4e4d176e59||Sequence: R016 ve11e/master r/434b28f1; Aug  7 2019 18:53:46 by eja",
  "dcmmeta_affine": [
    [-2.6792984008789062, -0.06875593960285187, -0.1221376433968544, 118.08679962158203],
    [-0.06456132978200912, 2.6805267333984375, -0.0938912108540535, -85.03668212890625],
    [-0.12364771217107773, 0.09025081992149353, 2.695601224899292, -82.84330749511719],
    [0.0, 0.0, 0.0, 1.0]
],
  "dcmmeta_reorient_transform": [
    [0.0, -1.0, 0.0, 81.0],
    [1.0, 0.0, 0.0, 0.0],
    [0.0, 0.0, 1.0, 0.0],
    [0.0, 0.0, 0.0, 1.0]
],
  "dcmmeta_shape": [82, 82, 56, 872],
  "dcmmeta_slice_dim": 2,
  "dcmmeta_version": 0.6,
  "global": {
    "const": {
      "AccessionNumber": "A003950",
      "AcquisitionMatrix": [82, 0, 0, 82],
      "AngioFlag": "N",
      "BitsAllocated": 16,
      "BitsStored": 16,
      "BodyPartExamined": "BRAIN",
      "Columns": 656,
      "EchoNumbers": 1,
      "EchoTime": 27.2,
      "EchoTrainLength": 82,
      "FlipAngle": 44.0,
      "HighBit": 15,
      "ImageOrientationPatient": [0.99864755307057, 0.02406376658261, -0.046086873229, -0.0256272130276, 0.99910543365719, -0.0336389415575],
      "ImagePositionPatient": [-861.74324785004, -919.92629598913, -14.144114872304],
      "ImageType": [
        "ORIGINAL",
        "PRIMARY",
        "M",
        "MB",
        "ND",
        "NORM",
        "MOSAIC"
],
      "ImagedNucleus": "1H",
      "ImagingFrequency": 123.252198,
      "InPlanePhaseEncodingDirection": "COL",
      "MRAcquisitionType": "2D",
      "MagneticFieldStrength": 3.0,
      "Manufacturer": "SIEMENS",
      "ManufacturerModelName": "Prisma",
      "Modality": "MR",
      "NumberOfAverages": 1.0,
      "NumberOfPhaseEncodingSteps": 82,
      "PercentPhaseFieldOfView": 100.0,
      "PercentSampling": 100.0,
      "PerformedProcedureStepStartTime": "114904.483000",
      "PhotometricInterpretation": "MONOCHROME2",
      "PixelBandwidth": 3050.0,
      "PixelRepresentation": 0,
      "PixelSpacing": [2.6829268932343, 2.6829268932343],
      "ProtocolName": "func_run-01_task-social_acq-ap-mb8",
      "RepetitionTime": 460.0,
      "Rows": 656,
      "SAR": 0.10031751730697,
      "SamplesPerPixel": 1,
      "ScanOptions": "FS",
      "ScanningSequence": "EP",
      "SequenceName": "epfid2d1_82",
      "SequenceVariant": [
        "SK",
        "SS"
],
      "SeriesDescription": "func_run-01_task-social_acq-ap-mb8",
      "SeriesNumber": 12,
      "SeriesTime": "123538.561000",
      "SliceLocation": -85.093032712212,
      "SliceThickness": 2.7000000476837,
      "SmallestImagePixelValue": 0,
      "SoftwareVersions": "syngo MR E11",
      "SpacingBetweenSlices": 2.6999999215862,
      "SpecificCharacterSet": "ISO_IR 100",
      "StudyID": "5",
      "StudyTime": "114904.432000",
      "TransmitCoilName": "Body",
      "VariableFlipAngleFlag": "N",
      "WindowCenterWidthExplanation": "Algo1"
    },
    "slices": {}
  },
  "time": {
    "samples": {
      "AcquisitionNumber": [1, 2, 3, 4, 5, 6, 7, 8, 9, 10, 11, 12, 13, 14, 15, 16, 17, 18, 19, 20, 21, 22, 23, 24, 25, 26, 27, 28, 29, 30, 31, 32, 33, 34, 35, 36, 37, 38, 39, 40, 41, 42, 43, 44, 45, 46, 47, 48, 49, 50, 51, 52, 53, 54, 55, 56, 57, 58, 59, 60, 61, 62, 63, 64, 65, 66, 67, 68, 69, 70, 71, 72, 73, 74, 75, 76, 77, 78, 79, 80, 81, 82, 83, 84, 85, 86, 87, 88, 89, 90, 91, 92, 93, 94, 95, 96, 97, 98, 99, 100, 101, 102, 103, 104, 105, 106, 107, 108, 109, 110, 111, 112, 113, 114, 115, 116, 117, 118, 119, 120, 121, 122, 123, 124, 125, 126, 127, 128, 129, 130, 131, 132, 133, 134, 135, 136, 137, 138, 139, 140, 141, 142, 143, 144, 145, 146, 147, 148, 149, 150, 151, 152, 153, 154, 155, 156, 157, 158, 159, 160, 161, 162, 163, 164, 165, 166, 167, 168, 169, 170, 171, 172, 173, 174, 175, 176, 177, 178, 179, 180, 181, 182, 183, 184, 185, 186, 187, 188, 189, 190, 191, 192, 193, 194, 195, 196, 197, 198, 199, 200, 201, 202, 203, 204, 205, 206, 207, 208, 209, 210, 211, 212, 213, 214, 215, 216, 217, 218, 219, 220, 221, 222, 223, 224, 225, 226, 227, 228, 229, 230, 231, 232, 233, 234, 235, 236, 237, 238, 239, 240, 241, 242, 243, 244, 245, 246, 247, 248, 249, 250, 251, 252, 253, 254, 255, 256, 257, 258, 259, 260, 261, 262, 263, 264, 265, 266, 267, 268, 269, 270, 271, 272, 273, 274, 275, 276, 277, 278, 279, 280, 281, 282, 283, 284, 285, 286, 287, 288, 289, 290, 291, 292, 293, 294, 295, 296, 297, 298, 299, 300, 301, 302, 303, 304, 305, 306, 307, 308, 309, 310, 311, 312, 313, 314, 315, 316, 317, 318, 319, 320, 321, 322, 323, 324, 325, 326, 327, 328, 329, 330, 331, 332, 333, 334, 335, 336, 337, 338, 339, 340, 341, 342, 343, 344, 345, 346, 347, 348, 349, 350, 351, 352, 353, 354, 355, 356, 357, 358, 359, 360, 361, 362, 363, 364, 365, 366, 367, 368, 369, 370, 371, 372, 373, 374, 375, 376, 377, 378, 379, 380, 381, 382, 383, 384, 385, 386, 387, 388, 389, 390, 391, 392, 393, 394, 395, 396, 397, 398, 399, 400, 401, 402, 403, 404, 405, 406, 407, 408, 409, 410, 411, 412, 413, 414, 415, 416, 417, 418, 419, 420, 421, 422, 423, 424, 425, 426, 427, 428, 429, 430, 431, 432, 433, 434, 435, 436, 437, 438, 439, 440, 441, 442, 443, 444, 445, 446, 447, 448, 449, 450, 451, 452, 453, 454, 455, 456, 457, 458, 459, 460, 461, 462, 463, 464, 465, 466, 467, 468, 469, 470, 471, 472, 473, 474, 475, 476, 477, 478, 479, 480, 481, 482, 483, 484, 485, 486, 487, 488, 489, 490, 491, 492, 493, 494, 495, 496, 497, 498, 499, 500, 501, 502, 503, 504, 505, 506, 507, 508, 509, 510, 511, 512, 513, 514, 515, 516, 517, 518, 519, 520, 521, 522, 523, 524, 525, 526, 527, 528, 529, 530, 531, 532, 533, 534, 535, 536, 537, 538, 539, 540, 541, 542, 543, 544, 545, 546, 547, 548, 549, 550, 551, 552, 553, 554, 555, 556, 557, 558, 559, 560, 561, 562, 563, 564, 565, 566, 567, 568, 569, 570, 571, 572, 573, 574, 575, 576, 577, 578, 579, 580, 581, 582, 583, 584, 585, 586, 587, 588, 589, 590, 591, 592, 593, 594, 595, 596, 597, 598, 599, 600, 601, 602, 603, 604, 605, 606, 607, 608, 609, 610, 611, 612, 613, 614, 615, 616, 617, 618, 619, 620, 621, 622, 623, 624, 625, 626, 627, 628, 629, 630, 631, 632, 633, 634, 635, 636, 637, 638, 639, 640, 641, 642, 643, 644, 645, 646, 647, 648, 649, 650, 651, 652, 653, 654, 655, 656, 657, 658, 659, 660, 661, 662, 663, 664, 665, 666, 667, 668, 669, 670, 671, 672, 673, 674, 675, 676, 677, 678, 679, 680, 681, 682, 683, 684, 685, 686, 687, 688, 689, 690, 691, 692, 693, 694, 695, 696, 697, 698, 699, 700, 701, 702, 703, 704, 705, 706, 707, 708, 709, 710, 711, 712, 713, 714, 715, 716, 717, 718, 719, 720, 721, 722, 723, 724, 725, 726, 727, 728, 729, 730, 731, 732, 733, 734, 735, 736, 737, 738, 739, 740, 741, 742, 743, 744, 745, 746, 747, 748, 749, 750, 751, 752, 753, 754, 755, 756, 757, 758, 759, 760, 761, 762, 763, 764, 765, 766, 767, 768, 769, 770, 771, 772, 773, 774, 775, 776, 777, 778, 779, 780, 781, 782, 783, 784, 785, 786, 787, 788, 789, 790, 791, 792, 793, 794, 795, 796, 797, 798, 799, 800, 801, 802, 803, 804, 805, 806, 807, 808, 809, 810, 811, 812, 813, 814, 815, 816, 817, 818, 819, 820, 821, 822, 823, 824, 825, 826, 827, 828, 829, 830, 831, 832, 833, 834, 835, 836, 837, 838, 839, 840, 841, 842, 843, 844, 845, 846, 847, 848, 849, 850, 851, 852, 853, 854, 855, 856, 857, 858, 859, 860, 861, 862, 863, 864, 865, 866, 867, 868, 869, 870, 871, 872],
      "AcquisitionTime": ["123511.992500", "123512.452500", "123512.912500", "123513.372500", "123513.832500", "123514.292500", "123514.752500", "123515.212500", "123515.672500", "123516.132500", "123516.592500", "123517.052500", "123517.512500", "123517.972500", "123518.432500", "123518.892500", "123519.352500", "123519.812500", "123520.272500", "123520.732500", "123521.192500", "123521.652500", "123522.112500", "123522.572500", "123523.032500", "123523.492500", "123523.952500", "123524.412500", "123524.872500", "123525.332500", "123525.792500", "123526.252500", "123526.712500", "123527.172500", "123527.632500", "123528.092500", "123528.552500", "123529.012500", "123529.472500", "123529.932500", "123530.392500", "123530.852500", "123531.312500", "123531.772500", "123532.232500", "123532.692500", "123533.152500", "123533.612500", "123534.072500", "123534.532500", "123534.992500", "123535.452500", "123535.912500", "123536.372500", "123536.832500", "123537.292500", "123537.752500", "123538.212500", "123538.672500", "123539.132500", "123539.592500", "123540.052500", "123540.512500", "123540.972500", "123541.432500", "123541.892500", "123542.352500", "123542.812500", "123543.272500", "123543.732500", "123544.192500", "123544.652500", "123545.112500", "123545.572500", "123546.032500", "123546.492500", "123546.952500", "123547.412500", "123547.872500", "123548.332500", "123548.792500", "123549.252500", "123549.712500", "123550.172500", "123550.632500", "123551.092500", "123551.552500", "123552.012500", "123552.472500", "123552.932500", "123553.392500", "123553.852500", "123554.312500", "123554.772500", "123555.232500", "123555.692500", "123556.152500", "123556.612500", "123557.072500", "123557.532500", "123557.992500", "123558.452500", "123558.912500", "123559.372500", "123559.832500", "123600.292500", "123600.752500", "123601.212500", "123601.672500", "123602.132500", "123602.592500", "123603.052500", "123603.512500", "123603.972500", "123604.432500", "123604.892500", "123605.352500", "123605.812500", "123606.272500", "123606.732500", "123607.192500", "123607.652500", "123608.112500", "123608.572500", "123609.032500", "123609.492500", "123609.952500", "123610.412500", "123610.872500", "123611.332500", "123611.792500", "123612.252500", "123612.712500", "123613.172500", "123613.632500", "123614.092500", "123614.552500", "123615.012500", "123615.472500", "123615.932500", "123616.392500", "123616.852500", "123617.312500", "123617.772500", "123618.232500", "123618.692500", "123619.152500", "123619.612500", "123620.072500", "123620.532500", "123620.992500", "123621.452500", "123621.912500", "123622.372500", "123622.832500", "123623.292500", "123623.752500", "123624.212500", "123624.672500", "123625.132500", "123625.592500", "123626.052500", "123626.512500", "123626.972500", "123627.432500", "123627.892500", "123628.352500", "123628.812500", "123629.272500", "123629.732500", "123630.192500", "123630.652500", "123631.112500", "123631.572500", "123632.032500", "123632.492500", "123632.952500", "123633.412500", "123633.872500", "123634.332500", "123634.792500", "123635.252500", "123635.712500", "123636.172500", "123636.632500", "123637.092500", "123637.552500", "123638.012500", "123638.472500", "123638.932500", "123639.392500", "123639.852500", "123640.312500", "123640.772500", "123641.232500", "123641.692500", "123642.152500", "123642.612500", "123643.072500", "123643.532500", "123643.992500", "123644.452500", "123644.912500", "123645.372500", "123645.832500", "123646.292500", "123646.752500", "123647.212500", "123647.672500", "123648.132500", "123648.592500", "123649.052500", "123649.512500", "123649.972500", "123650.432500", "123650.892500", "123651.352500", "123651.812500", "123652.272500", "123652.732500", "123653.192500", "123653.652500", "123654.112500", "123654.572500", "123655.032500", "123655.492500", "123655.952500", "123656.412500", "123656.872500", "123657.332500", "123657.792500", "123658.252500", "123658.712500", "123659.172500", "123659.632500", "123700.092500", "123700.552500", "123701.012500", "123701.472500", "123701.932500", "123702.392500", "123702.852500", "123703.312500", "123703.772500", "123704.232500", "123704.692500", "123705.152500", "123705.612500", "123706.072500", "123706.532500", "123706.992500", "123707.452500", "123707.912500", "123708.372500", "123708.832500", "123709.292500", "123709.752500", "123710.212500", "123710.672500", "123711.132500", "123711.592500", "123712.052500", "123712.512500", "123712.972500", "123713.432500", "123713.892500", "123714.352500", "123714.812500", "123715.272500", "123715.732500", "123716.192500", "123716.652500", "123717.112500", "123717.572500", "123718.032500", "123718.492500", "123718.952500", "123719.412500", "123719.872500", "123720.332500", "123720.792500", "123721.252500", "123721.712500", "123722.172500", "123722.632500", "123723.092500", "123723.552500", "123724.012500", "123724.472500", "123724.932500", "123725.392500", "123725.852500", "123726.312500", "123726.772500", "123727.232500", "123727.692500", "123728.152500", "123728.612500", "123729.072500", "123729.532500", "123729.992500", "123730.452500", "123730.912500", "123731.372500", "123731.832500", "123732.292500", "123732.752500", "123733.212500", "123733.672500", "123734.132500", "123734.592500", "123735.052500", "123735.512500", "123735.972500", "123736.432500", "123736.892500", "123737.352500", "123737.812500", "123738.272500", "123738.732500", "123739.192500", "123739.652500", "123740.112500", "123740.572500", "123741.032500", "123741.492500", "123741.952500", "123742.412500", "123742.872500", "123743.332500", "123743.792500", "123744.252500", "123744.712500", "123745.172500", "123745.632500", "123746.092500", "123746.552500", "123747.012500", "123747.472500", "123747.932500", "123748.392500", "123748.852500", "123749.312500", "123749.772500", "123750.232500", "123750.692500", "123751.152500", "123751.612500", "123752.072500", "123752.532500", "123752.992500", "123753.452500", "123753.912500", "123754.372500", "123754.832500", "123755.292500", "123755.752500", "123756.212500", "123756.672500", "123757.132500", "123757.592500", "123758.052500", "123758.512500", "123758.972500", "123759.432500", "123759.892500", "123800.352500", "123800.812500", "123801.272500", "123801.732500", "123802.192500", "123802.652500", "123803.112500", "123803.572500", "123804.032500", "123804.492500", "123804.952500", "123805.412500", "123805.872500", "123806.332500", "123806.792500", "123807.252500", "123807.712500", "123808.172500", "123808.632500", "123809.092500", "123809.552500", "123810.012500", "123810.472500", "123810.932500", "123811.392500", "123811.852500", "123812.312500", "123812.772500", "123813.232500", "123813.692500", "123814.152500", "123814.612500", "123815.072500", "123815.532500", "123815.992500", "123816.452500", "123816.912500", "123817.372500", "123817.832500", "123818.292500", "123818.752500", "123819.212500", "123819.672500", "123820.132500", "123820.592500", "123821.052500", "123821.512500", "123821.972500", "123822.432500", "123822.892500", "123823.352500", "123823.812500", "123824.272500", "123824.732500", "123825.192500", "123825.652500", "123826.112500", "123826.572500", "123827.032500", "123827.492500", "123827.952500", "123828.412500", "123828.872500", "123829.332500", "123829.792500", "123830.252500", "123830.712500", "123831.172500", "123831.632500", "123832.092500", "123832.552500", "123833.012500", "123833.472500", "123833.932500", "123834.392500", "123834.852500", "123835.312500", "123835.772500", "123836.232500", "123836.692500", "123837.152500", "123837.612500", "123838.072500", "123838.532500", "123838.992500", "123839.452500", "123839.912500", "123840.372500", "123840.832500", "123841.292500", "123841.752500", "123842.212500", "123842.672500", "123843.132500", "123843.592500", "123844.052500", "123844.512500", "123844.972500", "123845.432500", "123845.892500", "123846.352500", "123846.812500", "123847.272500", "123847.732500", "123848.192500", "123848.652500", "123849.112500", "123849.572500", "123850.032500", "123850.492500", "123850.952500", "123851.412500", "123851.872500", "123852.332500", "123852.792500", "123853.252500", "123853.712500", "123854.172500", "123854.632500", "123855.092500", "123855.552500", "123856.012500", "123856.472500", "123856.932500", "123857.392500", "123857.852500", "123858.312500", "123858.772500", "123859.232500", "123859.692500", "123900.152500", "123900.612500", "123901.072500", "123901.532500", "123901.992500", "123902.452500", "123902.912500", "123903.372500", "123903.832500", "123904.292500", "123904.752500", "123905.212500", "123905.672500", "123906.132500", "123906.592500", "123907.052500", "123907.512500", "123907.972500", "123908.432500", "123908.892500", "123909.352500", "123909.812500", "123910.272500", "123910.732500", "123911.192500", "123911.652500", "123912.112500", "123912.572500", "123913.032500", "123913.492500", "123913.952500", "123914.412500", "123914.872500", "123915.332500", "123915.792500", "123916.252500", "123916.712500", "123917.172500", "123917.632500", "123918.092500", "123918.552500", "123919.012500", "123919.472500", "123919.932500", "123920.392500", "123920.852500", "123921.312500", "123921.772500", "123922.232500", "123922.692500", "123923.152500", "123923.612500", "123924.072500", "123924.532500", "123924.992500", "123925.452500", "123925.912500", "123926.372500", "123926.832500", "123927.292500", "123927.752500", "123928.212500", "123928.672500", "123929.132500", "123929.592500", "123930.052500", "123930.512500", "123930.972500", "123931.432500", "123931.892500", "123932.352500", "123932.812500", "123933.272500", "123933.732500", "123934.192500", "123934.652500", "123935.112500", "123935.572500", "123936.032500", "123936.492500", "123936.952500", "123937.412500", "123937.872500", "123938.332500", "123938.792500", "123939.252500", "123939.712500", "123940.172500", "123940.632500", "123941.092500", "123941.552500", "123942.012500", "123942.472500", "123942.932500", "123943.392500", "123943.852500", "123944.312500", "123944.772500", "123945.232500", "123945.692500", "123946.152500", "123946.612500", "123947.072500", "123947.532500", "123947.992500", "123948.452500", "123948.912500", "123949.372500", "123949.832500", "123950.292500", "123950.752500", "123951.212500", "123951.672500", "123952.132500", "123952.592500", "123953.052500", "123953.512500", "123953.972500", "123954.432500", "123954.892500", "123955.352500", "123955.812500", "123956.272500", "123956.732500", "123957.192500", "123957.652500", "123958.112500", "123958.572500", "123959.032500", "123959.492500", "123959.952500", "124000.412500", "124000.872500", "124001.332500", "124001.792500", "124002.252500", "124002.712500", "124003.172500", "124003.632500", "124004.092500", "124004.552500", "124005.012500", "124005.472500", "124005.932500", "124006.392500", "124006.852500", "124007.312500", "124007.772500", "124008.232500", "124008.692500", "124009.152500", "124009.612500", "124010.072500", "124010.532500", "124010.992500", "124011.452500", "124011.912500", "124012.372500", "124012.832500", "124013.292500", "124013.752500", "124014.212500", "124014.672500", "124015.132500", "124015.592500", "124016.052500", "124016.512500", "124016.972500", "124017.432500", "124017.892500", "124018.352500", "124018.812500", "124019.272500", "124019.732500", "124020.192500", "124020.652500", "124021.112500", "124021.572500", "124022.032500", "124022.492500", "124022.952500", "124023.412500", "124023.872500", "124024.332500", "124024.792500", "124025.252500", "124025.712500", "124026.172500", "124026.632500", "124027.092500", "124027.552500", "124028.012500", "124028.472500", "124028.932500", "124029.392500", "124029.852500", "124030.312500", "124030.772500", "124031.232500", "124031.692500", "124032.152500", "124032.612500", "124033.072500", "124033.532500", "124033.992500", "124034.452500", "124034.912500", "124035.372500", "124035.832500", "124036.292500", "124036.752500", "124037.212500", "124037.672500", "124038.132500", "124038.592500", "124039.052500", "124039.512500", "124039.972500", "124040.432500", "124040.892500", "124041.352500", "124041.812500", "124042.272500", "124042.732500", "124043.192500", "124043.652500", "124044.112500", "124044.572500", "124045.032500", "124045.492500", "124045.952500", "124046.412500", "124046.872500", "124047.332500", "124047.792500", "124048.252500", "124048.712500", "124049.172500", "124049.632500", "124050.092500", "124050.552500", "124051.012500", "124051.472500", "124051.932500", "124052.392500", "124052.852500", "124053.312500", "124053.772500", "124054.232500", "124054.692500", "124055.152500", "124055.612500", "124056.072500", "124056.532500", "124056.992500", "124057.452500", "124057.912500", "124058.372500", "124058.832500", "124059.292500", "124059.752500", "124100.212500", "124100.672500", "124101.132500", "124101.592500", "124102.052500", "124102.512500", "124102.972500", "124103.432500", "124103.892500", "124104.352500", "124104.812500", "124105.272500", "124105.732500", "124106.192500", "124106.652500", "124107.112500", "124107.572500", "124108.032500", "124108.492500", "124108.952500", "124109.412500", "124109.872500", "124110.332500", "124110.792500", "124111.252500", "124111.712500", "124112.172500", "124112.632500", "124113.092500", "124113.552500", "124114.012500", "124114.472500", "124114.932500", "124115.392500", "124115.852500", "124116.312500", "124116.772500", "124117.232500", "124117.692500", "124118.152500", "124118.612500", "124119.072500", "124119.532500", "124119.992500", "124120.452500", "124120.912500", "124121.372500", "124121.832500", "124122.292500", "124122.752500", "124123.212500", "124123.672500", "124124.132500", "124124.592500", "124125.052500", "124125.512500", "124125.972500", "124126.432500", "124126.892500", "124127.352500", "124127.812500", "124128.272500", "124128.732500", "124129.192500", "124129.652500", "124130.112500", "124130.572500", "124131.032500", "124131.492500", "124131.952500", "124132.412500", "124132.872500", "124133.332500", "124133.792500", "124134.252500", "124134.712500", "124135.172500", "124135.632500", "124136.092500", "124136.552500", "124137.012500", "124137.472500", "124137.932500", "124138.392500", "124138.852500", "124139.312500", "124139.772500", "124140.232500", "124140.692500", "124141.152500", "124141.612500", "124142.072500", "124142.532500", "124142.992500", "124143.452500", "124143.912500", "124144.372500", "124144.832500", "124145.292500", "124145.752500", "124146.212500", "124146.672500", "124147.132500", "124147.592500", "124148.052500", "124148.512500", "124148.972500", "124149.432500", "124149.892500", "124150.352500", "124150.812500", "124151.272500", "124151.732500", "124152.192500", "124152.652500"],
