{
  "AcquisitionMatrixPE": 82,
  "AcquisitionNumber": 1,
  "AcquisitionTime": "12:50:52.082500",
  "BandwidthPerPixelPhaseEncode": 24.888,
  "BaseResolution": 82,
  "BodyPartExamined": "BRAIN",
  "ConsistencyInfo": "N4_VE11E_LATEST_20181129",
  "ConversionSoftware": "dcm2niix",
  "ConversionSoftwareVersion": "v1.0.20201102",
  "DerivedVendorReportedEchoSpacing": 0.00049,
  "DeviceSerialNumber": "66112",
  "DwellTime": 2e-06,
  "EchoTime": 0.0272,
  "EchoTrainLength": 82,
  "EffectiveEchoSpacing": 0.00049,
  "FlipAngle": 44,
  "ImageComments": "Unaliased MB8/PE3",
  "ImageOrientationPatientDICOM": [0.998648, 0.0240638, -0.0460869, -0.0256272, 0.999105, -0.0336389],
  "ImageType": [
    "ORIGINAL",
    "PRIMARY",
    "M",
    "MB",
    "ND",
    "NORM",
    "MOSAIC"
],
  "ImagingFrequency": 123.252,
  "InPlanePhaseEncodingDirectionDICOM": "COL",
  "InstitutionAddress": "Maynard 3,Hanover,NH,US,03755",
  "InstitutionName": "Dartmouth College - PBS",
  "InstitutionalDepartmentName": "Department",
  "MRAcquisitionType": "2D",
  "MagneticFieldStrength": 3,
  "Manufacturer": "Siemens",
  "ManufacturersModelName": "Prisma",
  "Modality": "MR",
  "MultibandAccelerationFactor": 8,
  "PartialFourier": 1,
  "PatientPosition": "HFS",
  "PercentPhaseFOV": 100,
  "PercentSampling": 100,
  "PhaseEncodingDirection": "j-",
  "PhaseEncodingSteps": 82,
  "PhaseResolution": 1,
  "PixelBandwidth": 3050,
  "ProcedureStepDescription": "Wager_Wager^1076_spacetop",
  "ProtocolName": "func_run-03_task-social_acq-ap-mb8",
  "PulseSequenceDetails": "%CustomerSeq%\\cmrr_mbep2d_bold",
  "ReceiveCoilActiveElements": "HEA;HEP",
  "ReceiveCoilName": "Head_32",
  "ReconMatrixPE": 82,
  "RepetitionTime": 0.46,
  "SAR": 0.100318,
  "ScanOptions": "FS",
  "ScanningSequence": "EP",
  "SequenceName": "epfid2d1_82",
  "SequenceVariant": "SK\\SS",
  "SeriesDescription": "func_run-03_task-social_acq-ap-mb8",
  "SeriesNumber": 16,
  "ShimSetting": [4131, -7705, -7276, 540, -48, -1, -12, 120],
  "SliceThickness": 2.7,
  "SliceTiming": [0, 0.2525, 0.0625, 0.315, 0.125, 0.3775, 0.19, 0, 0.2525, 0.0625, 0.315, 0.125, 0.3775, 0.19, 0, 0.2525, 0.0625, 0.315, 0.125, 0.3775, 0.19, 0, 0.2525, 0.0625, 0.315, 0.125, 0.3775, 0.19, 0, 0.2525, 0.0625, 0.315, 0.125, 0.3775, 0.19, 0, 0.2525, 0.0625, 0.315, 0.125, 0.3775, 0.19, 0, 0.2525, 0.0625, 0.315, 0.125, 0.3775, 0.19, 0, 0.2525, 0.0625, 0.315, 0.125, 0.3775, 0.19],
  "SoftwareVersions": "syngo MR E11",
  "SpacingBetweenSlices": 2.7,
  "StationName": "AWP66112",
  "TaskName": "social",
  "TotalReadoutTime": 0.03969,
  "TxRefAmp": 250.749,
  "WipMemBlock": "18208310-0a96-46ce-a01f-3c752c746d7a||Sequence: R016 ve11e/master r/434b28f1; Aug  7 2019 18:53:46 by eja",
  "dcmmeta_affine": [
    [-2.6792984008789062, -0.06875593960285187, -0.1221376433968544, 118.08679962158203],
    [-0.06456132978200912, 2.6805267333984375, -0.0938912108540535, -85.03668212890625],
    [-0.12364771217107773, 0.09025081992149353, 2.695601224899292, -82.84330749511719],
    [0.0, 0.0, 0.0, 1.0]
],
  "dcmmeta_reorient_transform": [
    [0.0, -1.0, 0.0, 81.0],
    [1.0, 0.0, 0.0, 0.0],
    [0.0, 0.0, 1.0, 0.0],
    [0.0, 0.0, 0.0, 1.0]
],
  "dcmmeta_shape": [82, 82, 56, 872],
  "dcmmeta_slice_dim": 2,
  "dcmmeta_version": 0.6,
  "global": {
    "const": {
      "AccessionNumber": "A003950",
      "AcquisitionMatrix": [82, 0, 0, 82],
      "AngioFlag": "N",
      "BitsAllocated": 16,
      "BitsStored": 16,
      "BodyPartExamined": "BRAIN",
      "Columns": 656,
      "EchoNumbers": 1,
      "EchoTime": 27.2,
      "EchoTrainLength": 82,
      "FlipAngle": 44.0,
      "HighBit": 15,
      "ImageOrientationPatient": [0.99864755307057, 0.02406376658261, -0.046086873229, -0.0256272130276, 0.99910543365719, -0.0336389415575],
      "ImagePositionPatient": [-861.74324785004, -919.92629598913, -14.144114872304],
      "ImageType": [
        "ORIGINAL",
        "PRIMARY",
        "M",
        "MB",
        "ND",
        "NORM",
        "MOSAIC"
],
      "ImagedNucleus": "1H",
      "ImagingFrequency": 123.252208,
      "InPlanePhaseEncodingDirection": "COL",
      "MRAcquisitionType": "2D",
      "MagneticFieldStrength": 3.0,
      "Manufacturer": "SIEMENS",
      "ManufacturerModelName": "Prisma",
      "Modality": "MR",
      "NumberOfAverages": 1.0,
      "NumberOfPhaseEncodingSteps": 82,
      "PercentPhaseFieldOfView": 100.0,
      "PercentSampling": 100.0,
      "PerformedProcedureStepStartTime": "114904.483000",
      "PhotometricInterpretation": "MONOCHROME2",
      "PixelBandwidth": 3050.0,
      "PixelRepresentation": 0,
      "PixelSpacing": [2.6829268932343, 2.6829268932343],
      "ProtocolName": "func_run-03_task-social_acq-ap-mb8",
      "RepetitionTime": 460.0,
      "Rows": 656,
      "SAR": 0.10031751730697,
      "SamplesPerPixel": 1,
      "ScanOptions": "FS",
      "ScanningSequence": "EP",
      "SequenceName": "epfid2d1_82",
      "SequenceVariant": [
        "SK",
        "SS"
],
      "SeriesDescription": "func_run-03_task-social_acq-ap-mb8",
      "SeriesNumber": 16,
      "SeriesTime": "125118.533000",
      "SliceLocation": -85.093032712212,
      "SliceThickness": 2.7000000476837,
      "SmallestImagePixelValue": 0,
      "SoftwareVersions": "syngo MR E11",
      "SpacingBetweenSlices": 2.6999999215862,
      "SpecificCharacterSet": "ISO_IR 100",
      "StudyID": "5",
      "StudyTime": "114904.432000",
      "TransmitCoilName": "Body",
      "VariableFlipAngleFlag": "N",
      "WindowCenterWidthExplanation": "Algo1"
    },
    "slices": {}
  },
  "time": {
    "samples": {
      "AcquisitionNumber": [1, 2, 3, 4, 5, 6, 7, 8, 9, 10, 11, 12, 13, 14, 15, 16, 17, 18, 19, 20, 21, 22, 23, 24, 25, 26, 27, 28, 29, 30, 31, 32, 33, 34, 35, 36, 37, 38, 39, 40, 41, 42, 43, 44, 45, 46, 47, 48, 49, 50, 51, 52, 53, 54, 55, 56, 57, 58, 59, 60, 61, 62, 63, 64, 65, 66, 67, 68, 69, 70, 71, 72, 73, 74, 75, 76, 77, 78, 79, 80, 81, 82, 83, 84, 85, 86, 87, 88, 89, 90, 91, 92, 93, 94, 95, 96, 97, 98, 99, 100, 101, 102, 103, 104, 105, 106, 107, 108, 109, 110, 111, 112, 113, 114, 115, 116, 117, 118, 119, 120, 121, 122, 123, 124, 125, 126, 127, 128, 129, 130, 131, 132, 133, 134, 135, 136, 137, 138, 139, 140, 141, 142, 143, 144, 145, 146, 147, 148, 149, 150, 151, 152, 153, 154, 155, 156, 157, 158, 159, 160, 161, 162, 163, 164, 165, 166, 167, 168, 169, 170, 171, 172, 173, 174, 175, 176, 177, 178, 179, 180, 181, 182, 183, 184, 185, 186, 187, 188, 189, 190, 191, 192, 193, 194, 195, 196, 197, 198, 199, 200, 201, 202, 203, 204, 205, 206, 207, 208, 209, 210, 211, 212, 213, 214, 215, 216, 217, 218, 219, 220, 221, 222, 223, 224, 225, 226, 227, 228, 229, 230, 231, 232, 233, 234, 235, 236, 237, 238, 239, 240, 241, 242, 243, 244, 245, 246, 247, 248, 249, 250, 251, 252, 253, 254, 255, 256, 257, 258, 259, 260, 261, 262, 263, 264, 265, 266, 267, 268, 269, 270, 271, 272, 273, 274, 275, 276, 277, 278, 279, 280, 281, 282, 283, 284, 285, 286, 287, 288, 289, 290, 291, 292, 293, 294, 295, 296, 297, 298, 299, 300, 301, 302, 303, 304, 305, 306, 307, 308, 309, 310, 311, 312, 313, 314, 315, 316, 317, 318, 319, 320, 321, 322, 323, 324, 325, 326, 327, 328, 329, 330, 331, 332, 333, 334, 335, 336, 337, 338, 339, 340, 341, 342, 343, 344, 345, 346, 347, 348, 349, 350, 351, 352, 353, 354, 355, 356, 357, 358, 359, 360, 361, 362, 363, 364, 365, 366, 367, 368, 369, 370, 371, 372, 373, 374, 375, 376, 377, 378, 379, 380, 381, 382, 383, 384, 385, 386, 387, 388, 389, 390, 391, 392, 393, 394, 395, 396, 397, 398, 399, 400, 401, 402, 403, 404, 405, 406, 407, 408, 409, 410, 411, 412, 413, 414, 415, 416, 417, 418, 419, 420, 421, 422, 423, 424, 425, 426, 427, 428, 429, 430, 431, 432, 433, 434, 435, 436, 437, 438, 439, 440, 441, 442, 443, 444, 445, 446, 447, 448, 449, 450, 451, 452, 453, 454, 455, 456, 457, 458, 459, 460, 461, 462, 463, 464, 465, 466, 467, 468, 469, 470, 471, 472, 473, 474, 475, 476, 477, 478, 479, 480, 481, 482, 483, 484, 485, 486, 487, 488, 489, 490, 491, 492, 493, 494, 495, 496, 497, 498, 499, 500, 501, 502, 503, 504, 505, 506, 507, 508, 509, 510, 511, 512, 513, 514, 515, 516, 517, 518, 519, 520, 521, 522, 523, 524, 525, 526, 527, 528, 529, 530, 531, 532, 533, 534, 535, 536, 537, 538, 539, 540, 541, 542, 543, 544, 545, 546, 547, 548, 549, 550, 551, 552, 553, 554, 555, 556, 557, 558, 559, 560, 561, 562, 563, 564, 565, 566, 567, 568, 569, 570, 571, 572, 573, 574, 575, 576, 577, 578, 579, 580, 581, 582, 583, 584, 585, 586, 587, 588, 589, 590, 591, 592, 593, 594, 595, 596, 597, 598, 599, 600, 601, 602, 603, 604, 605, 606, 607, 608, 609, 610, 611, 612, 613, 614, 615, 616, 617, 618, 619, 620, 621, 622, 623, 624, 625, 626, 627, 628, 629, 630, 631, 632, 633, 634, 635, 636, 637, 638, 639, 640, 641, 642, 643, 644, 645, 646, 647, 648, 649, 650, 651, 652, 653, 654, 655, 656, 657, 658, 659, 660, 661, 662, 663, 664, 665, 666, 667, 668, 669, 670, 671, 672, 673, 674, 675, 676, 677, 678, 679, 680, 681, 682, 683, 684, 685, 686, 687, 688, 689, 690, 691, 692, 693, 694, 695, 696, 697, 698, 699, 700, 701, 702, 703, 704, 705, 706, 707, 708, 709, 710, 711, 712, 713, 714, 715, 716, 717, 718, 719, 720, 721, 722, 723, 724, 725, 726, 727, 728, 729, 730, 731, 732, 733, 734, 735, 736, 737, 738, 739, 740, 741, 742, 743, 744, 745, 746, 747, 748, 749, 750, 751, 752, 753, 754, 755, 756, 757, 758, 759, 760, 761, 762, 763, 764, 765, 766, 767, 768, 769, 770, 771, 772, 773, 774, 775, 776, 777, 778, 779, 780, 781, 782, 783, 784, 785, 786, 787, 788, 789, 790, 791, 792, 793, 794, 795, 796, 797, 798, 799, 800, 801, 802, 803, 804, 805, 806, 807, 808, 809, 810, 811, 812, 813, 814, 815, 816, 817, 818, 819, 820, 821, 822, 823, 824, 825, 826, 827, 828, 829, 830, 831, 832, 833, 834, 835, 836, 837, 838, 839, 840, 841, 842, 843, 844, 845, 846, 847, 848, 849, 850, 851, 852, 853, 854, 855, 856, 857, 858, 859, 860, 861, 862, 863, 864, 865, 866, 867, 868, 869, 870, 871, 872],
      "AcquisitionTime": ["125052.082500", "125052.542500", "125053.002500", "125053.462500", "125053.922500", "125054.382500", "125054.842500", "125055.302500", "125055.762500", "125056.222500", "125056.682500", "125057.142500", "125057.602500", "125058.062500", "125058.522500", "125058.982500", "125059.442500", "125059.902500", "125100.362500", "125100.822500", "125101.282500", "125101.742500", "125102.202500", "125102.662500", "125103.122500", "125103.582500", "125104.042500", "125104.502500", "125104.962500", "125105.422500", "125105.882500", "125106.342500", "125106.802500", "125107.262500", "125107.722500", "125108.182500", "125108.642500", "125109.102500", "125109.562500", "125110.022500", "125110.482500", "125110.942500", "125111.402500", "125111.862500", "125112.322500", "125112.782500", "125113.242500", "125113.702500", "125114.162500", "125114.622500", "125115.082500", "125115.542500", "125116.002500", "125116.462500", "125116.922500", "125117.382500", "125117.842500", "125118.302500", "125118.762500", "125119.222500", "125119.682500", "125120.142500", "125120.602500", "125121.062500", "125121.522500", "125121.982500", "125122.442500", "125122.902500", "125123.362500", "125123.822500", "125124.282500", "125124.742500", "125125.202500", "125125.662500", "125126.122500", "125126.582500", "125127.042500", "125127.502500", "125127.962500", "125128.422500", "125128.882500", "125129.342500", "125129.802500", "125130.262500", "125130.722500", "125131.182500", "125131.642500", "125132.102500", "125132.562500", "125133.022500", "125133.482500", "125133.942500", "125134.402500", "125134.862500", "125135.322500", "125135.782500", "125136.242500", "125136.702500", "125137.162500", "125137.622500", "125138.082500", "125138.542500", "125139.002500", "125139.462500", "125139.922500", "125140.382500", "125140.842500", "125141.302500", "125141.762500", "125142.222500", "125142.682500", "125143.142500", "125143.602500", "125144.062500", "125144.522500", "125144.982500", "125145.442500", "125145.902500", "125146.362500", "125146.822500", "125147.282500", "125147.742500", "125148.202500", "125148.662500", "125149.122500", "125149.582500", "125150.042500", "125150.502500", "125150.962500", "125151.422500", "125151.882500", "125152.342500", "125152.802500", "125153.262500", "125153.722500", "125154.182500", "125154.642500", "125155.102500", "125155.562500", "125156.022500", "125156.482500", "125156.942500", "125157.402500", "125157.862500", "125158.322500", "125158.782500", "125159.242500", "125159.702500", "125200.162500", "125200.622500", "125201.082500", "125201.542500", "125202.002500", "125202.462500", "125202.922500", "125203.382500", "125203.842500", "125204.302500", "125204.762500", "125205.222500", "125205.682500", "125206.142500", "125206.602500", "125207.062500", "125207.522500", "125207.982500", "125208.442500", "125208.902500", "125209.362500", "125209.822500", "125210.282500", "125210.742500", "125211.202500", "125211.662500", "125212.122500", "125212.582500", "125213.042500", "125213.502500", "125213.962500", "125214.422500", "125214.882500", "125215.342500", "125215.802500", "125216.262500", "125216.722500", "125217.182500", "125217.642500", "125218.102500", "125218.562500", "125219.022500", "125219.482500", "125219.942500", "125220.402500", "125220.862500", "125221.322500", "125221.782500", "125222.242500", "125222.702500", "125223.162500", "125223.622500", "125224.082500", "125224.542500", "125225.002500", "125225.462500", "125225.922500", "125226.382500", "125226.842500", "125227.302500", "125227.762500", "125228.222500", "125228.682500", "125229.142500", "125229.602500", "125230.062500", "125230.522500", "125230.982500", "125231.442500", "125231.902500", "125232.362500", "125232.822500", "125233.282500", "125233.742500", "125234.202500", "125234.662500", "125235.122500", "125235.582500", "125236.042500", "125236.502500", "125236.962500", "125237.422500", "125237.882500", "125238.342500", "125238.802500", "125239.262500", "125239.722500", "125240.182500", "125240.642500", "125241.102500", "125241.562500", "125242.022500", "125242.482500", "125242.942500", "125243.402500", "125243.862500", "125244.322500", "125244.782500", "125245.242500", "125245.702500", "125246.162500", "125246.622500", "125247.082500", "125247.542500", "125248.002500", "125248.462500", "125248.922500", "125249.382500", "125249.842500", "125250.302500", "125250.762500", "125251.222500", "125251.682500", "125252.142500", "125252.602500", "125253.062500", "125253.522500", "125253.982500", "125254.442500", "125254.902500", "125255.362500", "125255.822500", "125256.282500", "125256.742500", "125257.202500", "125257.662500", "125258.122500", "125258.582500", "125259.042500", "125259.502500", "125259.962500", "125300.422500", "125300.882500", "125301.342500", "125301.802500", "125302.262500", "125302.722500", "125303.182500", "125303.642500", "125304.102500", "125304.562500", "125305.022500", "125305.482500", "125305.942500", "125306.402500", "125306.862500", "125307.322500", "125307.782500", "125308.242500", "125308.702500", "125309.162500", "125309.622500", "125310.082500", "125310.542500", "125311.002500", "125311.462500", "125311.922500", "125312.382500", "125312.842500", "125313.302500", "125313.762500", "125314.222500", "125314.682500", "125315.142500", "125315.602500", "125316.062500", "125316.522500", "125316.982500", "125317.442500", "125317.902500", "125318.362500", "125318.822500", "125319.282500", "125319.742500", "125320.202500", "125320.662500", "125321.122500", "125321.582500", "125322.042500", "125322.502500", "125322.962500", "125323.422500", "125323.882500", "125324.342500", "125324.802500", "125325.262500", "125325.722500", "125326.182500", "125326.642500", "125327.102500", "125327.562500", "125328.022500", "125328.482500", "125328.942500", "125329.402500", "125329.862500", "125330.322500", "125330.782500", "125331.242500", "125331.702500", "125332.162500", "125332.622500", "125333.082500", "125333.542500", "125334.002500", "125334.462500", "125334.922500", "125335.382500", "125335.842500", "125336.302500", "125336.762500", "125337.222500", "125337.682500", "125338.142500", "125338.602500", "125339.062500", "125339.522500", "125339.982500", "125340.442500", "125340.902500", "125341.362500", "125341.822500", "125342.282500", "125342.742500", "125343.202500", "125343.662500", "125344.122500", "125344.582500", "125345.042500", "125345.502500", "125345.962500", "125346.422500", "125346.882500", "125347.342500", "125347.802500", "125348.262500", "125348.722500", "125349.182500", "125349.642500", "125350.102500", "125350.562500", "125351.022500", "125351.482500", "125351.942500", "125352.402500", "125352.862500", "125353.322500", "125353.782500", "125354.242500", "125354.702500", "125355.162500", "125355.622500", "125356.082500", "125356.542500", "125357.002500", "125357.462500", "125357.922500", "125358.382500", "125358.842500", "125359.302500", "125359.762500", "125400.222500", "125400.682500", "125401.142500", "125401.602500", "125402.062500", "125402.522500", "125402.982500", "125403.442500", "125403.902500", "125404.362500", "125404.822500", "125405.282500", "125405.742500", "125406.202500", "125406.662500", "125407.122500", "125407.582500", "125408.042500", "125408.502500", "125408.962500", "125409.422500", "125409.882500", "125410.342500", "125410.802500", "125411.262500", "125411.722500", "125412.182500", "125412.642500", "125413.102500", "125413.562500", "125414.022500", "125414.482500", "125414.942500", "125415.402500", "125415.862500", "125416.322500", "125416.782500", "125417.242500", "125417.702500", "125418.162500", "125418.622500", "125419.082500", "125419.542500", "125420.002500", "125420.462500", "125420.922500", "125421.382500", "125421.842500", "125422.302500", "125422.762500", "125423.222500", "125423.682500", "125424.142500", "125424.602500", "125425.062500", "125425.522500", "125425.982500", "125426.442500", "125426.902500", "125427.362500", "125427.822500", "125428.282500", "125428.742500", "125429.202500", "125429.662500", "125430.122500", "125430.582500", "125431.042500", "125431.502500", "125431.962500", "125432.422500", "125432.882500", "125433.342500", "125433.802500", "125434.262500", "125434.722500", "125435.182500", "125435.642500", "125436.102500", "125436.562500", "125437.022500", "125437.482500", "125437.942500", "125438.402500", "125438.862500", "125439.322500", "125439.782500", "125440.242500", "125440.702500", "125441.162500", "125441.622500", "125442.082500", "125442.542500", "125443.002500", "125443.462500", "125443.922500", "125444.382500", "125444.842500", "125445.302500", "125445.762500", "125446.222500", "125446.682500", "125447.142500", "125447.602500", "125448.062500", "125448.522500", "125448.982500", "125449.442500", "125449.902500", "125450.362500", "125450.822500", "125451.282500", "125451.742500", "125452.202500", "125452.662500", "125453.122500", "125453.582500", "125454.042500", "125454.502500", "125454.962500", "125455.422500", "125455.882500", "125456.342500", "125456.802500", "125457.262500", "125457.722500", "125458.182500", "125458.642500", "125459.102500", "125459.562500", "125500.022500", "125500.482500", "125500.942500", "125501.402500", "125501.862500", "125502.322500", "125502.782500", "125503.242500", "125503.702500", "125504.162500", "125504.622500", "125505.082500", "125505.542500", "125506.002500", "125506.462500", "125506.922500", "125507.382500", "125507.842500", "125508.302500", "125508.762500", "125509.222500", "125509.682500", "125510.142500", "125510.602500", "125511.062500", "125511.522500", "125511.982500", "125512.442500", "125512.902500", "125513.362500", "125513.822500", "125514.282500", "125514.742500", "125515.202500", "125515.662500", "125516.122500", "125516.582500", "125517.042500", "125517.502500", "125517.962500", "125518.422500", "125518.882500", "125519.342500", "125519.802500", "125520.262500", "125520.722500", "125521.182500", "125521.642500", "125522.102500", "125522.562500", "125523.022500", "125523.482500", "125523.942500", "125524.402500", "125524.862500", "125525.322500", "125525.782500", "125526.242500", "125526.702500", "125527.162500", "125527.622500", "125528.082500", "125528.542500", "125529.002500", "125529.462500", "125529.922500", "125530.382500", "125530.842500", "125531.302500", "125531.762500", "125532.222500", "125532.682500", "125533.142500", "125533.602500", "125534.062500", "125534.522500", "125534.982500", "125535.442500", "125535.902500", "125536.362500", "125536.822500", "125537.282500", "125537.742500", "125538.202500", "125538.662500", "125539.122500", "125539.582500", "125540.042500", "125540.502500", "125540.962500", "125541.422500", "125541.882500", "125542.342500", "125542.802500", "125543.262500", "125543.722500", "125544.182500", "125544.642500", "125545.102500", "125545.562500", "125546.022500", "125546.482500", "125546.942500", "125547.402500", "125547.862500", "125548.322500", "125548.782500", "125549.242500", "125549.702500", "125550.162500", "125550.622500", "125551.082500", "125551.542500", "125552.002500", "125552.462500", "125552.922500", "125553.382500", "125553.842500", "125554.302500", "125554.762500", "125555.222500", "125555.682500", "125556.142500", "125556.602500", "125557.062500", "125557.522500", "125557.982500", "125558.442500", "125558.902500", "125559.362500", "125559.822500", "125600.282500", "125600.742500", "125601.202500", "125601.662500", "125602.122500", "125602.582500", "125603.042500", "125603.502500", "125603.962500", "125604.422500", "125604.882500", "125605.342500", "125605.802500", "125606.262500", "125606.722500", "125607.182500", "125607.642500", "125608.102500", "125608.562500", "125609.022500", "125609.482500", "125609.942500", "125610.402500", "125610.862500", "125611.322500", "125611.782500", "125612.242500", "125612.702500", "125613.162500", "125613.622500", "125614.082500", "125614.542500", "125615.002500", "125615.462500", "125615.922500", "125616.382500", "125616.842500", "125617.302500", "125617.762500", "125618.222500", "125618.682500", "125619.142500", "125619.602500", "125620.062500", "125620.522500", "125620.982500", "125621.442500", "125621.902500", "125622.362500", "125622.822500", "125623.282500", "125623.742500", "125624.202500", "125624.662500", "125625.122500", "125625.582500", "125626.042500", "125626.502500", "125626.962500", "125627.422500", "125627.882500", "125628.342500", "125628.802500", "125629.262500", "125629.722500", "125630.182500", "125630.642500", "125631.102500", "125631.562500", "125632.022500", "125632.482500", "125632.942500", "125633.402500", "125633.862500", "125634.322500", "125634.782500", "125635.242500", "125635.702500", "125636.162500", "125636.622500", "125637.082500", "125637.542500", "125638.002500", "125638.462500", "125638.922500", "125639.382500", "125639.842500", "125640.302500", "125640.762500", "125641.222500", "125641.682500", "125642.142500", "125642.602500", "125643.062500", "125643.522500", "125643.982500", "125644.442500", "125644.902500", "125645.362500", "125645.822500", "125646.282500", "125646.742500", "125647.202500", "125647.662500", "125648.122500", "125648.582500", "125649.042500", "125649.502500", "125649.962500", "125650.422500", "125650.882500", "125651.342500", "125651.802500", "125652.262500", "125652.722500", "125653.182500", "125653.642500", "125654.102500", "125654.562500", "125655.022500", "125655.482500", "125655.942500", "125656.402500", "125656.862500", "125657.322500", "125657.782500", "125658.242500", "125658.702500", "125659.162500", "125659.622500", "125700.082500", "125700.542500", "125701.002500", "125701.462500", "125701.922500", "125702.382500", "125702.842500", "125703.302500", "125703.762500", "125704.222500", "125704.682500", "125705.142500", "125705.602500", "125706.062500", "125706.522500", "125706.982500", "125707.442500", "125707.902500", "125708.362500", "125708.822500", "125709.282500", "125709.742500", "125710.202500", "125710.662500", "125711.122500", "125711.582500", "125712.042500", "125712.502500", "125712.962500", "125713.422500", "125713.882500", "125714.342500", "125714.802500", "125715.262500", "125715.722500", "125716.182500", "125716.642500", "125717.102500", "125717.562500", "125718.022500", "125718.482500", "125718.942500", "125719.402500", "125719.862500", "125720.322500", "125720.782500", "125721.242500", "125721.702500", "125722.162500", "125722.622500", "125723.082500", "125723.542500", "125724.002500", "125724.462500", "125724.922500", "125725.382500", "125725.842500", "125726.302500", "125726.762500", "125727.222500", "125727.682500", "125728.142500", "125728.602500", "125729.062500", "125729.522500", "125729.982500", "125730.442500", "125730.902500", "125731.362500", "125731.822500", "125732.282500", "125732.742500"],
