{
  "AcquisitionMatrixPE": 82,
  "AcquisitionNumber": 1,
  "AcquisitionTime": "13:06:23.265000",
  "BandwidthPerPixelPhaseEncode": 24.888,
  "BaseResolution": 82,
  "BodyPartExamined": "BRAIN",
  "ConsistencyInfo": "N4_VE11C_LATEST_20160120",
  "ConversionSoftware": "dcm2niix",
  "ConversionSoftwareVersion": "v1.0.20201102",
  "DerivedVendorReportedEchoSpacing": 0.00049,
  "DeviceSerialNumber": "66112",
  "DwellTime": 2e-06,
  "EchoTime": 0.0272,
  "EchoTrainLength": 82,
  "EffectiveEchoSpacing": 0.00049,
  "FlipAngle": 44,
  "ImageComments": "Unaliased MB8/PE3",
  "ImageOrientationPatientDICOM": [0.999975, 0.00641651, 0.00289499, -0.005934, 0.989606, -0.143681],
  "ImageType": [
    "ORIGINAL",
    "PRIMARY",
    "M",
    "MB",
    "ND",
    "NORM",
    "MOSAIC"
],
  "ImagingFrequency": 123.252,
  "InPlanePhaseEncodingDirectionDICOM": "COL",
  "InstitutionAddress": "Maynard 3,Hanover,NH,US,03755",
  "InstitutionName": "Dartmouth College - PBS",
  "InstitutionalDepartmentName": "Department",
  "MRAcquisitionType": "2D",
  "MagneticFieldStrength": 3,
  "Manufacturer": "Siemens",
  "ManufacturersModelName": "Prisma",
  "Modality": "MR",
  "MultibandAccelerationFactor": 8,
  "PartialFourier": 1,
  "PatientPosition": "HFS",
  "PercentPhaseFOV": 100,
  "PercentSampling": 100,
  "PhaseEncodingDirection": "j-",
  "PhaseEncodingSteps": 82,
  "PhaseResolution": 1,
  "PixelBandwidth": 3050,
  "ProcedureStepDescription": "Wager_Wager^1076_spacetop",
  "ProtocolName": "func_run-04_task-social_acq-ap-mb8",
  "PulseSequenceDetails": "%CustomerSeq%\\cmrr_mbep2d_bold",
  "ReceiveCoilActiveElements": "HEA;HEP",
  "ReceiveCoilName": "Head_32",
  "ReconMatrixPE": 82,
  "RepetitionTime": 0.46,
  "SAR": 0.086623,
  "ScanOptions": "FS",
  "ScanningSequence": "EP",
  "SequenceName": "epfid2d1_82",
  "SequenceVariant": "SK\\SS",
  "SeriesDescription": "func_run-04_task-social_acq-ap-mb8",
  "SeriesNumber": 18,
  "ShimSetting": [4160, -7726, -7303, 652, -44, -159, 61, 73],
  "SliceThickness": 2.7,
  "SliceTiming": [0, 0.25, 0.0625, 0.3125, 0.125, 0.375, 0.1875, 0, 0.25, 0.0625, 0.3125, 0.125, 0.375, 0.1875, 0, 0.25, 0.0625, 0.3125, 0.125, 0.375, 0.1875, 0, 0.25, 0.0625, 0.3125, 0.125, 0.375, 0.1875, 0, 0.25, 0.0625, 0.3125, 0.125, 0.375, 0.1875, 0, 0.25, 0.0625, 0.3125, 0.125, 0.375, 0.1875, 0, 0.25, 0.0625, 0.3125, 0.125, 0.375, 0.1875, 0, 0.25, 0.0625, 0.3125, 0.125, 0.375, 0.1875],
  "SoftwareVersions": "syngo MR E11",
  "SpacingBetweenSlices": 2.7,
  "StationName": "AWP66112",
  "TaskName": "social",
  "TotalReadoutTime": 0.03969,
  "TxRefAmp": 237.673,
  "WipMemBlock": "ef31bd65-ecc8-442c-beec-f3c890cc4467||Sequence: R016 ve11c/master r/e634e98; Dec 19 2017 11:00:25 by eja",
  "dcmmeta_affine": [
    [-2.6828603744506836, -0.015920499339699745, 0.010224448516964912, 115.39981079101562],
    [-0.01721501350402832, 2.655040979385376, -0.3878839612007141, -75.88947296142578],
    [0.007767046336084604, 0.3854868710041046, 2.67197322845459, -74.99668884277344],
    [0.0, 0.0, 0.0, 1.0]
],
  "dcmmeta_reorient_transform": [
    [0.0, -1.0, 0.0, 81.0],
    [1.0, 0.0, 0.0, 0.0],
    [0.0, 0.0, 1.0, 0.0],
    [0.0, 0.0, 0.0, 1.0]
],
  "dcmmeta_shape": [82, 82, 56, 872],
  "dcmmeta_slice_dim": 2,
  "dcmmeta_version": 0.6,
  "global": {
    "const": {
      "AccessionNumber": "A003465",
      "AcquisitionMatrix": [82, 0, 0, 82],
      "AngioFlag": "N",
      "BitsAllocated": 16,
      "BitsStored": 16,
      "BodyPartExamined": "BRAIN",
      "Columns": 656,
      "EchoNumbers": 1,
      "EchoTime": 27.2,
      "EchoTrainLength": 82,
      "FlipAngle": 44.0,
      "HighBit": 15,
      "ImageOrientationPatient": [0.99997522344023, 0.00641650516151, 0.00289499001201, -0.0059340038667, 0.98960619579994, -0.1436814700387],
      "ImagePositionPatient": [-879.52200586485, -906.10634959588, 64.633343017691],
      "ImageType": [
        "ORIGINAL",
        "PRIMARY",
        "M",
        "MB",
        "ND",
        "NORM",
        "MOSAIC"
],
      "ImagedNucleus": "1H",
      "ImagingFrequency": 123.252152,
      "InPlanePhaseEncodingDirection": "COL",
      "MRAcquisitionType": "2D",
      "MagneticFieldStrength": 3.0,
      "Manufacturer": "SIEMENS",
      "ManufacturerModelName": "Prisma",
      "Modality": "MR",
      "NumberOfAverages": 1.0,
      "NumberOfPhaseEncodingSteps": 82,
      "PercentPhaseFieldOfView": 100.0,
      "PercentSampling": 100.0,
      "PerformedProcedureStepStartTime": "115019.985000",
      "PhotometricInterpretation": "MONOCHROME2",
      "PixelBandwidth": 3050.0,
      "PixelRepresentation": 0,
      "PixelSpacing": [2.6829268932343, 2.6829268932343],
      "ProtocolName": "func_run-04_task-social_acq-ap-mb8",
      "RepetitionTime": 460.0,
      "Rows": 656,
      "SAR": 0.08662297285109,
      "SamplesPerPixel": 1,
      "ScanOptions": "FS",
      "ScanningSequence": "EP",
      "SequenceName": "epfid2d1_82",
      "SequenceVariant": [
        "SK",
        "SS"
],
      "SeriesDescription": "func_run-04_task-social_acq-ap-mb8",
      "SeriesNumber": 18,
      "SeriesTime": "130652.099000",
      "SliceLocation": -62.878864931269,
      "SliceThickness": 2.7000000476837,
      "SmallestImagePixelValue": 0,
      "SoftwareVersions": "syngo MR E11",
      "SpacingBetweenSlices": 2.6999999461722,
      "SpecificCharacterSet": "ISO_IR 100",
      "StudyID": "1",
      "StudyTime": "115019.849000",
      "TransmitCoilName": "Body",
      "VariableFlipAngleFlag": "N",
      "WindowCenterWidthExplanation": "Algo1",
      "dBdt": 0.0},
    "slices": {}
  },
  "time": {
    "samples": {
      "AcquisitionNumber": [1, 2, 3, 4, 5, 6, 7, 8, 9, 10, 11, 12, 13, 14, 15, 16, 17, 18, 19, 20, 21, 22, 23, 24, 25, 26, 27, 28, 29, 30, 31, 32, 33, 34, 35, 36, 37, 38, 39, 40, 41, 42, 43, 44, 45, 46, 47, 48, 49, 50, 51, 52, 53, 54, 55, 56, 57, 58, 59, 60, 61, 62, 63, 64, 65, 66, 67, 68, 69, 70, 71, 72, 73, 74, 75, 76, 77, 78, 79, 80, 81, 82, 83, 84, 85, 86, 87, 88, 89, 90, 91, 92, 93, 94, 95, 96, 97, 98, 99, 100, 101, 102, 103, 104, 105, 106, 107, 108, 109, 110, 111, 112, 113, 114, 115, 116, 117, 118, 119, 120, 121, 122, 123, 124, 125, 126, 127, 128, 129, 130, 131, 132, 133, 134, 135, 136, 137, 138, 139, 140, 141, 142, 143, 144, 145, 146, 147, 148, 149, 150, 151, 152, 153, 154, 155, 156, 157, 158, 159, 160, 161, 162, 163, 164, 165, 166, 167, 168, 169, 170, 171, 172, 173, 174, 175, 176, 177, 178, 179, 180, 181, 182, 183, 184, 185, 186, 187, 188, 189, 190, 191, 192, 193, 194, 195, 196, 197, 198, 199, 200, 201, 202, 203, 204, 205, 206, 207, 208, 209, 210, 211, 212, 213, 214, 215, 216, 217, 218, 219, 220, 221, 222, 223, 224, 225, 226, 227, 228, 229, 230, 231, 232, 233, 234, 235, 236, 237, 238, 239, 240, 241, 242, 243, 244, 245, 246, 247, 248, 249, 250, 251, 252, 253, 254, 255, 256, 257, 258, 259, 260, 261, 262, 263, 264, 265, 266, 267, 268, 269, 270, 271, 272, 273, 274, 275, 276, 277, 278, 279, 280, 281, 282, 283, 284, 285, 286, 287, 288, 289, 290, 291, 292, 293, 294, 295, 296, 297, 298, 299, 300, 301, 302, 303, 304, 305, 306, 307, 308, 309, 310, 311, 312, 313, 314, 315, 316, 317, 318, 319, 320, 321, 322, 323, 324, 325, 326, 327, 328, 329, 330, 331, 332, 333, 334, 335, 336, 337, 338, 339, 340, 341, 342, 343, 344, 345, 346, 347, 348, 349, 350, 351, 352, 353, 354, 355, 356, 357, 358, 359, 360, 361, 362, 363, 364, 365, 366, 367, 368, 369, 370, 371, 372, 373, 374, 375, 376, 377, 378, 379, 380, 381, 382, 383, 384, 385, 386, 387, 388, 389, 390, 391, 392, 393, 394, 395, 396, 397, 398, 399, 400, 401, 402, 403, 404, 405, 406, 407, 408, 409, 410, 411, 412, 413, 414, 415, 416, 417, 418, 419, 420, 421, 422, 423, 424, 425, 426, 427, 428, 429, 430, 431, 432, 433, 434, 435, 436, 437, 438, 439, 440, 441, 442, 443, 444, 445, 446, 447, 448, 449, 450, 451, 452, 453, 454, 455, 456, 457, 458, 459, 460, 461, 462, 463, 464, 465, 466, 467, 468, 469, 470, 471, 472, 473, 474, 475, 476, 477, 478, 479, 480, 481, 482, 483, 484, 485, 486, 487, 488, 489, 490, 491, 492, 493, 494, 495, 496, 497, 498, 499, 500, 501, 502, 503, 504, 505, 506, 507, 508, 509, 510, 511, 512, 513, 514, 515, 516, 517, 518, 519, 520, 521, 522, 523, 524, 525, 526, 527, 528, 529, 530, 531, 532, 533, 534, 535, 536, 537, 538, 539, 540, 541, 542, 543, 544, 545, 546, 547, 548, 549, 550, 551, 552, 553, 554, 555, 556, 557, 558, 559, 560, 561, 562, 563, 564, 565, 566, 567, 568, 569, 570, 571, 572, 573, 574, 575, 576, 577, 578, 579, 580, 581, 582, 583, 584, 585, 586, 587, 588, 589, 590, 591, 592, 593, 594, 595, 596, 597, 598, 599, 600, 601, 602, 603, 604, 605, 606, 607, 608, 609, 610, 611, 612, 613, 614, 615, 616, 617, 618, 619, 620, 621, 622, 623, 624, 625, 626, 627, 628, 629, 630, 631, 632, 633, 634, 635, 636, 637, 638, 639, 640, 641, 642, 643, 644, 645, 646, 647, 648, 649, 650, 651, 652, 653, 654, 655, 656, 657, 658, 659, 660, 661, 662, 663, 664, 665, 666, 667, 668, 669, 670, 671, 672, 673, 674, 675, 676, 677, 678, 679, 680, 681, 682, 683, 684, 685, 686, 687, 688, 689, 690, 691, 692, 693, 694, 695, 696, 697, 698, 699, 700, 701, 702, 703, 704, 705, 706, 707, 708, 709, 710, 711, 712, 713, 714, 715, 716, 717, 718, 719, 720, 721, 722, 723, 724, 725, 726, 727, 728, 729, 730, 731, 732, 733, 734, 735, 736, 737, 738, 739, 740, 741, 742, 743, 744, 745, 746, 747, 748, 749, 750, 751, 752, 753, 754, 755, 756, 757, 758, 759, 760, 761, 762, 763, 764, 765, 766, 767, 768, 769, 770, 771, 772, 773, 774, 775, 776, 777, 778, 779, 780, 781, 782, 783, 784, 785, 786, 787, 788, 789, 790, 791, 792, 793, 794, 795, 796, 797, 798, 799, 800, 801, 802, 803, 804, 805, 806, 807, 808, 809, 810, 811, 812, 813, 814, 815, 816, 817, 818, 819, 820, 821, 822, 823, 824, 825, 826, 827, 828, 829, 830, 831, 832, 833, 834, 835, 836, 837, 838, 839, 840, 841, 842, 843, 844, 845, 846, 847, 848, 849, 850, 851, 852, 853, 854, 855, 856, 857, 858, 859, 860, 861, 862, 863, 864, 865, 866, 867, 868, 869, 870, 871, 872],
      "AcquisitionTime": ["130623.265000", "130623.725000", "130624.185000", "130624.645000", "130625.105000", "130625.565000", "130626.025000", "130626.485000", "130626.945000", "130627.405000", "130627.865000", "130628.325000", "130628.785000", "130629.245000", "130629.705000", "130630.165000", "130630.625000", "130631.085000", "130631.545000", "130632.005000", "130632.465000", "130632.925000", "130633.385000", "130633.845000", "130634.305000", "130634.765000", "130635.225000", "130635.685000", "130636.145000", "130636.605000", "130637.065000", "130637.525000", "130637.985000", "130638.445000", "130638.905000", "130639.365000", "130639.825000", "130640.285000", "130640.745000", "130641.205000", "130641.665000", "130642.125000", "130642.585000", "130643.045000", "130643.505000", "130643.965000", "130644.425000", "130644.885000", "130645.345000", "130645.805000", "130646.265000", "130646.725000", "130647.185000", "130647.645000", "130648.105000", "130648.565000", "130649.025000", "130649.485000", "130649.945000", "130650.405000", "130650.865000", "130651.325000", "130651.785000", "130652.245000", "130652.705000", "130653.165000", "130653.625000", "130654.085000", "130654.545000", "130655.005000", "130655.465000", "130655.925000", "130656.385000", "130656.845000", "130657.305000", "130657.765000", "130658.225000", "130658.685000", "130659.145000", "130659.605000", "130700.065000", "130700.525000", "130700.985000", "130701.445000", "130701.905000", "130702.365000", "130702.825000", "130703.285000", "130703.745000", "130704.205000", "130704.665000", "130705.125000", "130705.585000", "130706.045000", "130706.505000", "130706.965000", "130707.425000", "130707.885000", "130708.345000", "130708.805000", "130709.265000", "130709.725000", "130710.185000", "130710.645000", "130711.105000", "130711.565000", "130712.025000", "130712.485000", "130712.945000", "130713.405000", "130713.865000", "130714.325000", "130714.785000", "130715.245000", "130715.705000", "130716.165000", "130716.625000", "130717.085000", "130717.545000", "130718.005000", "130718.465000", "130718.925000", "130719.385000", "130719.845000", "130720.305000", "130720.765000", "130721.225000", "130721.685000", "130722.145000", "130722.605000", "130723.065000", "130723.525000", "130723.985000", "130724.445000", "130724.905000", "130725.365000", "130725.825000", "130726.285000", "130726.745000", "130727.205000", "130727.665000", "130728.125000", "130728.585000", "130729.045000", "130729.505000", "130729.965000", "130730.425000", "130730.885000", "130731.345000", "130731.805000", "130732.265000", "130732.725000", "130733.185000", "130733.645000", "130734.105000", "130734.565000", "130735.025000", "130735.485000", "130735.945000", "130736.405000", "130736.865000", "130737.325000", "130737.785000", "130738.245000", "130738.705000", "130739.165000", "130739.625000", "130740.085000", "130740.545000", "130741.005000", "130741.465000", "130741.925000", "130742.385000", "130742.845000", "130743.305000", "130743.765000", "130744.225000", "130744.685000", "130745.145000", "130745.605000", "130746.065000", "130746.525000", "130746.985000", "130747.445000", "130747.905000", "130748.365000", "130748.825000", "130749.285000", "130749.745000", "130750.205000", "130750.665000", "130751.125000", "130751.585000", "130752.045000", "130752.505000", "130752.965000", "130753.425000", "130753.885000", "130754.345000", "130754.805000", "130755.265000", "130755.725000", "130756.185000", "130756.645000", "130757.105000", "130757.565000", "130758.025000", "130758.485000", "130758.945000", "130759.405000", "130759.865000", "130800.325000", "130800.785000", "130801.245000", "130801.705000", "130802.165000", "130802.625000", "130803.085000", "130803.545000", "130804.005000", "130804.465000", "130804.925000", "130805.385000", "130805.845000", "130806.305000", "130806.765000", "130807.225000", "130807.685000", "130808.145000", "130808.605000", "130809.065000", "130809.525000", "130809.985000", "130810.445000", "130810.905000", "130811.365000", "130811.825000", "130812.285000", "130812.745000", "130813.205000", "130813.665000", "130814.125000", "130814.585000", "130815.045000", "130815.505000", "130815.965000", "130816.425000", "130816.885000", "130817.345000", "130817.805000", "130818.265000", "130818.725000", "130819.185000", "130819.645000", "130820.105000", "130820.565000", "130821.025000", "130821.485000", "130821.945000", "130822.405000", "130822.865000", "130823.325000", "130823.785000", "130824.245000", "130824.705000", "130825.165000", "130825.625000", "130826.085000", "130826.545000", "130827.005000", "130827.465000", "130827.925000", "130828.385000", "130828.845000", "130829.305000", "130829.765000", "130830.225000", "130830.685000", "130831.145000", "130831.605000", "130832.065000", "130832.525000", "130832.985000", "130833.445000", "130833.905000", "130834.365000", "130834.825000", "130835.285000", "130835.745000", "130836.205000", "130836.665000", "130837.125000", "130837.585000", "130838.045000", "130838.505000", "130838.965000", "130839.425000", "130839.885000", "130840.345000", "130840.805000", "130841.265000", "130841.725000", "130842.185000", "130842.645000", "130843.105000", "130843.565000", "130844.025000", "130844.485000", "130844.945000", "130845.405000", "130845.865000", "130846.325000", "130846.785000", "130847.245000", "130847.705000", "130848.165000", "130848.625000", "130849.085000", "130849.545000", "130850.005000", "130850.465000", "130850.925000", "130851.385000", "130851.845000", "130852.305000", "130852.765000", "130853.225000", "130853.685000", "130854.145000", "130854.605000", "130855.065000", "130855.525000", "130855.985000", "130856.445000", "130856.905000", "130857.365000", "130857.825000", "130858.285000", "130858.745000", "130859.205000", "130859.665000", "130900.125000", "130900.585000", "130901.045000", "130901.505000", "130901.965000", "130902.425000", "130902.885000", "130903.345000", "130903.805000", "130904.265000", "130904.725000", "130905.185000", "130905.645000", "130906.105000", "130906.565000", "130907.025000", "130907.485000", "130907.945000", "130908.405000", "130908.865000", "130909.325000", "130909.785000", "130910.245000", "130910.705000", "130911.165000", "130911.625000", "130912.085000", "130912.545000", "130913.005000", "130913.465000", "130913.925000", "130914.385000", "130914.845000", "130915.305000", "130915.765000", "130916.225000", "130916.685000", "130917.145000", "130917.605000", "130918.065000", "130918.525000", "130918.985000", "130919.445000", "130919.905000", "130920.365000", "130920.825000", "130921.285000", "130921.745000", "130922.205000", "130922.665000", "130923.125000", "130923.585000", "130924.045000", "130924.505000", "130924.965000", "130925.425000", "130925.885000", "130926.345000", "130926.805000", "130927.265000", "130927.725000", "130928.185000", "130928.645000", "130929.105000", "130929.565000", "130930.025000", "130930.485000", "130930.945000", "130931.405000", "130931.865000", "130932.325000", "130932.785000", "130933.245000", "130933.705000", "130934.165000", "130934.625000", "130935.085000", "130935.545000", "130936.005000", "130936.465000", "130936.925000", "130937.385000", "130937.845000", "130938.305000", "130938.765000", "130939.225000", "130939.685000", "130940.145000", "130940.605000", "130941.065000", "130941.525000", "130941.985000", "130942.445000", "130942.905000", "130943.365000", "130943.825000", "130944.285000", "130944.745000", "130945.205000", "130945.665000", "130946.125000", "130946.585000", "130947.045000", "130947.505000", "130947.965000", "130948.425000", "130948.885000", "130949.345000", "130949.805000", "130950.265000", "130950.725000", "130951.185000", "130951.645000", "130952.105000", "130952.565000", "130953.025000", "130953.485000", "130953.945000", "130954.405000", "130954.865000", "130955.325000", "130955.785000", "130956.245000", "130956.705000", "130957.165000", "130957.625000", "130958.085000", "130958.545000", "130959.005000", "130959.465000", "130959.925000", "131000.385000", "131000.845000", "131001.305000", "131001.765000", "131002.225000", "131002.685000", "131003.145000", "131003.605000", "131004.065000", "131004.525000", "131004.985000", "131005.445000", "131005.905000", "131006.365000", "131006.825000", "131007.285000", "131007.745000", "131008.205000", "131008.665000", "131009.125000", "131009.585000", "131010.045000", "131010.505000", "131010.965000", "131011.425000", "131011.885000", "131012.345000", "131012.805000", "131013.265000", "131013.725000", "131014.185000", "131014.645000", "131015.105000", "131015.565000", "131016.025000", "131016.485000", "131016.945000", "131017.405000", "131017.865000", "131018.325000", "131018.785000", "131019.245000", "131019.705000", "131020.165000", "131020.625000", "131021.085000", "131021.545000", "131022.005000", "131022.465000", "131022.925000", "131023.385000", "131023.845000", "131024.305000", "131024.765000", "131025.225000", "131025.685000", "131026.145000", "131026.605000", "131027.065000", "131027.525000", "131027.985000", "131028.445000", "131028.905000", "131029.365000", "131029.825000", "131030.285000", "131030.745000", "131031.205000", "131031.665000", "131032.125000", "131032.585000", "131033.045000", "131033.505000", "131033.965000", "131034.425000", "131034.885000", "131035.345000", "131035.805000", "131036.265000", "131036.725000", "131037.185000", "131037.645000", "131038.105000", "131038.565000", "131039.025000", "131039.485000", "131039.945000", "131040.405000", "131040.865000", "131041.325000", "131041.785000", "131042.245000", "131042.705000", "131043.165000", "131043.625000", "131044.085000", "131044.545000", "131045.005000", "131045.465000", "131045.925000", "131046.385000", "131046.845000", "131047.305000", "131047.765000", "131048.225000", "131048.685000", "131049.145000", "131049.605000", "131050.065000", "131050.525000", "131050.985000", "131051.445000", "131051.905000", "131052.365000", "131052.825000", "131053.285000", "131053.745000", "131054.205000", "131054.665000", "131055.125000", "131055.585000", "131056.045000", "131056.505000", "131056.965000", "131057.425000", "131057.885000", "131058.345000", "131058.805000", "131059.265000", "131059.725000", "131100.185000", "131100.645000", "131101.105000", "131101.565000", "131102.025000", "131102.485000", "131102.945000", "131103.405000", "131103.865000", "131104.325000", "131104.785000", "131105.245000", "131105.705000", "131106.165000", "131106.625000", "131107.085000", "131107.545000", "131108.005000", "131108.465000", "131108.925000", "131109.385000", "131109.845000", "131110.305000", "131110.765000", "131111.225000", "131111.685000", "131112.145000", "131112.605000", "131113.065000", "131113.525000", "131113.985000", "131114.445000", "131114.905000", "131115.365000", "131115.825000", "131116.285000", "131116.745000", "131117.205000", "131117.665000", "131118.125000", "131118.585000", "131119.045000", "131119.505000", "131119.965000", "131120.425000", "131120.885000", "131121.345000", "131121.805000", "131122.265000", "131122.725000", "131123.185000", "131123.645000", "131124.105000", "131124.565000", "131125.025000", "131125.485000", "131125.945000", "131126.405000", "131126.865000", "131127.325000", "131127.785000", "131128.245000", "131128.705000", "131129.165000", "131129.625000", "131130.085000", "131130.545000", "131131.005000", "131131.465000", "131131.925000", "131132.385000", "131132.845000", "131133.305000", "131133.765000", "131134.225000", "131134.685000", "131135.145000", "131135.605000", "131136.065000", "131136.525000", "131136.985000", "131137.445000", "131137.905000", "131138.365000", "131138.825000", "131139.285000", "131139.745000", "131140.205000", "131140.665000", "131141.125000", "131141.585000", "131142.045000", "131142.505000", "131142.965000", "131143.425000", "131143.885000", "131144.345000", "131144.805000", "131145.265000", "131145.725000", "131146.185000", "131146.645000", "131147.105000", "131147.565000", "131148.025000", "131148.485000", "131148.945000", "131149.405000", "131149.865000", "131150.325000", "131150.785000", "131151.245000", "131151.705000", "131152.165000", "131152.625000", "131153.085000", "131153.545000", "131154.005000", "131154.465000", "131154.925000", "131155.385000", "131155.845000", "131156.305000", "131156.765000", "131157.225000", "131157.685000", "131158.145000", "131158.605000", "131159.065000", "131159.525000", "131159.985000", "131200.445000", "131200.905000", "131201.365000", "131201.825000", "131202.285000", "131202.745000", "131203.205000", "131203.665000", "131204.125000", "131204.585000", "131205.045000", "131205.505000", "131205.965000", "131206.425000", "131206.885000", "131207.345000", "131207.805000", "131208.265000", "131208.725000", "131209.185000", "131209.645000", "131210.105000", "131210.565000", "131211.025000", "131211.485000", "131211.945000", "131212.405000", "131212.865000", "131213.325000", "131213.785000", "131214.245000", "131214.705000", "131215.165000", "131215.625000", "131216.085000", "131216.545000", "131217.005000", "131217.465000", "131217.925000", "131218.385000", "131218.845000", "131219.305000", "131219.765000", "131220.225000", "131220.685000", "131221.145000", "131221.605000", "131222.065000", "131222.525000", "131222.985000", "131223.445000", "131223.905000", "131224.365000", "131224.825000", "131225.285000", "131225.745000", "131226.205000", "131226.665000", "131227.125000", "131227.585000", "131228.045000", "131228.505000", "131228.965000", "131229.425000", "131229.885000", "131230.345000", "131230.805000", "131231.265000", "131231.725000", "131232.185000", "131232.645000", "131233.105000", "131233.565000", "131234.025000", "131234.485000", "131234.945000", "131235.405000", "131235.865000", "131236.325000", "131236.785000", "131237.245000", "131237.705000", "131238.165000", "131238.625000", "131239.085000", "131239.545000", "131240.005000", "131240.465000", "131240.925000", "131241.385000", "131241.845000", "131242.305000", "131242.765000", "131243.225000", "131243.685000", "131244.145000", "131244.605000", "131245.065000", "131245.525000", "131245.985000", "131246.445000", "131246.905000", "131247.365000", "131247.825000", "131248.285000", "131248.745000", "131249.205000", "131249.665000", "131250.125000", "131250.585000", "131251.045000", "131251.505000", "131251.965000", "131252.425000", "131252.885000", "131253.345000", "131253.805000", "131254.265000", "131254.725000", "131255.185000", "131255.645000", "131256.105000", "131256.565000", "131257.025000", "131257.485000", "131257.945000", "131258.405000", "131258.865000", "131259.325000", "131259.785000", "131300.245000", "131300.705000", "131301.165000", "131301.625000", "131302.085000", "131302.545000", "131303.005000", "131303.465000", "131303.925000"],
