{
  "AcquisitionMatrixPE": 82,
  "AcquisitionNumber": 1,
  "AcquisitionTime": "09:14:55.580000",
  "BandwidthPerPixelPhaseEncode": 24.888,
  "BaseResolution": 82,
  "BodyPartExamined": "BRAIN",
  "ConsistencyInfo": "N4_VE11E_LATEST_20181129",
  "ConversionSoftware": "dcm2niix",
  "ConversionSoftwareVersion": "v1.0.20201102",
  "DerivedVendorReportedEchoSpacing": 0.00049,
  "DeviceSerialNumber": "66112",
  "DwellTime": 2e-06,
  "EchoTime": 0.0272,
  "EchoTrainLength": 82,
  "EffectiveEchoSpacing": 0.00049,
  "FlipAngle": 44,
  "ImageComments": "Unaliased MB8/PE3",
  "ImageOrientationPatientDICOM": [0.9995, -0.0316038, 0.000476872, 0.0315852, 0.998116, -0.0525935],
  "ImageType": [
    "ORIGINAL",
    "PRIMARY",
    "M",
    "MB",
    "ND",
    "NORM",
    "MOSAIC"
],
  "ImagingFrequency": 123.252,
  "InPlanePhaseEncodingDirectionDICOM": "COL",
  "InstitutionAddress": "Maynard 3,Hanover,NH,US,03755",
  "InstitutionName": "Dartmouth College - PBS",
  "InstitutionalDepartmentName": "Department",
  "MRAcquisitionType": "2D",
  "MagneticFieldStrength": 3,
  "Manufacturer": "Siemens",
  "ManufacturersModelName": "Prisma",
  "Modality": "MR",
  "MultibandAccelerationFactor": 8,
  "PartialFourier": 1,
  "PatientPosition": "HFS",
  "PercentPhaseFOV": 100,
  "PercentSampling": 100,
  "PhaseEncodingDirection": "j-",
  "PhaseEncodingSteps": 82,
  "PhaseResolution": 1,
  "PixelBandwidth": 3050,
  "ProcedureStepDescription": "Wager_Wager^1076_spacetop",
  "ProtocolName": "func_run-03_task-social_acq-ap-mb8",
  "PulseSequenceDetails": "%CustomerSeq%\\cmrr_mbep2d_bold",
  "ReceiveCoilActiveElements": "HEA;HEP",
  "ReceiveCoilName": "Head_32",
  "ReconMatrixPE": 82,
  "RepetitionTime": 0.46,
  "SAR": 0.101012,
  "ScanOptions": "FS",
  "ScanningSequence": "EP",
  "SequenceName": "epfid2d1_82",
  "SequenceVariant": "SK\\SS",
  "SeriesDescription": "func_run-03_task-social_acq-ap-mb8",
  "SeriesNumber": 16,
  "ShimSetting": [4140, -7760, -7213, 498, -47, -169, 75, 67],
  "SliceThickness": 2.7,
  "SliceTiming": [0, 0.2525, 0.0625, 0.315, 0.125, 0.3775, 0.19, 0, 0.2525, 0.0625, 0.315, 0.125, 0.3775, 0.19, 0, 0.2525, 0.0625, 0.315, 0.125, 0.3775, 0.19, 0, 0.2525, 0.0625, 0.315, 0.125, 0.3775, 0.19, 0, 0.2525, 0.0625, 0.315, 0.125, 0.3775, 0.19, 0, 0.2525, 0.0625, 0.315, 0.125, 0.3775, 0.19, 0, 0.2525, 0.0625, 0.315, 0.125, 0.3775, 0.19, 0, 0.2525, 0.0625, 0.315, 0.125, 0.3775, 0.19],
  "SoftwareVersions": "syngo MR E11",
  "SpacingBetweenSlices": 2.7,
  "StationName": "AWP66112",
  "TaskName": "social",
  "TotalReadoutTime": 0.03969,
  "TxRefAmp": 273.8,
  "WipMemBlock": "16df5033-096e-4e78-9868-cb3168e0db07||Sequence: R016 ve11e/master r/434b28f1; Aug  7 2019 18:53:46 by eja",
  "dcmmeta_affine": [
    [-2.681586503982544, 0.08474066108465195, -0.003202686784788966, 106.5873794555664],
    [0.08479074388742447, 2.677873373031616, -0.14197205007076263, -84.18524932861328],
    [0.0012794134672731161, 0.14110440015792847, 2.696262836456299, -83.28367614746094],
    [0.0, 0.0, 0.0, 1.0]
],
  "dcmmeta_reorient_transform": [
    [0.0, -1.0, 0.0, 81.0],
    [1.0, 0.0, 0.0, 0.0],
    [0.0, 0.0, 1.0, 0.0],
    [0.0, 0.0, 0.0, 1.0]
],
  "dcmmeta_shape": [82, 82, 56, 872],
  "dcmmeta_slice_dim": 2,
  "dcmmeta_version": 0.6,
  "global": {
    "const": {
      "AccessionNumber": "A003977",
      "AcquisitionMatrix": [82, 0, 0, 82],
      "AngioFlag": "N",
      "BitsAllocated": 16,
      "BitsStored": 16,
      "BodyPartExamined": "BRAIN",
      "Columns": 656,
      "EchoNumbers": 1,
      "EchoTime": 27.2,
      "EchoTrainLength": 82,
      "FlipAngle": 44.0,
      "HighBit": 15,
      "ImageOrientationPatient": [0.99950036069419, -0.0316038219999, 0.00047687228729, 0.03158515392512, 0.99811637900745, -0.0525934597511],
      "ImagePositionPatient": [-907.38723759682, -876.93717357908, -31.724445700593],
      "ImageType": [
        "ORIGINAL",
        "PRIMARY",
        "M",
        "MB",
        "ND",
        "NORM",
        "MOSAIC"
],
      "ImagedNucleus": "1H",
      "ImagingFrequency": 123.252175,
      "InPlanePhaseEncodingDirection": "COL",
      "MRAcquisitionType": "2D",
      "MagneticFieldStrength": 3.0,
      "Manufacturer": "SIEMENS",
      "ManufacturerModelName": "Prisma",
      "Modality": "MR",
      "NumberOfAverages": 1.0,
      "NumberOfPhaseEncodingSteps": 82,
      "PercentPhaseFieldOfView": 100.0,
      "PercentSampling": 100.0,
      "PerformedProcedureStepStartTime": "084236.359000",
      "PhotometricInterpretation": "MONOCHROME2",
      "PixelBandwidth": 3050.0,
      "PixelRepresentation": 0,
      "PixelSpacing": [2.6829268932343, 2.6829268932343],
      "ProtocolName": "func_run-03_task-social_acq-ap-mb8",
      "RepetitionTime": 460.0,
      "Rows": 656,
      "SAR": 0.10101238787092,
      "SamplesPerPixel": 1,
      "ScanOptions": "FS",
      "ScanningSequence": "EP",
      "SequenceName": "epfid2d1_82",
      "SequenceVariant": [
        "SK",
        "SS"
],
      "SeriesDescription": "func_run-03_task-social_acq-ap-mb8",
      "SeriesNumber": 16,
      "SeriesTime": "091513.587000",
      "SliceLocation": -78.868185020548,
      "SliceThickness": 2.7000000476837,
      "SmallestImagePixelValue": 0,
      "SoftwareVersions": "syngo MR E11",
      "SpacingBetweenSlices": 2.6999999364657,
      "SpecificCharacterSet": "ISO_IR 100",
      "StudyID": "1",
      "StudyTime": "084236.283000",
      "TransmitCoilName": "Body",
      "VariableFlipAngleFlag": "N",
      "WindowCenterWidthExplanation": "Algo1"
    },
    "slices": {}
  },
  "time": {
    "samples": {
      "AcquisitionNumber": [1, 2, 3, 4, 5, 6, 7, 8, 9, 10, 11, 12, 13, 14, 15, 16, 17, 18, 19, 20, 21, 22, 23, 24, 25, 26, 27, 28, 29, 30, 31, 32, 33, 34, 35, 36, 37, 38, 39, 40, 41, 42, 43, 44, 45, 46, 47, 48, 49, 50, 51, 52, 53, 54, 55, 56, 57, 58, 59, 60, 61, 62, 63, 64, 65, 66, 67, 68, 69, 70, 71, 72, 73, 74, 75, 76, 77, 78, 79, 80, 81, 82, 83, 84, 85, 86, 87, 88, 89, 90, 91, 92, 93, 94, 95, 96, 97, 98, 99, 100, 101, 102, 103, 104, 105, 106, 107, 108, 109, 110, 111, 112, 113, 114, 115, 116, 117, 118, 119, 120, 121, 122, 123, 124, 125, 126, 127, 128, 129, 130, 131, 132, 133, 134, 135, 136, 137, 138, 139, 140, 141, 142, 143, 144, 145, 146, 147, 148, 149, 150, 151, 152, 153, 154, 155, 156, 157, 158, 159, 160, 161, 162, 163, 164, 165, 166, 167, 168, 169, 170, 171, 172, 173, 174, 175, 176, 177, 178, 179, 180, 181, 182, 183, 184, 185, 186, 187, 188, 189, 190, 191, 192, 193, 194, 195, 196, 197, 198, 199, 200, 201, 202, 203, 204, 205, 206, 207, 208, 209, 210, 211, 212, 213, 214, 215, 216, 217, 218, 219, 220, 221, 222, 223, 224, 225, 226, 227, 228, 229, 230, 231, 232, 233, 234, 235, 236, 237, 238, 239, 240, 241, 242, 243, 244, 245, 246, 247, 248, 249, 250, 251, 252, 253, 254, 255, 256, 257, 258, 259, 260, 261, 262, 263, 264, 265, 266, 267, 268, 269, 270, 271, 272, 273, 274, 275, 276, 277, 278, 279, 280, 281, 282, 283, 284, 285, 286, 287, 288, 289, 290, 291, 292, 293, 294, 295, 296, 297, 298, 299, 300, 301, 302, 303, 304, 305, 306, 307, 308, 309, 310, 311, 312, 313, 314, 315, 316, 317, 318, 319, 320, 321, 322, 323, 324, 325, 326, 327, 328, 329, 330, 331, 332, 333, 334, 335, 336, 337, 338, 339, 340, 341, 342, 343, 344, 345, 346, 347, 348, 349, 350, 351, 352, 353, 354, 355, 356, 357, 358, 359, 360, 361, 362, 363, 364, 365, 366, 367, 368, 369, 370, 371, 372, 373, 374, 375, 376, 377, 378, 379, 380, 381, 382, 383, 384, 385, 386, 387, 388, 389, 390, 391, 392, 393, 394, 395, 396, 397, 398, 399, 400, 401, 402, 403, 404, 405, 406, 407, 408, 409, 410, 411, 412, 413, 414, 415, 416, 417, 418, 419, 420, 421, 422, 423, 424, 425, 426, 427, 428, 429, 430, 431, 432, 433, 434, 435, 436, 437, 438, 439, 440, 441, 442, 443, 444, 445, 446, 447, 448, 449, 450, 451, 452, 453, 454, 455, 456, 457, 458, 459, 460, 461, 462, 463, 464, 465, 466, 467, 468, 469, 470, 471, 472, 473, 474, 475, 476, 477, 478, 479, 480, 481, 482, 483, 484, 485, 486, 487, 488, 489, 490, 491, 492, 493, 494, 495, 496, 497, 498, 499, 500, 501, 502, 503, 504, 505, 506, 507, 508, 509, 510, 511, 512, 513, 514, 515, 516, 517, 518, 519, 520, 521, 522, 523, 524, 525, 526, 527, 528, 529, 530, 531, 532, 533, 534, 535, 536, 537, 538, 539, 540, 541, 542, 543, 544, 545, 546, 547, 548, 549, 550, 551, 552, 553, 554, 555, 556, 557, 558, 559, 560, 561, 562, 563, 564, 565, 566, 567, 568, 569, 570, 571, 572, 573, 574, 575, 576, 577, 578, 579, 580, 581, 582, 583, 584, 585, 586, 587, 588, 589, 590, 591, 592, 593, 594, 595, 596, 597, 598, 599, 600, 601, 602, 603, 604, 605, 606, 607, 608, 609, 610, 611, 612, 613, 614, 615, 616, 617, 618, 619, 620, 621, 622, 623, 624, 625, 626, 627, 628, 629, 630, 631, 632, 633, 634, 635, 636, 637, 638, 639, 640, 641, 642, 643, 644, 645, 646, 647, 648, 649, 650, 651, 652, 653, 654, 655, 656, 657, 658, 659, 660, 661, 662, 663, 664, 665, 666, 667, 668, 669, 670, 671, 672, 673, 674, 675, 676, 677, 678, 679, 680, 681, 682, 683, 684, 685, 686, 687, 688, 689, 690, 691, 692, 693, 694, 695, 696, 697, 698, 699, 700, 701, 702, 703, 704, 705, 706, 707, 708, 709, 710, 711, 712, 713, 714, 715, 716, 717, 718, 719, 720, 721, 722, 723, 724, 725, 726, 727, 728, 729, 730, 731, 732, 733, 734, 735, 736, 737, 738, 739, 740, 741, 742, 743, 744, 745, 746, 747, 748, 749, 750, 751, 752, 753, 754, 755, 756, 757, 758, 759, 760, 761, 762, 763, 764, 765, 766, 767, 768, 769, 770, 771, 772, 773, 774, 775, 776, 777, 778, 779, 780, 781, 782, 783, 784, 785, 786, 787, 788, 789, 790, 791, 792, 793, 794, 795, 796, 797, 798, 799, 800, 801, 802, 803, 804, 805, 806, 807, 808, 809, 810, 811, 812, 813, 814, 815, 816, 817, 818, 819, 820, 821, 822, 823, 824, 825, 826, 827, 828, 829, 830, 831, 832, 833, 834, 835, 836, 837, 838, 839, 840, 841, 842, 843, 844, 845, 846, 847, 848, 849, 850, 851, 852, 853, 854, 855, 856, 857, 858, 859, 860, 861, 862, 863, 864, 865, 866, 867, 868, 869, 870, 871, 872],
      "AcquisitionTime": ["091455.580000", "091456.040000", "091456.500000", "091456.960000", "091457.420000", "091457.880000", "091458.340000", "091458.800000", "091459.260000", "091459.720000", "091500.180000", "091500.640000", "091501.100000", "091501.560000", "091502.020000", "091502.480000", "091502.940000", "091503.400000", "091503.860000", "091504.320000", "091504.780000", "091505.240000", "091505.700000", "091506.160000", "091506.620000", "091507.080000", "091507.540000", "091508.000000", "091508.460000", "091508.920000", "091509.380000", "091509.840000", "091510.300000", "091510.760000", "091511.220000", "091511.680000", "091512.140000", "091512.600000", "091513.060000", "091513.520000", "091513.980000", "091514.440000", "091514.900000", "091515.360000", "091515.820000", "091516.280000", "091516.740000", "091517.200000", "091517.660000", "091518.120000", "091518.580000", "091519.040000", "091519.500000", "091519.960000", "091520.420000", "091520.880000", "091521.340000", "091521.800000", "091522.260000", "091522.720000", "091523.180000", "091523.640000", "091524.100000", "091524.560000", "091525.020000", "091525.480000", "091525.940000", "091526.400000", "091526.860000", "091527.320000", "091527.780000", "091528.240000", "091528.700000", "091529.160000", "091529.620000", "091530.080000", "091530.540000", "091531.000000", "091531.460000", "091531.920000", "091532.380000", "091532.840000", "091533.300000", "091533.760000", "091534.220000", "091534.680000", "091535.140000", "091535.600000", "091536.060000", "091536.520000", "091536.980000", "091537.440000", "091537.900000", "091538.360000", "091538.820000", "091539.280000", "091539.740000", "091540.200000", "091540.660000", "091541.120000", "091541.580000", "091542.040000", "091542.500000", "091542.960000", "091543.420000", "091543.880000", "091544.340000", "091544.800000", "091545.260000", "091545.720000", "091546.180000", "091546.640000", "091547.100000", "091547.560000", "091548.020000", "091548.480000", "091548.940000", "091549.400000", "091549.860000", "091550.320000", "091550.780000", "091551.240000", "091551.700000", "091552.160000", "091552.620000", "091553.080000", "091553.540000", "091554.000000", "091554.460000", "091554.920000", "091555.380000", "091555.840000", "091556.300000", "091556.760000", "091557.220000", "091557.680000", "091558.140000", "091558.600000", "091559.060000", "091559.520000", "091559.980000", "091600.440000", "091600.900000", "091601.360000", "091601.820000", "091602.280000", "091602.740000", "091603.200000", "091603.660000", "091604.120000", "091604.580000", "091605.040000", "091605.500000", "091605.960000", "091606.420000", "091606.880000", "091607.340000", "091607.800000", "091608.260000", "091608.720000", "091609.180000", "091609.640000", "091610.100000", "091610.560000", "091611.020000", "091611.480000", "091611.940000", "091612.400000", "091612.860000", "091613.320000", "091613.780000", "091614.240000", "091614.700000", "091615.160000", "091615.620000", "091616.080000", "091616.540000", "091617.000000", "091617.460000", "091617.920000", "091618.380000", "091618.840000", "091619.300000", "091619.760000", "091620.220000", "091620.680000", "091621.140000", "091621.600000", "091622.060000", "091622.520000", "091622.980000", "091623.440000", "091623.900000", "091624.360000", "091624.820000", "091625.280000", "091625.740000", "091626.200000", "091626.660000", "091627.120000", "091627.580000", "091628.040000", "091628.500000", "091628.960000", "091629.420000", "091629.880000", "091630.340000", "091630.800000", "091631.260000", "091631.720000", "091632.180000", "091632.640000", "091633.100000", "091633.560000", "091634.020000", "091634.480000", "091634.940000", "091635.400000", "091635.860000", "091636.320000", "091636.780000", "091637.240000", "091637.700000", "091638.160000", "091638.620000", "091639.080000", "091639.540000", "091640.000000", "091640.460000", "091640.920000", "091641.380000", "091641.840000", "091642.300000", "091642.760000", "091643.220000", "091643.680000", "091644.140000", "091644.600000", "091645.060000", "091645.520000", "091645.980000", "091646.440000", "091646.900000", "091647.360000", "091647.820000", "091648.280000", "091648.740000", "091649.200000", "091649.660000", "091650.120000", "091650.580000", "091651.040000", "091651.500000", "091651.960000", "091652.420000", "091652.880000", "091653.340000", "091653.800000", "091654.260000", "091654.720000", "091655.180000", "091655.640000", "091656.100000", "091656.560000", "091657.020000", "091657.480000", "091657.940000", "091658.400000", "091658.860000", "091659.320000", "091659.780000", "091700.240000", "091700.700000", "091701.160000", "091701.620000", "091702.080000", "091702.540000", "091703.000000", "091703.460000", "091703.920000", "091704.380000", "091704.840000", "091705.300000", "091705.760000", "091706.220000", "091706.680000", "091707.140000", "091707.600000", "091708.060000", "091708.520000", "091708.980000", "091709.440000", "091709.900000", "091710.360000", "091710.820000", "091711.280000", "091711.740000", "091712.200000", "091712.660000", "091713.120000", "091713.580000", "091714.040000", "091714.500000", "091714.960000", "091715.420000", "091715.880000", "091716.340000", "091716.800000", "091717.260000", "091717.720000", "091718.180000", "091718.640000", "091719.100000", "091719.560000", "091720.020000", "091720.480000", "091720.940000", "091721.400000", "091721.860000", "091722.320000", "091722.780000", "091723.240000", "091723.700000", "091724.160000", "091724.620000", "091725.080000", "091725.540000", "091726.000000", "091726.460000", "091726.920000", "091727.380000", "091727.840000", "091728.300000", "091728.760000", "091729.220000", "091729.680000", "091730.140000", "091730.600000", "091731.060000", "091731.520000", "091731.980000", "091732.440000", "091732.900000", "091733.360000", "091733.820000", "091734.280000", "091734.740000", "091735.200000", "091735.660000", "091736.120000", "091736.580000", "091737.040000", "091737.500000", "091737.960000", "091738.420000", "091738.880000", "091739.340000", "091739.800000", "091740.260000", "091740.720000", "091741.180000", "091741.640000", "091742.100000", "091742.560000", "091743.020000", "091743.480000", "091743.940000", "091744.400000", "091744.860000", "091745.320000", "091745.780000", "091746.240000", "091746.700000", "091747.160000", "091747.620000", "091748.080000", "091748.540000", "091749.000000", "091749.460000", "091749.920000", "091750.380000", "091750.840000", "091751.300000", "091751.760000", "091752.220000", "091752.680000", "091753.140000", "091753.600000", "091754.060000", "091754.520000", "091754.980000", "091755.440000", "091755.900000", "091756.360000", "091756.820000", "091757.280000", "091757.740000", "091758.200000", "091758.660000", "091759.120000", "091759.580000", "091800.040000", "091800.500000", "091800.960000", "091801.420000", "091801.880000", "091802.340000", "091802.800000", "091803.260000", "091803.720000", "091804.180000", "091804.640000", "091805.100000", "091805.560000", "091806.020000", "091806.480000", "091806.940000", "091807.400000", "091807.860000", "091808.320000", "091808.780000", "091809.240000", "091809.700000", "091810.160000", "091810.620000", "091811.080000", "091811.540000", "091812.000000", "091812.460000", "091812.920000", "091813.380000", "091813.840000", "091814.300000", "091814.760000", "091815.220000", "091815.680000", "091816.140000", "091816.600000", "091817.060000", "091817.520000", "091817.980000", "091818.440000", "091818.900000", "091819.360000", "091819.820000", "091820.280000", "091820.740000", "091821.200000", "091821.660000", "091822.120000", "091822.580000", "091823.040000", "091823.500000", "091823.960000", "091824.420000", "091824.880000", "091825.340000", "091825.800000", "091826.260000", "091826.720000", "091827.180000", "091827.640000", "091828.100000", "091828.560000", "091829.020000", "091829.480000", "091829.940000", "091830.400000", "091830.860000", "091831.320000", "091831.780000", "091832.240000", "091832.700000", "091833.160000", "091833.620000", "091834.080000", "091834.540000", "091835.000000", "091835.460000", "091835.920000", "091836.380000", "091836.840000", "091837.300000", "091837.760000", "091838.220000", "091838.680000", "091839.140000", "091839.600000", "091840.060000", "091840.520000", "091840.980000", "091841.440000", "091841.900000", "091842.360000", "091842.820000", "091843.280000", "091843.740000", "091844.200000", "091844.660000", "091845.120000", "091845.580000", "091846.040000", "091846.500000", "091846.960000", "091847.420000", "091847.880000", "091848.340000", "091848.800000", "091849.260000", "091849.720000", "091850.180000", "091850.640000", "091851.100000", "091851.560000", "091852.020000", "091852.480000", "091852.940000", "091853.400000", "091853.860000", "091854.320000", "091854.780000", "091855.240000", "091855.700000", "091856.160000", "091856.620000", "091857.080000", "091857.540000", "091858.000000", "091858.460000", "091858.920000", "091859.380000", "091859.840000", "091900.300000", "091900.760000", "091901.220000", "091901.680000", "091902.140000", "091902.600000", "091903.060000", "091903.520000", "091903.980000", "091904.440000", "091904.900000", "091905.360000", "091905.820000", "091906.280000", "091906.740000", "091907.200000", "091907.660000", "091908.120000", "091908.580000", "091909.040000", "091909.500000", "091909.960000", "091910.420000", "091910.880000", "091911.340000", "091911.800000", "091912.260000", "091912.720000", "091913.180000", "091913.640000", "091914.100000", "091914.560000", "091915.020000", "091915.480000", "091915.940000", "091916.400000", "091916.860000", "091917.320000", "091917.780000", "091918.240000", "091918.700000", "091919.160000", "091919.620000", "091920.080000", "091920.540000", "091921.000000", "091921.460000", "091921.920000", "091922.380000", "091922.840000", "091923.300000", "091923.760000", "091924.220000", "091924.680000", "091925.140000", "091925.600000", "091926.060000", "091926.520000", "091926.980000", "091927.440000", "091927.900000", "091928.360000", "091928.820000", "091929.280000", "091929.740000", "091930.200000", "091930.660000", "091931.120000", "091931.580000", "091932.040000", "091932.500000", "091932.960000", "091933.420000", "091933.880000", "091934.340000", "091934.800000", "091935.260000", "091935.720000", "091936.180000", "091936.640000", "091937.100000", "091937.560000", "091938.020000", "091938.480000", "091938.940000", "091939.400000", "091939.860000", "091940.320000", "091940.780000", "091941.240000", "091941.700000", "091942.160000", "091942.620000", "091943.080000", "091943.540000", "091944.000000", "091944.460000", "091944.920000", "091945.380000", "091945.840000", "091946.300000", "091946.760000", "091947.220000", "091947.680000", "091948.140000", "091948.600000", "091949.060000", "091949.520000", "091949.980000", "091950.440000", "091950.900000", "091951.360000", "091951.820000", "091952.280000", "091952.740000", "091953.200000", "091953.660000", "091954.120000", "091954.580000", "091955.040000", "091955.500000", "091955.960000", "091956.420000", "091956.880000", "091957.340000", "091957.800000", "091958.260000", "091958.720000", "091959.180000", "091959.640000", "092000.100000", "092000.560000", "092001.020000", "092001.480000", "092001.940000", "092002.400000", "092002.860000", "092003.320000", "092003.780000", "092004.240000", "092004.700000", "092005.160000", "092005.620000", "092006.080000", "092006.540000", "092007.000000", "092007.460000", "092007.920000", "092008.380000", "092008.840000", "092009.300000", "092009.760000", "092010.220000", "092010.680000", "092011.140000", "092011.600000", "092012.060000", "092012.520000", "092012.980000", "092013.440000", "092013.900000", "092014.360000", "092014.820000", "092015.280000", "092015.740000", "092016.200000", "092016.660000", "092017.120000", "092017.580000", "092018.040000", "092018.500000", "092018.960000", "092019.420000", "092019.880000", "092020.340000", "092020.800000", "092021.260000", "092021.720000", "092022.180000", "092022.640000", "092023.100000", "092023.560000", "092024.020000", "092024.480000", "092024.940000", "092025.400000", "092025.860000", "092026.320000", "092026.780000", "092027.240000", "092027.700000", "092028.160000", "092028.620000", "092029.080000", "092029.540000", "092030.000000", "092030.460000", "092030.920000", "092031.380000", "092031.840000", "092032.300000", "092032.760000", "092033.220000", "092033.680000", "092034.140000", "092034.600000", "092035.060000", "092035.520000", "092035.980000", "092036.440000", "092036.900000", "092037.360000", "092037.820000", "092038.280000", "092038.740000", "092039.200000", "092039.660000", "092040.120000", "092040.580000", "092041.040000", "092041.500000", "092041.960000", "092042.420000", "092042.880000", "092043.340000", "092043.800000", "092044.260000", "092044.720000", "092045.180000", "092045.640000", "092046.100000", "092046.560000", "092047.020000", "092047.480000", "092047.940000", "092048.400000", "092048.860000", "092049.320000", "092049.780000", "092050.240000", "092050.700000", "092051.160000", "092051.620000", "092052.080000", "092052.540000", "092053.000000", "092053.460000", "092053.920000", "092054.380000", "092054.840000", "092055.300000", "092055.760000", "092056.220000", "092056.680000", "092057.140000", "092057.600000", "092058.060000", "092058.520000", "092058.980000", "092059.440000", "092059.900000", "092100.360000", "092100.820000", "092101.280000", "092101.740000", "092102.200000", "092102.660000", "092103.120000", "092103.580000", "092104.040000", "092104.500000", "092104.960000", "092105.420000", "092105.880000", "092106.340000", "092106.800000", "092107.260000", "092107.720000", "092108.180000", "092108.640000", "092109.100000", "092109.560000", "092110.020000", "092110.480000", "092110.940000", "092111.400000", "092111.860000", "092112.320000", "092112.780000", "092113.240000", "092113.700000", "092114.160000", "092114.620000", "092115.080000", "092115.540000", "092116.000000", "092116.460000", "092116.920000", "092117.380000", "092117.840000", "092118.300000", "092118.760000", "092119.220000", "092119.680000", "092120.140000", "092120.600000", "092121.060000", "092121.520000", "092121.980000", "092122.440000", "092122.900000", "092123.360000", "092123.820000", "092124.280000", "092124.740000", "092125.200000", "092125.660000", "092126.120000", "092126.580000", "092127.040000", "092127.500000", "092127.960000", "092128.420000", "092128.880000", "092129.340000", "092129.800000", "092130.260000", "092130.720000", "092131.180000", "092131.640000", "092132.100000", "092132.560000", "092133.020000", "092133.480000", "092133.940000", "092134.400000", "092134.860000", "092135.320000", "092135.780000", "092136.240000"],
