{
  "AcquisitionMatrixPE": 82,
  "AcquisitionNumber": 1,
  "AcquisitionTime": "09:31:52.417500",
  "BandwidthPerPixelPhaseEncode": 24.888,
  "BaseResolution": 82,
  "BodyPartExamined": "BRAIN",
  "ConsistencyInfo": "N4_VE11E_LATEST_20181129",
  "ConversionSoftware": "dcm2niix",
  "ConversionSoftwareVersion": "v1.0.20201102",
  "DerivedVendorReportedEchoSpacing": 0.00049,
  "DeviceSerialNumber": "66112",
  "DwellTime": 2e-06,
  "EchoTime": 0.0272,
  "EchoTrainLength": 82,
  "EffectiveEchoSpacing": 0.00049,
  "FlipAngle": 44,
  "ImageComments": "Unaliased MB8/PE3",
  "ImageOrientationPatientDICOM": [0.9995, -0.0316038, 0.000476872, 0.0315852, 0.998116, -0.0525935],
  "ImageType": [
    "ORIGINAL",
    "PRIMARY",
    "M",
    "MB",
    "ND",
    "NORM",
    "MOSAIC"
],
  "ImagingFrequency": 123.252,
  "InPlanePhaseEncodingDirectionDICOM": "COL",
  "InstitutionAddress": "Maynard 3,Hanover,NH,US,03755",
  "InstitutionName": "Dartmouth College - PBS",
  "InstitutionalDepartmentName": "Department",
  "MRAcquisitionType": "2D",
  "MagneticFieldStrength": 3,
  "Manufacturer": "Siemens",
  "ManufacturersModelName": "Prisma",
  "Modality": "MR",
  "MultibandAccelerationFactor": 8,
  "PartialFourier": 1,
  "PatientPosition": "HFS",
  "PercentPhaseFOV": 100,
  "PercentSampling": 100,
  "PhaseEncodingDirection": "j-",
  "PhaseEncodingSteps": 82,
  "PhaseResolution": 1,
  "PixelBandwidth": 3050,
  "ProcedureStepDescription": "Wager_Wager^1076_spacetop",
  "ProtocolName": "func_run-06_task-social_acq-ap-mb8",
  "PulseSequenceDetails": "%CustomerSeq%\\cmrr_mbep2d_bold",
  "ReceiveCoilActiveElements": "HEA;HEP",
  "ReceiveCoilName": "Head_32",
  "ReconMatrixPE": 82,
  "RepetitionTime": 0.46,
  "SAR": 0.101012,
  "ScanOptions": "FS",
  "ScanningSequence": "EP",
  "SequenceName": "epfid2d1_82",
  "SequenceVariant": "SK\\SS",
  "SeriesDescription": "func_run-06_task-social_acq-ap-mb8",
  "SeriesNumber": 20,
  "ShimSetting": [4140, -7760, -7213, 498, -47, -169, 75, 67],
  "SliceThickness": 2.7,
  "SliceTiming": [0, 0.2525, 0.0625, 0.315, 0.1275, 0.3775, 0.19, 0, 0.2525, 0.0625, 0.315, 0.1275, 0.3775, 0.19, 0, 0.2525, 0.0625, 0.315, 0.1275, 0.3775, 0.19, 0, 0.2525, 0.0625, 0.315, 0.1275, 0.3775, 0.19, 0, 0.2525, 0.0625, 0.315, 0.1275, 0.3775, 0.19, 0, 0.2525, 0.0625, 0.315, 0.1275, 0.3775, 0.19, 0, 0.2525, 0.0625, 0.315, 0.1275, 0.3775, 0.19, 0, 0.2525, 0.0625, 0.315, 0.1275, 0.3775, 0.19],
  "SoftwareVersions": "syngo MR E11",
  "SpacingBetweenSlices": 2.7,
  "StationName": "AWP66112",
  "TaskName": "social",
  "TotalReadoutTime": 0.03969,
  "TxRefAmp": 273.8,
  "WipMemBlock": "3c69a878-03f8-4d82-8dd9-bec44a1fcec3||Sequence: R016 ve11e/master r/434b28f1; Aug  7 2019 18:53:46 by eja",
  "dcmmeta_affine": [
    [-2.681586503982544, 0.08474066108465195, -0.003202686784788966, 106.5873794555664],
    [0.08479074388742447, 2.677873373031616, -0.14197205007076263, -84.18524932861328],
    [0.0012794134672731161, 0.14110440015792847, 2.696262836456299, -83.28367614746094],
    [0.0, 0.0, 0.0, 1.0]
],
  "dcmmeta_reorient_transform": [
    [0.0, -1.0, 0.0, 81.0],
    [1.0, 0.0, 0.0, 0.0],
    [0.0, 0.0, 1.0, 0.0],
    [0.0, 0.0, 0.0, 1.0]
],
  "dcmmeta_shape": [82, 82, 56, 872],
  "dcmmeta_slice_dim": 2,
  "dcmmeta_version": 0.6,
  "global": {
    "const": {
      "AccessionNumber": "A003977",
      "AcquisitionMatrix": [82, 0, 0, 82],
      "AngioFlag": "N",
      "BitsAllocated": 16,
      "BitsStored": 16,
      "BodyPartExamined": "BRAIN",
      "Columns": 656,
      "EchoNumbers": 1,
      "EchoTime": 27.2,
      "EchoTrainLength": 82,
      "FlipAngle": 44.0,
      "HighBit": 15,
      "ImageOrientationPatient": [0.99950036069419, -0.0316038219999, 0.00047687228729, 0.03158515392512, 0.99811637900745, -0.0525934597511],
      "ImagePositionPatient": [-907.38723759682, -876.93717357908, -31.724445700593],
      "ImageType": [
        "ORIGINAL",
        "PRIMARY",
        "M",
        "MB",
        "ND",
        "NORM",
        "MOSAIC"
],
      "ImagedNucleus": "1H",
      "ImagingFrequency": 123.252183,
      "InPlanePhaseEncodingDirection": "COL",
      "MRAcquisitionType": "2D",
      "MagneticFieldStrength": 3.0,
      "Manufacturer": "SIEMENS",
      "ManufacturerModelName": "Prisma",
      "Modality": "MR",
      "NumberOfAverages": 1.0,
      "NumberOfPhaseEncodingSteps": 82,
      "PercentPhaseFieldOfView": 100.0,
      "PercentSampling": 100.0,
      "PerformedProcedureStepStartTime": "084236.359000",
      "PhotometricInterpretation": "MONOCHROME2",
      "PixelBandwidth": 3050.0,
      "PixelRepresentation": 0,
      "PixelSpacing": [2.6829268932343, 2.6829268932343],
      "ProtocolName": "func_run-06_task-social_acq-ap-mb8",
      "RepetitionTime": 460.0,
      "Rows": 656,
      "SAR": 0.10101238787092,
      "SamplesPerPixel": 1,
      "ScanOptions": "FS",
      "ScanningSequence": "EP",
      "SequenceName": "epfid2d1_82",
      "SequenceVariant": [
        "SK",
        "SS"
],
      "SeriesDescription": "func_run-06_task-social_acq-ap-mb8",
      "SeriesNumber": 20,
      "SeriesTime": "093213.590000",
      "SliceLocation": -78.868185020548,
      "SliceThickness": 2.7000000476837,
      "SmallestImagePixelValue": 0,
      "SoftwareVersions": "syngo MR E11",
      "SpacingBetweenSlices": 2.6999999364657,
      "SpecificCharacterSet": "ISO_IR 100",
      "StudyID": "1",
      "StudyTime": "084236.283000",
      "TransmitCoilName": "Body",
      "VariableFlipAngleFlag": "N",
      "WindowCenterWidthExplanation": "Algo1"
    },
    "slices": {}
  },
  "time": {
    "samples": {
      "AcquisitionNumber": [1, 2, 3, 4, 5, 6, 7, 8, 9, 10, 11, 12, 13, 14, 15, 16, 17, 18, 19, 20, 21, 22, 23, 24, 25, 26, 27, 28, 29, 30, 31, 32, 33, 34, 35, 36, 37, 38, 39, 40, 41, 42, 43, 44, 45, 46, 47, 48, 49, 50, 51, 52, 53, 54, 55, 56, 57, 58, 59, 60, 61, 62, 63, 64, 65, 66, 67, 68, 69, 70, 71, 72, 73, 74, 75, 76, 77, 78, 79, 80, 81, 82, 83, 84, 85, 86, 87, 88, 89, 90, 91, 92, 93, 94, 95, 96, 97, 98, 99, 100, 101, 102, 103, 104, 105, 106, 107, 108, 109, 110, 111, 112, 113, 114, 115, 116, 117, 118, 119, 120, 121, 122, 123, 124, 125, 126, 127, 128, 129, 130, 131, 132, 133, 134, 135, 136, 137, 138, 139, 140, 141, 142, 143, 144, 145, 146, 147, 148, 149, 150, 151, 152, 153, 154, 155, 156, 157, 158, 159, 160, 161, 162, 163, 164, 165, 166, 167, 168, 169, 170, 171, 172, 173, 174, 175, 176, 177, 178, 179, 180, 181, 182, 183, 184, 185, 186, 187, 188, 189, 190, 191, 192, 193, 194, 195, 196, 197, 198, 199, 200, 201, 202, 203, 204, 205, 206, 207, 208, 209, 210, 211, 212, 213, 214, 215, 216, 217, 218, 219, 220, 221, 222, 223, 224, 225, 226, 227, 228, 229, 230, 231, 232, 233, 234, 235, 236, 237, 238, 239, 240, 241, 242, 243, 244, 245, 246, 247, 248, 249, 250, 251, 252, 253, 254, 255, 256, 257, 258, 259, 260, 261, 262, 263, 264, 265, 266, 267, 268, 269, 270, 271, 272, 273, 274, 275, 276, 277, 278, 279, 280, 281, 282, 283, 284, 285, 286, 287, 288, 289, 290, 291, 292, 293, 294, 295, 296, 297, 298, 299, 300, 301, 302, 303, 304, 305, 306, 307, 308, 309, 310, 311, 312, 313, 314, 315, 316, 317, 318, 319, 320, 321, 322, 323, 324, 325, 326, 327, 328, 329, 330, 331, 332, 333, 334, 335, 336, 337, 338, 339, 340, 341, 342, 343, 344, 345, 346, 347, 348, 349, 350, 351, 352, 353, 354, 355, 356, 357, 358, 359, 360, 361, 362, 363, 364, 365, 366, 367, 368, 369, 370, 371, 372, 373, 374, 375, 376, 377, 378, 379, 380, 381, 382, 383, 384, 385, 386, 387, 388, 389, 390, 391, 392, 393, 394, 395, 396, 397, 398, 399, 400, 401, 402, 403, 404, 405, 406, 407, 408, 409, 410, 411, 412, 413, 414, 415, 416, 417, 418, 419, 420, 421, 422, 423, 424, 425, 426, 427, 428, 429, 430, 431, 432, 433, 434, 435, 436, 437, 438, 439, 440, 441, 442, 443, 444, 445, 446, 447, 448, 449, 450, 451, 452, 453, 454, 455, 456, 457, 458, 459, 460, 461, 462, 463, 464, 465, 466, 467, 468, 469, 470, 471, 472, 473, 474, 475, 476, 477, 478, 479, 480, 481, 482, 483, 484, 485, 486, 487, 488, 489, 490, 491, 492, 493, 494, 495, 496, 497, 498, 499, 500, 501, 502, 503, 504, 505, 506, 507, 508, 509, 510, 511, 512, 513, 514, 515, 516, 517, 518, 519, 520, 521, 522, 523, 524, 525, 526, 527, 528, 529, 530, 531, 532, 533, 534, 535, 536, 537, 538, 539, 540, 541, 542, 543, 544, 545, 546, 547, 548, 549, 550, 551, 552, 553, 554, 555, 556, 557, 558, 559, 560, 561, 562, 563, 564, 565, 566, 567, 568, 569, 570, 571, 572, 573, 574, 575, 576, 577, 578, 579, 580, 581, 582, 583, 584, 585, 586, 587, 588, 589, 590, 591, 592, 593, 594, 595, 596, 597, 598, 599, 600, 601, 602, 603, 604, 605, 606, 607, 608, 609, 610, 611, 612, 613, 614, 615, 616, 617, 618, 619, 620, 621, 622, 623, 624, 625, 626, 627, 628, 629, 630, 631, 632, 633, 634, 635, 636, 637, 638, 639, 640, 641, 642, 643, 644, 645, 646, 647, 648, 649, 650, 651, 652, 653, 654, 655, 656, 657, 658, 659, 660, 661, 662, 663, 664, 665, 666, 667, 668, 669, 670, 671, 672, 673, 674, 675, 676, 677, 678, 679, 680, 681, 682, 683, 684, 685, 686, 687, 688, 689, 690, 691, 692, 693, 694, 695, 696, 697, 698, 699, 700, 701, 702, 703, 704, 705, 706, 707, 708, 709, 710, 711, 712, 713, 714, 715, 716, 717, 718, 719, 720, 721, 722, 723, 724, 725, 726, 727, 728, 729, 730, 731, 732, 733, 734, 735, 736, 737, 738, 739, 740, 741, 742, 743, 744, 745, 746, 747, 748, 749, 750, 751, 752, 753, 754, 755, 756, 757, 758, 759, 760, 761, 762, 763, 764, 765, 766, 767, 768, 769, 770, 771, 772, 773, 774, 775, 776, 777, 778, 779, 780, 781, 782, 783, 784, 785, 786, 787, 788, 789, 790, 791, 792, 793, 794, 795, 796, 797, 798, 799, 800, 801, 802, 803, 804, 805, 806, 807, 808, 809, 810, 811, 812, 813, 814, 815, 816, 817, 818, 819, 820, 821, 822, 823, 824, 825, 826, 827, 828, 829, 830, 831, 832, 833, 834, 835, 836, 837, 838, 839, 840, 841, 842, 843, 844, 845, 846, 847, 848, 849, 850, 851, 852, 853, 854, 855, 856, 857, 858, 859, 860, 861, 862, 863, 864, 865, 866, 867, 868, 869, 870, 871, 872],
      "AcquisitionTime": ["093152.417500", "093152.877500", "093153.337500", "093153.797500", "093154.257500", "093154.717500", "093155.177500", "093155.637500", "093156.097500", "093156.557500", "093157.017500", "093157.477500", "093157.937500", "093158.397500", "093158.857500", "093159.317500", "093159.777500", "093200.237500", "093200.697500", "093201.157500", "093201.617500", "093202.077500", "093202.537500", "093202.997500", "093203.457500", "093203.917500", "093204.377500", "093204.837500", "093205.297500", "093205.757500", "093206.217500", "093206.677500", "093207.137500", "093207.597500", "093208.057500", "093208.517500", "093208.977500", "093209.437500", "093209.897500", "093210.357500", "093210.817500", "093211.277500", "093211.737500", "093212.197500", "093212.657500", "093213.117500", "093213.577500", "093214.037500", "093214.497500", "093214.957500", "093215.417500", "093215.877500", "093216.337500", "093216.797500", "093217.257500", "093217.717500", "093218.177500", "093218.637500", "093219.097500", "093219.557500", "093220.017500", "093220.477500", "093220.937500", "093221.397500", "093221.857500", "093222.317500", "093222.777500", "093223.237500", "093223.697500", "093224.157500", "093224.617500", "093225.077500", "093225.537500", "093225.997500", "093226.457500", "093226.917500", "093227.377500", "093227.837500", "093228.297500", "093228.757500", "093229.217500", "093229.677500", "093230.137500", "093230.597500", "093231.057500", "093231.517500", "093231.977500", "093232.437500", "093232.897500", "093233.357500", "093233.817500", "093234.277500", "093234.737500", "093235.197500", "093235.657500", "093236.117500", "093236.577500", "093237.037500", "093237.497500", "093237.957500", "093238.417500", "093238.877500", "093239.337500", "093239.797500", "093240.257500", "093240.717500", "093241.177500", "093241.637500", "093242.097500", "093242.557500", "093243.017500", "093243.477500", "093243.937500", "093244.397500", "093244.857500", "093245.317500", "093245.777500", "093246.237500", "093246.697500", "093247.157500", "093247.617500", "093248.077500", "093248.537500", "093248.997500", "093249.457500", "093249.917500", "093250.377500", "093250.837500", "093251.297500", "093251.757500", "093252.217500", "093252.677500", "093253.137500", "093253.597500", "093254.057500", "093254.517500", "093254.977500", "093255.437500", "093255.897500", "093256.357500", "093256.817500", "093257.277500", "093257.737500", "093258.197500", "093258.657500", "093259.117500", "093259.577500", "093300.037500", "093300.497500", "093300.957500", "093301.417500", "093301.877500", "093302.337500", "093302.797500", "093303.257500", "093303.717500", "093304.177500", "093304.637500", "093305.097500", "093305.557500", "093306.017500", "093306.477500", "093306.937500", "093307.397500", "093307.857500", "093308.317500", "093308.777500", "093309.237500", "093309.697500", "093310.157500", "093310.617500", "093311.077500", "093311.537500", "093311.997500", "093312.457500", "093312.917500", "093313.377500", "093313.837500", "093314.297500", "093314.757500", "093315.217500", "093315.677500", "093316.137500", "093316.597500", "093317.057500", "093317.517500", "093317.977500", "093318.437500", "093318.897500", "093319.357500", "093319.817500", "093320.277500", "093320.737500", "093321.197500", "093321.657500", "093322.117500", "093322.577500", "093323.037500", "093323.497500", "093323.957500", "093324.417500", "093324.877500", "093325.337500", "093325.797500", "093326.257500", "093326.717500", "093327.177500", "093327.637500", "093328.097500", "093328.557500", "093329.017500", "093329.477500", "093329.937500", "093330.397500", "093330.857500", "093331.317500", "093331.777500", "093332.237500", "093332.697500", "093333.157500", "093333.617500", "093334.077500", "093334.537500", "093334.997500", "093335.457500", "093335.917500", "093336.377500", "093336.837500", "093337.297500", "093337.757500", "093338.217500", "093338.677500", "093339.137500", "093339.597500", "093340.057500", "093340.517500", "093340.977500", "093341.437500", "093341.897500", "093342.357500", "093342.817500", "093343.277500", "093343.737500", "093344.197500", "093344.657500", "093345.117500", "093345.577500", "093346.037500", "093346.497500", "093346.957500", "093347.417500", "093347.877500", "093348.337500", "093348.797500", "093349.257500", "093349.717500", "093350.177500", "093350.637500", "093351.097500", "093351.557500", "093352.017500", "093352.477500", "093352.937500", "093353.397500", "093353.857500", "093354.317500", "093354.777500", "093355.237500", "093355.697500", "093356.157500", "093356.617500", "093357.077500", "093357.537500", "093357.997500", "093358.457500", "093358.917500", "093359.377500", "093359.837500", "093400.297500", "093400.757500", "093401.217500", "093401.677500", "093402.137500", "093402.597500", "093403.057500", "093403.517500", "093403.977500", "093404.437500", "093404.897500", "093405.357500", "093405.817500", "093406.277500", "093406.737500", "093407.197500", "093407.657500", "093408.117500", "093408.577500", "093409.037500", "093409.497500", "093409.957500", "093410.417500", "093410.877500", "093411.337500", "093411.797500", "093412.257500", "093412.717500", "093413.177500", "093413.637500", "093414.097500", "093414.557500", "093415.017500", "093415.477500", "093415.937500", "093416.397500", "093416.857500", "093417.317500", "093417.777500", "093418.237500", "093418.697500", "093419.157500", "093419.617500", "093420.077500", "093420.537500", "093420.997500", "093421.457500", "093421.917500", "093422.377500", "093422.837500", "093423.297500", "093423.757500", "093424.217500", "093424.677500", "093425.137500", "093425.597500", "093426.057500", "093426.517500", "093426.977500", "093427.437500", "093427.897500", "093428.357500", "093428.817500", "093429.277500", "093429.737500", "093430.197500", "093430.657500", "093431.117500", "093431.577500", "093432.037500", "093432.497500", "093432.957500", "093433.417500", "093433.877500", "093434.337500", "093434.797500", "093435.257500", "093435.717500", "093436.177500", "093436.637500", "093437.097500", "093437.557500", "093438.017500", "093438.477500", "093438.937500", "093439.397500", "093439.857500", "093440.317500", "093440.777500", "093441.237500", "093441.697500", "093442.157500", "093442.617500", "093443.077500", "093443.537500", "093443.997500", "093444.457500", "093444.917500", "093445.377500", "093445.837500", "093446.297500", "093446.757500", "093447.217500", "093447.677500", "093448.137500", "093448.597500", "093449.057500", "093449.517500", "093449.977500", "093450.437500", "093450.897500", "093451.357500", "093451.817500", "093452.277500", "093452.737500", "093453.197500", "093453.657500", "093454.117500", "093454.577500", "093455.037500", "093455.497500", "093455.957500", "093456.417500", "093456.877500", "093457.337500", "093457.797500", "093458.257500", "093458.717500", "093459.177500", "093459.637500", "093500.097500", "093500.557500", "093501.017500", "093501.477500", "093501.937500", "093502.397500", "093502.857500", "093503.317500", "093503.777500", "093504.237500", "093504.697500", "093505.157500", "093505.617500", "093506.077500", "093506.537500", "093506.997500", "093507.457500", "093507.917500", "093508.377500", "093508.837500", "093509.297500", "093509.757500", "093510.217500", "093510.677500", "093511.137500", "093511.597500", "093512.057500", "093512.517500", "093512.977500", "093513.437500", "093513.897500", "093514.357500", "093514.817500", "093515.277500", "093515.737500", "093516.197500", "093516.657500", "093517.117500", "093517.577500", "093518.037500", "093518.497500", "093518.957500", "093519.417500", "093519.877500", "093520.337500", "093520.797500", "093521.257500", "093521.717500", "093522.177500", "093522.637500", "093523.097500", "093523.557500", "093524.017500", "093524.477500", "093524.937500", "093525.397500", "093525.857500", "093526.317500", "093526.777500", "093527.237500", "093527.697500", "093528.157500", "093528.617500", "093529.077500", "093529.537500", "093529.997500", "093530.457500", "093530.917500", "093531.377500", "093531.837500", "093532.297500", "093532.757500", "093533.217500", "093533.677500", "093534.137500", "093534.597500", "093535.057500", "093535.517500", "093535.977500", "093536.437500", "093536.897500", "093537.357500", "093537.817500", "093538.277500", "093538.737500", "093539.197500", "093539.657500", "093540.117500", "093540.577500", "093541.037500", "093541.497500", "093541.957500", "093542.417500", "093542.877500", "093543.337500", "093543.797500", "093544.257500", "093544.717500", "093545.177500", "093545.637500", "093546.097500", "093546.557500", "093547.017500", "093547.477500", "093547.937500", "093548.397500", "093548.857500", "093549.317500", "093549.777500", "093550.237500", "093550.697500", "093551.157500", "093551.617500", "093552.077500", "093552.537500", "093552.997500", "093553.457500", "093553.917500", "093554.377500", "093554.837500", "093555.297500", "093555.757500", "093556.217500", "093556.677500", "093557.137500", "093557.597500", "093558.057500", "093558.517500", "093558.977500", "093559.437500", "093559.897500", "093600.357500", "093600.817500", "093601.277500", "093601.737500", "093602.197500", "093602.657500", "093603.117500", "093603.577500", "093604.037500", "093604.497500", "093604.957500", "093605.417500", "093605.877500", "093606.337500", "093606.797500", "093607.257500", "093607.717500", "093608.177500", "093608.637500", "093609.097500", "093609.557500", "093610.017500", "093610.477500", "093610.937500", "093611.397500", "093611.857500", "093612.317500", "093612.777500", "093613.237500", "093613.697500", "093614.157500", "093614.617500", "093615.077500", "093615.537500", "093615.997500", "093616.457500", "093616.917500", "093617.377500", "093617.837500", "093618.297500", "093618.757500", "093619.217500", "093619.677500", "093620.137500", "093620.597500", "093621.057500", "093621.517500", "093621.977500", "093622.437500", "093622.897500", "093623.357500", "093623.817500", "093624.277500", "093624.737500", "093625.197500", "093625.657500", "093626.117500", "093626.577500", "093627.037500", "093627.497500", "093627.957500", "093628.417500", "093628.877500", "093629.337500", "093629.797500", "093630.257500", "093630.717500", "093631.177500", "093631.637500", "093632.097500", "093632.557500", "093633.017500", "093633.477500", "093633.937500", "093634.397500", "093634.857500", "093635.317500", "093635.777500", "093636.237500", "093636.697500", "093637.157500", "093637.617500", "093638.077500", "093638.537500", "093638.997500", "093639.457500", "093639.917500", "093640.377500", "093640.837500", "093641.297500", "093641.757500", "093642.217500", "093642.677500", "093643.137500", "093643.597500", "093644.057500", "093644.517500", "093644.977500", "093645.437500", "093645.897500", "093646.357500", "093646.817500", "093647.277500", "093647.737500", "093648.197500", "093648.657500", "093649.117500", "093649.577500", "093650.037500", "093650.497500", "093650.957500", "093651.417500", "093651.877500", "093652.337500", "093652.797500", "093653.257500", "093653.717500", "093654.177500", "093654.637500", "093655.097500", "093655.557500", "093656.017500", "093656.477500", "093656.937500", "093657.397500", "093657.857500", "093658.317500", "093658.777500", "093659.237500", "093659.697500", "093700.157500", "093700.617500", "093701.077500", "093701.537500", "093701.997500", "093702.457500", "093702.917500", "093703.377500", "093703.837500", "093704.297500", "093704.757500", "093705.217500", "093705.677500", "093706.137500", "093706.597500", "093707.057500", "093707.517500", "093707.977500", "093708.437500", "093708.897500", "093709.357500", "093709.817500", "093710.277500", "093710.737500", "093711.197500", "093711.657500", "093712.117500", "093712.577500", "093713.037500", "093713.497500", "093713.957500", "093714.417500", "093714.877500", "093715.337500", "093715.797500", "093716.257500", "093716.717500", "093717.177500", "093717.637500", "093718.097500", "093718.557500", "093719.017500", "093719.477500", "093719.937500", "093720.397500", "093720.857500", "093721.317500", "093721.777500", "093722.237500", "093722.697500", "093723.157500", "093723.617500", "093724.077500", "093724.537500", "093724.997500", "093725.457500", "093725.917500", "093726.377500", "093726.837500", "093727.297500", "093727.757500", "093728.217500", "093728.677500", "093729.137500", "093729.597500", "093730.057500", "093730.517500", "093730.977500", "093731.437500", "093731.897500", "093732.357500", "093732.817500", "093733.277500", "093733.737500", "093734.197500", "093734.657500", "093735.117500", "093735.577500", "093736.037500", "093736.497500", "093736.957500", "093737.417500", "093737.877500", "093738.337500", "093738.797500", "093739.257500", "093739.717500", "093740.177500", "093740.637500", "093741.097500", "093741.557500", "093742.017500", "093742.477500", "093742.937500", "093743.397500", "093743.857500", "093744.317500", "093744.777500", "093745.237500", "093745.697500", "093746.157500", "093746.617500", "093747.077500", "093747.537500", "093747.997500", "093748.457500", "093748.917500", "093749.377500", "093749.837500", "093750.297500", "093750.757500", "093751.217500", "093751.677500", "093752.137500", "093752.597500", "093753.057500", "093753.517500", "093753.977500", "093754.437500", "093754.897500", "093755.357500", "093755.817500", "093756.277500", "093756.737500", "093757.197500", "093757.657500", "093758.117500", "093758.577500", "093759.037500", "093759.497500", "093759.957500", "093800.417500", "093800.877500", "093801.337500", "093801.797500", "093802.257500", "093802.717500", "093803.177500", "093803.637500", "093804.097500", "093804.557500", "093805.017500", "093805.477500", "093805.937500", "093806.397500", "093806.857500", "093807.317500", "093807.777500", "093808.237500", "093808.697500", "093809.157500", "093809.617500", "093810.077500", "093810.537500", "093810.997500", "093811.457500", "093811.917500", "093812.377500", "093812.837500", "093813.297500", "093813.757500", "093814.217500", "093814.677500", "093815.137500", "093815.597500", "093816.057500", "093816.517500", "093816.977500", "093817.437500", "093817.897500", "093818.357500", "093818.817500", "093819.277500", "093819.737500", "093820.197500", "093820.657500", "093821.117500", "093821.577500", "093822.037500", "093822.497500", "093822.957500", "093823.417500", "093823.877500", "093824.337500", "093824.797500", "093825.257500", "093825.717500", "093826.177500", "093826.637500", "093827.097500", "093827.557500", "093828.017500", "093828.477500", "093828.937500", "093829.397500", "093829.857500", "093830.317500", "093830.777500", "093831.237500", "093831.697500", "093832.157500", "093832.617500", "093833.077500"],
