{
  "AcquisitionMatrixPE": 82,
  "AcquisitionNumber": 1,
  "AcquisitionTime": "08:59:32.705000",
  "BandwidthPerPixelPhaseEncode": 24.888,
  "BaseResolution": 82,
  "BodyPartExamined": "BRAIN",
  "ConsistencyInfo": "N4_VE11E_LATEST_20181129",
  "ConversionSoftware": "dcm2niix",
  "ConversionSoftwareVersion": "v1.0.20201102",
  "DerivedVendorReportedEchoSpacing": 0.00049,
  "DeviceSerialNumber": "66112",
  "DwellTime": 2e-06,
  "EchoTime": 0.0272,
  "EchoTrainLength": 82,
  "EffectiveEchoSpacing": 0.00049,
  "FlipAngle": 44,
  "ImageComments": "Unaliased MB8/PE3",
  "ImageOrientationPatientDICOM": [0.9995, -0.0316038, 0.000476872, 0.0315852, 0.998116, -0.0525935],
  "ImageType": [
    "ORIGINAL",
    "PRIMARY",
    "M",
    "MB",
    "ND",
    "NORM",
    "MOSAIC"
],
  "ImagingFrequency": 123.252,
  "InPlanePhaseEncodingDirectionDICOM": "COL",
  "InstitutionAddress": "Maynard 3,Hanover,NH,US,03755",
  "InstitutionName": "Dartmouth College - PBS",
  "InstitutionalDepartmentName": "Department",
  "MRAcquisitionType": "2D",
  "MagneticFieldStrength": 3,
  "Manufacturer": "Siemens",
  "ManufacturersModelName": "Prisma",
  "Modality": "MR",
  "MultibandAccelerationFactor": 8,
  "PartialFourier": 1,
  "PatientPosition": "HFS",
  "PercentPhaseFOV": 100,
  "PercentSampling": 100,
  "PhaseEncodingDirection": "j-",
  "PhaseEncodingSteps": 82,
  "PhaseResolution": 1,
  "PixelBandwidth": 3050,
  "ProcedureStepDescription": "Wager_Wager^1076_spacetop",
  "ProtocolName": "func_run-01_task-social_acq-ap-mb8",
  "PulseSequenceDetails": "%CustomerSeq%\\cmrr_mbep2d_bold",
  "ReceiveCoilActiveElements": "HEA;HEP",
  "ReceiveCoilName": "Head_32",
  "ReconMatrixPE": 82,
  "RepetitionTime": 0.46,
  "SAR": 0.101012,
  "ScanOptions": "FS",
  "ScanningSequence": "EP",
  "SequenceName": "epfid2d1_82",
  "SequenceVariant": "SK\\SS",
  "SeriesDescription": "func_run-01_task-social_acq-ap-mb8",
  "SeriesNumber": 12,
  "ShimSetting": [4140, -7760, -7213, 498, -47, -169, 75, 67],
  "SliceThickness": 2.7,
  "SliceTiming": [0, 0.2525, 0.0625, 0.315, 0.125, 0.3775, 0.1875, 0, 0.2525, 0.0625, 0.315, 0.125, 0.3775, 0.1875, 0, 0.2525, 0.0625, 0.315, 0.125, 0.3775, 0.1875, 0, 0.2525, 0.0625, 0.315, 0.125, 0.3775, 0.1875, 0, 0.2525, 0.0625, 0.315, 0.125, 0.3775, 0.1875, 0, 0.2525, 0.0625, 0.315, 0.125, 0.3775, 0.1875, 0, 0.2525, 0.0625, 0.315, 0.125, 0.3775, 0.1875, 0, 0.2525, 0.0625, 0.315, 0.125, 0.3775, 0.1875],
  "SoftwareVersions": "syngo MR E11",
  "SpacingBetweenSlices": 2.7,
  "StationName": "AWP66112",
  "TaskName": "social",
  "TotalReadoutTime": 0.03969,
  "TxRefAmp": 273.8,
  "WipMemBlock": "3e9c23aa-93f7-4e65-96d4-a2fb20cfe2f4||Sequence: R016 ve11e/master r/434b28f1; Aug  7 2019 18:53:46 by eja",
  "dcmmeta_affine": [
    [-2.681586503982544, 0.08474066108465195, -0.003202686784788966, 106.5873794555664],
    [0.08479074388742447, 2.677873373031616, -0.14197205007076263, -84.18524932861328],
    [0.0012794134672731161, 0.14110440015792847, 2.696262836456299, -83.28367614746094],
    [0.0, 0.0, 0.0, 1.0]
],
  "dcmmeta_reorient_transform": [
    [0.0, -1.0, 0.0, 81.0],
    [1.0, 0.0, 0.0, 0.0],
    [0.0, 0.0, 1.0, 0.0],
    [0.0, 0.0, 0.0, 1.0]
],
  "dcmmeta_shape": [82, 82, 56, 872],
  "dcmmeta_slice_dim": 2,
  "dcmmeta_version": 0.6,
  "global": {
    "const": {
      "AccessionNumber": "A003977",
      "AcquisitionMatrix": [82, 0, 0, 82],
      "AngioFlag": "N",
      "BitsAllocated": 16,
      "BitsStored": 16,
      "BodyPartExamined": "BRAIN",
      "Columns": 656,
      "EchoNumbers": 1,
      "EchoTime": 27.2,
      "EchoTrainLength": 82,
      "FlipAngle": 44.0,
      "HighBit": 15,
      "ImageOrientationPatient": [0.99950036069419, -0.0316038219999, 0.00047687228729, 0.03158515392512, 0.99811637900745, -0.0525934597511],
      "ImagePositionPatient": [-907.38723759682, -876.93717357908, -31.724445700593],
      "ImageType": [
        "ORIGINAL",
        "PRIMARY",
        "M",
        "MB",
        "ND",
        "NORM",
        "MOSAIC"
],
      "ImagedNucleus": "1H",
      "ImagingFrequency": 123.252177,
      "InPlanePhaseEncodingDirection": "COL",
      "MRAcquisitionType": "2D",
      "MagneticFieldStrength": 3.0,
      "Manufacturer": "SIEMENS",
      "ManufacturerModelName": "Prisma",
      "Modality": "MR",
      "NumberOfAverages": 1.0,
      "NumberOfPhaseEncodingSteps": 82,
      "PercentPhaseFieldOfView": 100.0,
      "PercentSampling": 100.0,
      "PerformedProcedureStepStartTime": "084236.359000",
      "PhotometricInterpretation": "MONOCHROME2",
      "PixelBandwidth": 3050.0,
      "PixelRepresentation": 0,
      "PixelSpacing": [2.6829268932343, 2.6829268932343],
      "ProtocolName": "func_run-01_task-social_acq-ap-mb8",
      "RepetitionTime": 460.0,
      "Rows": 656,
      "SAR": 0.10101238787092,
      "SamplesPerPixel": 1,
      "ScanOptions": "FS",
      "ScanningSequence": "EP",
      "SequenceName": "epfid2d1_82",
      "SequenceVariant": [
        "SK",
        "SS"
],
      "SeriesDescription": "func_run-01_task-social_acq-ap-mb8",
      "SeriesNumber": 12,
      "SeriesTime": "085953.672000",
      "SliceLocation": -78.868185020548,
      "SliceThickness": 2.7000000476837,
      "SmallestImagePixelValue": 0,
      "SoftwareVersions": "syngo MR E11",
      "SpacingBetweenSlices": 2.6999999364657,
      "SpecificCharacterSet": "ISO_IR 100",
      "StudyID": "1",
      "StudyTime": "084236.283000",
      "TransmitCoilName": "Body",
      "VariableFlipAngleFlag": "N",
      "WindowCenterWidthExplanation": "Algo1"
    },
    "slices": {}
  },
  "time": {
    "samples": {
      "AcquisitionNumber": [1, 2, 3, 4, 5, 6, 7, 8, 9, 10, 11, 12, 13, 14, 15, 16, 17, 18, 19, 20, 21, 22, 23, 24, 25, 26, 27, 28, 29, 30, 31, 32, 33, 34, 35, 36, 37, 38, 39, 40, 41, 42, 43, 44, 45, 46, 47, 48, 49, 50, 51, 52, 53, 54, 55, 56, 57, 58, 59, 60, 61, 62, 63, 64, 65, 66, 67, 68, 69, 70, 71, 72, 73, 74, 75, 76, 77, 78, 79, 80, 81, 82, 83, 84, 85, 86, 87, 88, 89, 90, 91, 92, 93, 94, 95, 96, 97, 98, 99, 100, 101, 102, 103, 104, 105, 106, 107, 108, 109, 110, 111, 112, 113, 114, 115, 116, 117, 118, 119, 120, 121, 122, 123, 124, 125, 126, 127, 128, 129, 130, 131, 132, 133, 134, 135, 136, 137, 138, 139, 140, 141, 142, 143, 144, 145, 146, 147, 148, 149, 150, 151, 152, 153, 154, 155, 156, 157, 158, 159, 160, 161, 162, 163, 164, 165, 166, 167, 168, 169, 170, 171, 172, 173, 174, 175, 176, 177, 178, 179, 180, 181, 182, 183, 184, 185, 186, 187, 188, 189, 190, 191, 192, 193, 194, 195, 196, 197, 198, 199, 200, 201, 202, 203, 204, 205, 206, 207, 208, 209, 210, 211, 212, 213, 214, 215, 216, 217, 218, 219, 220, 221, 222, 223, 224, 225, 226, 227, 228, 229, 230, 231, 232, 233, 234, 235, 236, 237, 238, 239, 240, 241, 242, 243, 244, 245, 246, 247, 248, 249, 250, 251, 252, 253, 254, 255, 256, 257, 258, 259, 260, 261, 262, 263, 264, 265, 266, 267, 268, 269, 270, 271, 272, 273, 274, 275, 276, 277, 278, 279, 280, 281, 282, 283, 284, 285, 286, 287, 288, 289, 290, 291, 292, 293, 294, 295, 296, 297, 298, 299, 300, 301, 302, 303, 304, 305, 306, 307, 308, 309, 310, 311, 312, 313, 314, 315, 316, 317, 318, 319, 320, 321, 322, 323, 324, 325, 326, 327, 328, 329, 330, 331, 332, 333, 334, 335, 336, 337, 338, 339, 340, 341, 342, 343, 344, 345, 346, 347, 348, 349, 350, 351, 352, 353, 354, 355, 356, 357, 358, 359, 360, 361, 362, 363, 364, 365, 366, 367, 368, 369, 370, 371, 372, 373, 374, 375, 376, 377, 378, 379, 380, 381, 382, 383, 384, 385, 386, 387, 388, 389, 390, 391, 392, 393, 394, 395, 396, 397, 398, 399, 400, 401, 402, 403, 404, 405, 406, 407, 408, 409, 410, 411, 412, 413, 414, 415, 416, 417, 418, 419, 420, 421, 422, 423, 424, 425, 426, 427, 428, 429, 430, 431, 432, 433, 434, 435, 436, 437, 438, 439, 440, 441, 442, 443, 444, 445, 446, 447, 448, 449, 450, 451, 452, 453, 454, 455, 456, 457, 458, 459, 460, 461, 462, 463, 464, 465, 466, 467, 468, 469, 470, 471, 472, 473, 474, 475, 476, 477, 478, 479, 480, 481, 482, 483, 484, 485, 486, 487, 488, 489, 490, 491, 492, 493, 494, 495, 496, 497, 498, 499, 500, 501, 502, 503, 504, 505, 506, 507, 508, 509, 510, 511, 512, 513, 514, 515, 516, 517, 518, 519, 520, 521, 522, 523, 524, 525, 526, 527, 528, 529, 530, 531, 532, 533, 534, 535, 536, 537, 538, 539, 540, 541, 542, 543, 544, 545, 546, 547, 548, 549, 550, 551, 552, 553, 554, 555, 556, 557, 558, 559, 560, 561, 562, 563, 564, 565, 566, 567, 568, 569, 570, 571, 572, 573, 574, 575, 576, 577, 578, 579, 580, 581, 582, 583, 584, 585, 586, 587, 588, 589, 590, 591, 592, 593, 594, 595, 596, 597, 598, 599, 600, 601, 602, 603, 604, 605, 606, 607, 608, 609, 610, 611, 612, 613, 614, 615, 616, 617, 618, 619, 620, 621, 622, 623, 624, 625, 626, 627, 628, 629, 630, 631, 632, 633, 634, 635, 636, 637, 638, 639, 640, 641, 642, 643, 644, 645, 646, 647, 648, 649, 650, 651, 652, 653, 654, 655, 656, 657, 658, 659, 660, 661, 662, 663, 664, 665, 666, 667, 668, 669, 670, 671, 672, 673, 674, 675, 676, 677, 678, 679, 680, 681, 682, 683, 684, 685, 686, 687, 688, 689, 690, 691, 692, 693, 694, 695, 696, 697, 698, 699, 700, 701, 702, 703, 704, 705, 706, 707, 708, 709, 710, 711, 712, 713, 714, 715, 716, 717, 718, 719, 720, 721, 722, 723, 724, 725, 726, 727, 728, 729, 730, 731, 732, 733, 734, 735, 736, 737, 738, 739, 740, 741, 742, 743, 744, 745, 746, 747, 748, 749, 750, 751, 752, 753, 754, 755, 756, 757, 758, 759, 760, 761, 762, 763, 764, 765, 766, 767, 768, 769, 770, 771, 772, 773, 774, 775, 776, 777, 778, 779, 780, 781, 782, 783, 784, 785, 786, 787, 788, 789, 790, 791, 792, 793, 794, 795, 796, 797, 798, 799, 800, 801, 802, 803, 804, 805, 806, 807, 808, 809, 810, 811, 812, 813, 814, 815, 816, 817, 818, 819, 820, 821, 822, 823, 824, 825, 826, 827, 828, 829, 830, 831, 832, 833, 834, 835, 836, 837, 838, 839, 840, 841, 842, 843, 844, 845, 846, 847, 848, 849, 850, 851, 852, 853, 854, 855, 856, 857, 858, 859, 860, 861, 862, 863, 864, 865, 866, 867, 868, 869, 870, 871, 872],
      "AcquisitionTime": ["085932.705000", "085933.165000", "085933.625000", "085934.085000", "085934.545000", "085935.005000", "085935.465000", "085935.925000", "085936.385000", "085936.845000", "085937.305000", "085937.765000", "085938.225000", "085938.685000", "085939.145000", "085939.605000", "085940.065000", "085940.525000", "085940.985000", "085941.445000", "085941.905000", "085942.365000", "085942.825000", "085943.285000", "085943.745000", "085944.205000", "085944.665000", "085945.125000", "085945.585000", "085946.045000", "085946.505000", "085946.965000", "085947.425000", "085947.885000", "085948.345000", "085948.805000", "085949.265000", "085949.725000", "085950.185000", "085950.645000", "085951.105000", "085951.565000", "085952.025000", "085952.485000", "085952.945000", "085953.405000", "085953.865000", "085954.325000", "085954.785000", "085955.245000", "085955.705000", "085956.165000", "085956.625000", "085957.085000", "085957.545000", "085958.005000", "085958.465000", "085958.925000", "085959.385000", "085959.845000", "090000.305000", "090000.765000", "090001.225000", "090001.685000", "090002.145000", "090002.605000", "090003.065000", "090003.525000", "090003.985000", "090004.445000", "090004.905000", "090005.365000", "090005.825000", "090006.285000", "090006.745000", "090007.205000", "090007.665000", "090008.125000", "090008.585000", "090009.045000", "090009.505000", "090009.965000", "090010.425000", "090010.885000", "090011.345000", "090011.805000", "090012.265000", "090012.725000", "090013.185000", "090013.645000", "090014.105000", "090014.565000", "090015.025000", "090015.485000", "090015.945000", "090016.405000", "090016.865000", "090017.325000", "090017.785000", "090018.245000", "090018.705000", "090019.165000", "090019.625000", "090020.085000", "090020.545000", "090021.005000", "090021.465000", "090021.925000", "090022.385000", "090022.845000", "090023.305000", "090023.765000", "090024.225000", "090024.685000", "090025.145000", "090025.605000", "090026.065000", "090026.525000", "090026.985000", "090027.445000", "090027.905000", "090028.365000", "090028.825000", "090029.285000", "090029.745000", "090030.205000", "090030.665000", "090031.125000", "090031.585000", "090032.045000", "090032.505000", "090032.965000", "090033.425000", "090033.885000", "090034.345000", "090034.805000", "090035.265000", "090035.725000", "090036.185000", "090036.645000", "090037.105000", "090037.565000", "090038.025000", "090038.485000", "090038.945000", "090039.405000", "090039.865000", "090040.325000", "090040.785000", "090041.245000", "090041.705000", "090042.165000", "090042.625000", "090043.085000", "090043.545000", "090044.005000", "090044.465000", "090044.925000", "090045.385000", "090045.845000", "090046.305000", "090046.765000", "090047.225000", "090047.685000", "090048.145000", "090048.605000", "090049.065000", "090049.525000", "090049.985000", "090050.445000", "090050.905000", "090051.365000", "090051.825000", "090052.285000", "090052.745000", "090053.205000", "090053.665000", "090054.125000", "090054.585000", "090055.045000", "090055.505000", "090055.965000", "090056.425000", "090056.885000", "090057.345000", "090057.805000", "090058.265000", "090058.725000", "090059.185000", "090059.645000", "090100.105000", "090100.565000", "090101.025000", "090101.485000", "090101.945000", "090102.405000", "090102.865000", "090103.325000", "090103.785000", "090104.245000", "090104.705000", "090105.165000", "090105.625000", "090106.085000", "090106.545000", "090107.005000", "090107.465000", "090107.925000", "090108.385000", "090108.845000", "090109.305000", "090109.765000", "090110.225000", "090110.685000", "090111.145000", "090111.605000", "090112.065000", "090112.525000", "090112.985000", "090113.445000", "090113.905000", "090114.365000", "090114.825000", "090115.285000", "090115.745000", "090116.205000", "090116.665000", "090117.125000", "090117.585000", "090118.045000", "090118.505000", "090118.965000", "090119.425000", "090119.885000", "090120.345000", "090120.805000", "090121.265000", "090121.725000", "090122.185000", "090122.645000", "090123.105000", "090123.565000", "090124.025000", "090124.485000", "090124.945000", "090125.405000", "090125.865000", "090126.325000", "090126.785000", "090127.245000", "090127.705000", "090128.165000", "090128.625000", "090129.085000", "090129.545000", "090130.005000", "090130.465000", "090130.925000", "090131.385000", "090131.845000", "090132.305000", "090132.765000", "090133.225000", "090133.685000", "090134.145000", "090134.605000", "090135.065000", "090135.525000", "090135.985000", "090136.445000", "090136.905000", "090137.365000", "090137.825000", "090138.285000", "090138.745000", "090139.205000", "090139.665000", "090140.125000", "090140.585000", "090141.045000", "090141.505000", "090141.965000", "090142.425000", "090142.885000", "090143.345000", "090143.805000", "090144.265000", "090144.725000", "090145.185000", "090145.645000", "090146.105000", "090146.565000", "090147.025000", "090147.485000", "090147.945000", "090148.405000", "090148.865000", "090149.325000", "090149.785000", "090150.245000", "090150.705000", "090151.165000", "090151.625000", "090152.085000", "090152.545000", "090153.005000", "090153.465000", "090153.925000", "090154.385000", "090154.845000", "090155.305000", "090155.765000", "090156.225000", "090156.685000", "090157.145000", "090157.605000", "090158.065000", "090158.525000", "090158.985000", "090159.445000", "090159.905000", "090200.365000", "090200.825000", "090201.285000", "090201.745000", "090202.205000", "090202.665000", "090203.125000", "090203.585000", "090204.045000", "090204.505000", "090204.965000", "090205.425000", "090205.885000", "090206.345000", "090206.805000", "090207.265000", "090207.725000", "090208.185000", "090208.645000", "090209.105000", "090209.565000", "090210.025000", "090210.485000", "090210.945000", "090211.405000", "090211.865000", "090212.325000", "090212.785000", "090213.245000", "090213.705000", "090214.165000", "090214.625000", "090215.085000", "090215.545000", "090216.005000", "090216.465000", "090216.925000", "090217.385000", "090217.845000", "090218.305000", "090218.765000", "090219.225000", "090219.685000", "090220.145000", "090220.605000", "090221.065000", "090221.525000", "090221.985000", "090222.445000", "090222.905000", "090223.365000", "090223.825000", "090224.285000", "090224.745000", "090225.205000", "090225.665000", "090226.125000", "090226.585000", "090227.045000", "090227.505000", "090227.965000", "090228.425000", "090228.885000", "090229.345000", "090229.805000", "090230.265000", "090230.725000", "090231.185000", "090231.645000", "090232.105000", "090232.565000", "090233.025000", "090233.485000", "090233.945000", "090234.405000", "090234.865000", "090235.325000", "090235.785000", "090236.245000", "090236.705000", "090237.165000", "090237.625000", "090238.085000", "090238.545000", "090239.005000", "090239.465000", "090239.925000", "090240.385000", "090240.845000", "090241.305000", "090241.765000", "090242.225000", "090242.685000", "090243.145000", "090243.605000", "090244.065000", "090244.525000", "090244.985000", "090245.445000", "090245.905000", "090246.365000", "090246.825000", "090247.285000", "090247.745000", "090248.205000", "090248.665000", "090249.125000", "090249.585000", "090250.045000", "090250.505000", "090250.965000", "090251.425000", "090251.885000", "090252.345000", "090252.805000", "090253.265000", "090253.725000", "090254.185000", "090254.645000", "090255.105000", "090255.565000", "090256.025000", "090256.485000", "090256.945000", "090257.405000", "090257.865000", "090258.325000", "090258.785000", "090259.245000", "090259.705000", "090300.165000", "090300.625000", "090301.085000", "090301.545000", "090302.005000", "090302.465000", "090302.925000", "090303.385000", "090303.845000", "090304.305000", "090304.765000", "090305.225000", "090305.685000", "090306.145000", "090306.605000", "090307.065000", "090307.525000", "090307.985000", "090308.445000", "090308.905000", "090309.365000", "090309.825000", "090310.285000", "090310.745000", "090311.205000", "090311.665000", "090312.125000", "090312.585000", "090313.045000", "090313.505000", "090313.965000", "090314.425000", "090314.885000", "090315.345000", "090315.805000", "090316.265000", "090316.725000", "090317.185000", "090317.645000", "090318.105000", "090318.565000", "090319.025000", "090319.485000", "090319.945000", "090320.405000", "090320.865000", "090321.325000", "090321.785000", "090322.245000", "090322.705000", "090323.165000", "090323.625000", "090324.085000", "090324.545000", "090325.005000", "090325.465000", "090325.925000", "090326.385000", "090326.845000", "090327.305000", "090327.765000", "090328.225000", "090328.685000", "090329.145000", "090329.605000", "090330.065000", "090330.525000", "090330.985000", "090331.445000", "090331.905000", "090332.365000", "090332.825000", "090333.285000", "090333.745000", "090334.205000", "090334.665000", "090335.125000", "090335.585000", "090336.045000", "090336.505000", "090336.965000", "090337.425000", "090337.885000", "090338.345000", "090338.805000", "090339.265000", "090339.725000", "090340.185000", "090340.645000", "090341.105000", "090341.565000", "090342.025000", "090342.485000", "090342.945000", "090343.405000", "090343.865000", "090344.325000", "090344.785000", "090345.245000", "090345.705000", "090346.165000", "090346.625000", "090347.085000", "090347.545000", "090348.005000", "090348.465000", "090348.925000", "090349.385000", "090349.845000", "090350.305000", "090350.765000", "090351.225000", "090351.685000", "090352.145000", "090352.605000", "090353.065000", "090353.525000", "090353.985000", "090354.445000", "090354.905000", "090355.365000", "090355.825000", "090356.285000", "090356.745000", "090357.205000", "090357.665000", "090358.125000", "090358.585000", "090359.045000", "090359.505000", "090359.965000", "090400.425000", "090400.885000", "090401.345000", "090401.805000", "090402.265000", "090402.725000", "090403.185000", "090403.645000", "090404.105000", "090404.565000", "090405.025000", "090405.485000", "090405.945000", "090406.405000", "090406.865000", "090407.325000", "090407.785000", "090408.245000", "090408.705000", "090409.165000", "090409.625000", "090410.085000", "090410.545000", "090411.005000", "090411.465000", "090411.925000", "090412.385000", "090412.845000", "090413.305000", "090413.765000", "090414.225000", "090414.685000", "090415.145000", "090415.605000", "090416.065000", "090416.525000", "090416.985000", "090417.445000", "090417.905000", "090418.365000", "090418.825000", "090419.285000", "090419.745000", "090420.205000", "090420.665000", "090421.125000", "090421.585000", "090422.045000", "090422.505000", "090422.965000", "090423.425000", "090423.885000", "090424.345000", "090424.805000", "090425.265000", "090425.725000", "090426.185000", "090426.645000", "090427.105000", "090427.565000", "090428.025000", "090428.485000", "090428.945000", "090429.405000", "090429.865000", "090430.325000", "090430.785000", "090431.245000", "090431.705000", "090432.165000", "090432.625000", "090433.085000", "090433.545000", "090434.005000", "090434.465000", "090434.925000", "090435.385000", "090435.845000", "090436.305000", "090436.765000", "090437.225000", "090437.685000", "090438.145000", "090438.605000", "090439.065000", "090439.525000", "090439.985000", "090440.445000", "090440.905000", "090441.365000", "090441.825000", "090442.285000", "090442.745000", "090443.205000", "090443.665000", "090444.125000", "090444.585000", "090445.045000", "090445.505000", "090445.965000", "090446.425000", "090446.885000", "090447.345000", "090447.805000", "090448.265000", "090448.725000", "090449.185000", "090449.645000", "090450.105000", "090450.565000", "090451.025000", "090451.485000", "090451.945000", "090452.405000", "090452.865000", "090453.325000", "090453.785000", "090454.245000", "090454.705000", "090455.165000", "090455.625000", "090456.085000", "090456.545000", "090457.005000", "090457.465000", "090457.925000", "090458.385000", "090458.845000", "090459.305000", "090459.765000", "090500.225000", "090500.685000", "090501.145000", "090501.605000", "090502.065000", "090502.525000", "090502.985000", "090503.445000", "090503.905000", "090504.365000", "090504.825000", "090505.285000", "090505.745000", "090506.205000", "090506.665000", "090507.125000", "090507.585000", "090508.045000", "090508.505000", "090508.965000", "090509.425000", "090509.885000", "090510.345000", "090510.805000", "090511.265000", "090511.725000", "090512.185000", "090512.645000", "090513.105000", "090513.565000", "090514.025000", "090514.485000", "090514.945000", "090515.405000", "090515.865000", "090516.325000", "090516.785000", "090517.245000", "090517.705000", "090518.165000", "090518.625000", "090519.085000", "090519.545000", "090520.005000", "090520.465000", "090520.925000", "090521.385000", "090521.845000", "090522.305000", "090522.765000", "090523.225000", "090523.685000", "090524.145000", "090524.605000", "090525.065000", "090525.525000", "090525.985000", "090526.445000", "090526.905000", "090527.365000", "090527.825000", "090528.285000", "090528.745000", "090529.205000", "090529.665000", "090530.125000", "090530.585000", "090531.045000", "090531.505000", "090531.965000", "090532.425000", "090532.885000", "090533.345000", "090533.805000", "090534.265000", "090534.725000", "090535.185000", "090535.645000", "090536.105000", "090536.565000", "090537.025000", "090537.485000", "090537.945000", "090538.405000", "090538.865000", "090539.325000", "090539.785000", "090540.245000", "090540.705000", "090541.165000", "090541.625000", "090542.085000", "090542.545000", "090543.005000", "090543.465000", "090543.925000", "090544.385000", "090544.845000", "090545.305000", "090545.765000", "090546.225000", "090546.685000", "090547.145000", "090547.605000", "090548.065000", "090548.525000", "090548.985000", "090549.445000", "090549.905000", "090550.365000", "090550.825000", "090551.285000", "090551.745000", "090552.205000", "090552.665000", "090553.125000", "090553.585000", "090554.045000", "090554.505000", "090554.965000", "090555.425000", "090555.885000", "090556.345000", "090556.805000", "090557.265000", "090557.725000", "090558.185000", "090558.645000", "090559.105000", "090559.565000", "090600.025000", "090600.485000", "090600.945000", "090601.405000", "090601.865000", "090602.325000", "090602.785000", "090603.245000", "090603.705000", "090604.165000", "090604.625000", "090605.085000", "090605.545000", "090606.005000", "090606.465000", "090606.925000", "090607.385000", "090607.845000", "090608.305000", "090608.765000", "090609.225000", "090609.685000", "090610.145000", "090610.605000", "090611.065000", "090611.525000", "090611.985000", "090612.445000", "090612.905000", "090613.365000"],
