{
  "AcquisitionMatrixPE": 140,
  "AcquisitionNumber": 1,
  "AcquisitionTime": "19:02:11.620000",
  "BandwidthPerPixelPhaseEncode": 10.352,
  "BaseResolution": 140,
  "BodyPartExamined": "BRAIN",
  "ConsistencyInfo": "N4_VE11E_LATEST_20181129",
  "ConversionSoftware": "dcm2niix",
  "ConversionSoftwareVersion": "v1.0.20201102",
  "DerivedVendorReportedEchoSpacing": 0.000689998,
  "DeviceSerialNumber": "66112",
  "DiffusionScheme": "Monopolar",
  "DwellTime": 2.1e-06,
  "EchoTime": 0.088,
  "EchoTrainLength": 105,
  "EffectiveEchoSpacing": 0.000689998,
  "FlipAngle": 90,
  "ImageComments": "Unaliased MB3/PE3",
  "ImageOrientationPatientDICOM": [0.998812, 0.0352767, 0.0336243, -0.0437837, 0.952541, 0.301246],
  "ImageType": [
    "ORIGINAL",
    "PRIMARY",
    "DIFFUSION",
    "NONE",
    "MB",
    "ND"
],
  "ImagingFrequency": 123.259,
  "InPlanePhaseEncodingDirectionDICOM": "COL",
  "InstitutionAddress": "Maynard 3,Hanover,NH,US,03755",
  "InstitutionName": "Dartmouth College - PBS",
  "InstitutionalDepartmentName": "Department",
  "IntendedFor": [
    "ses-01/dwi/sub-0126_ses-01_acq-96dirX6b0Xmb_dwi.nii.gz"
],
  "MRAcquisitionType": "2D",
  "MagneticFieldStrength": 3,
  "Manufacturer": "Siemens",
  "ManufacturersModelName": "Prisma",
  "Modality": "MR",
  "MultibandAccelerationFactor": 3,
  "PartialFourier": 0.75,
  "PatientPosition": "HFS",
  "PercentPhaseFOV": 100,
  "PercentSampling": 100,
  "PhaseEncodingDirection": "j",
  "PhaseEncodingSteps": 105,
  "PhaseResolution": 1,
  "PixelBandwidth": 1700,
  "ProcedureStepDescription": "Wager_Wager^1076_spacetop",
  "ProtocolName": "dwi_acq-discorr-PA",
  "PulseSequenceDetails": "%CustomerSeq%\\cmrr_mbep2d_diff",
  "ReceiveCoilActiveElements": "HEA;HEP",
  "ReceiveCoilName": "Head_32",
  "ReconMatrixPE": 140,
  "RepetitionTime": 4.1,
  "SAR": 0.17122,
  "ScanOptions": "PFP\\FS",
  "ScanningSequence": "EP",
  "SequenceName": "ep_b0",
  "SequenceVariant": "SK\\SS",
  "SeriesDescription": "dwi_acq-discorr-PA",
  "SeriesNumber": 6,
  "ShimSetting": [4219, -7794, -7205, 72, -112, -184, -44, 124],
  "SliceThickness": 1.7,
  "SliceTiming": [0, 2.10938, 0.14062, 2.26562, 0.29688, 2.40625, 0.45312, 2.5625, 0.59375, 2.71875, 0.75, 2.85938, 0.90625, 3.01562, 1.04688, 3.17188, 1.20312, 3.3125, 1.35938, 3.46875, 1.5, 3.625, 1.65625, 3.76562, 1.8125, 3.92188, 1.95312, 0, 2.10938, 0.14062, 2.26562, 0.29688, 2.40625, 0.45312, 2.5625, 0.59375, 2.71875, 0.75, 2.85938, 0.90625, 3.01562, 1.04688, 3.17188, 1.20312, 3.3125, 1.35938, 3.46875, 1.5, 3.625, 1.65625, 3.76562, 1.8125, 3.92188, 1.95312, 0, 2.10938, 0.14062, 2.26562, 0.29688, 2.40625, 0.45312, 2.5625, 0.59375, 2.71875, 0.75, 2.85938, 0.90625, 3.01562, 1.04688, 3.17188, 1.20312, 3.3125, 1.35938, 3.46875, 1.5, 3.625, 1.65625, 3.76562, 1.8125, 3.92188, 1.95312],
  "SoftwareVersions": "syngo MR E11",
  "SpacingBetweenSlices": 1.7,
  "StationName": "AWP66112",
  "TotalReadoutTime": 0.0959097,
  "TxRefAmp": 289.95,
  "WipMemBlock": "9c0c7b7e-408b-446b-8fce-cf4b70ba32ee||Sequence: R016 ve11e/master r/434b28f1; Aug  7 2019 19:06:17 by eja",
  "dcmmeta_affine": [
    [-1.7122488021850586, -0.0750577449798584, 0.03638267517089844, 129.8046875],
    [-0.06047431007027626, 1.6329271793365479, 0.5140113830566406, -89.90626525878906],
    [0.05764171481132507, -0.5164210200309753, 1.6200218200683594, -37.60371017456055],
    [0.0, 0.0, 0.0, 1.0]
],
  "dcmmeta_reorient_transform": [
    [0.0, -1.0, 0.0, 139.0],
    [1.0, 0.0, 0.0, 0.0],
    [0.0, 0.0, -1.0, 80.0],
    [0.0, 0.0, 0.0, 1.0]
],
  "dcmmeta_shape": [140, 140, 81],
  "dcmmeta_slice_dim": 2,
  "dcmmeta_version": 0.6,
  "global": {
    "const": {
      "AccessionNumber": "A004818",
      "AcquisitionMatrix": [140, 0, 0, 140],
      "AcquisitionNumber": 1,
      "AngioFlag": "N",
      "BitsAllocated": 16,
      "BitsStored": 16,
      "BodyPartExamined": "BRAIN",
      "Columns": 140,
      "EchoNumbers": 1,
      "EchoTime": 88.0,
      "EchoTrainLength": 105,
      "FlipAngle": 90.0,
      "HighBit": 15,
      "ImageOrientationPatient": [0.99881177411154, 0.035276679553, 0.0336243330918, -0.0437836855317, 0.95254085647414, 0.30124559022296],
      "ImageType": [
        "ORIGINAL",
        "PRIMARY",
        "DIFFUSION",
        "NONE",
        "MB",
        "ND"
],
      "ImagedNucleus": "1H",
      "ImagingFrequency": 123.258993,
      "InPlanePhaseEncodingDirection": "COL",
      "MRAcquisitionType": "2D",
      "MagneticFieldStrength": 3.0,
      "Manufacturer": "SIEMENS",
      "ManufacturerModelName": "Prisma",
      "Modality": "MR",
      "NumberOfAverages": 1.0,
      "NumberOfPhaseEncodingSteps": 105,
      "PercentPhaseFieldOfView": 100.0,
      "PercentSampling": 100.0,
      "PerformedProcedureStepStartTime": "180928.663000",
      "PhotometricInterpretation": "MONOCHROME2",
      "PixelBandwidth": 1700.0,
      "PixelRepresentation": 0,
      "PixelSpacing": [1.7142857313156, 1.7142857313156],
      "ProtocolName": "dwi_acq-discorr-PA",
      "RepetitionTime": 4100.0,
      "Rows": 140,
      "SAR": 0.17121963642373,
      "SamplesPerPixel": 1,
      "ScanOptions": [
        "PFP",
        "FS"
],
      "ScanningSequence": "EP",
      "SequenceName": "ep_b0",
      "SequenceVariant": [
        "SK",
        "SS"
],
      "SeriesDescription": "dwi_acq-discorr-PA",
      "SeriesNumber": 6,
      "SeriesTime": "190216.383000",
      "SliceThickness": 1.7000000476837,
      "SmallestImagePixelValue": 0,
      "SoftwareVersions": "syngo MR E11",
      "SpacingBetweenSlices": 1.7,
      "SpecificCharacterSet": "ISO_IR 100",
      "StudyID": "1",
      "StudyTime": "180928.555000",
      "TransmitCoilName": "Body",
      "VariableFlipAngleFlag": "N",
      "WindowCenterWidthExplanation": "Algo1"
    },
    "slices": {
      "AcquisitionTime": ["190211.620000", "190213.735000", "190211.770000", "190213.887500", "190211.922500", "190214.037500", "190212.072500", "190214.187500", "190212.225000", "190214.340000", "190212.375000", "190214.490000", "190212.527500", "190214.642500", "190212.677500", "190214.792500", "190212.827500", "190214.945000", "190212.980000", "190215.095000", "190213.130000", "190215.247500", "190213.282500", "190215.397500", "190213.432500", "190215.547500", "190213.585000", "190211.620000", "190213.735000", "190211.770000", "190213.887500", "190211.922500", "190214.037500", "190212.072500", "190214.187500", "190212.225000", "190214.340000", "190212.375000", "190214.490000", "190212.527500", "190214.642500", "190212.677500", "190214.792500", "190212.827500", "190214.945000", "190212.980000", "190215.095000", "190213.130000", "190215.247500", "190213.282500", "190215.397500", "190213.432500", "190215.547500", "190213.585000", "190211.620000", "190213.735000", "190211.770000", "190213.887500", "190211.922500", "190214.037500", "190212.072500", "190214.187500", "190212.225000", "190214.340000", "190212.375000", "190214.490000", "190212.527500", "190214.642500", "190212.677500", "190214.792500", "190212.827500", "190214.945000", "190212.980000", "190215.095000", "190213.130000", "190215.247500", "190213.282500", "190215.397500", "190213.432500", "190215.547500", "190213.585000"],
      "ContentTime": ["190216.386000", "190216.475000", "190216.393000", "190216.481000", "190216.402000", "190216.488000", "190216.408000", "190216.495000", "190216.415000", "190216.506000", "190216.421000", "190216.512000", "190216.427000", "190216.518000", "190216.433000", "190216.525000", "190216.439000", "190216.531000", "190216.445000", "190216.537000", "190216.451000", "190216.544000", "190216.457000", "190216.550000", "190216.463000", "190216.556000", "190216.469000", "190216.389000", "190216.477000", "190216.398000", "190216.484000", "190216.404000", "190216.490000", "190216.411000", "190216.497000", "190216.417000", "190216.508000", "190216.423000", "190216.514000", "190216.429000", "190216.520000", "190216.435000", "190216.527000", "190216.441000", "190216.533000", "190216.447000", "190216.539000", "190216.453000", "190216.546000", "190216.459000", "190216.552000", "190216.465000", "190216.558000", "190216.471000", "190216.391000", "190216.479000", "190216.400000", "190216.486000", "190216.406000", "190216.492000", "190216.413000", "190216.499000", "190216.419000", "190216.510000", "190216.425000", "190216.516000", "190216.431000", "190216.522000", "190216.437000", "190216.529000", "190216.443000", "190216.535000", "190216.449000", "190216.541000", "190216.455000", "190216.548000", "190216.461000", "190216.554000", "190216.467000", "190216.560000", "190216.473000"],
      "CsaImage.GSWDDataType": [
        "predicted",
        "predicted",
        "predicted",
        "predicted",
        "predicted",
        "predicted",
        "predicted",
        "predicted",
        "predicted",
        "predicted",
        "predicted",
        "predicted",
        "predicted",
        "predicted",
        "predicted",
        "predicted",
        "predicted",
        "predicted",
        "predicted",
        "predicted",
        "predicted",
        "predicted",
        "predicted",
        "measured",
        "predicted",
        "measured",
        "predicted",
        "predicted",
        "predicted",
        "predicted",
        "predicted",
        "predicted",
        "predicted",
        "predicted",
        "predicted",
        "predicted",
        "predicted",
        "predicted",
        "predicted",
        "predicted",
        "predicted",
        "predicted",
        "predicted",
        "predicted",
        "predicted",
        "predicted",
        "predicted",
        "predicted",
        "predicted",
        "predicted",
        "measured",
        "predicted",
        "measured",
        "predicted",
        "predicted",
        "predicted",
        "predicted",
        "predicted",
        "predicted",
        "predicted",
        "predicted",
        "predicted",
        "predicted",
        "predicted",
        "predicted",
        "predicted",
        "predicted",
        "predicted",
        "predicted",
        "predicted",
        "predicted",
        "predicted",
        "predicted",
        "predicted",
        "predicted",
        "predicted",
        "predicted",
        "measured",
        "predicted",
        "measured",
        "predicted"
],
      "CsaImage.ICE_Dims": [
        "X_1_1_1_1_1_1_1_1_1_1_1_89",
        "X_1_1_1_1_1_1_42_1_1_2_1_89",
        "X_1_1_1_1_1_1_2_1_1_3_1_89",
        "X_1_1_1_1_1_1_43_1_1_4_1_89",
        "X_1_1_1_1_1_1_3_1_1_5_1_89",
        "X_1_1_1_1_1_1_44_1_1_6_1_89",
        "X_1_1_1_1_1_1_4_1_1_7_1_89",
        "X_1_1_1_1_1_1_45_1_1_8_1_89",
        "X_1_1_1_1_1_1_5_1_1_9_1_89",
        "X_1_1_1_1_1_1_46_1_1_10_1_89",
        "X_1_1_1_1_1_1_6_1_1_11_1_89",
        "X_1_1_1_1_1_1_47_1_1_12_1_89",
        "X_1_1_1_1_1_1_7_1_1_13_1_89",
        "X_1_1_1_1_1_1_48_1_1_14_1_89",
        "X_1_1_1_1_1_1_8_1_1_15_1_89",
        "X_1_1_1_1_1_1_49_1_1_16_1_89",
        "X_1_1_1_1_1_1_9_1_1_17_1_89",
        "X_1_1_1_1_1_1_50_1_1_18_1_89",
        "X_1_1_1_1_1_1_10_1_1_19_1_89",
        "X_1_1_1_1_1_1_51_1_1_20_1_89",
        "X_1_1_1_1_1_1_11_1_1_21_1_89",
        "X_1_1_1_1_1_1_52_1_1_22_1_89",
        "X_1_1_1_1_1_1_12_1_1_23_1_89",
        "X_1_1_1_1_1_1_53_1_1_24_1_89",
        "X_1_1_1_1_1_1_13_1_1_25_1_89",
        "X_1_1_1_1_1_1_54_1_1_26_1_89",
        "X_1_1_1_1_1_1_14_1_1_27_1_89",
        "X_1_1_1_1_1_1_55_1_1_28_1_89",
        "X_1_1_1_1_1_1_15_1_1_29_1_89",
        "X_1_1_1_1_1_1_56_1_1_30_1_89",
        "X_1_1_1_1_1_1_16_1_1_31_1_89",
        "X_1_1_1_1_1_1_57_1_1_32_1_89",
        "X_1_1_1_1_1_1_17_1_1_33_1_89",
        "X_1_1_1_1_1_1_58_1_1_34_1_89",
        "X_1_1_1_1_1_1_18_1_1_35_1_89",
        "X_1_1_1_1_1_1_59_1_1_36_1_89",
        "X_1_1_1_1_1_1_19_1_1_37_1_89",
        "X_1_1_1_1_1_1_60_1_1_38_1_89",
        "X_1_1_1_1_1_1_20_1_1_39_1_89",
        "X_1_1_1_1_1_1_61_1_1_40_1_89",
        "X_1_1_1_1_1_1_21_1_1_41_1_89",
        "X_1_1_1_1_1_1_62_1_1_42_1_89",
        "X_1_1_1_1_1_1_22_1_1_43_1_89",
        "X_1_1_1_1_1_1_63_1_1_44_1_89",
        "X_1_1_1_1_1_1_23_1_1_45_1_89",
        "X_1_1_1_1_1_1_64_1_1_46_1_89",
        "X_1_1_1_1_1_1_24_1_1_47_1_89",
        "X_1_1_1_1_1_1_65_1_1_48_1_89",
        "X_1_1_1_1_1_1_25_1_1_49_1_89",
        "X_1_1_1_1_1_1_66_1_1_50_1_89",
        "X_1_1_1_1_1_1_26_1_1_51_1_89",
        "X_1_1_1_1_1_1_67_1_1_52_1_89",
        "X_1_1_1_1_1_1_27_1_1_53_1_89",
        "X_1_1_1_1_1_1_68_1_1_54_1_89",
        "X_1_1_1_1_1_1_28_1_1_55_1_89",
        "X_1_1_1_1_1_1_69_1_1_56_1_89",
        "X_1_1_1_1_1_1_29_1_1_57_1_89",
        "X_1_1_1_1_1_1_70_1_1_58_1_89",
        "X_1_1_1_1_1_1_30_1_1_59_1_89",
        "X_1_1_1_1_1_1_71_1_1_60_1_89",
        "X_1_1_1_1_1_1_31_1_1_61_1_89",
        "X_1_1_1_1_1_1_72_1_1_62_1_89",
        "X_1_1_1_1_1_1_32_1_1_63_1_89",
        "X_1_1_1_1_1_1_73_1_1_64_1_89",
        "X_1_1_1_1_1_1_33_1_1_65_1_89",
        "X_1_1_1_1_1_1_74_1_1_66_1_89",
        "X_1_1_1_1_1_1_34_1_1_67_1_89",
        "X_1_1_1_1_1_1_75_1_1_68_1_89",
        "X_1_1_1_1_1_1_35_1_1_69_1_89",
        "X_1_1_1_1_1_1_76_1_1_70_1_89",
        "X_1_1_1_1_1_1_36_1_1_71_1_89",
        "X_1_1_1_1_1_1_77_1_1_72_1_89",
        "X_1_1_1_1_1_1_37_1_1_73_1_89",
        "X_1_1_1_1_1_1_78_1_1_74_1_89",
        "X_1_1_1_1_1_1_38_1_1_75_1_89",
        "X_1_1_1_1_1_1_79_1_1_76_1_89",
        "X_1_1_1_1_1_1_39_1_1_77_1_89",
        "X_1_1_1_1_1_1_80_1_1_78_1_89",
        "X_1_1_1_1_1_1_40_1_1_79_1_89",
        "X_1_1_1_1_1_1_81_1_1_80_1_89",
        "X_1_1_1_1_1_1_41_1_1_81_1_89"
],
      "CsaImage.ProtocolSliceNumber": [0, 1, 2, 3, 4, 5, 6, 7, 8, 9, 10, 11, 12, 13, 14, 15, 16, 17, 18, 19, 20, 21, 22, 23, 24, 25, 26, 27, 28, 29, 30, 31, 32, 33, 34, 35, 36, 37, 38, 39, 40, 41, 42, 43, 44, 45, 46, 47, 48, 49, 50, 51, 52, 53, 54, 55, 56, 57, 58, 59, 60, 61, 62, 63, 64, 65, 66, 67, 68, 69, 70, 71, 72, 73, 74, 75, 76, 77, 78, 79, 80],
      "CsaImage.RFSWDDataType": [
        "predicted",
        "predicted",
        "predicted",
        "predicted",
        "predicted",
        "predicted",
        "predicted",
        "predicted",
        "predicted",
        "predicted",
        "predicted",
        "predicted",
        "predicted",
        "predicted",
        "predicted",
        "predicted",
        "predicted",
        "predicted",
        "predicted",
        "predicted",
        "predicted",
        "predicted",
        "predicted",
        "measured",
        "predicted",
        "measured",
        "predicted",
        "predicted",
        "predicted",
        "predicted",
        "predicted",
        "predicted",
        "predicted",
        "predicted",
        "predicted",
        "predicted",
        "predicted",
        "predicted",
        "predicted",
        "predicted",
        "predicted",
        "predicted",
        "predicted",
        "predicted",
        "predicted",
        "predicted",
        "predicted",
        "predicted",
        "predicted",
        "predicted",
        "measured",
        "predicted",
        "measured",
        "predicted",
        "predicted",
        "predicted",
        "predicted",
        "predicted",
        "predicted",
        "predicted",
        "predicted",
        "predicted",
        "predicted",
        "predicted",
        "predicted",
        "predicted",
        "predicted",
        "predicted",
        "predicted",
        "predicted",
        "predicted",
        "predicted",
        "predicted",
        "predicted",
        "predicted",
        "predicted",
        "predicted",
        "measured",
        "predicted",
        "measured",
        "predicted"
],
      "CsaImage.SlicePosition_PCS": [
        [-119.37165132, -137.07059146, -109.38617342],
        [-119.408034, -137.58460285, -107.76614779],
        [-119.44441667, -138.09861614, -106.14612978],
        [-119.48079935, -138.61262752, -104.52610415],
        [-119.51718202, -139.1266389, -102.90608614],
        [-119.5535647, -139.64065029, -101.28606432],
        [-119.58994737, -140.15466167, -99.6660425],
        [-119.62633052, -140.66867496, -98.0460245],
        [-119.6627132, -141.18268634, -96.42600268],
        [-119.69909587, -141.69669772, -94.80598086],
        [-119.73547855, -142.21070911, -93.18595904],
        [-119.77186122, -142.72472049, -91.56593722],
        [-119.8082439, -143.23873187, -89.94591921],
        [-119.84462657, -143.75274516, -88.32589739],
        [-119.88100925, -144.26675655, -86.70587557],
        [-119.91739192, -144.78076793, -85.08585375],
        [-119.9537746, -145.29477931, -83.46583193],
        [-119.99015775, -145.8087907, -81.84581393],
        [-120.02654043, -146.32280399, -80.22579211],
        [-120.0629231, -146.83681537, -78.60577029],
        [-120.09930578, -147.35082675, -76.98574847],
        [-120.13568845, -147.86483814, -75.36572665],
        [-120.17207113, -148.37884952, -73.74570864],
        [-120.2084538, -148.8928609, -72.12568682],
        [-120.24483648, -149.40687419, -70.505665],
        [-120.28121915, -149.92088558, -68.88564318],
        [-120.31760183, -150.43489696, -67.26562327],
        [-120.35398498, -150.94891025, -65.64560145],
        [-120.39036766, -151.46292163, -64.02558154],
        [-120.42675033, -151.97693302, -62.40555972],
        [-120.46313301, -152.4909444, -60.78553789],
        [-120.49951568, -153.00495578, -59.16551798],
        [-120.53589836, -153.51896716, -57.54549616],
        [-120.57228103, -154.03297855, -55.9254753],
        [-120.60866371, -154.54698993, -54.30545443],
        [-120.64504638, -155.06100131, -52.68543356],
        [-120.68142953, -155.5750127, -51.06541174],
        [-120.71781221, -156.08902789, -49.44539088],
        [-120.75419488, -156.60303928, -47.82537001],
        [-120.79057756, -157.11705066, -46.20534914],
        [-120.82696023, -157.63106204, -44.5853278],
        [-120.86334291, -158.14507343, -42.96530693],
        [-120.89972559, -158.65908481, -41.34528583],
        [-120.93610826, -159.17309619, -39.72526481],
        [-120.97249094, -159.68710758, -38.10524386],
        [-121.00887361, -160.20111896, -36.48522275],
        [-121.04525676, -160.71513034, -34.86520165],
        [-121.08163944, -161.22914173, -33.24518078],
        [-121.11802211, -161.74315692, -31.62515944],
        [-121.15440479, -162.25716831, -30.00513857],
        [-121.19078746, -162.77117969, -28.38511771],
        [-121.22717014, -163.28519107, -26.76509589],
        [-121.26355281, -163.79920246, -25.14507502],
        [-121.29993549, -164.31321384, -23.52505511],
        [-121.33631816, -164.82722522, -21.90503329],
        [-121.37270132, -165.3412366, -20.28501147],
        [-121.40908399, -165.85524799, -18.66499155],
        [-121.44546667, -166.36925937, -17.04496973],
        [-121.48184934, -166.88327075, -15.42494982],
        [-121.51823202, -167.39728595, -13.804928],
        [-121.55461469, -167.91129733, -12.18490618],
        [-121.59099737, -168.42530872, -10.56488627],
        [-121.62738004, -168.9393201, -8.94486445],
        [-121.66376272, -169.45333148, -7.32484454],
        [-121.70014539, -169.96734287, -5.70482272],
        [-121.73652854, -170.48135425, -4.0848009],
        [-121.77291122, -170.99536563, -2.46477908],
        [-121.80929389, -171.50937702, -0.84476107],
        [-121.84567657, -172.0233884, 0.77526075],
        [-121.88205925, -172.53739978, 2.39528257],
        [-121.91844192, -173.05141498, 4.01530439],
        [-121.9548246, -173.56542636, 5.63532621],
        [-121.99120727, -174.07943775, 7.25534422],
        [-122.02758995, -174.59344913, 8.87536604],
        [-122.0639731, -175.10746051, 10.49538786],
        [-122.10035577, -175.62147189, 12.11540968],
        [-122.13673845, -176.13548328, 13.7354315],
        [-122.17312112, -176.64949466, 15.3554495],
        [-122.2095038, -177.16350604, 16.97547132],
        [-122.24588647, -177.67751743, 18.59549314],
        [-122.28226915, -178.19152881, 20.21551496]
],
      "CsaImage.TimeAfterStart": [16.4, 18.515, 16.55, 18.665, 16.7025, 18.8175, 16.8525, 18.9675, 17.0025, 19.12, 17.155, 19.27, 17.305, 19.4225, 17.4575, 19.5725, 17.6075, 19.7225, 17.76, 19.875, 17.91, 20.025, 18.0625, 20.1775, 18.2125, 20.3275, 18.3625, 16.4, 18.515, 16.55, 18.665, 16.7025, 18.8175, 16.8525, 18.9675, 17.0025, 19.12, 17.155, 19.27, 17.305, 19.4225, 17.4575, 19.5725, 17.6075, 19.7225, 17.76, 19.875, 17.91, 20.025, 18.0625, 20.1775, 18.2125, 20.3275, 18.3625, 16.4, 18.515, 16.55, 18.665, 16.7025, 18.8175, 16.8525, 18.9675, 17.0025, 19.12, 17.155, 19.27, 17.305, 19.4225, 17.4575, 19.5725, 17.6075, 19.7225, 17.76, 19.875, 17.91, 20.025, 18.0625, 20.1775, 18.2125, 20.3275, 18.3625],
      "ImagePositionPatient": [
        [-119.37165132052, -137.07059146274, -109.38617342353],
        [-119.40803399569, -137.5846028458, -107.76614778876],
        [-119.44441667086, -138.0986161362, -106.14612978339],
        [-119.48079934603, -138.61262751926, -104.52610414863],
        [-119.51718202121, -139.12663890232, -102.90608614326],
        [-119.55356469638, -139.64065028537, -101.28606432319],
        [-119.58994737155, -140.15466166843, -99.666042503119],
        [-119.62633052356, -140.66867495883, -98.046024497748],
        [-119.66271319873, -141.18268634189, -96.42600267768],
        [-119.6990958739, -141.69669772495, -94.805980857612],
        [-119.73547854907, -142.210709108, -93.185959037543],
        [-119.77186122424, -142.72472049106, -91.565937217475],
        [-119.80824389941, -143.23873187412, -89.945919212104],
        [-119.84462657458, -143.75274516452, -88.325897392036],
        [-119.88100924975, -144.26675654758, -86.705875571967],
        [-119.91739192492, -144.78076793064, -85.085853751899],
        [-119.95377460009, -145.29477931369, -83.46583193183],
        [-119.9901577521, -145.80879069675, -81.845813926459],
        [-120.02654042727, -146.32280398715, -80.225792106391],
        [-120.06292310244, -146.83681537021, -78.605770286323],
        [-120.09930577761, -147.35082675327, -76.985748466254],
        [-120.13568845278, -147.86483813632, -75.365726646186],
        [-120.17207112796, -148.37884951938, -73.745708640815],
        [-120.20845380313, -148.89286090244, -72.125686820746],
        [-120.2448364783, -149.40687419284, -70.505665000678],
        [-120.28121915347, -149.9208855759, -68.88564318061],
        [-120.31760182864, -150.43489695896, -67.26562326789],
        [-120.35398498065, -150.94891024936, -65.645601447822],
        [-120.39036765582, -151.46292163242, -64.025581535102],
        [-120.42675033099, -151.97693301548, -62.405559715034],
        [-120.46313300616, -152.49094439853, -60.785537894965],
        [-120.49951568133, -153.00495578159, -59.165517982245],
        [-120.5358983565, -153.51896716465, -57.545496162177],
        [-120.57228103167, -154.0329785477, -55.925475295783],
        [-120.60866370684, -154.54698993076, -54.305454429389],
        [-120.64504638201, -155.06100131381, -52.685433562995],
        [-120.68142953402, -155.57501269687, -51.065411742927],
        [-120.71781220919, -156.08902789463, -49.445390876533],
        [-120.75419488436, -156.60303927768, -47.825370010139],
        [-120.79057755954, -157.11705066074, -46.205349143744],
        [-120.82696023471, -157.6310620438, -44.585327800513],
        [-120.86334290988, -158.14507342685, -42.965306934119],
        [-120.89972558505, -158.65908480991, -41.345285829307],
        [-120.93610826022, -159.17309619297, -39.725264813901],
        [-120.97249093539, -159.68710757602, -38.1052438581],
        [-121.00887361056, -160.20111895908, -36.485222753287],
        [-121.04525676257, -160.71513034214, -34.865201648475],
        [-121.08163943774, -161.22914172519, -33.245180782081],
        [-121.11802211291, -161.74315692295, -31.625159438849],
        [-121.15440478808, -162.257168306, -30.005138572455],
        [-121.19078746325, -162.77117968906, -28.385117706061],
        [-121.22717013842, -163.28519107212, -26.765095885993],
        [-121.26355281359, -163.79920245517, -25.145075019599],
        [-121.29993548877, -164.31321383823, -23.525055106879],
        [-121.33631816394, -164.82722522129, -21.905033286811],
        [-121.37270131594, -165.34123660434, -20.285011466743],
        [-121.40908399111, -165.8552479874, -18.664991554023],
        [-121.44546666629, -166.36925937046, -17.044969733954],
        [-121.48184934146, -166.88327075351, -15.424949821235],
        [-121.51823201663, -167.39728595127, -13.804928001166],
        [-121.5546146918, -167.91129733432, -12.184906181098],
        [-121.59099736697, -168.42530871738, -10.564886268378],
        [-121.62738004214, -168.93932010044, -8.9448644483099],
        [-121.66376271731, -169.45333148349, -7.3248445355902],
        [-121.70014539248, -169.96734286655, -5.7048227155218],
        [-121.73652854449, -170.48135424961, -4.0848008954535],
        [-121.77291121966, -170.99536563266, -2.4647790753851],
        [-121.80929389483, -171.50937701572, -0.844761070014],
        [-121.84567657, -172.02338839878, 0.77526075005435],
        [-121.88205924517, -172.53739978183, 2.3952825701227],
        [-121.91844192034, -173.05141497959, 4.0153043901911],
        [-121.95482459552, -173.56542636264, 5.6353262102594],
        [-121.99120727069, -174.0794377457, 7.2553442156305],
        [-122.02758994586, -174.59344912876, 8.8753660356989],
        [-122.06397309787, -175.10746051181, 10.495387855767],
        [-122.10035577304, -175.62147189487, 12.115409675836],
        [-122.13673844821, -176.13548327793, 13.735431495904],
        [-122.17312112338, -176.64949466098, 15.355449501275],
        [-122.20950379855, -177.16350604404, 16.975471321343],
        [-122.24588647372, -177.6775174271, 18.595493141412],
        [-122.28226914889, -178.19152881015, 20.21551496148]
],
      "InstanceCreationTime": ["190216.386000", "190216.475000", "190216.393000", "190216.481000", "190216.402000", "190216.488000", "190216.408000", "190216.495000", "190216.415000", "190216.506000", "190216.421000", "190216.512000", "190216.427000", "190216.518000", "190216.433000", "190216.525000", "190216.439000", "190216.531000", "190216.445000", "190216.537000", "190216.451000", "190216.544000", "190216.457000", "190216.550000", "190216.463000", "190216.556000", "190216.469000", "190216.389000", "190216.477000", "190216.398000", "190216.484000", "190216.404000", "190216.490000", "190216.411000", "190216.497000", "190216.417000", "190216.508000", "190216.423000", "190216.514000", "190216.429000", "190216.520000", "190216.435000", "190216.527000", "190216.441000", "190216.533000", "190216.447000", "190216.539000", "190216.453000", "190216.546000", "190216.459000", "190216.552000", "190216.465000", "190216.558000", "190216.471000", "190216.391000", "190216.479000", "190216.400000", "190216.486000", "190216.406000", "190216.492000", "190216.413000", "190216.499000", "190216.419000", "190216.510000", "190216.425000", "190216.516000", "190216.431000", "190216.522000", "190216.437000", "190216.529000", "190216.443000", "190216.535000", "190216.449000", "190216.541000", "190216.455000", "190216.548000", "190216.461000", "190216.554000", "190216.467000", "190216.560000", "190216.473000"],
      "InstanceNumber": [1, 2, 3, 4, 5, 6, 7, 8, 9, 10, 11, 12, 13, 14, 15, 16, 17, 18, 19, 20, 21, 22, 23, 24, 25, 26, 27, 28, 29, 30, 31, 32, 33, 34, 35, 36, 37, 38, 39, 40, 41, 42, 43, 44, 45, 46, 47, 48, 49, 50, 51, 52, 53, 54, 55, 56, 57, 58, 59, 60, 61, 62, 63, 64, 65, 66, 67, 68, 69, 70, 71, 72, 73, 74, 75, 76, 77, 78, 79, 80, 81],
      "LargestImagePixelValue": [18990, 17046, 19804, 23634, 31980, 29020, 24213, 23746, 26603, 27380, 34848, 41400, 42396, 44954, 33314, 35093, 25679, 27867, 32684, 34737, 43106, 43196, 49322, 54057, 47235, 36159, 34521, 46210, 65535, 65535, 65535, 65535, 65535, 65535, 65535, 65535, 65535, 65535, 65535, 65535, 65535, 57531, 53713, 46499, 44468, 48933, 42322, 37028, 45291, 50066, 45369, 50418, 39878, 42648, 47604, 44879, 47961, 54846, 51700, 51139, 57836, 53135, 60135, 65535, 59310, 49436, 54250, 52172, 51833, 65535, 60565, 62144, 54442, 52687, 65535, 60858, 51252, 50987, 28832, 9858, 6641],
      "SliceLocation": [-60.24055680531, -58.540552552886, -56.840554994215, -55.140550741791, -53.440553759826, -51.740553142632, -50.040552525437, -48.340554956561, -46.640554339367, -44.940553722172, -43.240553104978, -41.540552487783, -39.840555505818, -38.140554311918, -36.440553694723, -34.740553077529, -33.040552460335, -31.340555468164, -29.640554274264, -27.94055365707, -26.240553039875, -24.540552422681, -22.840555440716, -21.140554823521, -19.440553629621, -17.740553012426, -16.040554212847, -14.340553008741, -12.640554209162, -10.940553591967, -9.2405529747726, -7.5405541751927, -5.8405535579982, -4.1405538496111, -2.4405541412239, -0.7405544328368, 0.95944619456281, 2.6594470563612, 4.3594467647484, 6.0594464731355, 7.7594466359264, 9.4594463443135, 11.159446279903, 12.859446130291, 14.559445923879, 16.259445859468, 17.959445805262, 19.659445513649, 21.359446829851, 23.059446538238, 24.759446246625, 26.45944686382, 28.159446572207, 29.859445371787, 31.559445988981, 33.259446616381, 34.959445415961, 36.659446033155, 38.359444832735, 40.059446603341, 41.759447220535, 43.459446020115, 45.15944663731, 46.859445436889, 48.559446054084, 50.259446681483, 51.959447298678, 53.659444280643, 55.359444897838, 57.059445515032, 58.759447285638, 60.459447902832, 62.159444884797, 63.859445501992, 65.559446129392, 67.259446746586, 68.959447363781, 70.659444345746, 72.35944496294, 74.059445580135, 75.759446197329],
