{
  "AcquisitionMatrixPE": 140,
  "AcquisitionNumber": 1,
  "AcquisitionTime": "09:35:10.077500",
  "BandwidthPerPixelPhaseEncode": 10.352,
  "BaseResolution": 140,
  "BodyPartExamined": "BRAIN",
  "ConsistencyInfo": "N4_VE11C_LATEST_20160120",
  "ConversionSoftware": "dcm2niix",
  "ConversionSoftwareVersion": "v1.0.20201102",
  "DerivedVendorReportedEchoSpacing": 0.000689998,
  "DeviceSerialNumber": "66112",
  "DiffusionScheme": "Monopolar",
  "DwellTime": 2.1e-06,
  "EchoTime": 0.0884,
  "EchoTrainLength": 105,
  "EffectiveEchoSpacing": 0.000689998,
  "FlipAngle": 90,
  "ImageComments": "Unaliased MB3/PE3 SENSE1",
  "ImageOrientationPatientDICOM": [0.996761, 0.0432897, 0.0677738, -0.0450884, 0.998664, 0.0252382],
  "ImageType": [
    "ORIGINAL",
    "PRIMARY",
    "DIFFUSION",
    "NONE",
    "MB",
    "ND",
    "MOSAIC"
],
  "ImagingFrequency": 123.252,
  "InPlanePhaseEncodingDirectionDICOM": "COL",
  "InstitutionAddress": "Maynard 3,Hanover,NH,US,03755",
  "InstitutionName": "Dartmouth College - PBS",
  "InstitutionalDepartmentName": "Department",
  "MRAcquisitionType": "2D",
  "MagneticFieldStrength": 3,
  "Manufacturer": "Siemens",
  "ManufacturersModelName": "Prisma",
  "Modality": "MR",
  "MultibandAccelerationFactor": 3,
  "PartialFourier": 0.75,
  "PatientPosition": "HFS",
  "PercentPhaseFOV": 100,
  "PercentSampling": 100,
  "PhaseEncodingDirection": "j-",
  "PhaseEncodingSteps": 105,
  "PhaseResolution": 1,
  "PixelBandwidth": 1700,
  "ProcedureStepDescription": "Wager_Wager^1076_spacetop",
  "ProtocolName": "dwi_acq-96dir-6b0-mb",
  "PulseSequenceDetails": "%CustomerSeq%\\cmrr_mbep2d_diff",
  "ReceiveCoilActiveElements": "HEA;HEP",
  "ReceiveCoilName": "Head_32",
  "ReconMatrixPE": 140,
  "RepetitionTime": 4.11,
  "SAR": 0.26144,
  "ScanOptions": "PFP\\FS",
  "ScanningSequence": "EP",
  "SequenceName": "ep_b5#1",
  "SequenceVariant": "SK\\SS",
  "SeriesDescription": "dwi_acq-96dir-6b0-mb",
  "SeriesNumber": 8,
  "ShimSetting": [4181, -7730, -7245, 654, 44, -90, 19, 46],
  "SliceThickness": 1.7,
  "SliceTiming": [0, 2.12, 0.15, 2.27, 0.3025, 2.4225, 0.4525, 2.575, 0.605, 2.725, 0.755, 2.8775, 0.9075, 3.0275, 1.06, 3.18, 1.21, 3.3325, 1.3625, 3.4825, 1.5125, 3.635, 1.665, 3.785, 1.8175, 3.9375, 1.9675, 0, 2.12, 0.15, 2.27, 0.3025, 2.4225, 0.4525, 2.575, 0.605, 2.725, 0.755, 2.8775, 0.9075, 3.0275, 1.06, 3.18, 1.21, 3.3325, 1.3625, 3.4825, 1.5125, 3.635, 1.665, 3.785, 1.8175, 3.9375, 1.9675, 0, 2.12, 0.15, 2.27, 0.3025, 2.4225, 0.4525, 2.575, 0.605, 2.725, 0.755, 2.8775, 0.9075, 3.0275, 1.06, 3.18, 1.21, 3.3325, 1.3625, 3.4825, 1.5125, 3.635, 1.665, 3.785, 1.8175, 3.9375, 1.9675],
  "SoftwareVersions": "syngo MR E11",
  "SpacingBetweenSlices": 1.7,
  "StationName": "AWP66112",
  "TotalReadoutTime": 0.0959097,
  "TxRefAmp": 268.764,
  "WipMemBlock": "39e78fde-0981-4875-a46b-e42ff0645464||Sequence: R016 ve11c/master r/e634e98; Dec 19 2017 11:11:25 by eja",
  "dcmmeta_affine": [
    [-1.708733320236206, -0.07729436457157135, 0.11320429295301437, 122.88388061523438],
    [-0.07421088218688965, 1.7119957208633423, 0.047960881143808365, -82.31795501708984],
    [0.11618375033140182, -0.043265510350465775, 1.695548415184021, -45.305503845214844],
    [0.0, 0.0, 0.0, 1.0]
],
  "dcmmeta_reorient_transform": [
    [0.0, -1.0, 0.0, 139.0],
    [1.0, 0.0, 0.0, 0.0],
    [0.0, 0.0, 1.0, 0.0],
    [0.0, 0.0, 0.0, 1.0]
],
  "dcmmeta_shape": [140, 140, 81, 103],
  "dcmmeta_slice_dim": 2,
  "dcmmeta_version": 0.6,
  "global": {
    "const": {
      "AccessionNumber": "A003733",
      "AcquisitionMatrix": [140, 0, 0, 140],
      "AngioFlag": "N",
      "BitsAllocated": 16,
      "BitsStored": 16,
      "BodyPartExamined": "BRAIN",
      "Columns": 1260,
      "EchoNumbers": 1,
      "EchoTime": 88.4,
      "EchoTrainLength": 105,
      "FlipAngle": 90.0,
      "HighBit": 15,
      "ImageOrientationPatient": [0.99676110900357, 0.04328968198756, 0.06777385197404, -0.0450883804621, 0.998664143005, 0.02523821355396],
      "ImagePositionPatient": [-1025.7457893845, -1155.9251247759, -140.61099456723],
      "ImageType": [
        "ORIGINAL",
        "PRIMARY",
        "DIFFUSION",
        "NONE",
        "MB",
        "ND",
        "MOSAIC"
],
      "ImagedNucleus": "1H",
      "ImagingFrequency": 123.252133,
      "InPlanePhaseEncodingDirection": "COL",
      "MRAcquisitionType": "2D",
      "MagneticFieldStrength": 3.0,
      "Manufacturer": "SIEMENS",
      "ManufacturerModelName": "Prisma",
      "Modality": "MR",
      "NumberOfAverages": 1.0,
      "NumberOfPhaseEncodingSteps": 105,
      "PercentPhaseFieldOfView": 100.0,
      "PercentSampling": 100.0,
      "PerformedProcedureStepStartTime": "090819.556000",
      "PhotometricInterpretation": "MONOCHROME2",
      "PixelBandwidth": 1700.0,
      "PixelRepresentation": 0,
      "PixelSpacing": [1.7142857313156, 1.7142857313156],
      "ProtocolName": "dwi_acq-96dir-6b0-mb",
      "RepetitionTime": 4110.0,
      "Rows": 1260,
      "SAR": 0.2614402427734,
      "SamplesPerPixel": 1,
      "ScanOptions": [
        "PFP",
        "FS"
],
      "ScanningSequence": "EP",
      "SequenceVariant": [
        "SK",
        "SS"
],
      "SeriesDescription": "dwi_acq-96dir-6b0-mb",
      "SeriesNumber": 8,
      "SeriesTime": "093640.023000",
      "SliceLocation": -39.326316313628,
      "SliceThickness": 1.7000000476837,
      "SmallestImagePixelValue": 0,
      "SoftwareVersions": "syngo MR E11",
      "SpacingBetweenSlices": 1.699999943445,
      "SpecificCharacterSet": "ISO_IR 100",
      "StudyID": "2",
      "StudyTime": "090819.488000",
      "TransmitCoilName": "Body",
      "VariableFlipAngleFlag": "N",
      "WindowCenterWidthExplanation": "Algo1",
      "dBdt": 0.0},
    "slices": {}
  },
  "time": {
    "samples": {
      "AcquisitionNumber": [1, 2, 3, 4, 5, 6, 7, 8, 9, 10, 11, 12, 13, 14, 15, 16, 17, 18, 19, 20, 21, 22, 23, 24, 25, 26, 27, 28, 29, 30, 31, 32, 33, 34, 35, 36, 37, 38, 39, 40, 41, 42, 43, 44, 45, 46, 47, 48, 49, 50, 51, 52, 53, 54, 55, 56, 57, 58, 59, 60, 61, 62, 63, 64, 65, 66, 67, 68, 69, 70, 71, 72, 73, 74, 75, 76, 77, 78, 79, 80, 81, 82, 83, 84, 85, 86, 87, 88, 89, 90, 91, 92, 93, 94, 95, 96, 97, 98, 99, 100, 101, 102, 103],
      "AcquisitionTime": ["093510.077500", "093514.187500", "093518.297500", "093522.407500", "093526.517500", "093530.627500", "093534.737500", "093538.847500", "093542.957500", "093547.067500", "093551.177500", "093555.287500", "093559.397500", "093603.507500", "093607.617500", "093611.727500", "093615.837500", "093619.947500", "093624.057500", "093628.167500", "093632.277500", "093636.387500", "093640.497500", "093644.607500", "093648.717500", "093652.827500", "093656.937500", "093701.047500", "093705.157500", "093709.267500", "093713.377500", "093717.487500", "093721.597500", "093725.707500", "093729.817500", "093733.927500", "093738.037500", "093742.147500", "093746.257500", "093750.367500", "093754.477500", "093758.587500", "093802.697500", "093806.807500", "093810.917500", "093815.027500", "093819.137500", "093823.247500", "093827.357500", "093831.467500", "093835.577500", "093839.687500", "093843.797500", "093847.907500", "093852.017500", "093856.127500", "093900.237500", "093904.347500", "093908.457500", "093912.567500", "093916.677500", "093920.787500", "093924.897500", "093929.007500", "093933.117500", "093937.227500", "093941.337500", "093945.447500", "093949.557500", "093953.667500", "093957.777500", "094001.887500", "094005.997500", "094010.107500", "094014.217500", "094018.327500", "094022.437500", "094026.547500", "094030.657500", "094034.767500", "094038.877500", "094042.987500", "094047.097500", "094051.207500", "094055.317500", "094059.427500", "094103.537500", "094107.647500", "094111.757500", "094115.867500", "094119.977500", "094124.087500", "094128.197500", "094132.307500", "094136.417500", "094140.527500", "094144.637500", "094148.747500", "094152.857500", "094156.967500", "094201.077500", "094205.187500", "094209.297500"],
      "ContentTime": ["093640.027000", "093640.032000", "093640.046000", "093640.049000", "093640.053000", "093640.056000", "093640.060000", "093640.063000", "093640.072000", "093640.075000", "093640.079000", "093640.082000", "093640.086000", "093640.094000", "093640.097000", "093640.101000", "093640.104000", "093640.107000", "093640.111000", "093640.114000", "093640.118000", "093800.021000", "093800.025000", "093800.028000", "093800.032000", "093800.035000", "093800.038000", "093800.042000", "093800.045000", "093800.049000", "093800.052000", "093800.055000", "093800.059000", "093800.062000", "093800.065000", "093800.069000", "093800.072000", "093800.076000", "093800.079000", "093800.082000", "093800.094000", "093940.023000", "093940.027000", "093940.031000", "093940.034000", "093940.038000", "093940.041000", "093940.045000", "093940.048000", "093940.051000", "093940.055000", "093940.058000", "093940.062000", "093940.066000", "093940.069000", "093940.073000", "093940.076000", "093940.080000", "093940.083000", "093940.087000", "093940.090000", "093940.093000", "093940.097000", "093940.101000", "093940.104000", "094100.022000", "094100.026000", "094100.029000", "094100.033000", "094100.036000", "094100.039000", "094100.043000", "094100.046000", "094100.050000", "094100.053000", "094100.057000", "094100.060000", "094100.063000", "094100.067000", "094100.070000", "094100.073000", "094100.077000", "094100.080000", "094100.084000", "094100.087000", "094213.451000", "094213.457000", "094213.461000", "094213.465000", "094213.469000", "094213.473000", "094213.477000", "094213.483000", "094213.486000", "094213.490000", "094213.494000", "094213.498000", "094213.503000", "094213.507000", "094213.510000", "094213.514000", "094213.518000", "094213.523000"],
      "InstanceCreationTime": ["093640.027000", "093640.032000", "093640.046000", "093640.049000", "093640.053000", "093640.056000", "093640.060000", "093640.063000", "093640.072000", "093640.075000", "093640.079000", "093640.082000", "093640.086000", "093640.094000", "093640.097000", "093640.101000", "093640.104000", "093640.107000", "093640.111000", "093640.114000", "093640.118000", "093800.021000", "093800.025000", "093800.028000", "093800.032000", "093800.035000", "093800.038000", "093800.042000", "093800.045000", "093800.049000", "093800.052000", "093800.055000", "093800.059000", "093800.062000", "093800.065000", "093800.069000", "093800.072000", "093800.076000", "093800.079000", "093800.082000", "093800.094000", "093940.023000", "093940.027000", "093940.031000", "093940.034000", "093940.038000", "093940.041000", "093940.045000", "093940.048000", "093940.051000", "093940.055000", "093940.058000", "093940.062000", "093940.066000", "093940.069000", "093940.073000", "093940.076000", "093940.080000", "093940.083000", "093940.087000", "093940.090000", "093940.093000", "093940.097000", "093940.101000", "093940.104000", "094100.022000", "094100.026000", "094100.029000", "094100.033000", "094100.036000", "094100.039000", "094100.043000", "094100.046000", "094100.050000", "094100.053000", "094100.057000", "094100.060000", "094100.063000", "094100.067000", "094100.070000", "094100.073000", "094100.077000", "094100.080000", "094100.084000", "094100.087000", "094213.451000", "094213.457000", "094213.461000", "094213.465000", "094213.469000", "094213.473000", "094213.477000", "094213.483000", "094213.486000", "094213.490000", "094213.494000", "094213.498000", "094213.503000", "094213.507000", "094213.510000", "094213.514000", "094213.518000", "094213.523000"],
      "InstanceNumber": [1, 2, 3, 4, 5, 6, 7, 8, 9, 10, 11, 12, 13, 14, 15, 16, 17, 18, 19, 20, 21, 22, 23, 24, 25, 26, 27, 28, 29, 30, 31, 32, 33, 34, 35, 36, 37, 38, 39, 40, 41, 42, 43, 44, 45, 46, 47, 48, 49, 50, 51, 52, 53, 54, 55, 56, 57, 58, 59, 60, 61, 62, 63, 64, 65, 66, 67, 68, 69, 70, 71, 72, 73, 74, 75, 76, 77, 78, 79, 80, 81, 82, 83, 84, 85, 86, 87, 88, 89, 90, 91, 92, 93, 94, 95, 96, 97, 98, 99, 100, 101, 102, 103],
      "LargestImagePixelValue": [65535, 65535, 52289, 52095, 51860, 54439, 51774, 52692, 65535, 35657, 37525, 36542, 36077, 37061, 36653, 37998, 38444, 39757, 36297, 35642, 37212, 35950, 38726, 39655, 65535, 19632, 20025, 19758, 19912, 19483, 21533, 19482, 20316, 19201, 20068, 18687, 19275, 19442, 20283, 20326, 65535, 11975, 11514, 12373, 11549, 10929, 11601, 11585, 11373, 11828, 12193, 12331, 11928, 11494, 12561, 11587, 11863, 11207, 12799, 11672, 11669, 11985, 11577, 11604, 11355, 12741, 11447, 11384, 11657, 11683, 12054, 12274, 11789, 65535, 11491, 11372, 11010, 10947, 11453, 12298, 11260, 12015, 11453, 11821, 10557, 11822, 11705, 12116, 11309, 12080, 12119, 11260, 11367, 10570, 12646, 12970, 12021, 10879, 12410, 11076, 11836, 12519, 65535],
      "SequenceName": [
 "ep_b5#1",
 "ep_b5#1",
 "ep_b500#2",
 "ep_b495#3",
 "ep_b500#4",
 "ep_b505#5",
 "ep_b495#6",
 "ep_b500#7",
 "ep_b5#8",
 "ep_b1000#9",
 "ep_b1005#10",
 "ep_b995#11",
 "ep_b1005#12",
 "ep_b995#13",
 "ep_b995#14",
 "ep_b1005#15",
 "ep_b1000#16",
 "ep_b1005#17",
 "ep_b1000#18",
 "ep_b1000#19",
 "ep_b995#20",
 "ep_b1000#21",
 "ep_b1005#22",
 "ep_b1005#23",
 "ep_b5#24",
 "ep_b2000#25",
 "ep_b1995#26",
 "ep_b1990#27",
 "ep_b2000#28",
 "ep_b2005#29",
 "ep_b2010#30",
 "ep_b2000#31",
 "ep_b2010#32",
 "ep_b1995#33",
 "ep_b1995#34",
 "ep_b1995#35",
 "ep_b2005#36",
 "ep_b2000#37",
 "ep_b2005#38",
 "ep_b1995#39",
 "ep_b5#40",
 "ep_b3000#41",
 "ep_b3005#42",
 "ep_b3010#43",
 "ep_b3010#44",
 "ep_b3000#45",
 "ep_b3000#46",
 "ep_b2990#47",
 "ep_b3005#48",
 "ep_b3005#49",
 "ep_b2990#50",
 "ep_b2990#51",
 "ep_b2995#52",
 "ep_b2995#53",
 "ep_b3005#54",
 "ep_b3000#55",
 "ep_b2995#56",
 "ep_b2995#57",
 "ep_b2990#58",
 "ep_b2990#59",
 "ep_b3000#60",
 "ep_b2990#61",
 "ep_b2990#62",
 "ep_b2995#63",
 "ep_b3000#64",
 "ep_b3010#65",
 "ep_b3000#66",
 "ep_b3005#67",
 "ep_b3010#68",
 "ep_b3005#69",
 "ep_b3005#70",
 "ep_b3005#71",
 "ep_b2990#72",
 "ep_b5#73",
 "ep_b3010#74",
 "ep_b3000#75",
 "ep_b3005#76",
 "ep_b3000#77",
 "ep_b2990#78",
 "ep_b3005#79",
 "ep_b2995#80",
 "ep_b3010#81",
 "ep_b3005#82",
 "ep_b3005#83",
 "ep_b3000#84",
 "ep_b3000#85",
 "ep_b3010#86",
 "ep_b3010#87",
 "ep_b2990#88",
 "ep_b3010#89",
 "ep_b2990#90",
 "ep_b2995#91",
 "ep_b2990#92",
 "ep_b2995#93",
 "ep_b3005#94",
 "ep_b3005#95",
 "ep_b2995#96",
 "ep_b3000#97",
 "ep_b2990#98",
 "ep_b2995#99",
 "ep_b3000#100",
 "ep_b2995#101",
 "ep_b5#102"
],
      "WindowCenter": [10974.0, 10984.0, 7757.0, 7781.0, 7748.0, 7732.0, 7788.0, 7771.0, 10974.0, 5930.0, 5858.0, 5901.0, 5853.0, 5908.0, 5932.0, 5884.0, 5947.0, 5927.0, 5915.0, 5889.0, 5970.0, 5883.0, 5915.0, 5936.0, 10984.0, 3837.0, 3810.0, 3792.0, 3874.0, 3805.0, 3792.0, 3795.0, 3775.0, 3858.0, 3849.0, 3819.0, 3775.0, 3779.0, 3823.0, 3791.0, 10981.0, 2731.0, 2645.0, 2715.0, 2675.0, 2685.0, 2711.0, 2718.0, 2642.0, 2686.0, 2672.0, 2710.0, 2710.0, 2733.0, 2715.0, 2665.0, 2718.0, 2645.0, 2740.0, 2691.0, 2670.0, 2704.0, 2757.0, 2712.0, 2700.0, 2724.0, 2665.0, 2690.0, 2708.0, 2715.0, 2701.0, 2738.0, 2730.0, 10990.0, 2676.0, 2672.0, 2609.0, 2639.0, 2649.0, 2670.0, 2640.0, 2669.0, 2707.0, 2678.0, 2681.0, 2713.0, 2656.0, 2645.0, 2682.0, 2685.0, 2749.0, 2648.0, 2661.0, 2715.0, 2686.0, 2747.0, 2778.0, 2637.0, 2741.0, 2635.0, 2714.0, 2752.0, 10998.0],
      "WindowWidth": [25197.0, 25234.0, 16485.0, 16530.0, 16453.0, 16440.0, 16563.0, 16512.0, 25204.0, 12691.0, 12576.0, 12639.0, 12579.0, 12673.0, 12715.0, 12612.0, 12711.0, 12687.0, 12669.0, 12604.0, 12764.0, 12609.0, 12666.0, 12664.0, 25227.0, 8604.0, 8546.0, 8534.0, 8656.0, 8555.0, 8518.0, 8523.0, 8499.0, 8641.0, 8621.0, 8580.0, 8503.0, 8492.0, 8567.0, 8517.0, 25220.0, 6506.0, 6296.0, 6425.0, 6336.0, 6410.0, 6426.0, 6435.0, 6289.0, 6412.0, 6331.0, 6393.0, 6449.0, 6512.0, 6430.0, 6357.0, 6483.0, 6297.0, 6458.0, 6372.0, 6343.0, 6405.0, 6513.0, 6428.0, 6406.0, 6434.0, 6350.0, 6395.0, 6430.0, 6474.0, 6447.0, 6469.0, 6447.0, 25260.0, 6342.0, 6353.0, 6237.0, 6303.0, 6306.0, 6338.0, 6308.0, 6322.0, 6428.0, 6375.0, 6425.0, 6463.0, 6307.0, 6287.0, 6375.0, 6354.0, 6513.0, 6308.0, 6320.0, 6470.0, 6371.0, 6506.0, 6552.0, 6295.0, 6467.0, 6286.0, 6460.0, 6498.0, 25264.0]
    },
    "slices": {}
  }
}