{
  "AcquisitionMatrixPE": 82,
  "AcquisitionNumber": 1,
  "AcquisitionTime": "20:54:42.892500",
  "BandwidthPerPixelPhaseEncode": 24.888,
  "BaseResolution": 82,
  "BodyPartExamined": "BRAIN",
  "ConsistencyInfo": "N4_VE11E_LATEST_20181129",
  "ConversionSoftware": "dcm2niix",
  "ConversionSoftwareVersion": "v1.0.20201102",
  "DerivedVendorReportedEchoSpacing": 0.00049,
  "DeviceSerialNumber": "66112",
  "DwellTime": 2e-06,
  "EchoTime": 0.0272,
  "EchoTrainLength": 82,
  "EffectiveEchoSpacing": 0.00049,
  "FlipAngle": 44,
  "ImageComments": "Unaliased MB8/PE3",
  "ImageOrientationPatientDICOM": [0.99455, 0.0217364, 0.101972, -0.0288227, 0.997232, 0.0685426],
  "ImageType": [
    "ORIGINAL",
    "PRIMARY",
    "M",
    "MB",
    "ND",
    "NORM",
    "MOSAIC"
],
  "ImagingFrequency": 123.259,
  "InPlanePhaseEncodingDirectionDICOM": "COL",
  "InstitutionAddress": "Maynard 3,Hanover,NH,US,03755",
  "InstitutionName": "Dartmouth College - PBS",
  "InstitutionalDepartmentName": "Department",
  "MRAcquisitionType": "2D",
  "MagneticFieldStrength": 3,
  "Manufacturer": "Siemens",
  "ManufacturersModelName": "Prisma",
  "Modality": "MR",
  "MultibandAccelerationFactor": 8,
  "PartialFourier": 1,
  "PatientPosition": "HFS",
  "PercentPhaseFOV": 100,
  "PercentSampling": 100,
  "PhaseEncodingDirection": "j-",
  "PhaseEncodingSteps": 82,
  "PhaseResolution": 1,
  "PixelBandwidth": 3050,
  "ProcedureStepDescription": "Wager_Wager^1076_spacetop",
  "ProtocolName": "func_run-01_task-alignvideo_acq-ap-mb8",
  "PulseSequenceDetails": "%CustomerSeq%\\cmrr_mbep2d_bold",
  "ReceiveCoilActiveElements": "HEA;HEP",
  "ReceiveCoilName": "Head_32",
  "ReconMatrixPE": 82,
  "RepetitionTime": 0.46,
  "SAR": 0.0849993,
  "ScanOptions": "FS",
  "ScanningSequence": "EP",
  "SequenceName": "epfid2d1_82",
  "SequenceVariant": "SK\\SS",
  "SeriesDescription": "func_run-01_task-alignvideo_acq-ap-mb8",
  "SeriesNumber": 30,
  "ShimSetting": [4246, -7815, -7284, 161, -134, -91, -110, 43],
  "SliceThickness": 2.7,
  "SliceTiming": [0, 0.2525, 0.0625, 0.315, 0.125, 0.3775, 0.1875, 0, 0.2525, 0.0625, 0.315, 0.125, 0.3775, 0.1875, 0, 0.2525, 0.0625, 0.315, 0.125, 0.3775, 0.1875, 0, 0.2525, 0.0625, 0.315, 0.125, 0.3775, 0.1875, 0, 0.2525, 0.0625, 0.315, 0.125, 0.3775, 0.1875, 0, 0.2525, 0.0625, 0.315, 0.125, 0.3775, 0.1875, 0, 0.2525, 0.0625, 0.315, 0.125, 0.3775, 0.1875, 0, 0.2525, 0.0625, 0.315, 0.125, 0.3775, 0.1875],
  "SoftwareVersions": "syngo MR E11",
  "SpacingBetweenSlices": 2.7,
  "StationName": "AWP66112",
  "TaskName": "alignvideo",
  "TotalReadoutTime": 0.03969,
  "TxRefAmp": 230.817,
  "WipMemBlock": "a39421ed-e2c5-40e1-872b-0d4e9371e763||Sequence: R016 ve11e/master r/434b28f1; Aug  7 2019 18:53:46 by eja",
  "dcmmeta_affine": [
    [-2.668304443359375, -0.07732916623353958, 0.27053916454315186, 107.93890380859375],
    [-0.058317042887210846, 2.67549991607666, 0.19199207425117493, -90.19757843017578],
    [0.27358299493789673, -0.18389490246772766, 2.6795425415039062, -91.74288177490234],
    [0.0, 0.0, 0.0, 1.0]
],
  "dcmmeta_reorient_transform": [
    [0.0, -1.0, 0.0, 81.0],
    [1.0, 0.0, 0.0, 0.0],
    [0.0, 0.0, 1.0, 0.0],
    [0.0, 0.0, 0.0, 1.0]
],
  "dcmmeta_shape": [82, 82, 56, 1073],
  "dcmmeta_slice_dim": 2,
  "dcmmeta_version": 0.6,
  "global": {
    "const": {
      "AccessionNumber": "A004478",
      "AcquisitionMatrix": [82, 0, 0, 82],
      "AngioFlag": "N",
      "BitsAllocated": 16,
      "BitsStored": 16,
      "BodyPartExamined": "BRAIN",
      "Columns": 656,
      "EchoNumbers": 1,
      "EchoTime": 27.2,
      "EchoTrainLength": 82,
      "FlipAngle": 44.0,
      "HighBit": 15,
      "ImageOrientationPatient": [0.99454978465491, 0.02173635185271, 0.10197184342265, -0.0288226898115, 0.99723174761619, 0.06854264437838],
      "ImagePositionPatient": [-845.28511948033, -911.12336351562, -237.93452774479],
      "ImageType": [
        "ORIGINAL",
        "PRIMARY",
        "M",
        "MB",
        "ND",
        "NORM",
        "MOSAIC"
],
      "ImagedNucleus": "1H",
      "ImagingFrequency": 123.259128,
      "InPlanePhaseEncodingDirection": "COL",
      "MRAcquisitionType": "2D",
      "MagneticFieldStrength": 3.0,
      "Manufacturer": "SIEMENS",
      "ManufacturerModelName": "Prisma",
      "Modality": "MR",
      "NumberOfAverages": 1.0,
      "NumberOfPhaseEncodingSteps": 82,
      "PercentPhaseFieldOfView": 100.0,
      "PercentSampling": 100.0,
      "PerformedProcedureStepStartTime": "193430.055000",
      "PhotometricInterpretation": "MONOCHROME2",
      "PixelBandwidth": 3050.0,
      "PixelRepresentation": 0,
      "PixelSpacing": [2.6829268932343, 2.6829268932343],
      "ProtocolName": "func_run-01_task-alignvideo_acq-ap-mb8",
      "RepetitionTime": 460.0,
      "Rows": 656,
      "SAR": 0.08499933034797,
      "SamplesPerPixel": 1,
      "ScanOptions": "FS",
      "ScanningSequence": "EP",
      "SequenceName": "epfid2d1_82",
      "SequenceVariant": [
        "SK",
        "SS"
],
      "SeriesDescription": "func_run-01_task-alignvideo_acq-ap-mb8",
      "SeriesNumber": 30,
      "SeriesTime": "205511.946000",
      "SliceLocation": -86.646097654659,
      "SliceThickness": 2.7000000476837,
      "SmallestImagePixelValue": 0,
      "SoftwareVersions": "syngo MR E11",
      "SpacingBetweenSlices": 2.7000000475106,
      "SpecificCharacterSet": "ISO_IR 100",
      "StudyID": "1",
      "StudyTime": "193429.908000",
      "TransmitCoilName": "Body",
      "VariableFlipAngleFlag": "N",
      "WindowCenterWidthExplanation": "Algo1"
    },
    "slices": {}
  },
  "time": {
    "samples": {
      "AcquisitionNumber": [1, 2, 3, 4, 5, 6, 7, 8, 9, 10, 11, 12, 13, 14, 15, 16, 17, 18, 19, 20, 21, 22, 23, 24, 25, 26, 27, 28, 29, 30, 31, 32, 33, 34, 35, 36, 37, 38, 39, 40, 41, 42, 43, 44, 45, 46, 47, 48, 49, 50, 51, 52, 53, 54, 55, 56, 57, 58, 59, 60, 61, 62, 63, 64, 65, 66, 67, 68, 69, 70, 71, 72, 73, 74, 75, 76, 77, 78, 79, 80, 81, 82, 83, 84, 85, 86, 87, 88, 89, 90, 91, 92, 93, 94, 95, 96, 97, 98, 99, 100, 101, 102, 103, 104, 105, 106, 107, 108, 109, 110, 111, 112, 113, 114, 115, 116, 117, 118, 119, 120, 121, 122, 123, 124, 125, 126, 127, 128, 129, 130, 131, 132, 133, 134, 135, 136, 137, 138, 139, 140, 141, 142, 143, 144, 145, 146, 147, 148, 149, 150, 151, 152, 153, 154, 155, 156, 157, 158, 159, 160, 161, 162, 163, 164, 165, 166, 167, 168, 169, 170, 171, 172, 173, 174, 175, 176, 177, 178, 179, 180, 181, 182, 183, 184, 185, 186, 187, 188, 189, 190, 191, 192, 193, 194, 195, 196, 197, 198, 199, 200, 201, 202, 203, 204, 205, 206, 207, 208, 209, 210, 211, 212, 213, 214, 215, 216, 217, 218, 219, 220, 221, 222, 223, 224, 225, 226, 227, 228, 229, 230, 231, 232, 233, 234, 235, 236, 237, 238, 239, 240, 241, 242, 243, 244, 245, 246, 247, 248, 249, 250, 251, 252, 253, 254, 255, 256, 257, 258, 259, 260, 261, 262, 263, 264, 265, 266, 267, 268, 269, 270, 271, 272, 273, 274, 275, 276, 277, 278, 279, 280, 281, 282, 283, 284, 285, 286, 287, 288, 289, 290, 291, 292, 293, 294, 295, 296, 297, 298, 299, 300, 301, 302, 303, 304, 305, 306, 307, 308, 309, 310, 311, 312, 313, 314, 315, 316, 317, 318, 319, 320, 321, 322, 323, 324, 325, 326, 327, 328, 329, 330, 331, 332, 333, 334, 335, 336, 337, 338, 339, 340, 341, 342, 343, 344, 345, 346, 347, 348, 349, 350, 351, 352, 353, 354, 355, 356, 357, 358, 359, 360, 361, 362, 363, 364, 365, 366, 367, 368, 369, 370, 371, 372, 373, 374, 375, 376, 377, 378, 379, 380, 381, 382, 383, 384, 385, 386, 387, 388, 389, 390, 391, 392, 393, 394, 395, 396, 397, 398, 399, 400, 401, 402, 403, 404, 405, 406, 407, 408, 409, 410, 411, 412, 413, 414, 415, 416, 417, 418, 419, 420, 421, 422, 423, 424, 425, 426, 427, 428, 429, 430, 431, 432, 433, 434, 435, 436, 437, 438, 439, 440, 441, 442, 443, 444, 445, 446, 447, 448, 449, 450, 451, 452, 453, 454, 455, 456, 457, 458, 459, 460, 461, 462, 463, 464, 465, 466, 467, 468, 469, 470, 471, 472, 473, 474, 475, 476, 477, 478, 479, 480, 481, 482, 483, 484, 485, 486, 487, 488, 489, 490, 491, 492, 493, 494, 495, 496, 497, 498, 499, 500, 501, 502, 503, 504, 505, 506, 507, 508, 509, 510, 511, 512, 513, 514, 515, 516, 517, 518, 519, 520, 521, 522, 523, 524, 525, 526, 527, 528, 529, 530, 531, 532, 533, 534, 535, 536, 537, 538, 539, 540, 541, 542, 543, 544, 545, 546, 547, 548, 549, 550, 551, 552, 553, 554, 555, 556, 557, 558, 559, 560, 561, 562, 563, 564, 565, 566, 567, 568, 569, 570, 571, 572, 573, 574, 575, 576, 577, 578, 579, 580, 581, 582, 583, 584, 585, 586, 587, 588, 589, 590, 591, 592, 593, 594, 595, 596, 597, 598, 599, 600, 601, 602, 603, 604, 605, 606, 607, 608, 609, 610, 611, 612, 613, 614, 615, 616, 617, 618, 619, 620, 621, 622, 623, 624, 625, 626, 627, 628, 629, 630, 631, 632, 633, 634, 635, 636, 637, 638, 639, 640, 641, 642, 643, 644, 645, 646, 647, 648, 649, 650, 651, 652, 653, 654, 655, 656, 657, 658, 659, 660, 661, 662, 663, 664, 665, 666, 667, 668, 669, 670, 671, 672, 673, 674, 675, 676, 677, 678, 679, 680, 681, 682, 683, 684, 685, 686, 687, 688, 689, 690, 691, 692, 693, 694, 695, 696, 697, 698, 699, 700, 701, 702, 703, 704, 705, 706, 707, 708, 709, 710, 711, 712, 713, 714, 715, 716, 717, 718, 719, 720, 721, 722, 723, 724, 725, 726, 727, 728, 729, 730, 731, 732, 733, 734, 735, 736, 737, 738, 739, 740, 741, 742, 743, 744, 745, 746, 747, 748, 749, 750, 751, 752, 753, 754, 755, 756, 757, 758, 759, 760, 761, 762, 763, 764, 765, 766, 767, 768, 769, 770, 771, 772, 773, 774, 775, 776, 777, 778, 779, 780, 781, 782, 783, 784, 785, 786, 787, 788, 789, 790, 791, 792, 793, 794, 795, 796, 797, 798, 799, 800, 801, 802, 803, 804, 805, 806, 807, 808, 809, 810, 811, 812, 813, 814, 815, 816, 817, 818, 819, 820, 821, 822, 823, 824, 825, 826, 827, 828, 829, 830, 831, 832, 833, 834, 835, 836, 837, 838, 839, 840, 841, 842, 843, 844, 845, 846, 847, 848, 849, 850, 851, 852, 853, 854, 855, 856, 857, 858, 859, 860, 861, 862, 863, 864, 865, 866, 867, 868, 869, 870, 871, 872, 873, 874, 875, 876, 877, 878, 879, 880, 881, 882, 883, 884, 885, 886, 887, 888, 889, 890, 891, 892, 893, 894, 895, 896, 897, 898, 899, 900, 901, 902, 903, 904, 905, 906, 907, 908, 909, 910, 911, 912, 913, 914, 915, 916, 917, 918, 919, 920, 921, 922, 923, 924, 925, 926, 927, 928, 929, 930, 931, 932, 933, 934, 935, 936, 937, 938, 939, 940, 941, 942, 943, 944, 945, 946, 947, 948, 949, 950, 951, 952, 953, 954, 955, 956, 957, 958, 959, 960, 961, 962, 963, 964, 965, 966, 967, 968, 969, 970, 971, 972, 973, 974, 975, 976, 977, 978, 979, 980, 981, 982, 983, 984, 985, 986, 987, 988, 989, 990, 991, 992, 993, 994, 995, 996, 997, 998, 999, 1000, 1001, 1002, 1003, 1004, 1005, 1006, 1007, 1008, 1009, 1010, 1011, 1012, 1013, 1014, 1015, 1016, 1017, 1018, 1019, 1020, 1021, 1022, 1023, 1024, 1025, 1026, 1027, 1028, 1029, 1030, 1031, 1032, 1033, 1034, 1035, 1036, 1037, 1038, 1039, 1040, 1041, 1042, 1043, 1044, 1045, 1046, 1047, 1048, 1049, 1050, 1051, 1052, 1053, 1054, 1055, 1056, 1057, 1058, 1059, 1060, 1061, 1062, 1063, 1064, 1065, 1066, 1067, 1068, 1069, 1070, 1071, 1072, 1073],
      "AcquisitionTime": ["205442.892500", "205443.352500", "205443.812500", "205444.272500", "205444.732500", "205445.192500", "205445.652500", "205446.112500", "205446.572500", "205447.032500", "205447.492500", "205447.952500", "205448.412500", "205448.872500", "205449.332500", "205449.792500", "205450.252500", "205450.712500", "205451.172500", "205451.632500", "205452.092500", "205452.552500", "205453.012500", "205453.472500", "205453.932500", "205454.392500", "205454.852500", "205455.312500", "205455.772500", "205456.232500", "205456.692500", "205457.152500", "205457.612500", "205458.072500", "205458.532500", "205458.992500", "205459.452500", "205459.912500", "205500.372500", "205500.832500", "205501.292500", "205501.752500", "205502.212500", "205502.672500", "205503.132500", "205503.592500", "205504.052500", "205504.512500", "205504.972500", "205505.432500", "205505.892500", "205506.352500", "205506.812500", "205507.272500", "205507.732500", "205508.192500", "205508.652500", "205509.112500", "205509.572500", "205510.032500", "205510.492500", "205510.952500", "205511.412500", "205511.872500", "205512.332500", "205512.792500", "205513.252500", "205513.712500", "205514.172500", "205514.632500", "205515.092500", "205515.552500", "205516.012500", "205516.472500", "205516.932500", "205517.392500", "205517.852500", "205518.312500", "205518.772500", "205519.232500", "205519.692500", "205520.152500", "205520.612500", "205521.072500", "205521.532500", "205521.992500", "205522.452500", "205522.912500", "205523.372500", "205523.832500", "205524.292500", "205524.752500", "205525.212500", "205525.672500", "205526.132500", "205526.592500", "205527.052500", "205527.512500", "205527.972500", "205528.432500", "205528.892500", "205529.352500", "205529.812500", "205530.272500", "205530.732500", "205531.192500", "205531.652500", "205532.112500", "205532.572500", "205533.032500", "205533.492500", "205533.952500", "205534.412500", "205534.872500", "205535.332500", "205535.792500", "205536.252500", "205536.712500", "205537.172500", "205537.632500", "205538.092500", "205538.552500", "205539.012500", "205539.472500", "205539.932500", "205540.392500", "205540.852500", "205541.312500", "205541.772500", "205542.232500", "205542.692500", "205543.152500", "205543.612500", "205544.072500", "205544.532500", "205544.992500", "205545.452500", "205545.912500", "205546.372500", "205546.832500", "205547.292500", "205547.752500", "205548.212500", "205548.672500", "205549.132500", "205549.592500", "205550.052500", "205550.512500", "205550.972500", "205551.432500", "205551.892500", "205552.352500", "205552.812500", "205553.272500", "205553.732500", "205554.192500", "205554.652500", "205555.112500", "205555.572500", "205556.032500", "205556.492500", "205556.952500", "205557.412500", "205557.872500", "205558.332500", "205558.792500", "205559.252500", "205559.712500", "205600.172500", "205600.632500", "205601.092500", "205601.552500", "205602.012500", "205602.472500", "205602.932500", "205603.392500", "205603.852500", "205604.312500", "205604.772500", "205605.232500", "205605.692500", "205606.152500", "205606.612500", "205607.072500", "205607.532500", "205607.992500", "205608.452500", "205608.912500", "205609.372500", "205609.832500", "205610.292500", "205610.752500", "205611.212500", "205611.672500", "205612.132500", "205612.592500", "205613.052500", "205613.512500", "205613.972500", "205614.432500", "205614.892500", "205615.352500", "205615.812500", "205616.272500", "205616.732500", "205617.192500", "205617.652500", "205618.112500", "205618.572500", "205619.032500", "205619.492500", "205619.952500", "205620.412500", "205620.872500", "205621.332500", "205621.792500", "205622.252500", "205622.712500", "205623.172500", "205623.632500", "205624.092500", "205624.552500", "205625.012500", "205625.472500", "205625.932500", "205626.392500", "205626.852500", "205627.312500", "205627.772500", "205628.232500", "205628.692500", "205629.152500", "205629.612500", "205630.072500", "205630.532500", "205630.992500", "205631.452500", "205631.912500", "205632.372500", "205632.832500", "205633.292500", "205633.752500", "205634.212500", "205634.672500", "205635.132500", "205635.592500", "205636.052500", "205636.512500", "205636.972500", "205637.432500", "205637.892500", "205638.352500", "205638.812500", "205639.272500", "205639.732500", "205640.192500", "205640.652500", "205641.112500", "205641.572500", "205642.032500", "205642.492500", "205642.952500", "205643.412500", "205643.872500", "205644.332500", "205644.792500", "205645.252500", "205645.712500", "205646.172500", "205646.632500", "205647.092500", "205647.552500", "205648.012500", "205648.472500", "205648.932500", "205649.392500", "205649.852500", "205650.312500", "205650.772500", "205651.232500", "205651.692500", "205652.152500", "205652.612500", "205653.072500", "205653.532500", "205653.992500", "205654.452500", "205654.912500", "205655.372500", "205655.832500", "205656.292500", "205656.752500", "205657.212500", "205657.672500", "205658.132500", "205658.592500", "205659.052500", "205659.512500", "205659.972500", "205700.432500", "205700.892500", "205701.352500", "205701.812500", "205702.272500", "205702.732500", "205703.192500", "205703.652500", "205704.112500", "205704.572500", "205705.032500", "205705.492500", "205705.952500", "205706.412500", "205706.872500", "205707.332500", "205707.792500", "205708.252500", "205708.712500", "205709.172500", "205709.632500", "205710.092500", "205710.552500", "205711.012500", "205711.472500", "205711.932500", "205712.392500", "205712.852500", "205713.312500", "205713.772500", "205714.232500", "205714.692500", "205715.152500", "205715.612500", "205716.072500", "205716.532500", "205716.992500", "205717.452500", "205717.912500", "205718.372500", "205718.832500", "205719.292500", "205719.752500", "205720.212500", "205720.672500", "205721.132500", "205721.592500", "205722.052500", "205722.512500", "205722.972500", "205723.432500", "205723.892500", "205724.352500", "205724.812500", "205725.272500", "205725.732500", "205726.192500", "205726.652500", "205727.112500", "205727.572500", "205728.032500", "205728.492500", "205728.952500", "205729.412500", "205729.872500", "205730.332500", "205730.792500", "205731.252500", "205731.712500", "205732.172500", "205732.632500", "205733.092500", "205733.552500", "205734.012500", "205734.472500", "205734.932500", "205735.392500", "205735.852500", "205736.312500", "205736.772500", "205737.232500", "205737.692500", "205738.152500", "205738.612500", "205739.072500", "205739.532500", "205739.992500", "205740.452500", "205740.912500", "205741.372500", "205741.832500", "205742.292500", "205742.752500", "205743.212500", "205743.672500", "205744.132500", "205744.592500", "205745.052500", "205745.512500", "205745.972500", "205746.432500", "205746.892500", "205747.352500", "205747.812500", "205748.272500", "205748.732500", "205749.192500", "205749.652500", "205750.112500", "205750.572500", "205751.032500", "205751.492500", "205751.952500", "205752.412500", "205752.872500", "205753.332500", "205753.792500", "205754.252500", "205754.712500", "205755.172500", "205755.632500", "205756.092500", "205756.552500", "205757.012500", "205757.472500", "205757.932500", "205758.392500", "205758.852500", "205759.312500", "205759.772500", "205800.232500", "205800.692500", "205801.152500", "205801.612500", "205802.072500", "205802.532500", "205802.992500", "205803.452500", "205803.912500", "205804.372500", "205804.832500", "205805.292500", "205805.752500", "205806.212500", "205806.672500", "205807.132500", "205807.592500", "205808.052500", "205808.512500", "205808.972500", "205809.432500", "205809.892500", "205810.352500", "205810.812500", "205811.272500", "205811.732500", "205812.192500", "205812.652500", "205813.112500", "205813.572500", "205814.032500", "205814.492500", "205814.952500", "205815.412500", "205815.872500", "205816.332500", "205816.792500", "205817.252500", "205817.712500", "205818.172500", "205818.632500", "205819.092500", "205819.552500", "205820.012500", "205820.472500", "205820.932500", "205821.392500", "205821.852500", "205822.312500", "205822.772500", "205823.232500", "205823.692500", "205824.152500", "205824.612500", "205825.072500", "205825.532500", "205825.992500", "205826.452500", "205826.912500", "205827.372500", "205827.832500", "205828.292500", "205828.752500", "205829.212500", "205829.672500", "205830.132500", "205830.592500", "205831.052500", "205831.512500", "205831.972500", "205832.432500", "205832.892500", "205833.352500", "205833.812500", "205834.272500", "205834.732500", "205835.192500", "205835.652500", "205836.112500", "205836.572500", "205837.032500", "205837.492500", "205837.952500", "205838.412500", "205838.872500", "205839.332500", "205839.792500", "205840.252500", "205840.712500", "205841.172500", "205841.632500", "205842.092500", "205842.552500", "205843.012500", "205843.472500", "205843.932500", "205844.392500", "205844.852500", "205845.312500", "205845.772500", "205846.232500", "205846.692500", "205847.152500", "205847.612500", "205848.072500", "205848.532500", "205848.992500", "205849.452500", "205849.912500", "205850.372500", "205850.832500", "205851.292500", "205851.752500", "205852.212500", "205852.672500", "205853.132500", "205853.592500", "205854.052500", "205854.512500", "205854.972500", "205855.432500", "205855.892500", "205856.352500", "205856.812500", "205857.272500", "205857.732500", "205858.192500", "205858.652500", "205859.112500", "205859.572500", "205900.032500", "205900.492500", "205900.952500", "205901.412500", "205901.872500", "205902.332500", "205902.792500", "205903.252500", "205903.712500", "205904.172500", "205904.632500", "205905.092500", "205905.552500", "205906.012500", "205906.472500", "205906.932500", "205907.392500", "205907.852500", "205908.312500", "205908.772500", "205909.232500", "205909.692500", "205910.152500", "205910.612500", "205911.072500", "205911.532500", "205911.992500", "205912.452500", "205912.912500", "205913.372500", "205913.832500", "205914.292500", "205914.752500", "205915.212500", "205915.672500", "205916.132500", "205916.592500", "205917.052500", "205917.512500", "205917.972500", "205918.432500", "205918.892500", "205919.352500", "205919.812500", "205920.272500", "205920.732500", "205921.192500", "205921.652500", "205922.112500", "205922.572500", "205923.032500", "205923.492500", "205923.952500", "205924.412500", "205924.872500", "205925.332500", "205925.792500", "205926.252500", "205926.712500", "205927.172500", "205927.632500", "205928.092500", "205928.552500", "205929.012500", "205929.472500", "205929.932500", "205930.392500", "205930.852500", "205931.312500", "205931.772500", "205932.232500", "205932.692500", "205933.152500", "205933.612500", "205934.072500", "205934.532500", "205934.992500", "205935.452500", "205935.912500", "205936.372500", "205936.832500", "205937.292500", "205937.752500", "205938.212500", "205938.672500", "205939.132500", "205939.592500", "205940.052500", "205940.512500", "205940.972500", "205941.432500", "205941.892500", "205942.352500", "205942.812500", "205943.272500", "205943.732500", "205944.192500", "205944.652500", "205945.112500", "205945.572500", "205946.032500", "205946.492500", "205946.952500", "205947.412500", "205947.872500", "205948.332500", "205948.792500", "205949.252500", "205949.712500", "205950.172500", "205950.632500", "205951.092500", "205951.552500", "205952.012500", "205952.472500", "205952.932500", "205953.392500", "205953.852500", "205954.312500", "205954.772500", "205955.232500", "205955.692500", "205956.152500", "205956.612500", "205957.072500", "205957.532500", "205957.992500", "205958.452500", "205958.912500", "205959.372500", "205959.832500", "210000.292500", "210000.752500", "210001.212500", "210001.672500", "210002.132500", "210002.592500", "210003.052500", "210003.512500", "210003.972500", "210004.432500", "210004.892500", "210005.352500", "210005.812500", "210006.272500", "210006.732500", "210007.192500", "210007.652500", "210008.112500", "210008.572500", "210009.032500", "210009.492500", "210009.952500", "210010.412500", "210010.872500", "210011.332500", "210011.792500", "210012.252500", "210012.712500", "210013.172500", "210013.632500", "210014.092500", "210014.552500", "210015.012500", "210015.472500", "210015.932500", "210016.392500", "210016.852500", "210017.312500", "210017.772500", "210018.232500", "210018.692500", "210019.152500", "210019.612500", "210020.072500", "210020.532500", "210020.992500", "210021.452500", "210021.912500", "210022.372500", "210022.832500", "210023.292500", "210023.752500", "210024.212500", "210024.672500", "210025.132500", "210025.592500", "210026.052500", "210026.512500", "210026.972500", "210027.432500", "210027.892500", "210028.352500", "210028.812500", "210029.272500", "210029.732500", "210030.192500", "210030.652500", "210031.112500", "210031.572500", "210032.032500", "210032.492500", "210032.952500", "210033.412500", "210033.872500", "210034.332500", "210034.792500", "210035.252500", "210035.712500", "210036.172500", "210036.632500", "210037.092500", "210037.552500", "210038.012500", "210038.472500", "210038.932500", "210039.392500", "210039.852500", "210040.312500", "210040.772500", "210041.232500", "210041.692500", "210042.152500", "210042.612500", "210043.072500", "210043.532500", "210043.992500", "210044.452500", "210044.912500", "210045.372500", "210045.832500", "210046.292500", "210046.752500", "210047.212500", "210047.672500", "210048.132500", "210048.592500", "210049.052500", "210049.512500", "210049.972500", "210050.432500", "210050.892500", "210051.352500", "210051.812500", "210052.272500", "210052.732500", "210053.192500", "210053.652500", "210054.112500", "210054.572500", "210055.032500", "210055.492500", "210055.952500", "210056.412500", "210056.872500", "210057.332500", "210057.792500", "210058.252500", "210058.712500", "210059.172500", "210059.632500", "210100.092500", "210100.552500", "210101.012500", "210101.472500", "210101.932500", "210102.392500", "210102.852500", "210103.312500", "210103.772500", "210104.232500", "210104.692500", "210105.152500", "210105.612500", "210106.072500", "210106.532500", "210106.992500", "210107.452500", "210107.912500", "210108.372500", "210108.832500", "210109.292500", "210109.752500", "210110.212500", "210110.672500", "210111.132500", "210111.592500", "210112.052500", "210112.512500", "210112.972500", "210113.432500", "210113.892500", "210114.352500", "210114.812500", "210115.272500", "210115.732500", "210116.192500", "210116.652500", "210117.112500", "210117.572500", "210118.032500", "210118.492500", "210118.952500", "210119.412500", "210119.872500", "210120.332500", "210120.792500", "210121.252500", "210121.712500", "210122.172500", "210122.632500", "210123.092500", "210123.552500", "210124.012500", "210124.472500", "210124.932500", "210125.392500", "210125.852500", "210126.312500", "210126.772500", "210127.232500", "210127.692500", "210128.152500", "210128.612500", "210129.072500", "210129.532500", "210129.992500", "210130.452500", "210130.912500", "210131.372500", "210131.832500", "210132.292500", "210132.752500", "210133.212500", "210133.672500", "210134.132500", "210134.592500", "210135.052500", "210135.512500", "210135.972500", "210136.432500", "210136.892500", "210137.352500", "210137.812500", "210138.272500", "210138.732500", "210139.192500", "210139.652500", "210140.112500", "210140.572500", "210141.032500", "210141.492500", "210141.952500", "210142.412500", "210142.872500", "210143.332500", "210143.792500", "210144.252500", "210144.712500", "210145.172500", "210145.632500", "210146.092500", "210146.552500", "210147.012500", "210147.472500", "210147.932500", "210148.392500", "210148.852500", "210149.312500", "210149.772500", "210150.232500", "210150.692500", "210151.152500", "210151.612500", "210152.072500", "210152.532500", "210152.992500", "210153.452500", "210153.912500", "210154.372500", "210154.832500", "210155.292500", "210155.752500", "210156.212500", "210156.672500", "210157.132500", "210157.592500", "210158.052500", "210158.512500", "210158.972500", "210159.432500", "210159.892500", "210200.352500", "210200.812500", "210201.272500", "210201.732500", "210202.192500", "210202.652500", "210203.112500", "210203.572500", "210204.032500", "210204.492500", "210204.952500", "210205.412500", "210205.872500", "210206.332500", "210206.792500", "210207.252500", "210207.712500", "210208.172500", "210208.632500", "210209.092500", "210209.552500", "210210.012500", "210210.472500", "210210.932500", "210211.392500", "210211.852500", "210212.312500", "210212.772500", "210213.232500", "210213.692500", "210214.152500", "210214.612500", "210215.072500", "210215.532500", "210215.992500", "210216.452500", "210216.912500", "210217.372500", "210217.832500", "210218.292500", "210218.752500", "210219.212500", "210219.672500", "210220.132500", "210220.592500", "210221.052500", "210221.512500", "210221.972500", "210222.432500", "210222.892500", "210223.352500", "210223.812500", "210224.272500", "210224.732500", "210225.192500", "210225.652500", "210226.112500", "210226.572500", "210227.032500", "210227.492500", "210227.952500", "210228.412500", "210228.872500", "210229.332500", "210229.792500", "210230.252500", "210230.712500", "210231.172500", "210231.632500", "210232.092500", "210232.552500", "210233.012500", "210233.472500", "210233.932500", "210234.392500", "210234.852500", "210235.312500", "210235.772500", "210236.232500", "210236.692500", "210237.152500", "210237.612500", "210238.072500", "210238.532500", "210238.992500", "210239.452500", "210239.912500", "210240.372500", "210240.832500", "210241.292500", "210241.752500", "210242.212500", "210242.672500", "210243.132500", "210243.592500", "210244.052500", "210244.512500", "210244.972500", "210245.432500", "210245.892500", "210246.352500", "210246.812500", "210247.272500", "210247.732500", "210248.192500", "210248.652500", "210249.112500", "210249.572500", "210250.032500", "210250.492500", "210250.952500", "210251.412500", "210251.872500", "210252.332500", "210252.792500", "210253.252500", "210253.712500", "210254.172500", "210254.632500", "210255.092500", "210255.552500", "210256.012500"],
