{
  "AcquisitionMatrixPE": 82,
  "AcquisitionNumber": 1,
  "AcquisitionTime": "20:02:28.180000",
  "BandwidthPerPixelPhaseEncode": 24.888,
  "BaseResolution": 82,
  "BodyPartExamined": "BRAIN",
  "ConsistencyInfo": "N4_VE11E_LATEST_20181129",
  "ConversionSoftware": "dcm2niix",
  "ConversionSoftwareVersion": "v1.0.20201102",
  "DerivedVendorReportedEchoSpacing": 0.00049,
  "DeviceSerialNumber": "66112",
  "DwellTime": 2e-06,
  "EchoTime": 0.0272,
  "EchoTrainLength": 82,
  "EffectiveEchoSpacing": 0.00049,
  "FlipAngle": 44,
  "ImageComments": "Unaliased MB8/PE3",
  "ImageOrientationPatientDICOM": [0.994861, -0.0379318, 0.0938812, 0.0390882, 0.99918, -0.0105086],
  "ImageType": [
    "ORIGINAL",
    "PRIMARY",
    "M",
    "MB",
    "ND",
    "NORM",
    "MOSAIC"
],
  "ImagingFrequency": 123.259,
  "InPlanePhaseEncodingDirectionDICOM": "COL",
  "InstitutionAddress": "Maynard 3,Hanover,NH,US,03755",
  "InstitutionName": "Dartmouth College - PBS",
  "InstitutionalDepartmentName": "Department",
  "MRAcquisitionType": "2D",
  "MagneticFieldStrength": 3,
  "Manufacturer": "Siemens",
  "ManufacturersModelName": "Prisma",
  "Modality": "MR",
  "MultibandAccelerationFactor": 8,
  "PartialFourier": 1,
  "PatientPosition": "HFS",
  "PercentPhaseFOV": 100,
  "PercentSampling": 100,
  "PhaseEncodingDirection": "j-",
  "PhaseEncodingSteps": 82,
  "PhaseResolution": 1,
  "PixelBandwidth": 3050,
  "ProcedureStepDescription": "Wager_Wager^1076_spacetop",
  "ProtocolName": "func_run-01_task-social_acq-ap-mb8",
  "PulseSequenceDetails": "%CustomerSeq%\\cmrr_mbep2d_bold",
  "ReceiveCoilActiveElements": "HEA;HEP",
  "ReceiveCoilName": "Head_32",
  "ReconMatrixPE": 82,
  "RepetitionTime": 0.46,
  "SAR": 0.0849003,
  "ScanOptions": "FS",
  "ScanningSequence": "EP",
  "SequenceName": "epfid2d1_82",
  "SequenceVariant": "SK\\SS",
  "SeriesDescription": "func_run-01_task-social_acq-ap-mb8",
  "SeriesNumber": 12,
  "ShimSetting": [4247, -7815, -7281, 176, -136, -57, -112, 46],
  "SliceThickness": 2.7,
  "SliceTiming": [0, 0.25, 0.0625, 0.315, 0.125, 0.3775, 0.1875, 0, 0.25, 0.0625, 0.315, 0.125, 0.3775, 0.1875, 0, 0.25, 0.0625, 0.315, 0.125, 0.3775, 0.1875, 0, 0.25, 0.0625, 0.315, 0.125, 0.3775, 0.1875, 0, 0.25, 0.0625, 0.315, 0.125, 0.3775, 0.1875, 0, 0.25, 0.0625, 0.315, 0.125, 0.3775, 0.1875, 0, 0.25, 0.0625, 0.315, 0.125, 0.3775, 0.1875, 0, 0.25, 0.0625, 0.315, 0.125, 0.3775, 0.1875],
  "SoftwareVersions": "syngo MR E11",
  "SpacingBetweenSlices": 2.7,
  "StationName": "AWP66112",
  "TaskName": "social",
  "TotalReadoutTime": 0.03969,
  "TxRefAmp": 230.817,
  "WipMemBlock": "70e0bd1a-d9ab-4721-8ced-b6be4353169a||Sequence: R016 ve11e/master r/434b28f1; Aug  7 2019 18:53:46 by eja",
  "dcmmeta_affine": [
    [-2.669138193130493, 0.1048707664012909, 0.25219523906707764, 101.84513092041016],
    [0.10176830738782883, 2.6807281970977783, -0.03813555836677551, -91.3548583984375],
    [0.2518763542175293, 0.028193920850753784, 2.687925338745117, -94.37442779541016],
    [0.0, 0.0, 0.0, 1.0]
],
  "dcmmeta_reorient_transform": [
    [0.0, -1.0, 0.0, 81.0],
    [1.0, 0.0, 0.0, 0.0],
    [0.0, 0.0, 1.0, 0.0],
    [0.0, 0.0, 0.0, 1.0]
],
  "dcmmeta_shape": [82, 82, 56, 872],
  "dcmmeta_slice_dim": 2,
  "dcmmeta_version": 0.6,
  "global": {
    "const": {
      "AccessionNumber": "A004478",
      "AcquisitionMatrix": [82, 0, 0, 82],
      "AngioFlag": "N",
      "BitsAllocated": 16,
      "BitsStored": 16,
      "BodyPartExamined": "BRAIN",
      "Columns": 656,
      "EchoNumbers": 1,
      "EchoTime": 27.2,
      "EchoTrainLength": 82,
      "FlipAngle": 44.0,
      "HighBit": 15,
      "ImageOrientationPatient": [0.99486054271641, -0.0379318236151, 0.09388118716363, 0.03908819466062, 0.99918050494412, -0.0105086430041],
      "ImagePositionPatient": [-906.48020791194, -865.94563555523, -156.28757937913],
      "ImageType": [
        "ORIGINAL",
        "PRIMARY",
        "M",
        "MB",
        "ND",
        "NORM",
        "MOSAIC"
],
      "ImagedNucleus": "1H",
      "ImagingFrequency": 123.259115,
      "InPlanePhaseEncodingDirection": "COL",
      "MRAcquisitionType": "2D",
      "MagneticFieldStrength": 3.0,
      "Manufacturer": "SIEMENS",
      "ManufacturerModelName": "Prisma",
      "Modality": "MR",
      "NumberOfAverages": 1.0,
      "NumberOfPhaseEncodingSteps": 82,
      "PercentPhaseFieldOfView": 100.0,
      "PercentSampling": 100.0,
      "PerformedProcedureStepStartTime": "193430.055000",
      "PhotometricInterpretation": "MONOCHROME2",
      "PixelBandwidth": 3050.0,
      "PixelRepresentation": 0,
      "PixelSpacing": [2.6829268932343, 2.6829268932343],
      "ProtocolName": "func_run-01_task-social_acq-ap-mb8",
      "RepetitionTime": 460.0,
      "Rows": 656,
      "SAR": 0.08490031412422,
      "SamplesPerPixel": 1,
      "ScanOptions": "FS",
      "ScanningSequence": "EP",
      "SequenceName": "epfid2d1_82",
      "SequenceVariant": [
        "SK",
        "SS"
],
      "SeriesDescription": "func_run-01_task-social_acq-ap-mb8",
      "SeriesNumber": 12,
      "SeriesTime": "200251.944000",
      "SliceLocation": -83.149147872498,
      "SliceThickness": 2.7000000476837,
      "SmallestImagePixelValue": 0,
      "SoftwareVersions": "syngo MR E11",
      "SpacingBetweenSlices": 2.6999999893461,
      "SpecificCharacterSet": "ISO_IR 100",
      "StudyID": "1",
      "StudyTime": "193429.908000",
      "TransmitCoilName": "Body",
      "VariableFlipAngleFlag": "N",
      "WindowCenterWidthExplanation": "Algo1"
    },
    "slices": {}
  },
  "time": {
    "samples": {
      "AcquisitionNumber": [1, 2, 3, 4, 5, 6, 7, 8, 9, 10, 11, 12, 13, 14, 15, 16, 17, 18, 19, 20, 21, 22, 23, 24, 25, 26, 27, 28, 29, 30, 31, 32, 33, 34, 35, 36, 37, 38, 39, 40, 41, 42, 43, 44, 45, 46, 47, 48, 49, 50, 51, 52, 53, 54, 55, 56, 57, 58, 59, 60, 61, 62, 63, 64, 65, 66, 67, 68, 69, 70, 71, 72, 73, 74, 75, 76, 77, 78, 79, 80, 81, 82, 83, 84, 85, 86, 87, 88, 89, 90, 91, 92, 93, 94, 95, 96, 97, 98, 99, 100, 101, 102, 103, 104, 105, 106, 107, 108, 109, 110, 111, 112, 113, 114, 115, 116, 117, 118, 119, 120, 121, 122, 123, 124, 125, 126, 127, 128, 129, 130, 131, 132, 133, 134, 135, 136, 137, 138, 139, 140, 141, 142, 143, 144, 145, 146, 147, 148, 149, 150, 151, 152, 153, 154, 155, 156, 157, 158, 159, 160, 161, 162, 163, 164, 165, 166, 167, 168, 169, 170, 171, 172, 173, 174, 175, 176, 177, 178, 179, 180, 181, 182, 183, 184, 185, 186, 187, 188, 189, 190, 191, 192, 193, 194, 195, 196, 197, 198, 199, 200, 201, 202, 203, 204, 205, 206, 207, 208, 209, 210, 211, 212, 213, 214, 215, 216, 217, 218, 219, 220, 221, 222, 223, 224, 225, 226, 227, 228, 229, 230, 231, 232, 233, 234, 235, 236, 237, 238, 239, 240, 241, 242, 243, 244, 245, 246, 247, 248, 249, 250, 251, 252, 253, 254, 255, 256, 257, 258, 259, 260, 261, 262, 263, 264, 265, 266, 267, 268, 269, 270, 271, 272, 273, 274, 275, 276, 277, 278, 279, 280, 281, 282, 283, 284, 285, 286, 287, 288, 289, 290, 291, 292, 293, 294, 295, 296, 297, 298, 299, 300, 301, 302, 303, 304, 305, 306, 307, 308, 309, 310, 311, 312, 313, 314, 315, 316, 317, 318, 319, 320, 321, 322, 323, 324, 325, 326, 327, 328, 329, 330, 331, 332, 333, 334, 335, 336, 337, 338, 339, 340, 341, 342, 343, 344, 345, 346, 347, 348, 349, 350, 351, 352, 353, 354, 355, 356, 357, 358, 359, 360, 361, 362, 363, 364, 365, 366, 367, 368, 369, 370, 371, 372, 373, 374, 375, 376, 377, 378, 379, 380, 381, 382, 383, 384, 385, 386, 387, 388, 389, 390, 391, 392, 393, 394, 395, 396, 397, 398, 399, 400, 401, 402, 403, 404, 405, 406, 407, 408, 409, 410, 411, 412, 413, 414, 415, 416, 417, 418, 419, 420, 421, 422, 423, 424, 425, 426, 427, 428, 429, 430, 431, 432, 433, 434, 435, 436, 437, 438, 439, 440, 441, 442, 443, 444, 445, 446, 447, 448, 449, 450, 451, 452, 453, 454, 455, 456, 457, 458, 459, 460, 461, 462, 463, 464, 465, 466, 467, 468, 469, 470, 471, 472, 473, 474, 475, 476, 477, 478, 479, 480, 481, 482, 483, 484, 485, 486, 487, 488, 489, 490, 491, 492, 493, 494, 495, 496, 497, 498, 499, 500, 501, 502, 503, 504, 505, 506, 507, 508, 509, 510, 511, 512, 513, 514, 515, 516, 517, 518, 519, 520, 521, 522, 523, 524, 525, 526, 527, 528, 529, 530, 531, 532, 533, 534, 535, 536, 537, 538, 539, 540, 541, 542, 543, 544, 545, 546, 547, 548, 549, 550, 551, 552, 553, 554, 555, 556, 557, 558, 559, 560, 561, 562, 563, 564, 565, 566, 567, 568, 569, 570, 571, 572, 573, 574, 575, 576, 577, 578, 579, 580, 581, 582, 583, 584, 585, 586, 587, 588, 589, 590, 591, 592, 593, 594, 595, 596, 597, 598, 599, 600, 601, 602, 603, 604, 605, 606, 607, 608, 609, 610, 611, 612, 613, 614, 615, 616, 617, 618, 619, 620, 621, 622, 623, 624, 625, 626, 627, 628, 629, 630, 631, 632, 633, 634, 635, 636, 637, 638, 639, 640, 641, 642, 643, 644, 645, 646, 647, 648, 649, 650, 651, 652, 653, 654, 655, 656, 657, 658, 659, 660, 661, 662, 663, 664, 665, 666, 667, 668, 669, 670, 671, 672, 673, 674, 675, 676, 677, 678, 679, 680, 681, 682, 683, 684, 685, 686, 687, 688, 689, 690, 691, 692, 693, 694, 695, 696, 697, 698, 699, 700, 701, 702, 703, 704, 705, 706, 707, 708, 709, 710, 711, 712, 713, 714, 715, 716, 717, 718, 719, 720, 721, 722, 723, 724, 725, 726, 727, 728, 729, 730, 731, 732, 733, 734, 735, 736, 737, 738, 739, 740, 741, 742, 743, 744, 745, 746, 747, 748, 749, 750, 751, 752, 753, 754, 755, 756, 757, 758, 759, 760, 761, 762, 763, 764, 765, 766, 767, 768, 769, 770, 771, 772, 773, 774, 775, 776, 777, 778, 779, 780, 781, 782, 783, 784, 785, 786, 787, 788, 789, 790, 791, 792, 793, 794, 795, 796, 797, 798, 799, 800, 801, 802, 803, 804, 805, 806, 807, 808, 809, 810, 811, 812, 813, 814, 815, 816, 817, 818, 819, 820, 821, 822, 823, 824, 825, 826, 827, 828, 829, 830, 831, 832, 833, 834, 835, 836, 837, 838, 839, 840, 841, 842, 843, 844, 845, 846, 847, 848, 849, 850, 851, 852, 853, 854, 855, 856, 857, 858, 859, 860, 861, 862, 863, 864, 865, 866, 867, 868, 869, 870, 871, 872],
      "AcquisitionTime": ["200228.180000", "200228.640000", "200229.100000", "200229.560000", "200230.020000", "200230.480000", "200230.940000", "200231.400000", "200231.860000", "200232.320000", "200232.780000", "200233.240000", "200233.700000", "200234.160000", "200234.620000", "200235.080000", "200235.540000", "200236.000000", "200236.460000", "200236.920000", "200237.380000", "200237.840000", "200238.300000", "200238.760000", "200239.220000", "200239.680000", "200240.140000", "200240.600000", "200241.060000", "200241.520000", "200241.980000", "200242.440000", "200242.900000", "200243.360000", "200243.820000", "200244.280000", "200244.740000", "200245.200000", "200245.660000", "200246.120000", "200246.580000", "200247.040000", "200247.500000", "200247.960000", "200248.420000", "200248.880000", "200249.340000", "200249.800000", "200250.260000", "200250.720000", "200251.180000", "200251.640000", "200252.100000", "200252.560000", "200253.020000", "200253.480000", "200253.940000", "200254.400000", "200254.860000", "200255.320000", "200255.780000", "200256.240000", "200256.700000", "200257.160000", "200257.620000", "200258.080000", "200258.540000", "200259.000000", "200259.460000", "200259.920000", "200300.380000", "200300.840000", "200301.300000", "200301.760000", "200302.220000", "200302.680000", "200303.140000", "200303.600000", "200304.060000", "200304.520000", "200304.980000", "200305.440000", "200305.900000", "200306.360000", "200306.820000", "200307.280000", "200307.740000", "200308.200000", "200308.660000", "200309.120000", "200309.580000", "200310.040000", "200310.500000", "200310.960000", "200311.420000", "200311.880000", "200312.340000", "200312.800000", "200313.260000", "200313.720000", "200314.180000", "200314.640000", "200315.100000", "200315.560000", "200316.020000", "200316.480000", "200316.940000", "200317.400000", "200317.860000", "200318.320000", "200318.780000", "200319.240000", "200319.700000", "200320.160000", "200320.620000", "200321.080000", "200321.540000", "200322.000000", "200322.460000", "200322.920000", "200323.380000", "200323.840000", "200324.300000", "200324.760000", "200325.220000", "200325.680000", "200326.140000", "200326.600000", "200327.060000", "200327.520000", "200327.980000", "200328.440000", "200328.900000", "200329.360000", "200329.820000", "200330.280000", "200330.740000", "200331.200000", "200331.660000", "200332.120000", "200332.580000", "200333.040000", "200333.500000", "200333.960000", "200334.420000", "200334.880000", "200335.340000", "200335.800000", "200336.260000", "200336.720000", "200337.180000", "200337.640000", "200338.100000", "200338.560000", "200339.020000", "200339.480000", "200339.940000", "200340.400000", "200340.860000", "200341.320000", "200341.780000", "200342.240000", "200342.700000", "200343.160000", "200343.620000", "200344.080000", "200344.540000", "200345.000000", "200345.460000", "200345.920000", "200346.380000", "200346.840000", "200347.300000", "200347.760000", "200348.220000", "200348.680000", "200349.140000", "200349.600000", "200350.060000", "200350.520000", "200350.980000", "200351.440000", "200351.900000", "200352.360000", "200352.820000", "200353.280000", "200353.740000", "200354.200000", "200354.660000", "200355.120000", "200355.580000", "200356.040000", "200356.500000", "200356.960000", "200357.420000", "200357.880000", "200358.340000", "200358.800000", "200359.260000", "200359.720000", "200400.180000", "200400.640000", "200401.100000", "200401.560000", "200402.020000", "200402.480000", "200402.940000", "200403.400000", "200403.860000", "200404.320000", "200404.780000", "200405.240000", "200405.700000", "200406.160000", "200406.620000", "200407.080000", "200407.540000", "200408.000000", "200408.460000", "200408.920000", "200409.380000", "200409.840000", "200410.300000", "200410.760000", "200411.220000", "200411.680000", "200412.140000", "200412.600000", "200413.060000", "200413.520000", "200413.980000", "200414.440000", "200414.900000", "200415.360000", "200415.820000", "200416.280000", "200416.740000", "200417.200000", "200417.660000", "200418.120000", "200418.580000", "200419.040000", "200419.500000", "200419.960000", "200420.420000", "200420.880000", "200421.340000", "200421.800000", "200422.260000", "200422.720000", "200423.180000", "200423.640000", "200424.100000", "200424.560000", "200425.020000", "200425.480000", "200425.940000", "200426.400000", "200426.860000", "200427.320000", "200427.780000", "200428.240000", "200428.700000", "200429.160000", "200429.620000", "200430.080000", "200430.540000", "200431.000000", "200431.460000", "200431.920000", "200432.380000", "200432.840000", "200433.300000", "200433.760000", "200434.220000", "200434.680000", "200435.140000", "200435.600000", "200436.060000", "200436.520000", "200436.980000", "200437.440000", "200437.900000", "200438.360000", "200438.820000", "200439.280000", "200439.740000", "200440.200000", "200440.660000", "200441.120000", "200441.580000", "200442.040000", "200442.500000", "200442.960000", "200443.420000", "200443.880000", "200444.340000", "200444.800000", "200445.260000", "200445.720000", "200446.180000", "200446.640000", "200447.100000", "200447.560000", "200448.020000", "200448.480000", "200448.940000", "200449.400000", "200449.860000", "200450.320000", "200450.780000", "200451.240000", "200451.700000", "200452.160000", "200452.620000", "200453.080000", "200453.540000", "200454.000000", "200454.460000", "200454.920000", "200455.380000", "200455.840000", "200456.300000", "200456.760000", "200457.220000", "200457.680000", "200458.140000", "200458.600000", "200459.060000", "200459.520000", "200459.980000", "200500.440000", "200500.900000", "200501.360000", "200501.820000", "200502.280000", "200502.740000", "200503.200000", "200503.660000", "200504.120000", "200504.580000", "200505.040000", "200505.500000", "200505.960000", "200506.420000", "200506.880000", "200507.340000", "200507.800000", "200508.260000", "200508.720000", "200509.180000", "200509.640000", "200510.100000", "200510.560000", "200511.020000", "200511.480000", "200511.940000", "200512.400000", "200512.860000", "200513.320000", "200513.780000", "200514.240000", "200514.700000", "200515.160000", "200515.620000", "200516.080000", "200516.540000", "200517.000000", "200517.460000", "200517.920000", "200518.380000", "200518.840000", "200519.300000", "200519.760000", "200520.220000", "200520.680000", "200521.140000", "200521.600000", "200522.060000", "200522.520000", "200522.980000", "200523.440000", "200523.900000", "200524.360000", "200524.820000", "200525.280000", "200525.740000", "200526.200000", "200526.660000", "200527.120000", "200527.580000", "200528.040000", "200528.500000", "200528.960000", "200529.420000", "200529.880000", "200530.340000", "200530.800000", "200531.260000", "200531.720000", "200532.180000", "200532.640000", "200533.100000", "200533.560000", "200534.020000", "200534.480000", "200534.940000", "200535.400000", "200535.860000", "200536.320000", "200536.780000", "200537.240000", "200537.700000", "200538.160000", "200538.620000", "200539.080000", "200539.540000", "200540.000000", "200540.460000", "200540.920000", "200541.380000", "200541.840000", "200542.300000", "200542.760000", "200543.220000", "200543.680000", "200544.140000", "200544.600000", "200545.060000", "200545.520000", "200545.980000", "200546.440000", "200546.900000", "200547.360000", "200547.820000", "200548.280000", "200548.740000", "200549.200000", "200549.660000", "200550.120000", "200550.580000", "200551.040000", "200551.500000", "200551.960000", "200552.420000", "200552.880000", "200553.340000", "200553.800000", "200554.260000", "200554.720000", "200555.180000", "200555.640000", "200556.100000", "200556.560000", "200557.020000", "200557.480000", "200557.940000", "200558.400000", "200558.860000", "200559.320000", "200559.780000", "200600.240000", "200600.700000", "200601.160000", "200601.620000", "200602.080000", "200602.540000", "200603.000000", "200603.460000", "200603.920000", "200604.380000", "200604.840000", "200605.300000", "200605.760000", "200606.220000", "200606.680000", "200607.140000", "200607.600000", "200608.060000", "200608.520000", "200608.980000", "200609.440000", "200609.900000", "200610.360000", "200610.820000", "200611.280000", "200611.740000", "200612.200000", "200612.660000", "200613.120000", "200613.580000", "200614.040000", "200614.500000", "200614.960000", "200615.420000", "200615.880000", "200616.340000", "200616.800000", "200617.260000", "200617.720000", "200618.180000", "200618.640000", "200619.100000", "200619.560000", "200620.020000", "200620.480000", "200620.940000", "200621.400000", "200621.860000", "200622.320000", "200622.780000", "200623.240000", "200623.700000", "200624.160000", "200624.620000", "200625.080000", "200625.540000", "200626.000000", "200626.460000", "200626.920000", "200627.380000", "200627.840000", "200628.300000", "200628.760000", "200629.220000", "200629.680000", "200630.140000", "200630.600000", "200631.060000", "200631.520000", "200631.980000", "200632.440000", "200632.900000", "200633.360000", "200633.820000", "200634.280000", "200634.740000", "200635.200000", "200635.660000", "200636.120000", "200636.580000", "200637.040000", "200637.500000", "200637.960000", "200638.420000", "200638.880000", "200639.340000", "200639.800000", "200640.260000", "200640.720000", "200641.180000", "200641.640000", "200642.100000", "200642.560000", "200643.020000", "200643.480000", "200643.940000", "200644.400000", "200644.860000", "200645.320000", "200645.780000", "200646.240000", "200646.700000", "200647.160000", "200647.620000", "200648.080000", "200648.540000", "200649.000000", "200649.460000", "200649.920000", "200650.380000", "200650.840000", "200651.300000", "200651.760000", "200652.220000", "200652.680000", "200653.140000", "200653.600000", "200654.060000", "200654.520000", "200654.980000", "200655.440000", "200655.900000", "200656.360000", "200656.820000", "200657.280000", "200657.740000", "200658.200000", "200658.660000", "200659.120000", "200659.580000", "200700.040000", "200700.500000", "200700.960000", "200701.420000", "200701.880000", "200702.340000", "200702.800000", "200703.260000", "200703.720000", "200704.180000", "200704.640000", "200705.100000", "200705.560000", "200706.020000", "200706.480000", "200706.940000", "200707.400000", "200707.860000", "200708.320000", "200708.780000", "200709.240000", "200709.700000", "200710.160000", "200710.620000", "200711.080000", "200711.540000", "200712.000000", "200712.460000", "200712.920000", "200713.380000", "200713.840000", "200714.300000", "200714.760000", "200715.220000", "200715.680000", "200716.140000", "200716.600000", "200717.060000", "200717.520000", "200717.980000", "200718.440000", "200718.900000", "200719.360000", "200719.820000", "200720.280000", "200720.740000", "200721.200000", "200721.660000", "200722.120000", "200722.580000", "200723.040000", "200723.500000", "200723.960000", "200724.420000", "200724.880000", "200725.340000", "200725.800000", "200726.260000", "200726.720000", "200727.180000", "200727.640000", "200728.100000", "200728.560000", "200729.020000", "200729.480000", "200729.940000", "200730.400000", "200730.860000", "200731.320000", "200731.780000", "200732.240000", "200732.700000", "200733.160000", "200733.620000", "200734.080000", "200734.540000", "200735.000000", "200735.460000", "200735.920000", "200736.380000", "200736.840000", "200737.300000", "200737.760000", "200738.220000", "200738.680000", "200739.140000", "200739.600000", "200740.060000", "200740.520000", "200740.980000", "200741.440000", "200741.900000", "200742.360000", "200742.820000", "200743.280000", "200743.740000", "200744.200000", "200744.660000", "200745.120000", "200745.580000", "200746.040000", "200746.500000", "200746.960000", "200747.420000", "200747.880000", "200748.340000", "200748.800000", "200749.260000", "200749.720000", "200750.180000", "200750.640000", "200751.100000", "200751.560000", "200752.020000", "200752.480000", "200752.940000", "200753.400000", "200753.860000", "200754.320000", "200754.780000", "200755.240000", "200755.700000", "200756.160000", "200756.620000", "200757.080000", "200757.540000", "200758.000000", "200758.460000", "200758.920000", "200759.380000", "200759.840000", "200800.300000", "200800.760000", "200801.220000", "200801.680000", "200802.140000", "200802.600000", "200803.060000", "200803.520000", "200803.980000", "200804.440000", "200804.900000", "200805.360000", "200805.820000", "200806.280000", "200806.740000", "200807.200000", "200807.660000", "200808.120000", "200808.580000", "200809.040000", "200809.500000", "200809.960000", "200810.420000", "200810.880000", "200811.340000", "200811.800000", "200812.260000", "200812.720000", "200813.180000", "200813.640000", "200814.100000", "200814.560000", "200815.020000", "200815.480000", "200815.940000", "200816.400000", "200816.860000", "200817.320000", "200817.780000", "200818.240000", "200818.700000", "200819.160000", "200819.620000", "200820.080000", "200820.540000", "200821.000000", "200821.460000", "200821.920000", "200822.380000", "200822.840000", "200823.300000", "200823.760000", "200824.220000", "200824.680000", "200825.140000", "200825.600000", "200826.060000", "200826.520000", "200826.980000", "200827.440000", "200827.900000", "200828.360000", "200828.820000", "200829.280000", "200829.740000", "200830.200000", "200830.660000", "200831.120000", "200831.580000", "200832.040000", "200832.500000", "200832.960000", "200833.420000", "200833.880000", "200834.340000", "200834.800000", "200835.260000", "200835.720000", "200836.180000", "200836.640000", "200837.100000", "200837.560000", "200838.020000", "200838.480000", "200838.940000", "200839.400000", "200839.860000", "200840.320000", "200840.780000", "200841.240000", "200841.700000", "200842.160000", "200842.620000", "200843.080000", "200843.540000", "200844.000000", "200844.460000", "200844.920000", "200845.380000", "200845.840000", "200846.300000", "200846.760000", "200847.220000", "200847.680000", "200848.140000", "200848.600000", "200849.060000", "200849.520000", "200849.980000", "200850.440000", "200850.900000", "200851.360000", "200851.820000", "200852.280000", "200852.740000", "200853.200000", "200853.660000", "200854.120000", "200854.580000", "200855.040000", "200855.500000", "200855.960000", "200856.420000", "200856.880000", "200857.340000", "200857.800000", "200858.260000", "200858.720000", "200859.180000", "200859.640000", "200900.100000", "200900.560000", "200901.020000", "200901.480000", "200901.940000", "200902.400000", "200902.860000", "200903.320000", "200903.780000", "200904.240000", "200904.700000", "200905.160000", "200905.620000", "200906.080000", "200906.540000", "200907.000000", "200907.460000", "200907.920000", "200908.380000", "200908.840000"],
