{
  "AcquisitionMatrixPE": 82,
  "AcquisitionNumber": 1,
  "AcquisitionTime": "20:12:2.365000",
  "BandwidthPerPixelPhaseEncode": 24.888,
  "BaseResolution": 82,
  "BodyPartExamined": "BRAIN",
  "ConsistencyInfo": "N4_VE11E_LATEST_20181129",
  "ConversionSoftware": "dcm2niix",
  "ConversionSoftwareVersion": "v1.0.20201102",
  "DerivedVendorReportedEchoSpacing": 0.00049,
  "DeviceSerialNumber": "66112",
  "DwellTime": 2e-06,
  "EchoTime": 0.0272,
  "EchoTrainLength": 82,
  "EffectiveEchoSpacing": 0.00049,
  "FlipAngle": 44,
  "ImageComments": "Unaliased MB8/PE3",
  "ImageOrientationPatientDICOM": [0.994861, -0.0379318, 0.0938812, 0.0390882, 0.99918, -0.0105086],
  "ImageType": [
    "ORIGINAL",
    "PRIMARY",
    "M",
    "MB",
    "ND",
    "NORM",
    "MOSAIC"
],
  "ImagingFrequency": 123.259,
  "InPlanePhaseEncodingDirectionDICOM": "COL",
  "InstitutionAddress": "Maynard 3,Hanover,NH,US,03755",
  "InstitutionName": "Dartmouth College - PBS",
  "InstitutionalDepartmentName": "Department",
  "MRAcquisitionType": "2D",
  "MagneticFieldStrength": 3,
  "Manufacturer": "Siemens",
  "ManufacturersModelName": "Prisma",
  "Modality": "MR",
  "MultibandAccelerationFactor": 8,
  "PartialFourier": 1,
  "PatientPosition": "HFS",
  "PercentPhaseFOV": 100,
  "PercentSampling": 100,
  "PhaseEncodingDirection": "j-",
  "PhaseEncodingSteps": 82,
  "PhaseResolution": 1,
  "PixelBandwidth": 3050,
  "ProcedureStepDescription": "Wager_Wager^1076_spacetop",
  "ProtocolName": "func_run-02_task-social_acq-ap-mb8",
  "PulseSequenceDetails": "%CustomerSeq%\\cmrr_mbep2d_bold",
  "ReceiveCoilActiveElements": "HEA;HEP",
  "ReceiveCoilName": "Head_32",
  "ReconMatrixPE": 82,
  "RepetitionTime": 0.46,
  "SAR": 0.0849003,
  "ScanOptions": "FS",
  "ScanningSequence": "EP",
  "SequenceName": "epfid2d1_82",
  "SequenceVariant": "SK\\SS",
  "SeriesDescription": "func_run-02_task-social_acq-ap-mb8",
  "SeriesNumber": 14,
  "ShimSetting": [4247, -7815, -7281, 176, -136, -57, -112, 46],
  "SliceThickness": 2.7,
  "SliceTiming": [0, 0.2525, 0.065, 0.315, 0.1275, 0.3775, 0.19, 0, 0.2525, 0.065, 0.315, 0.1275, 0.3775, 0.19, 0, 0.2525, 0.065, 0.315, 0.1275, 0.3775, 0.19, 0, 0.2525, 0.065, 0.315, 0.1275, 0.3775, 0.19, 0, 0.2525, 0.065, 0.315, 0.1275, 0.3775, 0.19, 0, 0.2525, 0.065, 0.315, 0.1275, 0.3775, 0.19, 0, 0.2525, 0.065, 0.315, 0.1275, 0.3775, 0.19, 0, 0.2525, 0.065, 0.315, 0.1275, 0.3775, 0.19],
  "SoftwareVersions": "syngo MR E11",
  "SpacingBetweenSlices": 2.7,
  "StationName": "AWP66112",
  "TaskName": "social",
  "TotalReadoutTime": 0.03969,
  "TxRefAmp": 230.817,
  "WipMemBlock": "2b18af2a-7fb9-472f-ad09-7c8d59bea597||Sequence: R016 ve11e/master r/434b28f1; Aug  7 2019 18:53:46 by eja",
  "dcmmeta_affine": [
    [-2.669138193130493, 0.1048707664012909, 0.25219523906707764, 101.84513092041016],
    [0.10176830738782883, 2.6807281970977783, -0.03813555836677551, -91.3548583984375],
    [0.2518763542175293, 0.028193920850753784, 2.687925338745117, -94.37442779541016],
    [0.0, 0.0, 0.0, 1.0]
],
  "dcmmeta_reorient_transform": [
    [0.0, -1.0, 0.0, 81.0],
    [1.0, 0.0, 0.0, 0.0],
    [0.0, 0.0, 1.0, 0.0],
    [0.0, 0.0, 0.0, 1.0]
],
  "dcmmeta_shape": [82, 82, 56, 872],
  "dcmmeta_slice_dim": 2,
  "dcmmeta_version": 0.6,
  "global": {
    "const": {
      "AccessionNumber": "A004478",
      "AcquisitionMatrix": [82, 0, 0, 82],
      "AngioFlag": "N",
      "BitsAllocated": 16,
      "BitsStored": 16,
      "BodyPartExamined": "BRAIN",
      "Columns": 656,
      "EchoNumbers": 1,
      "EchoTime": 27.2,
      "EchoTrainLength": 82,
      "FlipAngle": 44.0,
      "HighBit": 15,
      "ImageOrientationPatient": [0.99486054271641, -0.0379318236151, 0.09388118716363, 0.03908819466062, 0.99918050494412, -0.0105086430041],
      "ImagePositionPatient": [-906.48020791194, -865.94563555523, -156.28757937913],
      "ImageType": [
        "ORIGINAL",
        "PRIMARY",
        "M",
        "MB",
        "ND",
        "NORM",
        "MOSAIC"
],
      "ImagedNucleus": "1H",
      "ImagingFrequency": 123.259122,
      "InPlanePhaseEncodingDirection": "COL",
      "MRAcquisitionType": "2D",
      "MagneticFieldStrength": 3.0,
      "Manufacturer": "SIEMENS",
      "ManufacturerModelName": "Prisma",
      "Modality": "MR",
      "NumberOfAverages": 1.0,
      "NumberOfPhaseEncodingSteps": 82,
      "PercentPhaseFieldOfView": 100.0,
      "PercentSampling": 100.0,
      "PerformedProcedureStepStartTime": "193430.055000",
      "PhotometricInterpretation": "MONOCHROME2",
      "PixelBandwidth": 3050.0,
      "PixelRepresentation": 0,
      "PixelSpacing": [2.6829268932343, 2.6829268932343],
      "ProtocolName": "func_run-02_task-social_acq-ap-mb8",
      "RepetitionTime": 460.0,
      "Rows": 656,
      "SAR": 0.08490031412422,
      "SamplesPerPixel": 1,
      "ScanOptions": "FS",
      "ScanningSequence": "EP",
      "SequenceName": "epfid2d1_82",
      "SequenceVariant": [
        "SK",
        "SS"
],
      "SeriesDescription": "func_run-02_task-social_acq-ap-mb8",
      "SeriesNumber": 14,
      "SeriesTime": "201231.753000",
      "SliceLocation": -83.149147872498,
      "SliceThickness": 2.7000000476837,
      "SmallestImagePixelValue": 0,
      "SoftwareVersions": "syngo MR E11",
      "SpacingBetweenSlices": 2.6999999893461,
      "SpecificCharacterSet": "ISO_IR 100",
      "StudyID": "1",
      "StudyTime": "193429.908000",
      "TransmitCoilName": "Body",
      "VariableFlipAngleFlag": "N",
      "WindowCenterWidthExplanation": "Algo1"
    },
    "slices": {}
  },
  "time": {
    "samples": {
      "AcquisitionNumber": [1, 2, 3, 4, 5, 6, 7, 8, 9, 10, 11, 12, 13, 14, 15, 16, 17, 18, 19, 20, 21, 22, 23, 24, 25, 26, 27, 28, 29, 30, 31, 32, 33, 34, 35, 36, 37, 38, 39, 40, 41, 42, 43, 44, 45, 46, 47, 48, 49, 50, 51, 52, 53, 54, 55, 56, 57, 58, 59, 60, 61, 62, 63, 64, 65, 66, 67, 68, 69, 70, 71, 72, 73, 74, 75, 76, 77, 78, 79, 80, 81, 82, 83, 84, 85, 86, 87, 88, 89, 90, 91, 92, 93, 94, 95, 96, 97, 98, 99, 100, 101, 102, 103, 104, 105, 106, 107, 108, 109, 110, 111, 112, 113, 114, 115, 116, 117, 118, 119, 120, 121, 122, 123, 124, 125, 126, 127, 128, 129, 130, 131, 132, 133, 134, 135, 136, 137, 138, 139, 140, 141, 142, 143, 144, 145, 146, 147, 148, 149, 150, 151, 152, 153, 154, 155, 156, 157, 158, 159, 160, 161, 162, 163, 164, 165, 166, 167, 168, 169, 170, 171, 172, 173, 174, 175, 176, 177, 178, 179, 180, 181, 182, 183, 184, 185, 186, 187, 188, 189, 190, 191, 192, 193, 194, 195, 196, 197, 198, 199, 200, 201, 202, 203, 204, 205, 206, 207, 208, 209, 210, 211, 212, 213, 214, 215, 216, 217, 218, 219, 220, 221, 222, 223, 224, 225, 226, 227, 228, 229, 230, 231, 232, 233, 234, 235, 236, 237, 238, 239, 240, 241, 242, 243, 244, 245, 246, 247, 248, 249, 250, 251, 252, 253, 254, 255, 256, 257, 258, 259, 260, 261, 262, 263, 264, 265, 266, 267, 268, 269, 270, 271, 272, 273, 274, 275, 276, 277, 278, 279, 280, 281, 282, 283, 284, 285, 286, 287, 288, 289, 290, 291, 292, 293, 294, 295, 296, 297, 298, 299, 300, 301, 302, 303, 304, 305, 306, 307, 308, 309, 310, 311, 312, 313, 314, 315, 316, 317, 318, 319, 320, 321, 322, 323, 324, 325, 326, 327, 328, 329, 330, 331, 332, 333, 334, 335, 336, 337, 338, 339, 340, 341, 342, 343, 344, 345, 346, 347, 348, 349, 350, 351, 352, 353, 354, 355, 356, 357, 358, 359, 360, 361, 362, 363, 364, 365, 366, 367, 368, 369, 370, 371, 372, 373, 374, 375, 376, 377, 378, 379, 380, 381, 382, 383, 384, 385, 386, 387, 388, 389, 390, 391, 392, 393, 394, 395, 396, 397, 398, 399, 400, 401, 402, 403, 404, 405, 406, 407, 408, 409, 410, 411, 412, 413, 414, 415, 416, 417, 418, 419, 420, 421, 422, 423, 424, 425, 426, 427, 428, 429, 430, 431, 432, 433, 434, 435, 436, 437, 438, 439, 440, 441, 442, 443, 444, 445, 446, 447, 448, 449, 450, 451, 452, 453, 454, 455, 456, 457, 458, 459, 460, 461, 462, 463, 464, 465, 466, 467, 468, 469, 470, 471, 472, 473, 474, 475, 476, 477, 478, 479, 480, 481, 482, 483, 484, 485, 486, 487, 488, 489, 490, 491, 492, 493, 494, 495, 496, 497, 498, 499, 500, 501, 502, 503, 504, 505, 506, 507, 508, 509, 510, 511, 512, 513, 514, 515, 516, 517, 518, 519, 520, 521, 522, 523, 524, 525, 526, 527, 528, 529, 530, 531, 532, 533, 534, 535, 536, 537, 538, 539, 540, 541, 542, 543, 544, 545, 546, 547, 548, 549, 550, 551, 552, 553, 554, 555, 556, 557, 558, 559, 560, 561, 562, 563, 564, 565, 566, 567, 568, 569, 570, 571, 572, 573, 574, 575, 576, 577, 578, 579, 580, 581, 582, 583, 584, 585, 586, 587, 588, 589, 590, 591, 592, 593, 594, 595, 596, 597, 598, 599, 600, 601, 602, 603, 604, 605, 606, 607, 608, 609, 610, 611, 612, 613, 614, 615, 616, 617, 618, 619, 620, 621, 622, 623, 624, 625, 626, 627, 628, 629, 630, 631, 632, 633, 634, 635, 636, 637, 638, 639, 640, 641, 642, 643, 644, 645, 646, 647, 648, 649, 650, 651, 652, 653, 654, 655, 656, 657, 658, 659, 660, 661, 662, 663, 664, 665, 666, 667, 668, 669, 670, 671, 672, 673, 674, 675, 676, 677, 678, 679, 680, 681, 682, 683, 684, 685, 686, 687, 688, 689, 690, 691, 692, 693, 694, 695, 696, 697, 698, 699, 700, 701, 702, 703, 704, 705, 706, 707, 708, 709, 710, 711, 712, 713, 714, 715, 716, 717, 718, 719, 720, 721, 722, 723, 724, 725, 726, 727, 728, 729, 730, 731, 732, 733, 734, 735, 736, 737, 738, 739, 740, 741, 742, 743, 744, 745, 746, 747, 748, 749, 750, 751, 752, 753, 754, 755, 756, 757, 758, 759, 760, 761, 762, 763, 764, 765, 766, 767, 768, 769, 770, 771, 772, 773, 774, 775, 776, 777, 778, 779, 780, 781, 782, 783, 784, 785, 786, 787, 788, 789, 790, 791, 792, 793, 794, 795, 796, 797, 798, 799, 800, 801, 802, 803, 804, 805, 806, 807, 808, 809, 810, 811, 812, 813, 814, 815, 816, 817, 818, 819, 820, 821, 822, 823, 824, 825, 826, 827, 828, 829, 830, 831, 832, 833, 834, 835, 836, 837, 838, 839, 840, 841, 842, 843, 844, 845, 846, 847, 848, 849, 850, 851, 852, 853, 854, 855, 856, 857, 858, 859, 860, 861, 862, 863, 864, 865, 866, 867, 868, 869, 870, 871, 872],
      "AcquisitionTime": ["201202.365000", "201202.825000", "201203.285000", "201203.745000", "201204.205000", "201204.665000", "201205.125000", "201205.585000", "201206.045000", "201206.505000", "201206.965000", "201207.425000", "201207.885000", "201208.345000", "201208.805000", "201209.265000", "201209.725000", "201210.185000", "201210.645000", "201211.105000", "201211.565000", "201212.025000", "201212.485000", "201212.945000", "201213.405000", "201213.865000", "201214.325000", "201214.785000", "201215.245000", "201215.705000", "201216.165000", "201216.625000", "201217.085000", "201217.545000", "201218.005000", "201218.465000", "201218.925000", "201219.385000", "201219.845000", "201220.305000", "201220.765000", "201221.225000", "201221.685000", "201222.145000", "201222.605000", "201223.065000", "201223.525000", "201223.985000", "201224.445000", "201224.905000", "201225.365000", "201225.825000", "201226.285000", "201226.745000", "201227.205000", "201227.665000", "201228.125000", "201228.585000", "201229.045000", "201229.505000", "201229.965000", "201230.425000", "201230.885000", "201231.345000", "201231.805000", "201232.265000", "201232.725000", "201233.185000", "201233.645000", "201234.105000", "201234.565000", "201235.025000", "201235.485000", "201235.945000", "201236.405000", "201236.865000", "201237.325000", "201237.785000", "201238.245000", "201238.705000", "201239.165000", "201239.625000", "201240.085000", "201240.545000", "201241.005000", "201241.465000", "201241.925000", "201242.385000", "201242.845000", "201243.305000", "201243.765000", "201244.225000", "201244.685000", "201245.145000", "201245.605000", "201246.065000", "201246.525000", "201246.985000", "201247.445000", "201247.905000", "201248.365000", "201248.825000", "201249.285000", "201249.745000", "201250.205000", "201250.665000", "201251.125000", "201251.585000", "201252.045000", "201252.505000", "201252.965000", "201253.425000", "201253.885000", "201254.345000", "201254.805000", "201255.265000", "201255.725000", "201256.185000", "201256.645000", "201257.105000", "201257.565000", "201258.025000", "201258.485000", "201258.945000", "201259.405000", "201259.865000", "201300.325000", "201300.785000", "201301.245000", "201301.705000", "201302.165000", "201302.625000", "201303.085000", "201303.545000", "201304.005000", "201304.465000", "201304.925000", "201305.385000", "201305.845000", "201306.305000", "201306.765000", "201307.225000", "201307.685000", "201308.145000", "201308.605000", "201309.065000", "201309.525000", "201309.985000", "201310.445000", "201310.905000", "201311.365000", "201311.825000", "201312.285000", "201312.745000", "201313.205000", "201313.665000", "201314.125000", "201314.585000", "201315.045000", "201315.505000", "201315.965000", "201316.425000", "201316.885000", "201317.345000", "201317.805000", "201318.265000", "201318.725000", "201319.185000", "201319.645000", "201320.105000", "201320.565000", "201321.025000", "201321.485000", "201321.945000", "201322.405000", "201322.865000", "201323.325000", "201323.785000", "201324.245000", "201324.705000", "201325.165000", "201325.625000", "201326.085000", "201326.545000", "201327.005000", "201327.465000", "201327.925000", "201328.385000", "201328.845000", "201329.305000", "201329.765000", "201330.225000", "201330.685000", "201331.145000", "201331.605000", "201332.065000", "201332.525000", "201332.985000", "201333.445000", "201333.905000", "201334.365000", "201334.825000", "201335.285000", "201335.745000", "201336.205000", "201336.665000", "201337.125000", "201337.585000", "201338.045000", "201338.505000", "201338.965000", "201339.425000", "201339.885000", "201340.345000", "201340.805000", "201341.265000", "201341.725000", "201342.185000", "201342.645000", "201343.105000", "201343.565000", "201344.025000", "201344.485000", "201344.945000", "201345.405000", "201345.865000", "201346.325000", "201346.785000", "201347.245000", "201347.705000", "201348.165000", "201348.625000", "201349.085000", "201349.545000", "201350.005000", "201350.465000", "201350.925000", "201351.385000", "201351.845000", "201352.305000", "201352.765000", "201353.225000", "201353.685000", "201354.145000", "201354.605000", "201355.065000", "201355.525000", "201355.985000", "201356.445000", "201356.905000", "201357.365000", "201357.825000", "201358.285000", "201358.745000", "201359.205000", "201359.665000", "201400.125000", "201400.585000", "201401.045000", "201401.505000", "201401.965000", "201402.425000", "201402.885000", "201403.345000", "201403.805000", "201404.265000", "201404.725000", "201405.185000", "201405.645000", "201406.105000", "201406.565000", "201407.025000", "201407.485000", "201407.945000", "201408.405000", "201408.865000", "201409.325000", "201409.785000", "201410.245000", "201410.705000", "201411.165000", "201411.625000", "201412.085000", "201412.545000", "201413.005000", "201413.465000", "201413.925000", "201414.385000", "201414.845000", "201415.305000", "201415.765000", "201416.225000", "201416.685000", "201417.145000", "201417.605000", "201418.065000", "201418.525000", "201418.985000", "201419.445000", "201419.905000", "201420.365000", "201420.825000", "201421.285000", "201421.745000", "201422.205000", "201422.665000", "201423.125000", "201423.585000", "201424.045000", "201424.505000", "201424.965000", "201425.425000", "201425.885000", "201426.345000", "201426.805000", "201427.265000", "201427.725000", "201428.185000", "201428.645000", "201429.105000", "201429.565000", "201430.025000", "201430.485000", "201430.945000", "201431.405000", "201431.865000", "201432.325000", "201432.785000", "201433.245000", "201433.705000", "201434.165000", "201434.625000", "201435.085000", "201435.545000", "201436.005000", "201436.465000", "201436.925000", "201437.385000", "201437.845000", "201438.305000", "201438.765000", "201439.225000", "201439.685000", "201440.145000", "201440.605000", "201441.065000", "201441.525000", "201441.985000", "201442.445000", "201442.905000", "201443.365000", "201443.825000", "201444.285000", "201444.745000", "201445.205000", "201445.665000", "201446.125000", "201446.585000", "201447.045000", "201447.505000", "201447.965000", "201448.425000", "201448.885000", "201449.345000", "201449.805000", "201450.265000", "201450.725000", "201451.185000", "201451.645000", "201452.105000", "201452.565000", "201453.025000", "201453.485000", "201453.945000", "201454.405000", "201454.865000", "201455.325000", "201455.785000", "201456.245000", "201456.705000", "201457.165000", "201457.625000", "201458.085000", "201458.545000", "201459.005000", "201459.465000", "201459.925000", "201500.385000", "201500.845000", "201501.305000", "201501.765000", "201502.225000", "201502.685000", "201503.145000", "201503.605000", "201504.065000", "201504.525000", "201504.985000", "201505.445000", "201505.905000", "201506.365000", "201506.825000", "201507.285000", "201507.745000", "201508.205000", "201508.665000", "201509.125000", "201509.585000", "201510.045000", "201510.505000", "201510.965000", "201511.425000", "201511.885000", "201512.345000", "201512.805000", "201513.265000", "201513.725000", "201514.185000", "201514.645000", "201515.105000", "201515.565000", "201516.025000", "201516.485000", "201516.945000", "201517.405000", "201517.865000", "201518.325000", "201518.785000", "201519.245000", "201519.705000", "201520.165000", "201520.625000", "201521.085000", "201521.545000", "201522.005000", "201522.465000", "201522.925000", "201523.385000", "201523.845000", "201524.305000", "201524.765000", "201525.225000", "201525.685000", "201526.145000", "201526.605000", "201527.065000", "201527.525000", "201527.985000", "201528.445000", "201528.905000", "201529.365000", "201529.825000", "201530.285000", "201530.745000", "201531.205000", "201531.665000", "201532.125000", "201532.585000", "201533.045000", "201533.505000", "201533.965000", "201534.425000", "201534.885000", "201535.345000", "201535.805000", "201536.265000", "201536.725000", "201537.185000", "201537.645000", "201538.105000", "201538.565000", "201539.025000", "201539.485000", "201539.945000", "201540.405000", "201540.865000", "201541.325000", "201541.785000", "201542.245000", "201542.705000", "201543.165000", "201543.625000", "201544.085000", "201544.545000", "201545.005000", "201545.465000", "201545.925000", "201546.385000", "201546.845000", "201547.305000", "201547.765000", "201548.225000", "201548.685000", "201549.145000", "201549.605000", "201550.065000", "201550.525000", "201550.985000", "201551.445000", "201551.905000", "201552.365000", "201552.825000", "201553.285000", "201553.745000", "201554.205000", "201554.665000", "201555.125000", "201555.585000", "201556.045000", "201556.505000", "201556.965000", "201557.425000", "201557.885000", "201558.345000", "201558.805000", "201559.265000", "201559.725000", "201600.185000", "201600.645000", "201601.105000", "201601.565000", "201602.025000", "201602.485000", "201602.945000", "201603.405000", "201603.865000", "201604.325000", "201604.785000", "201605.245000", "201605.705000", "201606.165000", "201606.625000", "201607.085000", "201607.545000", "201608.005000", "201608.465000", "201608.925000", "201609.385000", "201609.845000", "201610.305000", "201610.765000", "201611.225000", "201611.685000", "201612.145000", "201612.605000", "201613.065000", "201613.525000", "201613.985000", "201614.445000", "201614.905000", "201615.365000", "201615.825000", "201616.285000", "201616.745000", "201617.205000", "201617.665000", "201618.125000", "201618.585000", "201619.045000", "201619.505000", "201619.965000", "201620.425000", "201620.885000", "201621.345000", "201621.805000", "201622.265000", "201622.725000", "201623.185000", "201623.645000", "201624.105000", "201624.565000", "201625.025000", "201625.485000", "201625.945000", "201626.405000", "201626.865000", "201627.325000", "201627.785000", "201628.245000", "201628.705000", "201629.165000", "201629.625000", "201630.085000", "201630.545000", "201631.005000", "201631.465000", "201631.925000", "201632.385000", "201632.845000", "201633.305000", "201633.765000", "201634.225000", "201634.685000", "201635.145000", "201635.605000", "201636.065000", "201636.525000", "201636.985000", "201637.445000", "201637.905000", "201638.365000", "201638.825000", "201639.285000", "201639.745000", "201640.205000", "201640.665000", "201641.125000", "201641.585000", "201642.045000", "201642.505000", "201642.965000", "201643.425000", "201643.885000", "201644.345000", "201644.805000", "201645.265000", "201645.725000", "201646.185000", "201646.645000", "201647.105000", "201647.565000", "201648.025000", "201648.485000", "201648.945000", "201649.405000", "201649.865000", "201650.325000", "201650.785000", "201651.245000", "201651.705000", "201652.165000", "201652.625000", "201653.085000", "201653.545000", "201654.005000", "201654.465000", "201654.925000", "201655.385000", "201655.845000", "201656.305000", "201656.765000", "201657.225000", "201657.685000", "201658.145000", "201658.605000", "201659.065000", "201659.525000", "201659.985000", "201700.445000", "201700.905000", "201701.365000", "201701.825000", "201702.285000", "201702.745000", "201703.205000", "201703.665000", "201704.125000", "201704.585000", "201705.045000", "201705.505000", "201705.965000", "201706.425000", "201706.885000", "201707.345000", "201707.805000", "201708.265000", "201708.725000", "201709.185000", "201709.645000", "201710.105000", "201710.565000", "201711.025000", "201711.485000", "201711.945000", "201712.405000", "201712.865000", "201713.325000", "201713.785000", "201714.245000", "201714.705000", "201715.165000", "201715.625000", "201716.085000", "201716.545000", "201717.005000", "201717.465000", "201717.925000", "201718.385000", "201718.845000", "201719.305000", "201719.765000", "201720.225000", "201720.685000", "201721.145000", "201721.605000", "201722.065000", "201722.525000", "201722.985000", "201723.445000", "201723.905000", "201724.365000", "201724.825000", "201725.285000", "201725.745000", "201726.205000", "201726.665000", "201727.125000", "201727.585000", "201728.045000", "201728.505000", "201728.965000", "201729.425000", "201729.885000", "201730.345000", "201730.805000", "201731.265000", "201731.725000", "201732.185000", "201732.645000", "201733.105000", "201733.565000", "201734.025000", "201734.485000", "201734.945000", "201735.405000", "201735.865000", "201736.325000", "201736.785000", "201737.245000", "201737.705000", "201738.165000", "201738.625000", "201739.085000", "201739.545000", "201740.005000", "201740.465000", "201740.925000", "201741.385000", "201741.845000", "201742.305000", "201742.765000", "201743.225000", "201743.685000", "201744.145000", "201744.605000", "201745.065000", "201745.525000", "201745.985000", "201746.445000", "201746.905000", "201747.365000", "201747.825000", "201748.285000", "201748.745000", "201749.205000", "201749.665000", "201750.125000", "201750.585000", "201751.045000", "201751.505000", "201751.965000", "201752.425000", "201752.885000", "201753.345000", "201753.805000", "201754.265000", "201754.725000", "201755.185000", "201755.645000", "201756.105000", "201756.565000", "201757.025000", "201757.485000", "201757.945000", "201758.405000", "201758.865000", "201759.325000", "201759.785000", "201800.245000", "201800.705000", "201801.165000", "201801.625000", "201802.085000", "201802.545000", "201803.005000", "201803.465000", "201803.925000", "201804.385000", "201804.845000", "201805.305000", "201805.765000", "201806.225000", "201806.685000", "201807.145000", "201807.605000", "201808.065000", "201808.525000", "201808.985000", "201809.445000", "201809.905000", "201810.365000", "201810.825000", "201811.285000", "201811.745000", "201812.205000", "201812.665000", "201813.125000", "201813.585000", "201814.045000", "201814.505000", "201814.965000", "201815.425000", "201815.885000", "201816.345000", "201816.805000", "201817.265000", "201817.725000", "201818.185000", "201818.645000", "201819.105000", "201819.565000", "201820.025000", "201820.485000", "201820.945000", "201821.405000", "201821.865000", "201822.325000", "201822.785000", "201823.245000", "201823.705000", "201824.165000", "201824.625000", "201825.085000", "201825.545000", "201826.005000", "201826.465000", "201826.925000", "201827.385000", "201827.845000", "201828.305000", "201828.765000", "201829.225000", "201829.685000", "201830.145000", "201830.605000", "201831.065000", "201831.525000", "201831.985000", "201832.445000", "201832.905000", "201833.365000", "201833.825000", "201834.285000", "201834.745000", "201835.205000", "201835.665000", "201836.125000", "201836.585000", "201837.045000", "201837.505000", "201837.965000", "201838.425000", "201838.885000", "201839.345000", "201839.805000", "201840.265000", "201840.725000", "201841.185000", "201841.645000", "201842.105000", "201842.565000", "201843.025000"],
