{
  "AcquisitionMatrixPE": 82,
  "AcquisitionNumber": 1,
  "AcquisitionTime": "20:34:57.160000",
  "BandwidthPerPixelPhaseEncode": 24.888,
  "BaseResolution": 82,
  "BodyPartExamined": "BRAIN",
  "ConsistencyInfo": "N4_VE11E_LATEST_20181129",
  "ConversionSoftware": "dcm2niix",
  "ConversionSoftwareVersion": "v1.0.20201102",
  "DerivedVendorReportedEchoSpacing": 0.00049,
  "DeviceSerialNumber": "66112",
  "DwellTime": 2e-06,
  "EchoTime": 0.0272,
  "EchoTrainLength": 82,
  "EffectiveEchoSpacing": 0.00049,
  "FlipAngle": 44,
  "ImageComments": "Unaliased MB8/PE3",
  "ImageOrientationPatientDICOM": [0.994861, -0.0379318, 0.0938812, 0.0390882, 0.99918, -0.0105086],
  "ImageType": [
    "ORIGINAL",
    "PRIMARY",
    "M",
    "MB",
    "ND",
    "NORM",
    "MOSAIC"
],
  "ImagingFrequency": 123.259,
  "InPlanePhaseEncodingDirectionDICOM": "COL",
  "InstitutionAddress": "Maynard 3,Hanover,NH,US,03755",
  "InstitutionName": "Dartmouth College - PBS",
  "InstitutionalDepartmentName": "Department",
  "MRAcquisitionType": "2D",
  "MagneticFieldStrength": 3,
  "Manufacturer": "Siemens",
  "ManufacturersModelName": "Prisma",
  "Modality": "MR",
  "MultibandAccelerationFactor": 8,
  "PartialFourier": 1,
  "PatientPosition": "HFS",
  "PercentPhaseFOV": 100,
  "PercentSampling": 100,
  "PhaseEncodingDirection": "j-",
  "PhaseEncodingSteps": 82,
  "PhaseResolution": 1,
  "PixelBandwidth": 3050,
  "ProcedureStepDescription": "Wager_Wager^1076_spacetop",
  "ProtocolName": "func_run-05_task-social_acq-ap-mb8",
  "PulseSequenceDetails": "%CustomerSeq%\\cmrr_mbep2d_bold",
  "ReceiveCoilActiveElements": "HEA;HEP",
  "ReceiveCoilName": "Head_32",
  "ReconMatrixPE": 82,
  "RepetitionTime": 0.46,
  "SAR": 0.0849003,
  "ScanOptions": "FS",
  "ScanningSequence": "EP",
  "SequenceName": "epfid2d1_82",
  "SequenceVariant": "SK\\SS",
  "SeriesDescription": "func_run-05_task-social_acq-ap-mb8",
  "SeriesNumber": 20,
  "ShimSetting": [4247, -7815, -7281, 176, -136, -57, -112, 46],
  "SliceThickness": 2.7,
  "SliceTiming": [0, 0.2525, 0.065, 0.315, 0.1275, 0.3775, 0.19, 0, 0.2525, 0.065, 0.315, 0.1275, 0.3775, 0.19, 0, 0.2525, 0.065, 0.315, 0.1275, 0.3775, 0.19, 0, 0.2525, 0.065, 0.315, 0.1275, 0.3775, 0.19, 0, 0.2525, 0.065, 0.315, 0.1275, 0.3775, 0.19, 0, 0.2525, 0.065, 0.315, 0.1275, 0.3775, 0.19, 0, 0.2525, 0.065, 0.315, 0.1275, 0.3775, 0.19, 0, 0.2525, 0.065, 0.315, 0.1275, 0.3775, 0.19],
  "SoftwareVersions": "syngo MR E11",
  "SpacingBetweenSlices": 2.7,
  "StationName": "AWP66112",
  "TaskName": "social",
  "TotalReadoutTime": 0.03969,
  "TxRefAmp": 230.817,
  "WipMemBlock": "33a70257-c1ea-40c2-b125-fc77bb3cbdb2||Sequence: R016 ve11e/master r/434b28f1; Aug  7 2019 18:53:46 by eja",
  "dcmmeta_affine": [
    [-2.669138193130493, 0.1048707664012909, 0.25219523906707764, 101.84513092041016],
    [0.10176830738782883, 2.6807281970977783, -0.03813555836677551, -91.3548583984375],
    [0.2518763542175293, 0.028193920850753784, 2.687925338745117, -94.37442779541016],
    [0.0, 0.0, 0.0, 1.0]
],
  "dcmmeta_reorient_transform": [
    [0.0, -1.0, 0.0, 81.0],
    [1.0, 0.0, 0.0, 0.0],
    [0.0, 0.0, 1.0, 0.0],
    [0.0, 0.0, 0.0, 1.0]
],
  "dcmmeta_shape": [82, 82, 56, 872],
  "dcmmeta_slice_dim": 2,
  "dcmmeta_version": 0.6,
  "global": {
    "const": {
      "AccessionNumber": "A004478",
      "AcquisitionMatrix": [82, 0, 0, 82],
      "AngioFlag": "N",
      "BitsAllocated": 16,
      "BitsStored": 16,
      "BodyPartExamined": "BRAIN",
      "Columns": 656,
      "EchoNumbers": 1,
      "EchoTime": 27.2,
      "EchoTrainLength": 82,
      "FlipAngle": 44.0,
      "HighBit": 15,
      "ImageOrientationPatient": [0.99486054271641, -0.0379318236151, 0.09388118716363, 0.03908819466062, 0.99918050494412, -0.0105086430041],
      "ImagePositionPatient": [-906.48020791194, -865.94563555523, -156.28757937913],
      "ImageType": [
        "ORIGINAL",
        "PRIMARY",
        "M",
        "MB",
        "ND",
        "NORM",
        "MOSAIC"
],
      "ImagedNucleus": "1H",
      "ImagingFrequency": 123.259128,
      "InPlanePhaseEncodingDirection": "COL",
      "MRAcquisitionType": "2D",
      "MagneticFieldStrength": 3.0,
      "Manufacturer": "SIEMENS",
      "ManufacturerModelName": "Prisma",
      "Modality": "MR",
      "NumberOfAverages": 1.0,
      "NumberOfPhaseEncodingSteps": 82,
      "PercentPhaseFieldOfView": 100.0,
      "PercentSampling": 100.0,
      "PerformedProcedureStepStartTime": "193430.055000",
      "PhotometricInterpretation": "MONOCHROME2",
      "PixelBandwidth": 3050.0,
      "PixelRepresentation": 0,
      "PixelSpacing": [2.6829268932343, 2.6829268932343],
      "ProtocolName": "func_run-05_task-social_acq-ap-mb8",
      "RepetitionTime": 460.0,
      "Rows": 656,
      "SAR": 0.08490031412422,
      "SamplesPerPixel": 1,
      "ScanOptions": "FS",
      "ScanningSequence": "EP",
      "SequenceName": "epfid2d1_82",
      "SequenceVariant": [
        "SK",
        "SS"
],
      "SeriesDescription": "func_run-05_task-social_acq-ap-mb8",
      "SeriesNumber": 20,
      "SeriesTime": "203511.748000",
      "SliceLocation": -83.149147872498,
      "SliceThickness": 2.7000000476837,
      "SmallestImagePixelValue": 0,
      "SoftwareVersions": "syngo MR E11",
      "SpacingBetweenSlices": 2.6999999893461,
      "SpecificCharacterSet": "ISO_IR 100",
      "StudyID": "1",
      "StudyTime": "193429.908000",
      "TransmitCoilName": "Body",
      "VariableFlipAngleFlag": "N",
      "WindowCenterWidthExplanation": "Algo1"
    },
    "slices": {}
  },
  "time": {
    "samples": {
      "AcquisitionNumber": [1, 2, 3, 4, 5, 6, 7, 8, 9, 10, 11, 12, 13, 14, 15, 16, 17, 18, 19, 20, 21, 22, 23, 24, 25, 26, 27, 28, 29, 30, 31, 32, 33, 34, 35, 36, 37, 38, 39, 40, 41, 42, 43, 44, 45, 46, 47, 48, 49, 50, 51, 52, 53, 54, 55, 56, 57, 58, 59, 60, 61, 62, 63, 64, 65, 66, 67, 68, 69, 70, 71, 72, 73, 74, 75, 76, 77, 78, 79, 80, 81, 82, 83, 84, 85, 86, 87, 88, 89, 90, 91, 92, 93, 94, 95, 96, 97, 98, 99, 100, 101, 102, 103, 104, 105, 106, 107, 108, 109, 110, 111, 112, 113, 114, 115, 116, 117, 118, 119, 120, 121, 122, 123, 124, 125, 126, 127, 128, 129, 130, 131, 132, 133, 134, 135, 136, 137, 138, 139, 140, 141, 142, 143, 144, 145, 146, 147, 148, 149, 150, 151, 152, 153, 154, 155, 156, 157, 158, 159, 160, 161, 162, 163, 164, 165, 166, 167, 168, 169, 170, 171, 172, 173, 174, 175, 176, 177, 178, 179, 180, 181, 182, 183, 184, 185, 186, 187, 188, 189, 190, 191, 192, 193, 194, 195, 196, 197, 198, 199, 200, 201, 202, 203, 204, 205, 206, 207, 208, 209, 210, 211, 212, 213, 214, 215, 216, 217, 218, 219, 220, 221, 222, 223, 224, 225, 226, 227, 228, 229, 230, 231, 232, 233, 234, 235, 236, 237, 238, 239, 240, 241, 242, 243, 244, 245, 246, 247, 248, 249, 250, 251, 252, 253, 254, 255, 256, 257, 258, 259, 260, 261, 262, 263, 264, 265, 266, 267, 268, 269, 270, 271, 272, 273, 274, 275, 276, 277, 278, 279, 280, 281, 282, 283, 284, 285, 286, 287, 288, 289, 290, 291, 292, 293, 294, 295, 296, 297, 298, 299, 300, 301, 302, 303, 304, 305, 306, 307, 308, 309, 310, 311, 312, 313, 314, 315, 316, 317, 318, 319, 320, 321, 322, 323, 324, 325, 326, 327, 328, 329, 330, 331, 332, 333, 334, 335, 336, 337, 338, 339, 340, 341, 342, 343, 344, 345, 346, 347, 348, 349, 350, 351, 352, 353, 354, 355, 356, 357, 358, 359, 360, 361, 362, 363, 364, 365, 366, 367, 368, 369, 370, 371, 372, 373, 374, 375, 376, 377, 378, 379, 380, 381, 382, 383, 384, 385, 386, 387, 388, 389, 390, 391, 392, 393, 394, 395, 396, 397, 398, 399, 400, 401, 402, 403, 404, 405, 406, 407, 408, 409, 410, 411, 412, 413, 414, 415, 416, 417, 418, 419, 420, 421, 422, 423, 424, 425, 426, 427, 428, 429, 430, 431, 432, 433, 434, 435, 436, 437, 438, 439, 440, 441, 442, 443, 444, 445, 446, 447, 448, 449, 450, 451, 452, 453, 454, 455, 456, 457, 458, 459, 460, 461, 462, 463, 464, 465, 466, 467, 468, 469, 470, 471, 472, 473, 474, 475, 476, 477, 478, 479, 480, 481, 482, 483, 484, 485, 486, 487, 488, 489, 490, 491, 492, 493, 494, 495, 496, 497, 498, 499, 500, 501, 502, 503, 504, 505, 506, 507, 508, 509, 510, 511, 512, 513, 514, 515, 516, 517, 518, 519, 520, 521, 522, 523, 524, 525, 526, 527, 528, 529, 530, 531, 532, 533, 534, 535, 536, 537, 538, 539, 540, 541, 542, 543, 544, 545, 546, 547, 548, 549, 550, 551, 552, 553, 554, 555, 556, 557, 558, 559, 560, 561, 562, 563, 564, 565, 566, 567, 568, 569, 570, 571, 572, 573, 574, 575, 576, 577, 578, 579, 580, 581, 582, 583, 584, 585, 586, 587, 588, 589, 590, 591, 592, 593, 594, 595, 596, 597, 598, 599, 600, 601, 602, 603, 604, 605, 606, 607, 608, 609, 610, 611, 612, 613, 614, 615, 616, 617, 618, 619, 620, 621, 622, 623, 624, 625, 626, 627, 628, 629, 630, 631, 632, 633, 634, 635, 636, 637, 638, 639, 640, 641, 642, 643, 644, 645, 646, 647, 648, 649, 650, 651, 652, 653, 654, 655, 656, 657, 658, 659, 660, 661, 662, 663, 664, 665, 666, 667, 668, 669, 670, 671, 672, 673, 674, 675, 676, 677, 678, 679, 680, 681, 682, 683, 684, 685, 686, 687, 688, 689, 690, 691, 692, 693, 694, 695, 696, 697, 698, 699, 700, 701, 702, 703, 704, 705, 706, 707, 708, 709, 710, 711, 712, 713, 714, 715, 716, 717, 718, 719, 720, 721, 722, 723, 724, 725, 726, 727, 728, 729, 730, 731, 732, 733, 734, 735, 736, 737, 738, 739, 740, 741, 742, 743, 744, 745, 746, 747, 748, 749, 750, 751, 752, 753, 754, 755, 756, 757, 758, 759, 760, 761, 762, 763, 764, 765, 766, 767, 768, 769, 770, 771, 772, 773, 774, 775, 776, 777, 778, 779, 780, 781, 782, 783, 784, 785, 786, 787, 788, 789, 790, 791, 792, 793, 794, 795, 796, 797, 798, 799, 800, 801, 802, 803, 804, 805, 806, 807, 808, 809, 810, 811, 812, 813, 814, 815, 816, 817, 818, 819, 820, 821, 822, 823, 824, 825, 826, 827, 828, 829, 830, 831, 832, 833, 834, 835, 836, 837, 838, 839, 840, 841, 842, 843, 844, 845, 846, 847, 848, 849, 850, 851, 852, 853, 854, 855, 856, 857, 858, 859, 860, 861, 862, 863, 864, 865, 866, 867, 868, 869, 870, 871, 872],
      "AcquisitionTime": ["203457.160000", "203457.620000", "203458.080000", "203458.540000", "203459.000000", "203459.460000", "203459.920000", "203500.380000", "203500.840000", "203501.300000", "203501.760000", "203502.220000", "203502.680000", "203503.140000", "203503.600000", "203504.060000", "203504.520000", "203504.980000", "203505.440000", "203505.900000", "203506.360000", "203506.820000", "203507.280000", "203507.740000", "203508.200000", "203508.660000", "203509.120000", "203509.580000", "203510.040000", "203510.500000", "203510.960000", "203511.420000", "203511.880000", "203512.340000", "203512.800000", "203513.260000", "203513.720000", "203514.180000", "203514.640000", "203515.100000", "203515.560000", "203516.020000", "203516.480000", "203516.940000", "203517.400000", "203517.860000", "203518.320000", "203518.780000", "203519.240000", "203519.700000", "203520.160000", "203520.620000", "203521.080000", "203521.540000", "203522.000000", "203522.460000", "203522.920000", "203523.380000", "203523.840000", "203524.300000", "203524.760000", "203525.220000", "203525.680000", "203526.140000", "203526.600000", "203527.060000", "203527.520000", "203527.980000", "203528.440000", "203528.900000", "203529.360000", "203529.820000", "203530.280000", "203530.740000", "203531.200000", "203531.660000", "203532.120000", "203532.580000", "203533.040000", "203533.500000", "203533.960000", "203534.420000", "203534.880000", "203535.340000", "203535.800000", "203536.260000", "203536.720000", "203537.180000", "203537.640000", "203538.100000", "203538.560000", "203539.020000", "203539.480000", "203539.940000", "203540.400000", "203540.860000", "203541.320000", "203541.780000", "203542.240000", "203542.700000", "203543.160000", "203543.620000", "203544.080000", "203544.540000", "203545.000000", "203545.460000", "203545.920000", "203546.380000", "203546.840000", "203547.300000", "203547.760000", "203548.220000", "203548.680000", "203549.140000", "203549.600000", "203550.060000", "203550.520000", "203550.980000", "203551.440000", "203551.900000", "203552.360000", "203552.820000", "203553.280000", "203553.740000", "203554.200000", "203554.660000", "203555.120000", "203555.580000", "203556.040000", "203556.500000", "203556.960000", "203557.420000", "203557.880000", "203558.340000", "203558.800000", "203559.260000", "203559.720000", "203600.180000", "203600.640000", "203601.100000", "203601.560000", "203602.020000", "203602.480000", "203602.940000", "203603.400000", "203603.860000", "203604.320000", "203604.780000", "203605.240000", "203605.700000", "203606.160000", "203606.620000", "203607.080000", "203607.540000", "203608.000000", "203608.460000", "203608.920000", "203609.380000", "203609.840000", "203610.300000", "203610.760000", "203611.220000", "203611.680000", "203612.140000", "203612.600000", "203613.060000", "203613.520000", "203613.980000", "203614.440000", "203614.900000", "203615.360000", "203615.820000", "203616.280000", "203616.740000", "203617.200000", "203617.660000", "203618.120000", "203618.580000", "203619.040000", "203619.500000", "203619.960000", "203620.420000", "203620.880000", "203621.340000", "203621.800000", "203622.260000", "203622.720000", "203623.180000", "203623.640000", "203624.100000", "203624.560000", "203625.020000", "203625.480000", "203625.940000", "203626.400000", "203626.860000", "203627.320000", "203627.780000", "203628.240000", "203628.700000", "203629.160000", "203629.620000", "203630.080000", "203630.540000", "203631.000000", "203631.460000", "203631.920000", "203632.380000", "203632.840000", "203633.300000", "203633.760000", "203634.220000", "203634.680000", "203635.140000", "203635.600000", "203636.060000", "203636.520000", "203636.980000", "203637.440000", "203637.900000", "203638.360000", "203638.820000", "203639.280000", "203639.740000", "203640.200000", "203640.660000", "203641.120000", "203641.580000", "203642.040000", "203642.500000", "203642.960000", "203643.420000", "203643.880000", "203644.340000", "203644.800000", "203645.260000", "203645.720000", "203646.180000", "203646.640000", "203647.100000", "203647.560000", "203648.020000", "203648.480000", "203648.940000", "203649.400000", "203649.860000", "203650.320000", "203650.780000", "203651.240000", "203651.700000", "203652.160000", "203652.620000", "203653.080000", "203653.540000", "203654.000000", "203654.460000", "203654.920000", "203655.380000", "203655.840000", "203656.300000", "203656.760000", "203657.220000", "203657.680000", "203658.140000", "203658.600000", "203659.060000", "203659.520000", "203659.980000", "203700.440000", "203700.900000", "203701.360000", "203701.820000", "203702.280000", "203702.740000", "203703.200000", "203703.660000", "203704.120000", "203704.580000", "203705.040000", "203705.500000", "203705.960000", "203706.420000", "203706.880000", "203707.340000", "203707.800000", "203708.260000", "203708.720000", "203709.180000", "203709.640000", "203710.100000", "203710.560000", "203711.020000", "203711.480000", "203711.940000", "203712.400000", "203712.860000", "203713.320000", "203713.780000", "203714.240000", "203714.700000", "203715.160000", "203715.620000", "203716.080000", "203716.540000", "203717.000000", "203717.460000", "203717.920000", "203718.380000", "203718.840000", "203719.300000", "203719.760000", "203720.220000", "203720.680000", "203721.140000", "203721.600000", "203722.060000", "203722.520000", "203722.980000", "203723.440000", "203723.900000", "203724.360000", "203724.820000", "203725.280000", "203725.740000", "203726.200000", "203726.660000", "203727.120000", "203727.580000", "203728.040000", "203728.500000", "203728.960000", "203729.420000", "203729.880000", "203730.340000", "203730.800000", "203731.260000", "203731.720000", "203732.180000", "203732.640000", "203733.100000", "203733.560000", "203734.020000", "203734.480000", "203734.940000", "203735.400000", "203735.860000", "203736.320000", "203736.780000", "203737.240000", "203737.700000", "203738.160000", "203738.620000", "203739.080000", "203739.540000", "203740.000000", "203740.460000", "203740.920000", "203741.380000", "203741.840000", "203742.300000", "203742.760000", "203743.220000", "203743.680000", "203744.140000", "203744.600000", "203745.060000", "203745.520000", "203745.980000", "203746.440000", "203746.900000", "203747.360000", "203747.820000", "203748.280000", "203748.740000", "203749.200000", "203749.660000", "203750.120000", "203750.580000", "203751.040000", "203751.500000", "203751.960000", "203752.420000", "203752.880000", "203753.340000", "203753.800000", "203754.260000", "203754.720000", "203755.180000", "203755.640000", "203756.100000", "203756.560000", "203757.020000", "203757.480000", "203757.940000", "203758.400000", "203758.860000", "203759.320000", "203759.780000", "203800.240000", "203800.700000", "203801.160000", "203801.620000", "203802.080000", "203802.540000", "203803.000000", "203803.460000", "203803.920000", "203804.380000", "203804.840000", "203805.300000", "203805.760000", "203806.220000", "203806.680000", "203807.140000", "203807.600000", "203808.060000", "203808.520000", "203808.980000", "203809.440000", "203809.900000", "203810.360000", "203810.820000", "203811.280000", "203811.740000", "203812.200000", "203812.660000", "203813.120000", "203813.580000", "203814.040000", "203814.500000", "203814.960000", "203815.420000", "203815.880000", "203816.340000", "203816.800000", "203817.260000", "203817.720000", "203818.180000", "203818.640000", "203819.100000", "203819.560000", "203820.020000", "203820.480000", "203820.940000", "203821.400000", "203821.860000", "203822.320000", "203822.780000", "203823.240000", "203823.700000", "203824.160000", "203824.620000", "203825.080000", "203825.540000", "203826.000000", "203826.460000", "203826.920000", "203827.380000", "203827.840000", "203828.300000", "203828.760000", "203829.220000", "203829.680000", "203830.140000", "203830.600000", "203831.060000", "203831.520000", "203831.980000", "203832.440000", "203832.900000", "203833.360000", "203833.820000", "203834.280000", "203834.740000", "203835.200000", "203835.660000", "203836.120000", "203836.580000", "203837.040000", "203837.500000", "203837.960000", "203838.420000", "203838.880000", "203839.340000", "203839.800000", "203840.260000", "203840.720000", "203841.180000", "203841.640000", "203842.100000", "203842.560000", "203843.020000", "203843.480000", "203843.940000", "203844.400000", "203844.860000", "203845.320000", "203845.780000", "203846.240000", "203846.700000", "203847.160000", "203847.620000", "203848.080000", "203848.540000", "203849.000000", "203849.460000", "203849.920000", "203850.380000", "203850.840000", "203851.300000", "203851.760000", "203852.220000", "203852.680000", "203853.140000", "203853.600000", "203854.060000", "203854.520000", "203854.980000", "203855.440000", "203855.900000", "203856.360000", "203856.820000", "203857.280000", "203857.740000", "203858.200000", "203858.660000", "203859.120000", "203859.580000", "203900.040000", "203900.500000", "203900.960000", "203901.420000", "203901.880000", "203902.340000", "203902.800000", "203903.260000", "203903.720000", "203904.180000", "203904.640000", "203905.100000", "203905.560000", "203906.020000", "203906.480000", "203906.940000", "203907.400000", "203907.860000", "203908.320000", "203908.780000", "203909.240000", "203909.700000", "203910.160000", "203910.620000", "203911.080000", "203911.540000", "203912.000000", "203912.460000", "203912.920000", "203913.380000", "203913.840000", "203914.300000", "203914.760000", "203915.220000", "203915.680000", "203916.140000", "203916.600000", "203917.060000", "203917.520000", "203917.980000", "203918.440000", "203918.900000", "203919.360000", "203919.820000", "203920.280000", "203920.740000", "203921.200000", "203921.660000", "203922.120000", "203922.580000", "203923.040000", "203923.500000", "203923.960000", "203924.420000", "203924.880000", "203925.340000", "203925.800000", "203926.260000", "203926.720000", "203927.180000", "203927.640000", "203928.100000", "203928.560000", "203929.020000", "203929.480000", "203929.940000", "203930.400000", "203930.860000", "203931.320000", "203931.780000", "203932.240000", "203932.700000", "203933.160000", "203933.620000", "203934.080000", "203934.540000", "203935.000000", "203935.460000", "203935.920000", "203936.380000", "203936.840000", "203937.300000", "203937.760000", "203938.220000", "203938.680000", "203939.140000", "203939.600000", "203940.060000", "203940.520000", "203940.980000", "203941.440000", "203941.900000", "203942.360000", "203942.820000", "203943.280000", "203943.740000", "203944.200000", "203944.660000", "203945.120000", "203945.580000", "203946.040000", "203946.500000", "203946.960000", "203947.420000", "203947.880000", "203948.340000", "203948.800000", "203949.260000", "203949.720000", "203950.180000", "203950.640000", "203951.100000", "203951.560000", "203952.020000", "203952.480000", "203952.940000", "203953.400000", "203953.860000", "203954.320000", "203954.780000", "203955.240000", "203955.700000", "203956.160000", "203956.620000", "203957.080000", "203957.540000", "203958.000000", "203958.460000", "203958.920000", "203959.380000", "203959.840000", "204000.300000", "204000.760000", "204001.220000", "204001.680000", "204002.140000", "204002.600000", "204003.060000", "204003.520000", "204003.980000", "204004.440000", "204004.900000", "204005.360000", "204005.820000", "204006.280000", "204006.740000", "204007.200000", "204007.660000", "204008.120000", "204008.580000", "204009.040000", "204009.500000", "204009.960000", "204010.420000", "204010.880000", "204011.340000", "204011.800000", "204012.260000", "204012.720000", "204013.180000", "204013.640000", "204014.100000", "204014.560000", "204015.020000", "204015.480000", "204015.940000", "204016.400000", "204016.860000", "204017.320000", "204017.780000", "204018.240000", "204018.700000", "204019.160000", "204019.620000", "204020.080000", "204020.540000", "204021.000000", "204021.460000", "204021.920000", "204022.380000", "204022.840000", "204023.300000", "204023.760000", "204024.220000", "204024.680000", "204025.140000", "204025.600000", "204026.060000", "204026.520000", "204026.980000", "204027.440000", "204027.900000", "204028.360000", "204028.820000", "204029.280000", "204029.740000", "204030.200000", "204030.660000", "204031.120000", "204031.580000", "204032.040000", "204032.500000", "204032.960000", "204033.420000", "204033.880000", "204034.340000", "204034.800000", "204035.260000", "204035.720000", "204036.180000", "204036.640000", "204037.100000", "204037.560000", "204038.020000", "204038.480000", "204038.940000", "204039.400000", "204039.860000", "204040.320000", "204040.780000", "204041.240000", "204041.700000", "204042.160000", "204042.620000", "204043.080000", "204043.540000", "204044.000000", "204044.460000", "204044.920000", "204045.380000", "204045.840000", "204046.300000", "204046.760000", "204047.220000", "204047.680000", "204048.140000", "204048.600000", "204049.060000", "204049.520000", "204049.980000", "204050.440000", "204050.900000", "204051.360000", "204051.820000", "204052.280000", "204052.740000", "204053.200000", "204053.660000", "204054.120000", "204054.580000", "204055.040000", "204055.500000", "204055.960000", "204056.420000", "204056.880000", "204057.340000", "204057.800000", "204058.260000", "204058.720000", "204059.180000", "204059.640000", "204100.100000", "204100.560000", "204101.020000", "204101.480000", "204101.940000", "204102.400000", "204102.860000", "204103.320000", "204103.780000", "204104.240000", "204104.700000", "204105.160000", "204105.620000", "204106.080000", "204106.540000", "204107.000000", "204107.460000", "204107.920000", "204108.380000", "204108.840000", "204109.300000", "204109.760000", "204110.220000", "204110.680000", "204111.140000", "204111.600000", "204112.060000", "204112.520000", "204112.980000", "204113.440000", "204113.900000", "204114.360000", "204114.820000", "204115.280000", "204115.740000", "204116.200000", "204116.660000", "204117.120000", "204117.580000", "204118.040000", "204118.500000", "204118.960000", "204119.420000", "204119.880000", "204120.340000", "204120.800000", "204121.260000", "204121.720000", "204122.180000", "204122.640000", "204123.100000", "204123.560000", "204124.020000", "204124.480000", "204124.940000", "204125.400000", "204125.860000", "204126.320000", "204126.780000", "204127.240000", "204127.700000", "204128.160000", "204128.620000", "204129.080000", "204129.540000", "204130.000000", "204130.460000", "204130.920000", "204131.380000", "204131.840000", "204132.300000", "204132.760000", "204133.220000", "204133.680000", "204134.140000", "204134.600000", "204135.060000", "204135.520000", "204135.980000", "204136.440000", "204136.900000", "204137.360000", "204137.820000"],
