{
  "AcquisitionMatrixPE": 82,
  "AcquisitionNumber": 1,
  "AcquisitionTime": "21:14:51.617500",
  "BandwidthPerPixelPhaseEncode": 24.888,
  "BaseResolution": 82,
  "BodyPartExamined": "BRAIN",
  "ConsistencyInfo": "N4_VE11E_LATEST_20181129",
  "ConversionSoftware": "dcm2niix",
  "ConversionSoftwareVersion": "v1.0.20201102",
  "DerivedVendorReportedEchoSpacing": 0.00049,
  "DeviceSerialNumber": "66112",
  "DwellTime": 2e-06,
  "EchoTime": 0.0272,
  "EchoTrainLength": 82,
  "EffectiveEchoSpacing": 0.00049,
  "FlipAngle": 44,
  "ImageComments": "Unaliased MB8/PE3",
  "ImageOrientationPatientDICOM": [0.99455, 0.0217364, 0.101972, -0.0288227, 0.997232, 0.0685426],
  "ImageType": [
    "ORIGINAL",
    "PRIMARY",
    "M",
    "MB",
    "ND",
    "NORM",
    "MOSAIC"
],
  "ImagingFrequency": 123.259,
  "InPlanePhaseEncodingDirectionDICOM": "COL",
  "InstitutionAddress": "Maynard 3,Hanover,NH,US,03755",
  "InstitutionName": "Dartmouth College - PBS",
  "InstitutionalDepartmentName": "Department",
  "MRAcquisitionType": "2D",
  "MagneticFieldStrength": 3,
  "Manufacturer": "Siemens",
  "ManufacturersModelName": "Prisma",
  "Modality": "MR",
  "MultibandAccelerationFactor": 8,
  "PartialFourier": 1,
  "PatientPosition": "HFS",
  "PercentPhaseFOV": 100,
  "PercentSampling": 100,
  "PhaseEncodingDirection": "j-",
  "PhaseEncodingSteps": 82,
  "PhaseResolution": 1,
  "PixelBandwidth": 3050,
  "ProcedureStepDescription": "Wager_Wager^1076_spacetop",
  "ProtocolName": "func_run-03_task-alignvideo_acq-ap-mb8",
  "PulseSequenceDetails": "%CustomerSeq%\\cmrr_mbep2d_bold",
  "ReceiveCoilActiveElements": "HEA;HEP",
  "ReceiveCoilName": "Head_32",
  "ReconMatrixPE": 82,
  "RepetitionTime": 0.46,
  "SAR": 0.0849752,
  "ScanOptions": "FS",
  "ScanningSequence": "EP",
  "SequenceName": "epfid2d1_82",
  "SequenceVariant": "SK\\SS",
  "SeriesDescription": "func_run-03_task-alignvideo_acq-ap-mb8",
  "SeriesNumber": 34,
  "ShimSetting": [4246, -7815, -7284, 161, -134, -91, -110, 43],
  "SliceThickness": 2.7,
  "SliceTiming": [0, 0.2525, 0.0625, 0.315, 0.125, 0.3775, 0.19, 0, 0.2525, 0.0625, 0.315, 0.125, 0.3775, 0.19, 0, 0.2525, 0.0625, 0.315, 0.125, 0.3775, 0.19, 0, 0.2525, 0.0625, 0.315, 0.125, 0.3775, 0.19, 0, 0.2525, 0.0625, 0.315, 0.125, 0.3775, 0.19, 0, 0.2525, 0.0625, 0.315, 0.125, 0.3775, 0.19, 0, 0.2525, 0.0625, 0.315, 0.125, 0.3775, 0.19, 0, 0.2525, 0.0625, 0.315, 0.125, 0.3775, 0.19],
  "SoftwareVersions": "syngo MR E11",
  "SpacingBetweenSlices": 2.7,
  "StationName": "AWP66112",
  "TaskName": "alignvideo",
  "TotalReadoutTime": 0.03969,
  "TxRefAmp": 230.817,
  "WipMemBlock": "b005f755-2152-4faa-aa0f-849ee339fc65||Sequence: R016 ve11e/master r/434b28f1; Aug  7 2019 18:53:46 by eja",
  "dcmmeta_affine": [
    [-2.668304443359375, -0.07732916623353958, 0.27053916454315186, 107.93890380859375],
    [-0.058317042887210846, 2.67549991607666, 0.19199207425117493, -90.19757843017578],
    [0.27358299493789673, -0.18389490246772766, 2.6795425415039062, -91.74288177490234],
    [0.0, 0.0, 0.0, 1.0]
],
  "dcmmeta_reorient_transform": [
    [0.0, -1.0, 0.0, 81.0],
    [1.0, 0.0, 0.0, 0.0],
    [0.0, 0.0, 1.0, 0.0],
    [0.0, 0.0, 0.0, 1.0]
],
  "dcmmeta_shape": [82, 82, 56, 1016],
  "dcmmeta_slice_dim": 2,
  "dcmmeta_version": 0.6,
  "global": {
    "const": {
      "AccessionNumber": "A004478",
      "AcquisitionMatrix": [82, 0, 0, 82],
      "AngioFlag": "N",
      "BitsAllocated": 16,
      "BitsStored": 16,
      "BodyPartExamined": "BRAIN",
      "Columns": 656,
      "EchoNumbers": 1,
      "EchoTime": 27.2,
      "EchoTrainLength": 82,
      "FlipAngle": 44.0,
      "HighBit": 15,
      "ImageOrientationPatient": [0.99454978465491, 0.02173635185271, 0.10197184342265, -0.0288226898115, 0.99723174761619, 0.06854264437838],
      "ImagePositionPatient": [-845.28511948033, -911.12336351562, -237.93452774479],
      "ImageType": [
        "ORIGINAL",
        "PRIMARY",
        "M",
        "MB",
        "ND",
        "NORM",
        "MOSAIC"
],
      "ImagedNucleus": "1H",
      "ImagingFrequency": 123.259134,
      "InPlanePhaseEncodingDirection": "COL",
      "MRAcquisitionType": "2D",
      "MagneticFieldStrength": 3.0,
      "Manufacturer": "SIEMENS",
      "ManufacturerModelName": "Prisma",
      "Modality": "MR",
      "NumberOfAverages": 1.0,
      "NumberOfPhaseEncodingSteps": 82,
      "PercentPhaseFieldOfView": 100.0,
      "PercentSampling": 100.0,
      "PerformedProcedureStepStartTime": "193430.055000",
      "PhotometricInterpretation": "MONOCHROME2",
      "PixelBandwidth": 3050.0,
      "PixelRepresentation": 0,
      "PixelSpacing": [2.6829268932343, 2.6829268932343],
      "ProtocolName": "func_run-03_task-alignvideo_acq-ap-mb8",
      "RepetitionTime": 460.0,
      "Rows": 656,
      "SAR": 0.08497516954651,
      "SamplesPerPixel": 1,
      "ScanOptions": "FS",
      "ScanningSequence": "EP",
      "SequenceName": "epfid2d1_82",
      "SequenceVariant": [
        "SK",
        "SS"
],
      "SeriesDescription": "func_run-03_task-alignvideo_acq-ap-mb8",
      "SeriesNumber": 34,
      "SeriesTime": "211511.860000",
      "SliceLocation": -86.646097654659,
      "SliceThickness": 2.7000000476837,
      "SmallestImagePixelValue": 0,
      "SoftwareVersions": "syngo MR E11",
      "SpacingBetweenSlices": 2.7000000475106,
      "SpecificCharacterSet": "ISO_IR 100",
      "StudyID": "1",
      "StudyTime": "193429.908000",
      "TransmitCoilName": "Body",
      "VariableFlipAngleFlag": "N",
      "WindowCenterWidthExplanation": "Algo1"
    },
    "slices": {}
  },
  "time": {
    "samples": {
      "AcquisitionNumber": [1, 2, 3, 4, 5, 6, 7, 8, 9, 10, 11, 12, 13, 14, 15, 16, 17, 18, 19, 20, 21, 22, 23, 24, 25, 26, 27, 28, 29, 30, 31, 32, 33, 34, 35, 36, 37, 38, 39, 40, 41, 42, 43, 44, 45, 46, 47, 48, 49, 50, 51, 52, 53, 54, 55, 56, 57, 58, 59, 60, 61, 62, 63, 64, 65, 66, 67, 68, 69, 70, 71, 72, 73, 74, 75, 76, 77, 78, 79, 80, 81, 82, 83, 84, 85, 86, 87, 88, 89, 90, 91, 92, 93, 94, 95, 96, 97, 98, 99, 100, 101, 102, 103, 104, 105, 106, 107, 108, 109, 110, 111, 112, 113, 114, 115, 116, 117, 118, 119, 120, 121, 122, 123, 124, 125, 126, 127, 128, 129, 130, 131, 132, 133, 134, 135, 136, 137, 138, 139, 140, 141, 142, 143, 144, 145, 146, 147, 148, 149, 150, 151, 152, 153, 154, 155, 156, 157, 158, 159, 160, 161, 162, 163, 164, 165, 166, 167, 168, 169, 170, 171, 172, 173, 174, 175, 176, 177, 178, 179, 180, 181, 182, 183, 184, 185, 186, 187, 188, 189, 190, 191, 192, 193, 194, 195, 196, 197, 198, 199, 200, 201, 202, 203, 204, 205, 206, 207, 208, 209, 210, 211, 212, 213, 214, 215, 216, 217, 218, 219, 220, 221, 222, 223, 224, 225, 226, 227, 228, 229, 230, 231, 232, 233, 234, 235, 236, 237, 238, 239, 240, 241, 242, 243, 244, 245, 246, 247, 248, 249, 250, 251, 252, 253, 254, 255, 256, 257, 258, 259, 260, 261, 262, 263, 264, 265, 266, 267, 268, 269, 270, 271, 272, 273, 274, 275, 276, 277, 278, 279, 280, 281, 282, 283, 284, 285, 286, 287, 288, 289, 290, 291, 292, 293, 294, 295, 296, 297, 298, 299, 300, 301, 302, 303, 304, 305, 306, 307, 308, 309, 310, 311, 312, 313, 314, 315, 316, 317, 318, 319, 320, 321, 322, 323, 324, 325, 326, 327, 328, 329, 330, 331, 332, 333, 334, 335, 336, 337, 338, 339, 340, 341, 342, 343, 344, 345, 346, 347, 348, 349, 350, 351, 352, 353, 354, 355, 356, 357, 358, 359, 360, 361, 362, 363, 364, 365, 366, 367, 368, 369, 370, 371, 372, 373, 374, 375, 376, 377, 378, 379, 380, 381, 382, 383, 384, 385, 386, 387, 388, 389, 390, 391, 392, 393, 394, 395, 396, 397, 398, 399, 400, 401, 402, 403, 404, 405, 406, 407, 408, 409, 410, 411, 412, 413, 414, 415, 416, 417, 418, 419, 420, 421, 422, 423, 424, 425, 426, 427, 428, 429, 430, 431, 432, 433, 434, 435, 436, 437, 438, 439, 440, 441, 442, 443, 444, 445, 446, 447, 448, 449, 450, 451, 452, 453, 454, 455, 456, 457, 458, 459, 460, 461, 462, 463, 464, 465, 466, 467, 468, 469, 470, 471, 472, 473, 474, 475, 476, 477, 478, 479, 480, 481, 482, 483, 484, 485, 486, 487, 488, 489, 490, 491, 492, 493, 494, 495, 496, 497, 498, 499, 500, 501, 502, 503, 504, 505, 506, 507, 508, 509, 510, 511, 512, 513, 514, 515, 516, 517, 518, 519, 520, 521, 522, 523, 524, 525, 526, 527, 528, 529, 530, 531, 532, 533, 534, 535, 536, 537, 538, 539, 540, 541, 542, 543, 544, 545, 546, 547, 548, 549, 550, 551, 552, 553, 554, 555, 556, 557, 558, 559, 560, 561, 562, 563, 564, 565, 566, 567, 568, 569, 570, 571, 572, 573, 574, 575, 576, 577, 578, 579, 580, 581, 582, 583, 584, 585, 586, 587, 588, 589, 590, 591, 592, 593, 594, 595, 596, 597, 598, 599, 600, 601, 602, 603, 604, 605, 606, 607, 608, 609, 610, 611, 612, 613, 614, 615, 616, 617, 618, 619, 620, 621, 622, 623, 624, 625, 626, 627, 628, 629, 630, 631, 632, 633, 634, 635, 636, 637, 638, 639, 640, 641, 642, 643, 644, 645, 646, 647, 648, 649, 650, 651, 652, 653, 654, 655, 656, 657, 658, 659, 660, 661, 662, 663, 664, 665, 666, 667, 668, 669, 670, 671, 672, 673, 674, 675, 676, 677, 678, 679, 680, 681, 682, 683, 684, 685, 686, 687, 688, 689, 690, 691, 692, 693, 694, 695, 696, 697, 698, 699, 700, 701, 702, 703, 704, 705, 706, 707, 708, 709, 710, 711, 712, 713, 714, 715, 716, 717, 718, 719, 720, 721, 722, 723, 724, 725, 726, 727, 728, 729, 730, 731, 732, 733, 734, 735, 736, 737, 738, 739, 740, 741, 742, 743, 744, 745, 746, 747, 748, 749, 750, 751, 752, 753, 754, 755, 756, 757, 758, 759, 760, 761, 762, 763, 764, 765, 766, 767, 768, 769, 770, 771, 772, 773, 774, 775, 776, 777, 778, 779, 780, 781, 782, 783, 784, 785, 786, 787, 788, 789, 790, 791, 792, 793, 794, 795, 796, 797, 798, 799, 800, 801, 802, 803, 804, 805, 806, 807, 808, 809, 810, 811, 812, 813, 814, 815, 816, 817, 818, 819, 820, 821, 822, 823, 824, 825, 826, 827, 828, 829, 830, 831, 832, 833, 834, 835, 836, 837, 838, 839, 840, 841, 842, 843, 844, 845, 846, 847, 848, 849, 850, 851, 852, 853, 854, 855, 856, 857, 858, 859, 860, 861, 862, 863, 864, 865, 866, 867, 868, 869, 870, 871, 872, 873, 874, 875, 876, 877, 878, 879, 880, 881, 882, 883, 884, 885, 886, 887, 888, 889, 890, 891, 892, 893, 894, 895, 896, 897, 898, 899, 900, 901, 902, 903, 904, 905, 906, 907, 908, 909, 910, 911, 912, 913, 914, 915, 916, 917, 918, 919, 920, 921, 922, 923, 924, 925, 926, 927, 928, 929, 930, 931, 932, 933, 934, 935, 936, 937, 938, 939, 940, 941, 942, 943, 944, 945, 946, 947, 948, 949, 950, 951, 952, 953, 954, 955, 956, 957, 958, 959, 960, 961, 962, 963, 964, 965, 966, 967, 968, 969, 970, 971, 972, 973, 974, 975, 976, 977, 978, 979, 980, 981, 982, 983, 984, 985, 986, 987, 988, 989, 990, 991, 992, 993, 994, 995, 996, 997, 998, 999, 1000, 1001, 1002, 1003, 1004, 1005, 1006, 1007, 1008, 1009, 1010, 1011, 1012, 1013, 1014, 1015, 1016],
      "AcquisitionTime": ["211451.617500", "211452.077500", "211452.537500", "211452.997500", "211453.457500", "211453.917500", "211454.377500", "211454.837500", "211455.297500", "211455.757500", "211456.217500", "211456.677500", "211457.137500", "211457.597500", "211458.057500", "211458.517500", "211458.977500", "211459.437500", "211459.897500", "211500.357500", "211500.817500", "211501.277500", "211501.737500", "211502.197500", "211502.657500", "211503.117500", "211503.577500", "211504.037500", "211504.497500", "211504.957500", "211505.417500", "211505.877500", "211506.337500", "211506.797500", "211507.257500", "211507.717500", "211508.177500", "211508.637500", "211509.097500", "211509.557500", "211510.017500", "211510.477500", "211510.937500", "211511.397500", "211511.857500", "211512.317500", "211512.777500", "211513.237500", "211513.697500", "211514.157500", "211514.617500", "211515.077500", "211515.537500", "211515.997500", "211516.457500", "211516.917500", "211517.377500", "211517.837500", "211518.297500", "211518.757500", "211519.217500", "211519.677500", "211520.137500", "211520.597500", "211521.057500", "211521.517500", "211521.977500", "211522.437500", "211522.897500", "211523.357500", "211523.817500", "211524.277500", "211524.737500", "211525.197500", "211525.657500", "211526.117500", "211526.577500", "211527.037500", "211527.497500", "211527.957500", "211528.417500", "211528.877500", "211529.337500", "211529.797500", "211530.257500", "211530.717500", "211531.177500", "211531.637500", "211532.097500", "211532.557500", "211533.017500", "211533.477500", "211533.937500", "211534.397500", "211534.857500", "211535.317500", "211535.777500", "211536.237500", "211536.697500", "211537.157500", "211537.617500", "211538.077500", "211538.537500", "211538.997500", "211539.457500", "211539.917500", "211540.377500", "211540.837500", "211541.297500", "211541.757500", "211542.217500", "211542.677500", "211543.137500", "211543.597500", "211544.057500", "211544.517500", "211544.977500", "211545.437500", "211545.897500", "211546.357500", "211546.817500", "211547.277500", "211547.737500", "211548.197500", "211548.657500", "211549.117500", "211549.577500", "211550.037500", "211550.497500", "211550.957500", "211551.417500", "211551.877500", "211552.337500", "211552.797500", "211553.257500", "211553.717500", "211554.177500", "211554.637500", "211555.097500", "211555.557500", "211556.017500", "211556.477500", "211556.937500", "211557.397500", "211557.857500", "211558.317500", "211558.777500", "211559.237500", "211559.697500", "211600.157500", "211600.617500", "211601.077500", "211601.537500", "211601.997500", "211602.457500", "211602.917500", "211603.377500", "211603.837500", "211604.297500", "211604.757500", "211605.217500", "211605.677500", "211606.137500", "211606.597500", "211607.057500", "211607.517500", "211607.977500", "211608.437500", "211608.897500", "211609.357500", "211609.817500", "211610.277500", "211610.737500", "211611.197500", "211611.657500", "211612.117500", "211612.577500", "211613.037500", "211613.497500", "211613.957500", "211614.417500", "211614.877500", "211615.337500", "211615.797500", "211616.257500", "211616.717500", "211617.177500", "211617.637500", "211618.097500", "211618.557500", "211619.017500", "211619.477500", "211619.937500", "211620.397500", "211620.857500", "211621.317500", "211621.777500", "211622.237500", "211622.697500", "211623.157500", "211623.617500", "211624.077500", "211624.537500", "211624.997500", "211625.457500", "211625.917500", "211626.377500", "211626.837500", "211627.297500", "211627.757500", "211628.217500", "211628.677500", "211629.137500", "211629.597500", "211630.057500", "211630.517500", "211630.977500", "211631.437500", "211631.897500", "211632.357500", "211632.817500", "211633.277500", "211633.737500", "211634.197500", "211634.657500", "211635.117500", "211635.577500", "211636.037500", "211636.497500", "211636.957500", "211637.417500", "211637.877500", "211638.337500", "211638.797500", "211639.257500", "211639.717500", "211640.177500", "211640.637500", "211641.097500", "211641.557500", "211642.017500", "211642.477500", "211642.937500", "211643.397500", "211643.857500", "211644.317500", "211644.777500", "211645.237500", "211645.697500", "211646.157500", "211646.617500", "211647.077500", "211647.537500", "211647.997500", "211648.457500", "211648.917500", "211649.377500", "211649.837500", "211650.297500", "211650.757500", "211651.217500", "211651.677500", "211652.137500", "211652.597500", "211653.057500", "211653.517500", "211653.977500", "211654.437500", "211654.897500", "211655.357500", "211655.817500", "211656.277500", "211656.737500", "211657.197500", "211657.657500", "211658.117500", "211658.577500", "211659.037500", "211659.497500", "211659.957500", "211700.417500", "211700.877500", "211701.337500", "211701.797500", "211702.257500", "211702.717500", "211703.177500", "211703.637500", "211704.097500", "211704.557500", "211705.017500", "211705.477500", "211705.937500", "211706.397500", "211706.857500", "211707.317500", "211707.777500", "211708.237500", "211708.697500", "211709.157500", "211709.617500", "211710.077500", "211710.537500", "211710.997500", "211711.457500", "211711.917500", "211712.377500", "211712.837500", "211713.297500", "211713.757500", "211714.217500", "211714.677500", "211715.137500", "211715.597500", "211716.057500", "211716.517500", "211716.977500", "211717.437500", "211717.897500", "211718.357500", "211718.817500", "211719.277500", "211719.737500", "211720.197500", "211720.657500", "211721.117500", "211721.577500", "211722.037500", "211722.497500", "211722.957500", "211723.417500", "211723.877500", "211724.337500", "211724.797500", "211725.257500", "211725.717500", "211726.177500", "211726.637500", "211727.097500", "211727.557500", "211728.017500", "211728.477500", "211728.937500", "211729.397500", "211729.857500", "211730.317500", "211730.777500", "211731.237500", "211731.697500", "211732.157500", "211732.617500", "211733.077500", "211733.537500", "211733.997500", "211734.457500", "211734.917500", "211735.377500", "211735.837500", "211736.297500", "211736.757500", "211737.217500", "211737.677500", "211738.137500", "211738.597500", "211739.057500", "211739.517500", "211739.977500", "211740.437500", "211740.897500", "211741.357500", "211741.817500", "211742.277500", "211742.737500", "211743.197500", "211743.657500", "211744.117500", "211744.577500", "211745.037500", "211745.497500", "211745.957500", "211746.417500", "211746.877500", "211747.337500", "211747.797500", "211748.257500", "211748.717500", "211749.177500", "211749.637500", "211750.097500", "211750.557500", "211751.017500", "211751.477500", "211751.937500", "211752.397500", "211752.857500", "211753.317500", "211753.777500", "211754.237500", "211754.697500", "211755.157500", "211755.617500", "211756.077500", "211756.537500", "211756.997500", "211757.457500", "211757.917500", "211758.377500", "211758.837500", "211759.297500", "211759.757500", "211800.217500", "211800.677500", "211801.137500", "211801.597500", "211802.057500", "211802.517500", "211802.977500", "211803.437500", "211803.897500", "211804.357500", "211804.817500", "211805.277500", "211805.737500", "211806.197500", "211806.657500", "211807.117500", "211807.577500", "211808.037500", "211808.497500", "211808.957500", "211809.417500", "211809.877500", "211810.337500", "211810.797500", "211811.257500", "211811.717500", "211812.177500", "211812.637500", "211813.097500", "211813.557500", "211814.017500", "211814.477500", "211814.937500", "211815.397500", "211815.857500", "211816.317500", "211816.777500", "211817.237500", "211817.697500", "211818.157500", "211818.617500", "211819.077500", "211819.537500", "211819.997500", "211820.457500", "211820.917500", "211821.377500", "211821.837500", "211822.297500", "211822.757500", "211823.217500", "211823.677500", "211824.137500", "211824.597500", "211825.057500", "211825.517500", "211825.977500", "211826.437500", "211826.897500", "211827.357500", "211827.817500", "211828.277500", "211828.737500", "211829.197500", "211829.657500", "211830.117500", "211830.577500", "211831.037500", "211831.497500", "211831.957500", "211832.417500", "211832.877500", "211833.337500", "211833.797500", "211834.257500", "211834.717500", "211835.177500", "211835.637500", "211836.097500", "211836.557500", "211837.017500", "211837.477500", "211837.937500", "211838.397500", "211838.857500", "211839.317500", "211839.777500", "211840.237500", "211840.697500", "211841.157500", "211841.617500", "211842.077500", "211842.537500", "211842.997500", "211843.457500", "211843.917500", "211844.377500", "211844.837500", "211845.297500", "211845.757500", "211846.217500", "211846.677500", "211847.137500", "211847.597500", "211848.057500", "211848.517500", "211848.977500", "211849.437500", "211849.897500", "211850.357500", "211850.817500", "211851.277500", "211851.737500", "211852.197500", "211852.657500", "211853.117500", "211853.577500", "211854.037500", "211854.497500", "211854.957500", "211855.417500", "211855.877500", "211856.337500", "211856.797500", "211857.257500", "211857.717500", "211858.177500", "211858.637500", "211859.097500", "211859.557500", "211900.017500", "211900.477500", "211900.937500", "211901.397500", "211901.857500", "211902.317500", "211902.777500", "211903.237500", "211903.697500", "211904.157500", "211904.617500", "211905.077500", "211905.537500", "211905.997500", "211906.457500", "211906.917500", "211907.377500", "211907.837500", "211908.297500", "211908.757500", "211909.217500", "211909.677500", "211910.137500", "211910.597500", "211911.057500", "211911.517500", "211911.977500", "211912.437500", "211912.897500", "211913.357500", "211913.817500", "211914.277500", "211914.737500", "211915.197500", "211915.657500", "211916.117500", "211916.577500", "211917.037500", "211917.497500", "211917.957500", "211918.417500", "211918.877500", "211919.337500", "211919.797500", "211920.257500", "211920.717500", "211921.177500", "211921.637500", "211922.097500", "211922.557500", "211923.017500", "211923.477500", "211923.937500", "211924.397500", "211924.857500", "211925.317500", "211925.777500", "211926.237500", "211926.697500", "211927.157500", "211927.617500", "211928.077500", "211928.537500", "211928.997500", "211929.457500", "211929.917500", "211930.377500", "211930.837500", "211931.297500", "211931.757500", "211932.217500", "211932.677500", "211933.137500", "211933.597500", "211934.057500", "211934.517500", "211934.977500", "211935.437500", "211935.897500", "211936.357500", "211936.817500", "211937.277500", "211937.737500", "211938.197500", "211938.657500", "211939.117500", "211939.577500", "211940.037500", "211940.497500", "211940.957500", "211941.417500", "211941.877500", "211942.337500", "211942.797500", "211943.257500", "211943.717500", "211944.177500", "211944.637500", "211945.097500", "211945.557500", "211946.017500", "211946.477500", "211946.937500", "211947.397500", "211947.857500", "211948.317500", "211948.777500", "211949.237500", "211949.697500", "211950.157500", "211950.617500", "211951.077500", "211951.537500", "211951.997500", "211952.457500", "211952.917500", "211953.377500", "211953.837500", "211954.297500", "211954.757500", "211955.217500", "211955.677500", "211956.137500", "211956.597500", "211957.057500", "211957.517500", "211957.977500", "211958.437500", "211958.897500", "211959.357500", "211959.817500", "212000.277500", "212000.737500", "212001.197500", "212001.657500", "212002.117500", "212002.577500", "212003.037500", "212003.497500", "212003.957500", "212004.417500", "212004.877500", "212005.337500", "212005.797500", "212006.257500", "212006.717500", "212007.177500", "212007.637500", "212008.097500", "212008.557500", "212009.017500", "212009.477500", "212009.937500", "212010.397500", "212010.857500", "212011.317500", "212011.777500", "212012.237500", "212012.697500", "212013.157500", "212013.617500", "212014.077500", "212014.537500", "212014.997500", "212015.457500", "212015.917500", "212016.377500", "212016.837500", "212017.297500", "212017.757500", "212018.217500", "212018.677500", "212019.137500", "212019.597500", "212020.057500", "212020.517500", "212020.977500", "212021.437500", "212021.897500", "212022.357500", "212022.817500", "212023.277500", "212023.737500", "212024.197500", "212024.657500", "212025.117500", "212025.577500", "212026.037500", "212026.497500", "212026.957500", "212027.417500", "212027.877500", "212028.337500", "212028.797500", "212029.257500", "212029.717500", "212030.177500", "212030.637500", "212031.097500", "212031.557500", "212032.017500", "212032.477500", "212032.937500", "212033.397500", "212033.857500", "212034.317500", "212034.777500", "212035.237500", "212035.697500", "212036.157500", "212036.617500", "212037.077500", "212037.537500", "212037.997500", "212038.457500", "212038.917500", "212039.377500", "212039.837500", "212040.297500", "212040.757500", "212041.217500", "212041.677500", "212042.137500", "212042.597500", "212043.057500", "212043.517500", "212043.977500", "212044.437500", "212044.897500", "212045.357500", "212045.817500", "212046.277500", "212046.737500", "212047.197500", "212047.657500", "212048.117500", "212048.577500", "212049.037500", "212049.497500", "212049.957500", "212050.417500", "212050.877500", "212051.337500", "212051.797500", "212052.257500", "212052.717500", "212053.177500", "212053.637500", "212054.097500", "212054.557500", "212055.017500", "212055.477500", "212055.937500", "212056.397500", "212056.857500", "212057.317500", "212057.777500", "212058.237500", "212058.697500", "212059.157500", "212059.617500", "212100.077500", "212100.537500", "212100.997500", "212101.457500", "212101.917500", "212102.377500", "212102.837500", "212103.297500", "212103.757500", "212104.217500", "212104.677500", "212105.137500", "212105.597500", "212106.057500", "212106.517500", "212106.977500", "212107.437500", "212107.897500", "212108.357500", "212108.817500", "212109.277500", "212109.737500", "212110.197500", "212110.657500", "212111.117500", "212111.577500", "212112.037500", "212112.497500", "212112.957500", "212113.417500", "212113.877500", "212114.337500", "212114.797500", "212115.257500", "212115.717500", "212116.177500", "212116.637500", "212117.097500", "212117.557500", "212118.017500", "212118.477500", "212118.937500", "212119.397500", "212119.857500", "212120.317500", "212120.777500", "212121.237500", "212121.697500", "212122.157500", "212122.617500", "212123.077500", "212123.537500", "212123.997500", "212124.457500", "212124.917500", "212125.377500", "212125.837500", "212126.297500", "212126.757500", "212127.217500", "212127.677500", "212128.137500", "212128.597500", "212129.057500", "212129.517500", "212129.977500", "212130.437500", "212130.897500", "212131.357500", "212131.817500", "212132.277500", "212132.737500", "212133.197500", "212133.657500", "212134.117500", "212134.577500", "212135.037500", "212135.497500", "212135.957500", "212136.417500", "212136.877500", "212137.337500", "212137.797500", "212138.257500", "212138.717500", "212139.177500", "212139.637500", "212140.097500", "212140.557500", "212141.017500", "212141.477500", "212141.937500", "212142.397500", "212142.857500", "212143.317500", "212143.777500", "212144.237500", "212144.697500", "212145.157500", "212145.617500", "212146.077500", "212146.537500", "212146.997500", "212147.457500", "212147.917500", "212148.377500", "212148.837500", "212149.297500", "212149.757500", "212150.217500", "212150.677500", "212151.137500", "212151.597500", "212152.057500", "212152.517500", "212152.977500", "212153.437500", "212153.897500", "212154.357500", "212154.817500", "212155.277500", "212155.737500", "212156.197500", "212156.657500", "212157.117500", "212157.577500", "212158.037500", "212158.497500", "212158.957500", "212159.417500", "212159.877500", "212200.337500", "212200.797500", "212201.257500", "212201.717500", "212202.177500", "212202.637500", "212203.097500", "212203.557500", "212204.017500", "212204.477500", "212204.937500", "212205.397500", "212205.857500", "212206.317500", "212206.777500", "212207.237500", "212207.697500", "212208.157500", "212208.617500", "212209.077500", "212209.537500", "212209.997500", "212210.457500", "212210.917500", "212211.377500", "212211.837500", "212212.297500", "212212.757500", "212213.217500", "212213.677500", "212214.137500", "212214.597500", "212215.057500", "212215.517500", "212215.977500", "212216.437500", "212216.897500", "212217.357500", "212217.817500", "212218.277500", "212218.737500", "212219.197500", "212219.657500", "212220.117500", "212220.577500", "212221.037500", "212221.497500", "212221.957500", "212222.417500", "212222.877500", "212223.337500", "212223.797500", "212224.257500", "212224.717500", "212225.177500", "212225.637500", "212226.097500", "212226.557500", "212227.017500", "212227.477500", "212227.937500", "212228.397500", "212228.857500", "212229.317500", "212229.777500", "212230.237500", "212230.697500", "212231.157500", "212231.617500", "212232.077500", "212232.537500", "212232.997500", "212233.457500", "212233.917500", "212234.377500", "212234.837500", "212235.297500", "212235.757500", "212236.217500", "212236.677500", "212237.137500", "212237.597500", "212238.057500", "212238.517500"],
