{
  "AcquisitionMatrixPE": 82,
  "AcquisitionNumber": 1,
  "AcquisitionTime": "13:45:55.900000",
  "BandwidthPerPixelPhaseEncode": 24.888,
  "BaseResolution": 82,
  "BodyPartExamined": "BRAIN",
  "ConsistencyInfo": "N4_VE11E_LATEST_20181129",
  "ConversionSoftware": "dcm2niix",
  "ConversionSoftwareVersion": "v1.0.20201102",
  "DerivedVendorReportedEchoSpacing": 0.00049,
  "DeviceSerialNumber": "66112",
  "DwellTime": 2e-06,
  "EchoTime": 0.0272,
  "EchoTrainLength": 82,
  "EffectiveEchoSpacing": 0.00049,
  "FlipAngle": 44,
  "ImageComments": "Unaliased MB8/PE3",
  "ImageOrientationPatientDICOM": [0.998631, 0.051432, -0.00950169, -0.0518118, 0.997626, -0.0453599],
  "ImageType": [
    "ORIGINAL",
    "PRIMARY",
    "M",
    "MB",
    "ND",
    "NORM",
    "MOSAIC"
],
  "ImagingFrequency": 123.252,
  "InPlanePhaseEncodingDirectionDICOM": "COL",
  "InstitutionAddress": "Maynard 3,Hanover,NH,US,03755",
  "InstitutionName": "Dartmouth College - PBS",
  "InstitutionalDepartmentName": "Department",
  "MRAcquisitionType": "2D",
  "MagneticFieldStrength": 3,
  "Manufacturer": "Siemens",
  "ManufacturersModelName": "Prisma",
  "Modality": "MR",
  "MultibandAccelerationFactor": 8,
  "PartialFourier": 1,
  "PatientPosition": "HFS",
  "PercentPhaseFOV": 100,
  "PercentSampling": 100,
  "PhaseEncodingDirection": "j-",
  "PhaseEncodingSteps": 82,
  "PhaseResolution": 1,
  "PixelBandwidth": 3050,
  "ProcedureStepDescription": "Wager_Wager^1076_spacetop",
  "ProtocolName": "func_run-03_task-social_acq-ap-mb8",
  "PulseSequenceDetails": "%CustomerSeq%\\cmrr_mbep2d_bold",
  "ReceiveCoilActiveElements": "HEA;HEP",
  "ReceiveCoilName": "Head_32",
  "ReconMatrixPE": 82,
  "RepetitionTime": 0.46,
  "SAR": 0.100429,
  "ScanOptions": "FS",
  "ScanningSequence": "EP",
  "SequenceName": "epfid2d1_82",
  "SequenceVariant": "SK\\SS",
  "SeriesDescription": "func_run-03_task-social_acq-ap-mb8",
  "SeriesNumber": 24,
  "ShimSetting": [4127, -7728, -7267, 486, -72, -333, 47, 101],
  "SliceThickness": 2.7,
  "SliceTiming": [0, 0.25, 0.0625, 0.3125, 0.125, 0.375, 0.1875, 0, 0.25, 0.0625, 0.3125, 0.125, 0.375, 0.1875, 0, 0.25, 0.0625, 0.3125, 0.125, 0.375, 0.1875, 0, 0.25, 0.0625, 0.3125, 0.125, 0.375, 0.1875, 0, 0.25, 0.0625, 0.3125, 0.125, 0.375, 0.1875, 0, 0.25, 0.0625, 0.3125, 0.125, 0.375, 0.1875, 0, 0.25, 0.0625, 0.3125, 0.125, 0.375, 0.1875, 0, 0.25, 0.0625, 0.3125, 0.125, 0.375, 0.1875],
  "SoftwareVersions": "syngo MR E11",
  "SpacingBetweenSlices": 2.7,
  "StationName": "AWP66112",
  "TaskName": "social",
  "TotalReadoutTime": 0.03969,
  "TxRefAmp": 274.797,
  "WipMemBlock": "eedbcc05-58b4-47c7-bf74-dcdfac5b2df1||Sequence: R016 ve11e/master r/434b28f1; Aug  7 2019 18:53:46 by eja",
  "dcmmeta_affine": [
    [-2.6792547702789307, -0.13900722563266754, -0.01929471455514431, 119.03520965576172],
    [-0.13798819482326508, 2.676558256149292, -0.12363330274820328, -87.7624282836914],
    [-0.02549234963953495, 0.12169728428125381, 2.697098970413208, -94.429931640625],
    [0.0, 0.0, 0.0, 1.0]
],
  "dcmmeta_reorient_transform": [
    [0.0, -1.0, 0.0, 81.0],
    [1.0, 0.0, 0.0, 0.0],
    [0.0, 0.0, 1.0, 0.0],
    [0.0, 0.0, 0.0, 1.0]
],
  "dcmmeta_shape": [82, 82, 56, 872],
  "dcmmeta_slice_dim": 2,
  "dcmmeta_version": 0.6,
  "global": {
    "const": {
      "AccessionNumber": "A004153",
      "AcquisitionMatrix": [82, 0, 0, 82],
      "AngioFlag": "N",
      "BitsAllocated": 16,
      "BitsStored": 16,
      "BodyPartExamined": "BRAIN",
      "Columns": 656,
      "EchoNumbers": 1,
      "EchoTime": 27.2,
      "EchoTrainLength": 82,
      "FlipAngle": 44.0,
      "HighBit": 15,
      "ImageOrientationPatient": [0.99863129877201, 0.05143196403367, -0.0095016939839, -0.0518117851193, 0.99762619193569, -0.0453598951348],
      "ImagePositionPatient": [-836.82666323297, -936.81358188492, -42.329023935216],
      "ImageType": [
        "ORIGINAL",
        "PRIMARY",
        "M",
        "MB",
        "ND",
        "NORM",
        "MOSAIC"
],
      "ImagedNucleus": "1H",
      "ImagingFrequency": 123.25219,
      "InPlanePhaseEncodingDirection": "COL",
      "MRAcquisitionType": "2D",
      "MagneticFieldStrength": 3.0,
      "Manufacturer": "SIEMENS",
      "ManufacturerModelName": "Prisma",
      "Modality": "MR",
      "NumberOfAverages": 1.0,
      "NumberOfPhaseEncodingSteps": 82,
      "PercentPhaseFieldOfView": 100.0,
      "PercentSampling": 100.0,
      "PerformedProcedureStepStartTime": "122242.430000",
      "PhotometricInterpretation": "MONOCHROME2",
      "PixelBandwidth": 3050.0,
      "PixelRepresentation": 0,
      "PixelSpacing": [2.6829268932343, 2.6829268932343],
      "ProtocolName": "func_run-03_task-social_acq-ap-mb8",
      "RepetitionTime": 460.0,
      "Rows": 656,
      "SAR": 0.10042914520521,
      "SamplesPerPixel": 1,
      "ScanOptions": "FS",
      "ScanningSequence": "EP",
      "SequenceName": "epfid2d1_82",
      "SequenceVariant": [
        "SK",
        "SS"
],
      "SeriesDescription": "func_run-03_task-social_acq-ap-mb8",
      "SeriesNumber": 24,
      "SeriesTime": "134624.623000",
      "SliceLocation": -91.160462526036,
      "SliceThickness": 2.7000000476837,
      "SmallestImagePixelValue": 0,
      "SoftwareVersions": "syngo MR E11",
      "SpacingBetweenSlices": 2.7000000493546,
      "SpecificCharacterSet": "ISO_IR 100",
      "StudyID": "2",
      "StudyTime": "122242.375000",
      "TransmitCoilName": "Body",
      "VariableFlipAngleFlag": "N",
      "WindowCenterWidthExplanation": "Algo1"
    },
    "slices": {}
  },
  "time": {
    "samples": {
      "AcquisitionNumber": [1, 2, 3, 4, 5, 6, 7, 8, 9, 10, 11, 12, 13, 14, 15, 16, 17, 18, 19, 20, 21, 22, 23, 24, 25, 26, 27, 28, 29, 30, 31, 32, 33, 34, 35, 36, 37, 38, 39, 40, 41, 42, 43, 44, 45, 46, 47, 48, 49, 50, 51, 52, 53, 54, 55, 56, 57, 58, 59, 60, 61, 62, 63, 64, 65, 66, 67, 68, 69, 70, 71, 72, 73, 74, 75, 76, 77, 78, 79, 80, 81, 82, 83, 84, 85, 86, 87, 88, 89, 90, 91, 92, 93, 94, 95, 96, 97, 98, 99, 100, 101, 102, 103, 104, 105, 106, 107, 108, 109, 110, 111, 112, 113, 114, 115, 116, 117, 118, 119, 120, 121, 122, 123, 124, 125, 126, 127, 128, 129, 130, 131, 132, 133, 134, 135, 136, 137, 138, 139, 140, 141, 142, 143, 144, 145, 146, 147, 148, 149, 150, 151, 152, 153, 154, 155, 156, 157, 158, 159, 160, 161, 162, 163, 164, 165, 166, 167, 168, 169, 170, 171, 172, 173, 174, 175, 176, 177, 178, 179, 180, 181, 182, 183, 184, 185, 186, 187, 188, 189, 190, 191, 192, 193, 194, 195, 196, 197, 198, 199, 200, 201, 202, 203, 204, 205, 206, 207, 208, 209, 210, 211, 212, 213, 214, 215, 216, 217, 218, 219, 220, 221, 222, 223, 224, 225, 226, 227, 228, 229, 230, 231, 232, 233, 234, 235, 236, 237, 238, 239, 240, 241, 242, 243, 244, 245, 246, 247, 248, 249, 250, 251, 252, 253, 254, 255, 256, 257, 258, 259, 260, 261, 262, 263, 264, 265, 266, 267, 268, 269, 270, 271, 272, 273, 274, 275, 276, 277, 278, 279, 280, 281, 282, 283, 284, 285, 286, 287, 288, 289, 290, 291, 292, 293, 294, 295, 296, 297, 298, 299, 300, 301, 302, 303, 304, 305, 306, 307, 308, 309, 310, 311, 312, 313, 314, 315, 316, 317, 318, 319, 320, 321, 322, 323, 324, 325, 326, 327, 328, 329, 330, 331, 332, 333, 334, 335, 336, 337, 338, 339, 340, 341, 342, 343, 344, 345, 346, 347, 348, 349, 350, 351, 352, 353, 354, 355, 356, 357, 358, 359, 360, 361, 362, 363, 364, 365, 366, 367, 368, 369, 370, 371, 372, 373, 374, 375, 376, 377, 378, 379, 380, 381, 382, 383, 384, 385, 386, 387, 388, 389, 390, 391, 392, 393, 394, 395, 396, 397, 398, 399, 400, 401, 402, 403, 404, 405, 406, 407, 408, 409, 410, 411, 412, 413, 414, 415, 416, 417, 418, 419, 420, 421, 422, 423, 424, 425, 426, 427, 428, 429, 430, 431, 432, 433, 434, 435, 436, 437, 438, 439, 440, 441, 442, 443, 444, 445, 446, 447, 448, 449, 450, 451, 452, 453, 454, 455, 456, 457, 458, 459, 460, 461, 462, 463, 464, 465, 466, 467, 468, 469, 470, 471, 472, 473, 474, 475, 476, 477, 478, 479, 480, 481, 482, 483, 484, 485, 486, 487, 488, 489, 490, 491, 492, 493, 494, 495, 496, 497, 498, 499, 500, 501, 502, 503, 504, 505, 506, 507, 508, 509, 510, 511, 512, 513, 514, 515, 516, 517, 518, 519, 520, 521, 522, 523, 524, 525, 526, 527, 528, 529, 530, 531, 532, 533, 534, 535, 536, 537, 538, 539, 540, 541, 542, 543, 544, 545, 546, 547, 548, 549, 550, 551, 552, 553, 554, 555, 556, 557, 558, 559, 560, 561, 562, 563, 564, 565, 566, 567, 568, 569, 570, 571, 572, 573, 574, 575, 576, 577, 578, 579, 580, 581, 582, 583, 584, 585, 586, 587, 588, 589, 590, 591, 592, 593, 594, 595, 596, 597, 598, 599, 600, 601, 602, 603, 604, 605, 606, 607, 608, 609, 610, 611, 612, 613, 614, 615, 616, 617, 618, 619, 620, 621, 622, 623, 624, 625, 626, 627, 628, 629, 630, 631, 632, 633, 634, 635, 636, 637, 638, 639, 640, 641, 642, 643, 644, 645, 646, 647, 648, 649, 650, 651, 652, 653, 654, 655, 656, 657, 658, 659, 660, 661, 662, 663, 664, 665, 666, 667, 668, 669, 670, 671, 672, 673, 674, 675, 676, 677, 678, 679, 680, 681, 682, 683, 684, 685, 686, 687, 688, 689, 690, 691, 692, 693, 694, 695, 696, 697, 698, 699, 700, 701, 702, 703, 704, 705, 706, 707, 708, 709, 710, 711, 712, 713, 714, 715, 716, 717, 718, 719, 720, 721, 722, 723, 724, 725, 726, 727, 728, 729, 730, 731, 732, 733, 734, 735, 736, 737, 738, 739, 740, 741, 742, 743, 744, 745, 746, 747, 748, 749, 750, 751, 752, 753, 754, 755, 756, 757, 758, 759, 760, 761, 762, 763, 764, 765, 766, 767, 768, 769, 770, 771, 772, 773, 774, 775, 776, 777, 778, 779, 780, 781, 782, 783, 784, 785, 786, 787, 788, 789, 790, 791, 792, 793, 794, 795, 796, 797, 798, 799, 800, 801, 802, 803, 804, 805, 806, 807, 808, 809, 810, 811, 812, 813, 814, 815, 816, 817, 818, 819, 820, 821, 822, 823, 824, 825, 826, 827, 828, 829, 830, 831, 832, 833, 834, 835, 836, 837, 838, 839, 840, 841, 842, 843, 844, 845, 846, 847, 848, 849, 850, 851, 852, 853, 854, 855, 856, 857, 858, 859, 860, 861, 862, 863, 864, 865, 866, 867, 868, 869, 870, 871, 872],
      "AcquisitionTime": ["134555.900000", "134556.360000", "134556.820000", "134557.280000", "134557.740000", "134558.200000", "134558.660000", "134559.120000", "134559.580000", "134600.040000", "134600.500000", "134600.960000", "134601.420000", "134601.880000", "134602.340000", "134602.800000", "134603.260000", "134603.720000", "134604.180000", "134604.640000", "134605.100000", "134605.560000", "134606.020000", "134606.480000", "134606.940000", "134607.400000", "134607.860000", "134608.320000", "134608.780000", "134609.240000", "134609.700000", "134610.160000", "134610.620000", "134611.080000", "134611.540000", "134612.000000", "134612.460000", "134612.920000", "134613.380000", "134613.840000", "134614.300000", "134614.760000", "134615.220000", "134615.680000", "134616.140000", "134616.600000", "134617.060000", "134617.520000", "134617.980000", "134618.440000", "134618.900000", "134619.360000", "134619.820000", "134620.280000", "134620.740000", "134621.200000", "134621.660000", "134622.120000", "134622.580000", "134623.040000", "134623.500000", "134623.960000", "134624.420000", "134624.880000", "134625.340000", "134625.800000", "134626.260000", "134626.720000", "134627.180000", "134627.640000", "134628.100000", "134628.560000", "134629.020000", "134629.480000", "134629.940000", "134630.400000", "134630.860000", "134631.320000", "134631.780000", "134632.240000", "134632.700000", "134633.160000", "134633.620000", "134634.080000", "134634.540000", "134635.000000", "134635.460000", "134635.920000", "134636.380000", "134636.840000", "134637.300000", "134637.760000", "134638.220000", "134638.680000", "134639.140000", "134639.600000", "134640.060000", "134640.520000", "134640.980000", "134641.440000", "134641.900000", "134642.360000", "134642.820000", "134643.280000", "134643.740000", "134644.200000", "134644.660000", "134645.120000", "134645.580000", "134646.040000", "134646.500000", "134646.960000", "134647.420000", "134647.880000", "134648.340000", "134648.800000", "134649.260000", "134649.720000", "134650.180000", "134650.640000", "134651.100000", "134651.560000", "134652.020000", "134652.480000", "134652.940000", "134653.400000", "134653.860000", "134654.320000", "134654.780000", "134655.240000", "134655.700000", "134656.160000", "134656.620000", "134657.080000", "134657.540000", "134658.000000", "134658.460000", "134658.920000", "134659.380000", "134659.840000", "134700.300000", "134700.760000", "134701.220000", "134701.680000", "134702.140000", "134702.600000", "134703.060000", "134703.520000", "134703.980000", "134704.440000", "134704.900000", "134705.360000", "134705.820000", "134706.280000", "134706.740000", "134707.200000", "134707.660000", "134708.120000", "134708.580000", "134709.040000", "134709.500000", "134709.960000", "134710.420000", "134710.880000", "134711.340000", "134711.800000", "134712.260000", "134712.720000", "134713.180000", "134713.640000", "134714.100000", "134714.560000", "134715.020000", "134715.480000", "134715.940000", "134716.400000", "134716.860000", "134717.320000", "134717.780000", "134718.240000", "134718.700000", "134719.160000", "134719.620000", "134720.080000", "134720.540000", "134721.000000", "134721.460000", "134721.920000", "134722.380000", "134722.840000", "134723.300000", "134723.760000", "134724.220000", "134724.680000", "134725.140000", "134725.600000", "134726.060000", "134726.520000", "134726.980000", "134727.440000", "134727.900000", "134728.360000", "134728.820000", "134729.280000", "134729.740000", "134730.200000", "134730.660000", "134731.120000", "134731.580000", "134732.040000", "134732.500000", "134732.960000", "134733.420000", "134733.880000", "134734.340000", "134734.800000", "134735.260000", "134735.720000", "134736.180000", "134736.640000", "134737.100000", "134737.560000", "134738.020000", "134738.480000", "134738.940000", "134739.400000", "134739.860000", "134740.320000", "134740.780000", "134741.240000", "134741.700000", "134742.160000", "134742.620000", "134743.080000", "134743.540000", "134744.000000", "134744.460000", "134744.920000", "134745.380000", "134745.840000", "134746.300000", "134746.760000", "134747.220000", "134747.680000", "134748.140000", "134748.600000", "134749.060000", "134749.520000", "134749.980000", "134750.440000", "134750.900000", "134751.360000", "134751.820000", "134752.280000", "134752.740000", "134753.200000", "134753.660000", "134754.120000", "134754.580000", "134755.040000", "134755.500000", "134755.960000", "134756.420000", "134756.880000", "134757.340000", "134757.800000", "134758.260000", "134758.720000", "134759.180000", "134759.640000", "134800.100000", "134800.560000", "134801.020000", "134801.480000", "134801.940000", "134802.400000", "134802.860000", "134803.320000", "134803.780000", "134804.240000", "134804.700000", "134805.160000", "134805.620000", "134806.080000", "134806.540000", "134807.000000", "134807.460000", "134807.920000", "134808.380000", "134808.840000", "134809.300000", "134809.760000", "134810.220000", "134810.680000", "134811.140000", "134811.600000", "134812.060000", "134812.520000", "134812.980000", "134813.440000", "134813.900000", "134814.360000", "134814.820000", "134815.280000", "134815.740000", "134816.200000", "134816.660000", "134817.120000", "134817.580000", "134818.040000", "134818.500000", "134818.960000", "134819.420000", "134819.880000", "134820.340000", "134820.800000", "134821.260000", "134821.720000", "134822.180000", "134822.640000", "134823.100000", "134823.560000", "134824.020000", "134824.480000", "134824.940000", "134825.400000", "134825.860000", "134826.320000", "134826.780000", "134827.240000", "134827.700000", "134828.160000", "134828.620000", "134829.080000", "134829.540000", "134830.000000", "134830.460000", "134830.920000", "134831.380000", "134831.840000", "134832.300000", "134832.760000", "134833.220000", "134833.680000", "134834.140000", "134834.600000", "134835.060000", "134835.520000", "134835.980000", "134836.440000", "134836.900000", "134837.360000", "134837.820000", "134838.280000", "134838.740000", "134839.200000", "134839.660000", "134840.120000", "134840.580000", "134841.040000", "134841.500000", "134841.960000", "134842.420000", "134842.880000", "134843.340000", "134843.800000", "134844.260000", "134844.720000", "134845.180000", "134845.640000", "134846.100000", "134846.560000", "134847.020000", "134847.480000", "134847.940000", "134848.400000", "134848.860000", "134849.320000", "134849.780000", "134850.240000", "134850.700000", "134851.160000", "134851.620000", "134852.080000", "134852.540000", "134853.000000", "134853.460000", "134853.920000", "134854.380000", "134854.840000", "134855.300000", "134855.760000", "134856.220000", "134856.680000", "134857.140000", "134857.600000", "134858.060000", "134858.520000", "134858.980000", "134859.440000", "134859.900000", "134900.360000", "134900.820000", "134901.280000", "134901.740000", "134902.200000", "134902.660000", "134903.120000", "134903.580000", "134904.040000", "134904.500000", "134904.960000", "134905.420000", "134905.880000", "134906.340000", "134906.800000", "134907.260000", "134907.720000", "134908.180000", "134908.640000", "134909.100000", "134909.560000", "134910.020000", "134910.480000", "134910.940000", "134911.400000", "134911.860000", "134912.320000", "134912.780000", "134913.240000", "134913.700000", "134914.160000", "134914.620000", "134915.080000", "134915.540000", "134916.000000", "134916.460000", "134916.920000", "134917.380000", "134917.840000", "134918.300000", "134918.760000", "134919.220000", "134919.680000", "134920.140000", "134920.600000", "134921.060000", "134921.520000", "134921.980000", "134922.440000", "134922.900000", "134923.360000", "134923.820000", "134924.280000", "134924.740000", "134925.200000", "134925.660000", "134926.120000", "134926.580000", "134927.040000", "134927.500000", "134927.960000", "134928.420000", "134928.880000", "134929.340000", "134929.800000", "134930.260000", "134930.720000", "134931.180000", "134931.640000", "134932.100000", "134932.560000", "134933.020000", "134933.480000", "134933.940000", "134934.400000", "134934.860000", "134935.320000", "134935.780000", "134936.240000", "134936.700000", "134937.160000", "134937.620000", "134938.080000", "134938.540000", "134939.000000", "134939.460000", "134939.920000", "134940.380000", "134940.840000", "134941.300000", "134941.760000", "134942.220000", "134942.680000", "134943.140000", "134943.600000", "134944.060000", "134944.520000", "134944.980000", "134945.440000", "134945.900000", "134946.360000", "134946.820000", "134947.280000", "134947.740000", "134948.200000", "134948.660000", "134949.120000", "134949.580000", "134950.040000", "134950.500000", "134950.960000", "134951.420000", "134951.880000", "134952.340000", "134952.800000", "134953.260000", "134953.720000", "134954.180000", "134954.640000", "134955.100000", "134955.560000", "134956.020000", "134956.480000", "134956.940000", "134957.400000", "134957.860000", "134958.320000", "134958.780000", "134959.240000", "134959.700000", "135000.160000", "135000.620000", "135001.080000", "135001.540000", "135002.000000", "135002.460000", "135002.920000", "135003.380000", "135003.840000", "135004.300000", "135004.760000", "135005.220000", "135005.680000", "135006.140000", "135006.600000", "135007.060000", "135007.520000", "135007.980000", "135008.440000", "135008.900000", "135009.360000", "135009.820000", "135010.280000", "135010.740000", "135011.200000", "135011.660000", "135012.120000", "135012.580000", "135013.040000", "135013.500000", "135013.960000", "135014.420000", "135014.880000", "135015.340000", "135015.800000", "135016.260000", "135016.720000", "135017.180000", "135017.640000", "135018.100000", "135018.560000", "135019.020000", "135019.480000", "135019.940000", "135020.400000", "135020.860000", "135021.320000", "135021.780000", "135022.240000", "135022.700000", "135023.160000", "135023.620000", "135024.080000", "135024.540000", "135025.000000", "135025.460000", "135025.920000", "135026.380000", "135026.840000", "135027.300000", "135027.760000", "135028.220000", "135028.680000", "135029.140000", "135029.600000", "135030.060000", "135030.520000", "135030.980000", "135031.440000", "135031.900000", "135032.360000", "135032.820000", "135033.280000", "135033.740000", "135034.200000", "135034.660000", "135035.120000", "135035.580000", "135036.040000", "135036.500000", "135036.960000", "135037.420000", "135037.880000", "135038.340000", "135038.800000", "135039.260000", "135039.720000", "135040.180000", "135040.640000", "135041.100000", "135041.560000", "135042.020000", "135042.480000", "135042.940000", "135043.400000", "135043.860000", "135044.320000", "135044.780000", "135045.240000", "135045.700000", "135046.160000", "135046.620000", "135047.080000", "135047.540000", "135048.000000", "135048.460000", "135048.920000", "135049.380000", "135049.840000", "135050.300000", "135050.760000", "135051.220000", "135051.680000", "135052.140000", "135052.600000", "135053.060000", "135053.520000", "135053.980000", "135054.440000", "135054.900000", "135055.360000", "135055.820000", "135056.280000", "135056.740000", "135057.200000", "135057.660000", "135058.120000", "135058.580000", "135059.040000", "135059.500000", "135059.960000", "135100.420000", "135100.880000", "135101.340000", "135101.800000", "135102.260000", "135102.720000", "135103.180000", "135103.640000", "135104.100000", "135104.560000", "135105.020000", "135105.480000", "135105.940000", "135106.400000", "135106.860000", "135107.320000", "135107.780000", "135108.240000", "135108.700000", "135109.160000", "135109.620000", "135110.080000", "135110.540000", "135111.000000", "135111.460000", "135111.920000", "135112.380000", "135112.840000", "135113.300000", "135113.760000", "135114.220000", "135114.680000", "135115.140000", "135115.600000", "135116.060000", "135116.520000", "135116.980000", "135117.440000", "135117.900000", "135118.360000", "135118.820000", "135119.280000", "135119.740000", "135120.200000", "135120.660000", "135121.120000", "135121.580000", "135122.040000", "135122.500000", "135122.960000", "135123.420000", "135123.880000", "135124.340000", "135124.800000", "135125.260000", "135125.720000", "135126.180000", "135126.640000", "135127.100000", "135127.560000", "135128.020000", "135128.480000", "135128.940000", "135129.400000", "135129.860000", "135130.320000", "135130.780000", "135131.240000", "135131.700000", "135132.160000", "135132.620000", "135133.080000", "135133.540000", "135134.000000", "135134.460000", "135134.920000", "135135.380000", "135135.840000", "135136.300000", "135136.760000", "135137.220000", "135137.680000", "135138.140000", "135138.600000", "135139.060000", "135139.520000", "135139.980000", "135140.440000", "135140.900000", "135141.360000", "135141.820000", "135142.280000", "135142.740000", "135143.200000", "135143.660000", "135144.120000", "135144.580000", "135145.040000", "135145.500000", "135145.960000", "135146.420000", "135146.880000", "135147.340000", "135147.800000", "135148.260000", "135148.720000", "135149.180000", "135149.640000", "135150.100000", "135150.560000", "135151.020000", "135151.480000", "135151.940000", "135152.400000", "135152.860000", "135153.320000", "135153.780000", "135154.240000", "135154.700000", "135155.160000", "135155.620000", "135156.080000", "135156.540000", "135157.000000", "135157.460000", "135157.920000", "135158.380000", "135158.840000", "135159.300000", "135159.760000", "135200.220000", "135200.680000", "135201.140000", "135201.600000", "135202.060000", "135202.520000", "135202.980000", "135203.440000", "135203.900000", "135204.360000", "135204.820000", "135205.280000", "135205.740000", "135206.200000", "135206.660000", "135207.120000", "135207.580000", "135208.040000", "135208.500000", "135208.960000", "135209.420000", "135209.880000", "135210.340000", "135210.800000", "135211.260000", "135211.720000", "135212.180000", "135212.640000", "135213.100000", "135213.560000", "135214.020000", "135214.480000", "135214.940000", "135215.400000", "135215.860000", "135216.320000", "135216.780000", "135217.240000", "135217.700000", "135218.160000", "135218.620000", "135219.080000", "135219.540000", "135220.000000", "135220.460000", "135220.920000", "135221.380000", "135221.840000", "135222.300000", "135222.760000", "135223.220000", "135223.680000", "135224.140000", "135224.600000", "135225.060000", "135225.520000", "135225.980000", "135226.440000", "135226.900000", "135227.360000", "135227.820000", "135228.280000", "135228.740000", "135229.200000", "135229.660000", "135230.120000", "135230.580000", "135231.040000", "135231.500000", "135231.960000", "135232.420000", "135232.880000", "135233.340000", "135233.800000", "135234.260000", "135234.720000", "135235.180000", "135235.640000", "135236.100000", "135236.560000"],
