{
  "AcquisitionMatrixPE": 82,
  "AcquisitionNumber": 1,
  "AcquisitionTime": "11:34:1.467500",
  "BandwidthPerPixelPhaseEncode": 24.888,
  "BaseResolution": 82,
  "BodyPartExamined": "BRAIN",
  "ConsistencyInfo": "N4_VE11C_LATEST_20160120",
  "ConversionSoftware": "dcm2niix",
  "ConversionSoftwareVersion": "v1.0.20201102",
  "DerivedVendorReportedEchoSpacing": 0.00049,
  "DeviceSerialNumber": "66112",
  "DwellTime": 2e-06,
  "EchoTime": 0.0272,
  "EchoTrainLength": 82,
  "EffectiveEchoSpacing": 0.00049,
  "FlipAngle": 44,
  "ImageComments": "Unaliased MB8/PE3",
  "ImageOrientationPatientDICOM": [0.998477, -0.0472374, 0.0285164, 0.043769, 0.992749, 0.111954],
  "ImageType": [
    "ORIGINAL",
    "PRIMARY",
    "M",
    "MB",
    "ND",
    "NORM",
    "MOSAIC"
],
  "ImagingFrequency": 123.252,
  "InPlanePhaseEncodingDirectionDICOM": "COL",
  "InstitutionAddress": "Maynard 3,Hanover,NH,US,03755",
  "InstitutionName": "Dartmouth College - PBS",
  "InstitutionalDepartmentName": "Department",
  "MRAcquisitionType": "2D",
  "MagneticFieldStrength": 3,
  "Manufacturer": "Siemens",
  "ManufacturersModelName": "Prisma",
  "Modality": "MR",
  "MultibandAccelerationFactor": 8,
  "PartialFourier": 1,
  "PatientPosition": "HFS",
  "PercentPhaseFOV": 100,
  "PercentSampling": 100,
  "PhaseEncodingDirection": "j-",
  "PhaseEncodingSteps": 82,
  "PhaseResolution": 1,
  "PixelBandwidth": 3050,
  "ProcedureStepDescription": "Wager_Wager^1076_spacetop",
  "ProtocolName": "func_run-03_task-social_acq-ap-mb8",
  "PulseSequenceDetails": "%CustomerSeq%\\cmrr_mbep2d_bold",
  "ReceiveCoilActiveElements": "HEA;HEP",
  "ReceiveCoilName": "Head_32",
  "ReconMatrixPE": 82,
  "RepetitionTime": 0.46,
  "SAR": 0.0810935,
  "ScanOptions": "FS",
  "ScanningSequence": "EP",
  "SequenceName": "epfid2d1_82",
  "SequenceVariant": "SK\\SS",
  "SeriesDescription": "func_run-03_task-social_acq-ap-mb8",
  "SeriesNumber": 12,
  "ShimSetting": [4148, -7787, -7249, 590, -87, -285, 74, 91],
  "SliceThickness": 2.7,
  "SliceTiming": [0, 0.2525, 0.065, 0.315, 0.1275, 0.3775, 0.19, 0, 0.2525, 0.065, 0.315, 0.1275, 0.3775, 0.19, 0, 0.2525, 0.065, 0.315, 0.1275, 0.3775, 0.19, 0, 0.2525, 0.065, 0.315, 0.1275, 0.3775, 0.19, 0, 0.2525, 0.065, 0.315, 0.1275, 0.3775, 0.19, 0, 0.2525, 0.065, 0.315, 0.1275, 0.3775, 0.19, 0, 0.2525, 0.065, 0.315, 0.1275, 0.3775, 0.19, 0, 0.2525, 0.065, 0.315, 0.1275, 0.3775, 0.19],
  "SoftwareVersions": "syngo MR E11",
  "SpacingBetweenSlices": 2.7,
  "StationName": "AWP66112",
  "TaskName": "social",
  "TotalReadoutTime": 0.03969,
  "TxRefAmp": 234.982,
  "WipMemBlock": "16e2ff85-56b4-41a0-9f6e-f9fccd8b6c1b||Sequence: R016 ve11c/master r/e634e98; Dec 19 2017 11:00:25 by eja",
  "dcmmeta_affine": [
    [-2.678839683532715, 0.1174289882183075, 0.09071480482816696, 104.52643585205078],
    [0.1267343908548355, 2.663472890853882, 0.2984464466571808, -88.21803283691406],
    [0.07650747150182724, -0.30036550760269165, 2.6819210052490234, -55.4486083984375],
    [0.0, 0.0, 0.0, 1.0]
],
  "dcmmeta_reorient_transform": [
    [0.0, -1.0, 0.0, 81.0],
    [1.0, 0.0, 0.0, 0.0],
    [0.0, 0.0, 1.0, 0.0],
    [0.0, 0.0, 0.0, 1.0]
],
  "dcmmeta_shape": [82, 82, 56, 872],
  "dcmmeta_slice_dim": 2,
  "dcmmeta_version": 0.6,
  "global": {
    "const": {
      "AccessionNumber": "A003630",
      "AcquisitionMatrix": [82, 0, 0, 82],
      "AngioFlag": "N",
      "BitsAllocated": 16,
      "BitsStored": 16,
      "BodyPartExamined": "BRAIN",
      "Columns": 656,
      "EchoNumbers": 1,
      "EchoTime": 27.2,
      "EchoTrainLength": 82,
      "FlipAngle": 44.0,
      "HighBit": 15,
      "ImageOrientationPatient": [0.99847656214933, -0.0472373651664, 0.02851641931578, 0.04376898531339, 0.99274895422905, 0.11195440947887],
      "ImagePositionPatient": [-916.5672768183, -855.56720696707, -187.94075593151],
      "ImageType": [
        "ORIGINAL",
        "PRIMARY",
        "M",
        "MB",
        "ND",
        "NORM",
        "MOSAIC"
],
      "ImagedNucleus": "1H",
      "ImagingFrequency": 123.252162,
      "InPlanePhaseEncodingDirection": "COL",
      "MRAcquisitionType": "2D",
      "MagneticFieldStrength": 3.0,
      "Manufacturer": "SIEMENS",
      "ManufacturerModelName": "Prisma",
      "Modality": "MR",
      "NumberOfAverages": 1.0,
      "NumberOfPhaseEncodingSteps": 82,
      "PercentPhaseFieldOfView": 100.0,
      "PercentSampling": 100.0,
      "PerformedProcedureStepStartTime": "104350.669000",
      "PhotometricInterpretation": "MONOCHROME2",
      "PixelBandwidth": 3050.0,
      "PixelRepresentation": 0,
      "PixelSpacing": [2.6829268932343, 2.6829268932343],
      "ProtocolName": "func_run-03_task-social_acq-ap-mb8",
      "RepetitionTime": 460.0,
      "Rows": 656,
      "SAR": 0.08109347213744,
      "SamplesPerPixel": 1,
      "ScanOptions": "FS",
      "ScanningSequence": "EP",
      "SequenceName": "epfid2d1_82",
      "SequenceVariant": [
        "SK",
        "SS"
],
      "SeriesDescription": "func_run-03_task-social_acq-ap-mb8",
      "SeriesNumber": 12,
      "SeriesTime": "113423.208000",
      "SliceLocation": -61.316688132943,
      "SliceThickness": 2.7000000476837,
      "SmallestImagePixelValue": 0,
      "SoftwareVersions": "syngo MR E11",
      "SpacingBetweenSlices": 2.6999999131282,
      "SpecificCharacterSet": "ISO_IR 100",
      "StudyID": "1",
      "StudyTime": "104350.635000",
      "TransmitCoilName": "Body",
      "VariableFlipAngleFlag": "N",
      "WindowCenterWidthExplanation": "Algo1",
      "dBdt": 0.0},
    "slices": {}
  },
  "time": {
    "samples": {
      "AcquisitionNumber": [1, 2, 3, 4, 5, 6, 7, 8, 9, 10, 11, 12, 13, 14, 15, 16, 17, 18, 19, 20, 21, 22, 23, 24, 25, 26, 27, 28, 29, 30, 31, 32, 33, 34, 35, 36, 37, 38, 39, 40, 41, 42, 43, 44, 45, 46, 47, 48, 49, 50, 51, 52, 53, 54, 55, 56, 57, 58, 59, 60, 61, 62, 63, 64, 65, 66, 67, 68, 69, 70, 71, 72, 73, 74, 75, 76, 77, 78, 79, 80, 81, 82, 83, 84, 85, 86, 87, 88, 89, 90, 91, 92, 93, 94, 95, 96, 97, 98, 99, 100, 101, 102, 103, 104, 105, 106, 107, 108, 109, 110, 111, 112, 113, 114, 115, 116, 117, 118, 119, 120, 121, 122, 123, 124, 125, 126, 127, 128, 129, 130, 131, 132, 133, 134, 135, 136, 137, 138, 139, 140, 141, 142, 143, 144, 145, 146, 147, 148, 149, 150, 151, 152, 153, 154, 155, 156, 157, 158, 159, 160, 161, 162, 163, 164, 165, 166, 167, 168, 169, 170, 171, 172, 173, 174, 175, 176, 177, 178, 179, 180, 181, 182, 183, 184, 185, 186, 187, 188, 189, 190, 191, 192, 193, 194, 195, 196, 197, 198, 199, 200, 201, 202, 203, 204, 205, 206, 207, 208, 209, 210, 211, 212, 213, 214, 215, 216, 217, 218, 219, 220, 221, 222, 223, 224, 225, 226, 227, 228, 229, 230, 231, 232, 233, 234, 235, 236, 237, 238, 239, 240, 241, 242, 243, 244, 245, 246, 247, 248, 249, 250, 251, 252, 253, 254, 255, 256, 257, 258, 259, 260, 261, 262, 263, 264, 265, 266, 267, 268, 269, 270, 271, 272, 273, 274, 275, 276, 277, 278, 279, 280, 281, 282, 283, 284, 285, 286, 287, 288, 289, 290, 291, 292, 293, 294, 295, 296, 297, 298, 299, 300, 301, 302, 303, 304, 305, 306, 307, 308, 309, 310, 311, 312, 313, 314, 315, 316, 317, 318, 319, 320, 321, 322, 323, 324, 325, 326, 327, 328, 329, 330, 331, 332, 333, 334, 335, 336, 337, 338, 339, 340, 341, 342, 343, 344, 345, 346, 347, 348, 349, 350, 351, 352, 353, 354, 355, 356, 357, 358, 359, 360, 361, 362, 363, 364, 365, 366, 367, 368, 369, 370, 371, 372, 373, 374, 375, 376, 377, 378, 379, 380, 381, 382, 383, 384, 385, 386, 387, 388, 389, 390, 391, 392, 393, 394, 395, 396, 397, 398, 399, 400, 401, 402, 403, 404, 405, 406, 407, 408, 409, 410, 411, 412, 413, 414, 415, 416, 417, 418, 419, 420, 421, 422, 423, 424, 425, 426, 427, 428, 429, 430, 431, 432, 433, 434, 435, 436, 437, 438, 439, 440, 441, 442, 443, 444, 445, 446, 447, 448, 449, 450, 451, 452, 453, 454, 455, 456, 457, 458, 459, 460, 461, 462, 463, 464, 465, 466, 467, 468, 469, 470, 471, 472, 473, 474, 475, 476, 477, 478, 479, 480, 481, 482, 483, 484, 485, 486, 487, 488, 489, 490, 491, 492, 493, 494, 495, 496, 497, 498, 499, 500, 501, 502, 503, 504, 505, 506, 507, 508, 509, 510, 511, 512, 513, 514, 515, 516, 517, 518, 519, 520, 521, 522, 523, 524, 525, 526, 527, 528, 529, 530, 531, 532, 533, 534, 535, 536, 537, 538, 539, 540, 541, 542, 543, 544, 545, 546, 547, 548, 549, 550, 551, 552, 553, 554, 555, 556, 557, 558, 559, 560, 561, 562, 563, 564, 565, 566, 567, 568, 569, 570, 571, 572, 573, 574, 575, 576, 577, 578, 579, 580, 581, 582, 583, 584, 585, 586, 587, 588, 589, 590, 591, 592, 593, 594, 595, 596, 597, 598, 599, 600, 601, 602, 603, 604, 605, 606, 607, 608, 609, 610, 611, 612, 613, 614, 615, 616, 617, 618, 619, 620, 621, 622, 623, 624, 625, 626, 627, 628, 629, 630, 631, 632, 633, 634, 635, 636, 637, 638, 639, 640, 641, 642, 643, 644, 645, 646, 647, 648, 649, 650, 651, 652, 653, 654, 655, 656, 657, 658, 659, 660, 661, 662, 663, 664, 665, 666, 667, 668, 669, 670, 671, 672, 673, 674, 675, 676, 677, 678, 679, 680, 681, 682, 683, 684, 685, 686, 687, 688, 689, 690, 691, 692, 693, 694, 695, 696, 697, 698, 699, 700, 701, 702, 703, 704, 705, 706, 707, 708, 709, 710, 711, 712, 713, 714, 715, 716, 717, 718, 719, 720, 721, 722, 723, 724, 725, 726, 727, 728, 729, 730, 731, 732, 733, 734, 735, 736, 737, 738, 739, 740, 741, 742, 743, 744, 745, 746, 747, 748, 749, 750, 751, 752, 753, 754, 755, 756, 757, 758, 759, 760, 761, 762, 763, 764, 765, 766, 767, 768, 769, 770, 771, 772, 773, 774, 775, 776, 777, 778, 779, 780, 781, 782, 783, 784, 785, 786, 787, 788, 789, 790, 791, 792, 793, 794, 795, 796, 797, 798, 799, 800, 801, 802, 803, 804, 805, 806, 807, 808, 809, 810, 811, 812, 813, 814, 815, 816, 817, 818, 819, 820, 821, 822, 823, 824, 825, 826, 827, 828, 829, 830, 831, 832, 833, 834, 835, 836, 837, 838, 839, 840, 841, 842, 843, 844, 845, 846, 847, 848, 849, 850, 851, 852, 853, 854, 855, 856, 857, 858, 859, 860, 861, 862, 863, 864, 865, 866, 867, 868, 869, 870, 871, 872],
      "AcquisitionTime": ["113401.467500", "113401.927500", "113402.387500", "113402.847500", "113403.307500", "113403.767500", "113404.227500", "113404.687500", "113405.147500", "113405.607500", "113406.067500", "113406.527500", "113406.987500", "113407.447500", "113407.907500", "113408.367500", "113408.827500", "113409.287500", "113409.747500", "113410.207500", "113410.667500", "113411.127500", "113411.587500", "113412.047500", "113412.507500", "113412.967500", "113413.427500", "113413.887500", "113414.347500", "113414.807500", "113415.267500", "113415.727500", "113416.187500", "113416.647500", "113417.107500", "113417.567500", "113418.027500", "113418.487500", "113418.947500", "113419.407500", "113419.867500", "113420.327500", "113420.787500", "113421.247500", "113421.707500", "113422.167500", "113422.627500", "113423.087500", "113423.547500", "113424.007500", "113424.467500", "113424.927500", "113425.387500", "113425.847500", "113426.307500", "113426.767500", "113427.227500", "113427.687500", "113428.147500", "113428.607500", "113429.067500", "113429.527500", "113429.987500", "113430.447500", "113430.907500", "113431.367500", "113431.827500", "113432.287500", "113432.747500", "113433.207500", "113433.667500", "113434.127500", "113434.587500", "113435.047500", "113435.507500", "113435.967500", "113436.427500", "113436.887500", "113437.347500", "113437.807500", "113438.267500", "113438.727500", "113439.187500", "113439.647500", "113440.107500", "113440.567500", "113441.027500", "113441.487500", "113441.947500", "113442.407500", "113442.867500", "113443.327500", "113443.787500", "113444.247500", "113444.707500", "113445.167500", "113445.627500", "113446.087500", "113446.547500", "113447.007500", "113447.467500", "113447.927500", "113448.387500", "113448.847500", "113449.307500", "113449.767500", "113450.227500", "113450.687500", "113451.147500", "113451.607500", "113452.067500", "113452.527500", "113452.987500", "113453.447500", "113453.907500", "113454.367500", "113454.827500", "113455.287500", "113455.747500", "113456.207500", "113456.667500", "113457.127500", "113457.587500", "113458.047500", "113458.507500", "113458.967500", "113459.427500", "113459.887500", "113500.347500", "113500.807500", "113501.267500", "113501.727500", "113502.187500", "113502.647500", "113503.107500", "113503.567500", "113504.027500", "113504.487500", "113504.947500", "113505.407500", "113505.867500", "113506.327500", "113506.787500", "113507.247500", "113507.707500", "113508.167500", "113508.627500", "113509.087500", "113509.547500", "113510.007500", "113510.467500", "113510.927500", "113511.387500", "113511.847500", "113512.307500", "113512.767500", "113513.227500", "113513.687500", "113514.147500", "113514.607500", "113515.067500", "113515.527500", "113515.987500", "113516.447500", "113516.907500", "113517.367500", "113517.827500", "113518.287500", "113518.747500", "113519.207500", "113519.667500", "113520.127500", "113520.587500", "113521.047500", "113521.507500", "113521.967500", "113522.427500", "113522.887500", "113523.347500", "113523.807500", "113524.267500", "113524.727500", "113525.187500", "113525.647500", "113526.107500", "113526.567500", "113527.027500", "113527.487500", "113527.947500", "113528.407500", "113528.867500", "113529.327500", "113529.787500", "113530.247500", "113530.707500", "113531.167500", "113531.627500", "113532.087500", "113532.547500", "113533.007500", "113533.467500", "113533.927500", "113534.387500", "113534.847500", "113535.307500", "113535.767500", "113536.227500", "113536.687500", "113537.147500", "113537.607500", "113538.067500", "113538.527500", "113538.987500", "113539.447500", "113539.907500", "113540.367500", "113540.827500", "113541.287500", "113541.747500", "113542.207500", "113542.667500", "113543.127500", "113543.587500", "113544.047500", "113544.507500", "113544.967500", "113545.427500", "113545.887500", "113546.347500", "113546.807500", "113547.267500", "113547.727500", "113548.187500", "113548.647500", "113549.107500", "113549.567500", "113550.027500", "113550.487500", "113550.947500", "113551.407500", "113551.867500", "113552.327500", "113552.787500", "113553.247500", "113553.707500", "113554.167500", "113554.627500", "113555.087500", "113555.547500", "113556.007500", "113556.467500", "113556.927500", "113557.387500", "113557.847500", "113558.307500", "113558.767500", "113559.227500", "113559.687500", "113600.147500", "113600.607500", "113601.067500", "113601.527500", "113601.987500", "113602.447500", "113602.907500", "113603.367500", "113603.827500", "113604.287500", "113604.747500", "113605.207500", "113605.667500", "113606.127500", "113606.587500", "113607.047500", "113607.507500", "113607.967500", "113608.427500", "113608.887500", "113609.347500", "113609.807500", "113610.267500", "113610.727500", "113611.187500", "113611.647500", "113612.107500", "113612.567500", "113613.027500", "113613.487500", "113613.947500", "113614.407500", "113614.867500", "113615.327500", "113615.787500", "113616.247500", "113616.707500", "113617.167500", "113617.627500", "113618.087500", "113618.547500", "113619.007500", "113619.467500", "113619.927500", "113620.387500", "113620.847500", "113621.307500", "113621.767500", "113622.227500", "113622.687500", "113623.147500", "113623.607500", "113624.067500", "113624.527500", "113624.987500", "113625.447500", "113625.907500", "113626.367500", "113626.827500", "113627.287500", "113627.747500", "113628.207500", "113628.667500", "113629.127500", "113629.587500", "113630.047500", "113630.507500", "113630.967500", "113631.427500", "113631.887500", "113632.347500", "113632.807500", "113633.267500", "113633.727500", "113634.187500", "113634.647500", "113635.107500", "113635.567500", "113636.027500", "113636.487500", "113636.947500", "113637.407500", "113637.867500", "113638.327500", "113638.787500", "113639.247500", "113639.707500", "113640.167500", "113640.627500", "113641.087500", "113641.547500", "113642.007500", "113642.467500", "113642.927500", "113643.387500", "113643.847500", "113644.307500", "113644.767500", "113645.227500", "113645.687500", "113646.147500", "113646.607500", "113647.067500", "113647.527500", "113647.987500", "113648.447500", "113648.907500", "113649.367500", "113649.827500", "113650.287500", "113650.747500", "113651.207500", "113651.667500", "113652.127500", "113652.587500", "113653.047500", "113653.507500", "113653.967500", "113654.427500", "113654.887500", "113655.347500", "113655.807500", "113656.267500", "113656.727500", "113657.187500", "113657.647500", "113658.107500", "113658.567500", "113659.027500", "113659.487500", "113659.947500", "113700.407500", "113700.867500", "113701.327500", "113701.787500", "113702.247500", "113702.707500", "113703.167500", "113703.627500", "113704.087500", "113704.547500", "113705.007500", "113705.467500", "113705.927500", "113706.387500", "113706.847500", "113707.307500", "113707.767500", "113708.227500", "113708.687500", "113709.147500", "113709.607500", "113710.067500", "113710.527500", "113710.987500", "113711.447500", "113711.907500", "113712.367500", "113712.827500", "113713.287500", "113713.747500", "113714.207500", "113714.667500", "113715.127500", "113715.587500", "113716.047500", "113716.507500", "113716.967500", "113717.427500", "113717.887500", "113718.347500", "113718.807500", "113719.267500", "113719.727500", "113720.187500", "113720.647500", "113721.107500", "113721.567500", "113722.027500", "113722.487500", "113722.947500", "113723.407500", "113723.867500", "113724.327500", "113724.787500", "113725.247500", "113725.707500", "113726.167500", "113726.627500", "113727.087500", "113727.547500", "113728.007500", "113728.467500", "113728.927500", "113729.387500", "113729.847500", "113730.307500", "113730.767500", "113731.227500", "113731.687500", "113732.147500", "113732.607500", "113733.067500", "113733.527500", "113733.987500", "113734.447500", "113734.907500", "113735.367500", "113735.827500", "113736.287500", "113736.747500", "113737.207500", "113737.667500", "113738.127500", "113738.587500", "113739.047500", "113739.507500", "113739.967500", "113740.427500", "113740.887500", "113741.347500", "113741.807500", "113742.267500", "113742.727500", "113743.187500", "113743.647500", "113744.107500", "113744.567500", "113745.027500", "113745.487500", "113745.947500", "113746.407500", "113746.867500", "113747.327500", "113747.787500", "113748.247500", "113748.707500", "113749.167500", "113749.627500", "113750.087500", "113750.547500", "113751.007500", "113751.467500", "113751.927500", "113752.387500", "113752.847500", "113753.307500", "113753.767500", "113754.227500", "113754.687500", "113755.147500", "113755.607500", "113756.067500", "113756.527500", "113756.987500", "113757.447500", "113757.907500", "113758.367500", "113758.827500", "113759.287500", "113759.747500", "113800.207500", "113800.667500", "113801.127500", "113801.587500", "113802.047500", "113802.507500", "113802.967500", "113803.427500", "113803.887500", "113804.347500", "113804.807500", "113805.267500", "113805.727500", "113806.187500", "113806.647500", "113807.107500", "113807.567500", "113808.027500", "113808.487500", "113808.947500", "113809.407500", "113809.867500", "113810.327500", "113810.787500", "113811.247500", "113811.707500", "113812.167500", "113812.627500", "113813.087500", "113813.547500", "113814.007500", "113814.467500", "113814.927500", "113815.387500", "113815.847500", "113816.307500", "113816.767500", "113817.227500", "113817.687500", "113818.147500", "113818.607500", "113819.067500", "113819.527500", "113819.987500", "113820.447500", "113820.907500", "113821.367500", "113821.827500", "113822.287500", "113822.747500", "113823.207500", "113823.667500", "113824.127500", "113824.587500", "113825.047500", "113825.507500", "113825.967500", "113826.427500", "113826.887500", "113827.347500", "113827.807500", "113828.267500", "113828.727500", "113829.187500", "113829.647500", "113830.107500", "113830.567500", "113831.027500", "113831.487500", "113831.947500", "113832.407500", "113832.867500", "113833.327500", "113833.787500", "113834.247500", "113834.707500", "113835.167500", "113835.627500", "113836.087500", "113836.547500", "113837.007500", "113837.467500", "113837.927500", "113838.387500", "113838.847500", "113839.307500", "113839.767500", "113840.227500", "113840.687500", "113841.147500", "113841.607500", "113842.067500", "113842.527500", "113842.987500", "113843.447500", "113843.907500", "113844.367500", "113844.827500", "113845.287500", "113845.747500", "113846.207500", "113846.667500", "113847.127500", "113847.587500", "113848.047500", "113848.507500", "113848.967500", "113849.427500", "113849.887500", "113850.347500", "113850.807500", "113851.267500", "113851.727500", "113852.187500", "113852.647500", "113853.107500", "113853.567500", "113854.027500", "113854.487500", "113854.947500", "113855.407500", "113855.867500", "113856.327500", "113856.787500", "113857.247500", "113857.707500", "113858.167500", "113858.627500", "113859.087500", "113859.547500", "113900.007500", "113900.467500", "113900.927500", "113901.387500", "113901.847500", "113902.307500", "113902.767500", "113903.227500", "113903.687500", "113904.147500", "113904.607500", "113905.067500", "113905.527500", "113905.987500", "113906.447500", "113906.907500", "113907.367500", "113907.827500", "113908.287500", "113908.747500", "113909.207500", "113909.667500", "113910.127500", "113910.587500", "113911.047500", "113911.507500", "113911.967500", "113912.427500", "113912.887500", "113913.347500", "113913.807500", "113914.267500", "113914.727500", "113915.187500", "113915.647500", "113916.107500", "113916.567500", "113917.027500", "113917.487500", "113917.947500", "113918.407500", "113918.867500", "113919.327500", "113919.787500", "113920.247500", "113920.707500", "113921.167500", "113921.627500", "113922.087500", "113922.547500", "113923.007500", "113923.467500", "113923.927500", "113924.387500", "113924.847500", "113925.307500", "113925.767500", "113926.227500", "113926.687500", "113927.147500", "113927.607500", "113928.067500", "113928.527500", "113928.987500", "113929.447500", "113929.907500", "113930.367500", "113930.827500", "113931.287500", "113931.747500", "113932.207500", "113932.667500", "113933.127500", "113933.587500", "113934.047500", "113934.507500", "113934.967500", "113935.427500", "113935.887500", "113936.347500", "113936.807500", "113937.267500", "113937.727500", "113938.187500", "113938.647500", "113939.107500", "113939.567500", "113940.027500", "113940.487500", "113940.947500", "113941.407500", "113941.867500", "113942.327500", "113942.787500", "113943.247500", "113943.707500", "113944.167500", "113944.627500", "113945.087500", "113945.547500", "113946.007500", "113946.467500", "113946.927500", "113947.387500", "113947.847500", "113948.307500", "113948.767500", "113949.227500", "113949.687500", "113950.147500", "113950.607500", "113951.067500", "113951.527500", "113951.987500", "113952.447500", "113952.907500", "113953.367500", "113953.827500", "113954.287500", "113954.747500", "113955.207500", "113955.667500", "113956.127500", "113956.587500", "113957.047500", "113957.507500", "113957.967500", "113958.427500", "113958.887500", "113959.347500", "113959.807500", "114000.267500", "114000.727500", "114001.187500", "114001.647500", "114002.107500", "114002.567500", "114003.027500", "114003.487500", "114003.947500", "114004.407500", "114004.867500", "114005.327500", "114005.787500", "114006.247500", "114006.707500", "114007.167500", "114007.627500", "114008.087500", "114008.547500", "114009.007500", "114009.467500", "114009.927500", "114010.387500", "114010.847500", "114011.307500", "114011.767500", "114012.227500", "114012.687500", "114013.147500", "114013.607500", "114014.067500", "114014.527500", "114014.987500", "114015.447500", "114015.907500", "114016.367500", "114016.827500", "114017.287500", "114017.747500", "114018.207500", "114018.667500", "114019.127500", "114019.587500", "114020.047500", "114020.507500", "114020.967500", "114021.427500", "114021.887500", "114022.347500", "114022.807500", "114023.267500", "114023.727500", "114024.187500", "114024.647500", "114025.107500", "114025.567500", "114026.027500", "114026.487500", "114026.947500", "114027.407500", "114027.867500", "114028.327500", "114028.787500", "114029.247500", "114029.707500", "114030.167500", "114030.627500", "114031.087500", "114031.547500", "114032.007500", "114032.467500", "114032.927500", "114033.387500", "114033.847500", "114034.307500", "114034.767500", "114035.227500", "114035.687500", "114036.147500", "114036.607500", "114037.067500", "114037.527500", "114037.987500", "114038.447500", "114038.907500", "114039.367500", "114039.827500", "114040.287500", "114040.747500", "114041.207500", "114041.667500", "114042.127500"],
