{
  "AcquisitionMatrixPE": 82,
  "AcquisitionNumber": 1,
  "AcquisitionTime": "12:07:8.857500",
  "BandwidthPerPixelPhaseEncode": 24.888,
  "BaseResolution": 82,
  "BodyPartExamined": "BRAIN",
  "ConsistencyInfo": "N4_VE11C_LATEST_20160120",
  "ConversionSoftware": "dcm2niix",
  "ConversionSoftwareVersion": "v1.0.20201102",
  "DerivedVendorReportedEchoSpacing": 0.00049,
  "DeviceSerialNumber": "66112",
  "DwellTime": 2e-06,
  "EchoTime": 0.0272,
  "EchoTrainLength": 82,
  "EffectiveEchoSpacing": 0.00049,
  "FlipAngle": 44,
  "ImageComments": "Unaliased MB8/PE3",
  "ImageOrientationPatientDICOM": [1, 0, -3.489e-12, 0, 1, -1.1202e-11],
  "ImageType": [
    "ORIGINAL",
    "PRIMARY",
    "M",
    "MB",
    "ND",
    "NORM",
    "MOSAIC"
],
  "ImagingFrequency": 123.252,
  "InPlanePhaseEncodingDirectionDICOM": "COL",
  "InstitutionAddress": "Maynard 3,Hanover,NH,US,03755",
  "InstitutionName": "Dartmouth College - PBS",
  "InstitutionalDepartmentName": "Department",
  "MRAcquisitionType": "2D",
  "MagneticFieldStrength": 3,
  "Manufacturer": "Siemens",
  "ManufacturersModelName": "Prisma",
  "Modality": "MR",
  "MultibandAccelerationFactor": 8,
  "PartialFourier": 1,
  "PatientPosition": "HFS",
  "PercentPhaseFOV": 100,
  "PercentSampling": 100,
  "PhaseEncodingDirection": "j-",
  "PhaseEncodingSteps": 82,
  "PhaseResolution": 1,
  "PixelBandwidth": 3050,
  "ProcedureStepDescription": "Wager_Wager^1076_spacetop",
  "ProtocolName": "func_run-05_task-social_acq-ap-mb8",
  "PulseSequenceDetails": "%CustomerSeq%\\cmrr_mbep2d_bold",
  "ReceiveCoilActiveElements": "HEA;HEP",
  "ReceiveCoilName": "Head_32",
  "ReconMatrixPE": 82,
  "RepetitionTime": 0.46,
  "SAR": 0.084191,
  "ScanOptions": "FS",
  "ScanningSequence": "EP",
  "SequenceName": "epfid2d1_82",
  "SequenceVariant": "SK\\SS",
  "SeriesDescription": "func_run-05_task-social_acq-ap-mb8",
  "SeriesNumber": 18,
  "ShimSetting": [4146, -7791, -7250, 615, -69, -304, 73, 96],
  "SliceThickness": 2.7,
  "SliceTiming": [0, 0.25, 0.0625, 0.3125, 0.125, 0.375, 0.1875, 0, 0.25, 0.0625, 0.3125, 0.125, 0.375, 0.1875, 0, 0.25, 0.0625, 0.3125, 0.125, 0.375, 0.1875, 0, 0.25, 0.0625, 0.3125, 0.125, 0.375, 0.1875, 0, 0.25, 0.0625, 0.3125, 0.125, 0.375, 0.1875, 0, 0.25, 0.0625, 0.3125, 0.125, 0.375, 0.1875, 0, 0.25, 0.0625, 0.3125, 0.125, 0.375, 0.1875, 0, 0.25, 0.0625, 0.3125, 0.125, 0.375, 0.1875],
  "SoftwareVersions": "syngo MR E11",
  "SpacingBetweenSlices": 2.7,
  "StationName": "AWP66112",
  "TaskName": "social",
  "TotalReadoutTime": 0.03969,
  "TxRefAmp": 237.281,
  "WipMemBlock": "20546961-1093-4d3c-a911-5a48cd385f26||Sequence: R016 ve11c/master r/e634e98; Dec 19 2017 11:00:25 by eja",
  "dcmmeta_affine": [
    [-2.682926893234253, 0.0, -9.42029960981916e-12, 110.0],
    [0.0, 2.682926893234253, -3.024539993456976e-11, -92.98062133789062],
    [-9.360731807739331e-12, 3.005414667134332e-11, 2.700000047683716, -71.51905822753906],
    [0.0, 0.0, 0.0, 1.0]
],
  "dcmmeta_reorient_transform": [
    [0.0, -1.0, 0.0, 81.0],
    [1.0, 0.0, 0.0, 0.0],
    [0.0, 0.0, 1.0, 0.0],
    [0.0, 0.0, 0.0, 1.0]
],
  "dcmmeta_shape": [82, 82, 56, 872],
  "dcmmeta_slice_dim": 2,
  "dcmmeta_version": 0.6,
  "global": {
    "const": {
      "AccessionNumber": "A003630",
      "AcquisitionMatrix": [82, 0, 0, 82],
      "AngioFlag": "N",
      "BitsAllocated": 16,
      "BitsStored": 16,
      "BodyPartExamined": "BRAIN",
      "Columns": 656,
      "EchoNumbers": 1,
      "EchoTime": 27.2,
      "EchoTrainLength": 82,
      "FlipAngle": 44.0,
      "HighBit": 15,
      "ImageOrientationPatient": [1.0, 0.0, -3.489e-12, 0.0, 1.0, -1.1202e-11],
      "ImagePositionPatient": [-880.00002098116, -894.33647727966, -71.519058214611],
      "ImageType": [
        "ORIGINAL",
        "PRIMARY",
        "M",
        "MB",
        "ND",
        "NORM",
        "MOSAIC"
],
      "ImagedNucleus": "1H",
      "ImagingFrequency": 123.252169,
      "InPlanePhaseEncodingDirection": "COL",
      "MRAcquisitionType": "2D",
      "MagneticFieldStrength": 3.0,
      "Manufacturer": "SIEMENS",
      "ManufacturerModelName": "Prisma",
      "Modality": "MR",
      "NumberOfAverages": 1.0,
      "NumberOfPhaseEncodingSteps": 82,
      "PercentPhaseFieldOfView": 100.0,
      "PercentSampling": 100.0,
      "PerformedProcedureStepStartTime": "104350.669000",
      "PhotometricInterpretation": "MONOCHROME2",
      "PixelBandwidth": 3050.0,
      "PixelRepresentation": 0,
      "PixelSpacing": [2.6829268932343, 2.6829268932343],
      "ProtocolName": "func_run-05_task-social_acq-ap-mb8",
      "RepetitionTime": 460.0,
      "Rows": 656,
      "SAR": 0.08419095617376,
      "SamplesPerPixel": 1,
      "ScanOptions": "FS",
      "ScanningSequence": "EP",
      "SequenceName": "epfid2d1_82",
      "SequenceVariant": [
        "SK",
        "SS"
],
      "SeriesDescription": "func_run-05_task-social_acq-ap-mb8",
      "SeriesNumber": 18,
      "SeriesTime": "120723.233000",
      "SliceLocation": -71.5190582277,
      "SliceThickness": 2.7000000476837,
      "SmallestImagePixelValue": 0,
      "SoftwareVersions": "syngo MR E11",
      "SpacingBetweenSlices": 2.7,
      "SpecificCharacterSet": "ISO_IR 100",
      "StudyID": "1",
      "StudyTime": "104350.635000",
      "TransmitCoilName": "Body",
      "VariableFlipAngleFlag": "N",
      "WindowCenterWidthExplanation": "Algo1",
      "dBdt": 0.0},
    "slices": {}
  },
  "time": {
    "samples": {
      "AcquisitionNumber": [1, 2, 3, 4, 5, 6, 7, 8, 9, 10, 11, 12, 13, 14, 15, 16, 17, 18, 19, 20, 21, 22, 23, 24, 25, 26, 27, 28, 29, 30, 31, 32, 33, 34, 35, 36, 37, 38, 39, 40, 41, 42, 43, 44, 45, 46, 47, 48, 49, 50, 51, 52, 53, 54, 55, 56, 57, 58, 59, 60, 61, 62, 63, 64, 65, 66, 67, 68, 69, 70, 71, 72, 73, 74, 75, 76, 77, 78, 79, 80, 81, 82, 83, 84, 85, 86, 87, 88, 89, 90, 91, 92, 93, 94, 95, 96, 97, 98, 99, 100, 101, 102, 103, 104, 105, 106, 107, 108, 109, 110, 111, 112, 113, 114, 115, 116, 117, 118, 119, 120, 121, 122, 123, 124, 125, 126, 127, 128, 129, 130, 131, 132, 133, 134, 135, 136, 137, 138, 139, 140, 141, 142, 143, 144, 145, 146, 147, 148, 149, 150, 151, 152, 153, 154, 155, 156, 157, 158, 159, 160, 161, 162, 163, 164, 165, 166, 167, 168, 169, 170, 171, 172, 173, 174, 175, 176, 177, 178, 179, 180, 181, 182, 183, 184, 185, 186, 187, 188, 189, 190, 191, 192, 193, 194, 195, 196, 197, 198, 199, 200, 201, 202, 203, 204, 205, 206, 207, 208, 209, 210, 211, 212, 213, 214, 215, 216, 217, 218, 219, 220, 221, 222, 223, 224, 225, 226, 227, 228, 229, 230, 231, 232, 233, 234, 235, 236, 237, 238, 239, 240, 241, 242, 243, 244, 245, 246, 247, 248, 249, 250, 251, 252, 253, 254, 255, 256, 257, 258, 259, 260, 261, 262, 263, 264, 265, 266, 267, 268, 269, 270, 271, 272, 273, 274, 275, 276, 277, 278, 279, 280, 281, 282, 283, 284, 285, 286, 287, 288, 289, 290, 291, 292, 293, 294, 295, 296, 297, 298, 299, 300, 301, 302, 303, 304, 305, 306, 307, 308, 309, 310, 311, 312, 313, 314, 315, 316, 317, 318, 319, 320, 321, 322, 323, 324, 325, 326, 327, 328, 329, 330, 331, 332, 333, 334, 335, 336, 337, 338, 339, 340, 341, 342, 343, 344, 345, 346, 347, 348, 349, 350, 351, 352, 353, 354, 355, 356, 357, 358, 359, 360, 361, 362, 363, 364, 365, 366, 367, 368, 369, 370, 371, 372, 373, 374, 375, 376, 377, 378, 379, 380, 381, 382, 383, 384, 385, 386, 387, 388, 389, 390, 391, 392, 393, 394, 395, 396, 397, 398, 399, 400, 401, 402, 403, 404, 405, 406, 407, 408, 409, 410, 411, 412, 413, 414, 415, 416, 417, 418, 419, 420, 421, 422, 423, 424, 425, 426, 427, 428, 429, 430, 431, 432, 433, 434, 435, 436, 437, 438, 439, 440, 441, 442, 443, 444, 445, 446, 447, 448, 449, 450, 451, 452, 453, 454, 455, 456, 457, 458, 459, 460, 461, 462, 463, 464, 465, 466, 467, 468, 469, 470, 471, 472, 473, 474, 475, 476, 477, 478, 479, 480, 481, 482, 483, 484, 485, 486, 487, 488, 489, 490, 491, 492, 493, 494, 495, 496, 497, 498, 499, 500, 501, 502, 503, 504, 505, 506, 507, 508, 509, 510, 511, 512, 513, 514, 515, 516, 517, 518, 519, 520, 521, 522, 523, 524, 525, 526, 527, 528, 529, 530, 531, 532, 533, 534, 535, 536, 537, 538, 539, 540, 541, 542, 543, 544, 545, 546, 547, 548, 549, 550, 551, 552, 553, 554, 555, 556, 557, 558, 559, 560, 561, 562, 563, 564, 565, 566, 567, 568, 569, 570, 571, 572, 573, 574, 575, 576, 577, 578, 579, 580, 581, 582, 583, 584, 585, 586, 587, 588, 589, 590, 591, 592, 593, 594, 595, 596, 597, 598, 599, 600, 601, 602, 603, 604, 605, 606, 607, 608, 609, 610, 611, 612, 613, 614, 615, 616, 617, 618, 619, 620, 621, 622, 623, 624, 625, 626, 627, 628, 629, 630, 631, 632, 633, 634, 635, 636, 637, 638, 639, 640, 641, 642, 643, 644, 645, 646, 647, 648, 649, 650, 651, 652, 653, 654, 655, 656, 657, 658, 659, 660, 661, 662, 663, 664, 665, 666, 667, 668, 669, 670, 671, 672, 673, 674, 675, 676, 677, 678, 679, 680, 681, 682, 683, 684, 685, 686, 687, 688, 689, 690, 691, 692, 693, 694, 695, 696, 697, 698, 699, 700, 701, 702, 703, 704, 705, 706, 707, 708, 709, 710, 711, 712, 713, 714, 715, 716, 717, 718, 719, 720, 721, 722, 723, 724, 725, 726, 727, 728, 729, 730, 731, 732, 733, 734, 735, 736, 737, 738, 739, 740, 741, 742, 743, 744, 745, 746, 747, 748, 749, 750, 751, 752, 753, 754, 755, 756, 757, 758, 759, 760, 761, 762, 763, 764, 765, 766, 767, 768, 769, 770, 771, 772, 773, 774, 775, 776, 777, 778, 779, 780, 781, 782, 783, 784, 785, 786, 787, 788, 789, 790, 791, 792, 793, 794, 795, 796, 797, 798, 799, 800, 801, 802, 803, 804, 805, 806, 807, 808, 809, 810, 811, 812, 813, 814, 815, 816, 817, 818, 819, 820, 821, 822, 823, 824, 825, 826, 827, 828, 829, 830, 831, 832, 833, 834, 835, 836, 837, 838, 839, 840, 841, 842, 843, 844, 845, 846, 847, 848, 849, 850, 851, 852, 853, 854, 855, 856, 857, 858, 859, 860, 861, 862, 863, 864, 865, 866, 867, 868, 869, 870, 871, 872],
      "AcquisitionTime": ["120708.857500", "120709.317500", "120709.777500", "120710.237500", "120710.697500", "120711.157500", "120711.617500", "120712.077500", "120712.537500", "120712.997500", "120713.457500", "120713.917500", "120714.377500", "120714.837500", "120715.297500", "120715.757500", "120716.217500", "120716.677500", "120717.137500", "120717.597500", "120718.057500", "120718.517500", "120718.977500", "120719.437500", "120719.897500", "120720.357500", "120720.817500", "120721.277500", "120721.737500", "120722.197500", "120722.657500", "120723.117500", "120723.577500", "120724.037500", "120724.497500", "120724.957500", "120725.417500", "120725.877500", "120726.337500", "120726.797500", "120727.257500", "120727.717500", "120728.177500", "120728.637500", "120729.097500", "120729.557500", "120730.017500", "120730.477500", "120730.937500", "120731.397500", "120731.857500", "120732.317500", "120732.777500", "120733.237500", "120733.697500", "120734.157500", "120734.617500", "120735.077500", "120735.537500", "120735.997500", "120736.457500", "120736.917500", "120737.377500", "120737.837500", "120738.297500", "120738.757500", "120739.217500", "120739.677500", "120740.137500", "120740.597500", "120741.057500", "120741.517500", "120741.977500", "120742.437500", "120742.897500", "120743.357500", "120743.817500", "120744.277500", "120744.737500", "120745.197500", "120745.657500", "120746.117500", "120746.577500", "120747.037500", "120747.497500", "120747.957500", "120748.417500", "120748.877500", "120749.337500", "120749.797500", "120750.257500", "120750.717500", "120751.177500", "120751.637500", "120752.097500", "120752.557500", "120753.017500", "120753.477500", "120753.937500", "120754.397500", "120754.857500", "120755.317500", "120755.777500", "120756.237500", "120756.697500", "120757.157500", "120757.617500", "120758.077500", "120758.537500", "120758.997500", "120759.457500", "120759.917500", "120800.377500", "120800.837500", "120801.297500", "120801.757500", "120802.217500", "120802.677500", "120803.137500", "120803.597500", "120804.057500", "120804.517500", "120804.977500", "120805.437500", "120805.897500", "120806.357500", "120806.817500", "120807.277500", "120807.737500", "120808.197500", "120808.657500", "120809.117500", "120809.577500", "120810.037500", "120810.497500", "120810.957500", "120811.417500", "120811.877500", "120812.337500", "120812.797500", "120813.257500", "120813.717500", "120814.177500", "120814.637500", "120815.097500", "120815.557500", "120816.017500", "120816.477500", "120816.937500", "120817.397500", "120817.857500", "120818.317500", "120818.777500", "120819.237500", "120819.697500", "120820.157500", "120820.617500", "120821.077500", "120821.537500", "120821.997500", "120822.457500", "120822.917500", "120823.377500", "120823.837500", "120824.297500", "120824.757500", "120825.217500", "120825.677500", "120826.137500", "120826.597500", "120827.057500", "120827.517500", "120827.977500", "120828.437500", "120828.897500", "120829.357500", "120829.817500", "120830.277500", "120830.737500", "120831.197500", "120831.657500", "120832.117500", "120832.577500", "120833.037500", "120833.497500", "120833.957500", "120834.417500", "120834.877500", "120835.337500", "120835.797500", "120836.257500", "120836.717500", "120837.177500", "120837.637500", "120838.097500", "120838.557500", "120839.017500", "120839.477500", "120839.937500", "120840.397500", "120840.857500", "120841.317500", "120841.777500", "120842.237500", "120842.697500", "120843.157500", "120843.617500", "120844.077500", "120844.537500", "120844.997500", "120845.457500", "120845.917500", "120846.377500", "120846.837500", "120847.297500", "120847.757500", "120848.217500", "120848.677500", "120849.137500", "120849.597500", "120850.057500", "120850.517500", "120850.977500", "120851.437500", "120851.897500", "120852.357500", "120852.817500", "120853.277500", "120853.737500", "120854.197500", "120854.657500", "120855.117500", "120855.577500", "120856.037500", "120856.497500", "120856.957500", "120857.417500", "120857.877500", "120858.337500", "120858.797500", "120859.257500", "120859.717500", "120900.177500", "120900.637500", "120901.097500", "120901.557500", "120902.017500", "120902.477500", "120902.937500", "120903.397500", "120903.857500", "120904.317500", "120904.777500", "120905.237500", "120905.697500", "120906.157500", "120906.617500", "120907.077500", "120907.537500", "120907.997500", "120908.457500", "120908.917500", "120909.377500", "120909.837500", "120910.297500", "120910.757500", "120911.217500", "120911.677500", "120912.137500", "120912.597500", "120913.057500", "120913.517500", "120913.977500", "120914.437500", "120914.897500", "120915.357500", "120915.817500", "120916.277500", "120916.737500", "120917.197500", "120917.657500", "120918.117500", "120918.577500", "120919.037500", "120919.497500", "120919.957500", "120920.417500", "120920.877500", "120921.337500", "120921.797500", "120922.257500", "120922.717500", "120923.177500", "120923.637500", "120924.097500", "120924.557500", "120925.017500", "120925.477500", "120925.937500", "120926.397500", "120926.857500", "120927.317500", "120927.777500", "120928.237500", "120928.697500", "120929.157500", "120929.617500", "120930.077500", "120930.537500", "120930.997500", "120931.457500", "120931.917500", "120932.377500", "120932.837500", "120933.297500", "120933.757500", "120934.217500", "120934.677500", "120935.137500", "120935.597500", "120936.057500", "120936.517500", "120936.977500", "120937.437500", "120937.897500", "120938.357500", "120938.817500", "120939.277500", "120939.737500", "120940.197500", "120940.657500", "120941.117500", "120941.577500", "120942.037500", "120942.497500", "120942.957500", "120943.417500", "120943.877500", "120944.337500", "120944.797500", "120945.257500", "120945.717500", "120946.177500", "120946.637500", "120947.097500", "120947.557500", "120948.017500", "120948.477500", "120948.937500", "120949.397500", "120949.857500", "120950.317500", "120950.777500", "120951.237500", "120951.697500", "120952.157500", "120952.617500", "120953.077500", "120953.537500", "120953.997500", "120954.457500", "120954.917500", "120955.377500", "120955.837500", "120956.297500", "120956.757500", "120957.217500", "120957.677500", "120958.137500", "120958.597500", "120959.057500", "120959.517500", "120959.977500", "121000.437500", "121000.897500", "121001.357500", "121001.817500", "121002.277500", "121002.737500", "121003.197500", "121003.657500", "121004.117500", "121004.577500", "121005.037500", "121005.497500", "121005.957500", "121006.417500", "121006.877500", "121007.337500", "121007.797500", "121008.257500", "121008.717500", "121009.177500", "121009.637500", "121010.097500", "121010.557500", "121011.017500", "121011.477500", "121011.937500", "121012.397500", "121012.857500", "121013.317500", "121013.777500", "121014.237500", "121014.697500", "121015.157500", "121015.617500", "121016.077500", "121016.537500", "121016.997500", "121017.457500", "121017.917500", "121018.377500", "121018.837500", "121019.297500", "121019.757500", "121020.217500", "121020.677500", "121021.137500", "121021.597500", "121022.057500", "121022.517500", "121022.977500", "121023.437500", "121023.897500", "121024.357500", "121024.817500", "121025.277500", "121025.737500", "121026.197500", "121026.657500", "121027.117500", "121027.577500", "121028.037500", "121028.497500", "121028.957500", "121029.417500", "121029.877500", "121030.337500", "121030.797500", "121031.257500", "121031.717500", "121032.177500", "121032.637500", "121033.097500", "121033.557500", "121034.017500", "121034.477500", "121034.937500", "121035.397500", "121035.857500", "121036.317500", "121036.777500", "121037.237500", "121037.697500", "121038.157500", "121038.617500", "121039.077500", "121039.537500", "121039.997500", "121040.457500", "121040.917500", "121041.377500", "121041.837500", "121042.297500", "121042.757500", "121043.217500", "121043.677500", "121044.137500", "121044.597500", "121045.057500", "121045.517500", "121045.977500", "121046.437500", "121046.897500", "121047.357500", "121047.817500", "121048.277500", "121048.737500", "121049.197500", "121049.657500", "121050.117500", "121050.577500", "121051.037500", "121051.497500", "121051.957500", "121052.417500", "121052.877500", "121053.337500", "121053.797500", "121054.257500", "121054.717500", "121055.177500", "121055.637500", "121056.097500", "121056.557500", "121057.017500", "121057.477500", "121057.937500", "121058.397500", "121058.857500", "121059.317500", "121059.777500", "121100.237500", "121100.697500", "121101.157500", "121101.617500", "121102.077500", "121102.537500", "121102.997500", "121103.457500", "121103.917500", "121104.377500", "121104.837500", "121105.297500", "121105.757500", "121106.217500", "121106.677500", "121107.137500", "121107.597500", "121108.057500", "121108.517500", "121108.977500", "121109.437500", "121109.897500", "121110.357500", "121110.817500", "121111.277500", "121111.737500", "121112.197500", "121112.657500", "121113.117500", "121113.577500", "121114.037500", "121114.497500", "121114.957500", "121115.417500", "121115.877500", "121116.337500", "121116.797500", "121117.257500", "121117.717500", "121118.177500", "121118.637500", "121119.097500", "121119.557500", "121120.017500", "121120.477500", "121120.937500", "121121.397500", "121121.857500", "121122.317500", "121122.777500", "121123.237500", "121123.697500", "121124.157500", "121124.617500", "121125.077500", "121125.537500", "121125.997500", "121126.457500", "121126.917500", "121127.377500", "121127.837500", "121128.297500", "121128.757500", "121129.217500", "121129.677500", "121130.137500", "121130.597500", "121131.057500", "121131.517500", "121131.977500", "121132.437500", "121132.897500", "121133.357500", "121133.817500", "121134.277500", "121134.737500", "121135.197500", "121135.657500", "121136.117500", "121136.577500", "121137.037500", "121137.497500", "121137.957500", "121138.417500", "121138.877500", "121139.337500", "121139.797500", "121140.257500", "121140.717500", "121141.177500", "121141.637500", "121142.097500", "121142.557500", "121143.017500", "121143.477500", "121143.937500", "121144.397500", "121144.857500", "121145.317500", "121145.777500", "121146.237500", "121146.697500", "121147.157500", "121147.617500", "121148.077500", "121148.537500", "121148.997500", "121149.457500", "121149.917500", "121150.377500", "121150.837500", "121151.297500", "121151.757500", "121152.217500", "121152.677500", "121153.137500", "121153.597500", "121154.057500", "121154.517500", "121154.977500", "121155.437500", "121155.897500", "121156.357500", "121156.817500", "121157.277500", "121157.737500", "121158.197500", "121158.657500", "121159.117500", "121159.577500", "121200.037500", "121200.497500", "121200.957500", "121201.417500", "121201.877500", "121202.337500", "121202.797500", "121203.257500", "121203.717500", "121204.177500", "121204.637500", "121205.097500", "121205.557500", "121206.017500", "121206.477500", "121206.937500", "121207.397500", "121207.857500", "121208.317500", "121208.777500", "121209.237500", "121209.697500", "121210.157500", "121210.617500", "121211.077500", "121211.537500", "121211.997500", "121212.457500", "121212.917500", "121213.377500", "121213.837500", "121214.297500", "121214.757500", "121215.217500", "121215.677500", "121216.137500", "121216.597500", "121217.057500", "121217.517500", "121217.977500", "121218.437500", "121218.897500", "121219.357500", "121219.817500", "121220.277500", "121220.737500", "121221.197500", "121221.657500", "121222.117500", "121222.577500", "121223.037500", "121223.497500", "121223.957500", "121224.417500", "121224.877500", "121225.337500", "121225.797500", "121226.257500", "121226.717500", "121227.177500", "121227.637500", "121228.097500", "121228.557500", "121229.017500", "121229.477500", "121229.937500", "121230.397500", "121230.857500", "121231.317500", "121231.777500", "121232.237500", "121232.697500", "121233.157500", "121233.617500", "121234.077500", "121234.537500", "121234.997500", "121235.457500", "121235.917500", "121236.377500", "121236.837500", "121237.297500", "121237.757500", "121238.217500", "121238.677500", "121239.137500", "121239.597500", "121240.057500", "121240.517500", "121240.977500", "121241.437500", "121241.897500", "121242.357500", "121242.817500", "121243.277500", "121243.737500", "121244.197500", "121244.657500", "121245.117500", "121245.577500", "121246.037500", "121246.497500", "121246.957500", "121247.417500", "121247.877500", "121248.337500", "121248.797500", "121249.257500", "121249.717500", "121250.177500", "121250.637500", "121251.097500", "121251.557500", "121252.017500", "121252.477500", "121252.937500", "121253.397500", "121253.857500", "121254.317500", "121254.777500", "121255.237500", "121255.697500", "121256.157500", "121256.617500", "121257.077500", "121257.537500", "121257.997500", "121258.457500", "121258.917500", "121259.377500", "121259.837500", "121300.297500", "121300.757500", "121301.217500", "121301.677500", "121302.137500", "121302.597500", "121303.057500", "121303.517500", "121303.977500", "121304.437500", "121304.897500", "121305.357500", "121305.817500", "121306.277500", "121306.737500", "121307.197500", "121307.657500", "121308.117500", "121308.577500", "121309.037500", "121309.497500", "121309.957500", "121310.417500", "121310.877500", "121311.337500", "121311.797500", "121312.257500", "121312.717500", "121313.177500", "121313.637500", "121314.097500", "121314.557500", "121315.017500", "121315.477500", "121315.937500", "121316.397500", "121316.857500", "121317.317500", "121317.777500", "121318.237500", "121318.697500", "121319.157500", "121319.617500", "121320.077500", "121320.537500", "121320.997500", "121321.457500", "121321.917500", "121322.377500", "121322.837500", "121323.297500", "121323.757500", "121324.217500", "121324.677500", "121325.137500", "121325.597500", "121326.057500", "121326.517500", "121326.977500", "121327.437500", "121327.897500", "121328.357500", "121328.817500", "121329.277500", "121329.737500", "121330.197500", "121330.657500", "121331.117500", "121331.577500", "121332.037500", "121332.497500", "121332.957500", "121333.417500", "121333.877500", "121334.337500", "121334.797500", "121335.257500", "121335.717500", "121336.177500", "121336.637500", "121337.097500", "121337.557500", "121338.017500", "121338.477500", "121338.937500", "121339.397500", "121339.857500", "121340.317500", "121340.777500", "121341.237500", "121341.697500", "121342.157500", "121342.617500", "121343.077500", "121343.537500", "121343.997500", "121344.457500", "121344.917500", "121345.377500", "121345.837500", "121346.297500", "121346.757500", "121347.217500", "121347.677500", "121348.137500", "121348.597500", "121349.057500", "121349.517500"],
