{
  "AcquisitionMatrixPE": 82,
  "AcquisitionNumber": 1,
  "AcquisitionTime": "18:18:31.982500",
  "BandwidthPerPixelPhaseEncode": 24.888,
  "BaseResolution": 82,
  "BodyPartExamined": "BRAIN",
  "ConsistencyInfo": "N4_VE11C_LATEST_20160120",
  "ConversionSoftware": "dcm2niix",
  "ConversionSoftwareVersion": "v1.0.20201102",
  "DerivedVendorReportedEchoSpacing": 0.00049,
  "DeviceSerialNumber": "66112",
  "DwellTime": 2e-06,
  "EchoTime": 0.0272,
  "EchoTrainLength": 82,
  "EffectiveEchoSpacing": 0.00049,
  "FlipAngle": 44,
  "ImageComments": "Unaliased MB8/PE3",
  "ImageOrientationPatientDICOM": [0.993772, -0.0401646, 0.103938, 0.0277585, 0.992606, 0.118166],
  "ImageType": [
    "ORIGINAL",
    "PRIMARY",
    "M",
    "MB",
    "ND",
    "NORM",
    "MOSAIC"
],
  "ImagingFrequency": 123.252,
  "InPlanePhaseEncodingDirectionDICOM": "COL",
  "InstitutionAddress": "Maynard 3,Hanover,NH,US,03755",
  "InstitutionName": "Dartmouth College - PBS",
  "InstitutionalDepartmentName": "Department",
  "MRAcquisitionType": "2D",
  "MagneticFieldStrength": 3,
  "Manufacturer": "Siemens",
  "ManufacturersModelName": "Prisma",
  "Modality": "MR",
  "MultibandAccelerationFactor": 8,
  "PartialFourier": 1,
  "PatientPosition": "HFS",
  "PercentPhaseFOV": 100,
  "PercentSampling": 100,
  "PhaseEncodingDirection": "j-",
  "PhaseEncodingSteps": 82,
  "PhaseResolution": 1,
  "PixelBandwidth": 3050,
  "ProcedureStepDescription": "Wager_Wager^1076_spacetop",
  "ProtocolName": "func_run-03_task-alignvideo_acq-ap-mb8",
  "PulseSequenceDetails": "%CustomerSeq%\\cmrr_mbep2d_bold",
  "ReceiveCoilActiveElements": "HEA;HEP",
  "ReceiveCoilName": "Head_32",
  "ReconMatrixPE": 82,
  "RepetitionTime": 0.46,
  "SAR": 0.117066,
  "ScanOptions": "FS",
  "ScanningSequence": "EP",
  "SequenceName": "epfid2d1_82",
  "SequenceVariant": "SK\\SS",
  "SeriesDescription": "func_run-03_task-alignvideo_acq-ap-mb8",
  "SeriesNumber": 34,
  "ShimSetting": [4179, -7727, -7184, 518, -24, -91, 44, 22],
  "SliceThickness": 2.7,
  "SliceTiming": [0, 0.25, 0.0625, 0.3125, 0.125, 0.3775, 0.1875, 0, 0.25, 0.0625, 0.3125, 0.125, 0.3775, 0.1875, 0, 0.25, 0.0625, 0.3125, 0.125, 0.3775, 0.1875, 0, 0.25, 0.0625, 0.3125, 0.125, 0.3775, 0.1875, 0, 0.25, 0.0625, 0.3125, 0.125, 0.3775, 0.1875, 0, 0.25, 0.0625, 0.3125, 0.125, 0.3775, 0.1875, 0, 0.25, 0.0625, 0.3125, 0.125, 0.3775, 0.1875, 0, 0.25, 0.0625, 0.3125, 0.125, 0.3775, 0.1875],
  "SoftwareVersions": "syngo MR E11",
  "SpacingBetweenSlices": 2.7,
  "StationName": "AWP66112",
  "TaskName": "alignvideo",
  "TotalReadoutTime": 0.03969,
  "TxRefAmp": 267.7,
  "WipMemBlock": "f37cdb67-5eb1-4b95-870f-809d03fb47f6||Sequence: R016 ve11c/master r/e634e98; Dec 19 2017 11:00:25 by eja",
  "dcmmeta_affine": [
    [-2.6662187576293945, 0.07447413355112076, 0.2913728654384613, 103.87084197998047],
    [0.1077587902545929, 2.663088798522949, 0.3092714846134186, -97.53112030029297],
    [0.27885890007019043, -0.3170308768749237, 2.666355848312378, -32.024471282958984],
    [0.0, 0.0, 0.0, 1.0]
],
  "dcmmeta_reorient_transform": [
    [0.0, -1.0, 0.0, 81.0],
    [1.0, 0.0, 0.0, 0.0],
    [0.0, 0.0, 1.0, 0.0],
    [0.0, 0.0, 0.0, 1.0]
],
  "dcmmeta_shape": [82, 82, 56, 1016],
  "dcmmeta_slice_dim": 2,
  "dcmmeta_version": 0.6,
  "global": {
    "const": {
      "AccessionNumber": "A003799",
      "AcquisitionMatrix": [82, 0, 0, 82],
      "AngioFlag": "N",
      "BitsAllocated": 16,
      "BitsStored": 16,
      "BodyPartExamined": "BRAIN",
      "Columns": 656,
      "EchoNumbers": 1,
      "EchoTime": 27.2,
      "EchoTrainLength": 82,
      "FlipAngle": 44.0,
      "HighBit": 15,
      "ImageOrientationPatient": [0.9937724223169, -0.0401646393044, 0.10393832013241, 0.02775854057064, 0.99260578621573, 0.11816605517846],
      "ImagePositionPatient": [-896.48210935741, -851.55876889208, -228.72434638858],
      "ImageType": [
        "ORIGINAL",
        "PRIMARY",
        "M",
        "MB",
        "ND",
        "NORM",
        "MOSAIC"
],
      "ImagedNucleus": "1H",
      "ImagingFrequency": 123.252137,
      "InPlanePhaseEncodingDirection": "COL",
      "MRAcquisitionType": "2D",
      "MagneticFieldStrength": 3.0,
      "Manufacturer": "SIEMENS",
      "ManufacturerModelName": "Prisma",
      "Modality": "MR",
      "NumberOfAverages": 1.0,
      "NumberOfPhaseEncodingSteps": 82,
      "PercentPhaseFieldOfView": 100.0,
      "PercentSampling": 100.0,
      "PerformedProcedureStepStartTime": "164116.521000",
      "PhotometricInterpretation": "MONOCHROME2",
      "PixelBandwidth": 3050.0,
      "PixelRepresentation": 0,
      "PixelSpacing": [2.6829268932343, 2.6829268932343],
      "ProtocolName": "func_run-03_task-alignvideo_acq-ap-mb8",
      "RepetitionTime": 460.0,
      "Rows": 656,
      "SAR": 0.11706611908675,
      "SamplesPerPixel": 1,
      "ScanOptions": "FS",
      "ScanningSequence": "EP",
      "SequenceName": "epfid2d1_82",
      "SequenceVariant": [
        "SK",
        "SS"
],
      "SeriesDescription": "func_run-03_task-alignvideo_acq-ap-mb8",
      "SeriesNumber": 34,
      "SeriesTime": "181857.744000",
      "SliceLocation": -31.587808237161,
      "SliceThickness": 2.7000000476837,
      "SmallestImagePixelValue": 0,
      "SoftwareVersions": "syngo MR E11",
      "SpacingBetweenSlices": 2.6999999987409,
      "SpecificCharacterSet": "ISO_IR 100",
      "StudyID": "1",
      "StudyTime": "164116.411000",
      "TransmitCoilName": "Body",
      "VariableFlipAngleFlag": "N",
      "WindowCenterWidthExplanation": "Algo1",
      "dBdt": 0.0},
    "slices": {}
  },
  "time": {
    "samples": {
      "AcquisitionNumber": [1, 2, 3, 4, 5, 6, 7, 8, 9, 10, 11, 12, 13, 14, 15, 16, 17, 18, 19, 20, 21, 22, 23, 24, 25, 26, 27, 28, 29, 30, 31, 32, 33, 34, 35, 36, 37, 38, 39, 40, 41, 42, 43, 44, 45, 46, 47, 48, 49, 50, 51, 52, 53, 54, 55, 56, 57, 58, 59, 60, 61, 62, 63, 64, 65, 66, 67, 68, 69, 70, 71, 72, 73, 74, 75, 76, 77, 78, 79, 80, 81, 82, 83, 84, 85, 86, 87, 88, 89, 90, 91, 92, 93, 94, 95, 96, 97, 98, 99, 100, 101, 102, 103, 104, 105, 106, 107, 108, 109, 110, 111, 112, 113, 114, 115, 116, 117, 118, 119, 120, 121, 122, 123, 124, 125, 126, 127, 128, 129, 130, 131, 132, 133, 134, 135, 136, 137, 138, 139, 140, 141, 142, 143, 144, 145, 146, 147, 148, 149, 150, 151, 152, 153, 154, 155, 156, 157, 158, 159, 160, 161, 162, 163, 164, 165, 166, 167, 168, 169, 170, 171, 172, 173, 174, 175, 176, 177, 178, 179, 180, 181, 182, 183, 184, 185, 186, 187, 188, 189, 190, 191, 192, 193, 194, 195, 196, 197, 198, 199, 200, 201, 202, 203, 204, 205, 206, 207, 208, 209, 210, 211, 212, 213, 214, 215, 216, 217, 218, 219, 220, 221, 222, 223, 224, 225, 226, 227, 228, 229, 230, 231, 232, 233, 234, 235, 236, 237, 238, 239, 240, 241, 242, 243, 244, 245, 246, 247, 248, 249, 250, 251, 252, 253, 254, 255, 256, 257, 258, 259, 260, 261, 262, 263, 264, 265, 266, 267, 268, 269, 270, 271, 272, 273, 274, 275, 276, 277, 278, 279, 280, 281, 282, 283, 284, 285, 286, 287, 288, 289, 290, 291, 292, 293, 294, 295, 296, 297, 298, 299, 300, 301, 302, 303, 304, 305, 306, 307, 308, 309, 310, 311, 312, 313, 314, 315, 316, 317, 318, 319, 320, 321, 322, 323, 324, 325, 326, 327, 328, 329, 330, 331, 332, 333, 334, 335, 336, 337, 338, 339, 340, 341, 342, 343, 344, 345, 346, 347, 348, 349, 350, 351, 352, 353, 354, 355, 356, 357, 358, 359, 360, 361, 362, 363, 364, 365, 366, 367, 368, 369, 370, 371, 372, 373, 374, 375, 376, 377, 378, 379, 380, 381, 382, 383, 384, 385, 386, 387, 388, 389, 390, 391, 392, 393, 394, 395, 396, 397, 398, 399, 400, 401, 402, 403, 404, 405, 406, 407, 408, 409, 410, 411, 412, 413, 414, 415, 416, 417, 418, 419, 420, 421, 422, 423, 424, 425, 426, 427, 428, 429, 430, 431, 432, 433, 434, 435, 436, 437, 438, 439, 440, 441, 442, 443, 444, 445, 446, 447, 448, 449, 450, 451, 452, 453, 454, 455, 456, 457, 458, 459, 460, 461, 462, 463, 464, 465, 466, 467, 468, 469, 470, 471, 472, 473, 474, 475, 476, 477, 478, 479, 480, 481, 482, 483, 484, 485, 486, 487, 488, 489, 490, 491, 492, 493, 494, 495, 496, 497, 498, 499, 500, 501, 502, 503, 504, 505, 506, 507, 508, 509, 510, 511, 512, 513, 514, 515, 516, 517, 518, 519, 520, 521, 522, 523, 524, 525, 526, 527, 528, 529, 530, 531, 532, 533, 534, 535, 536, 537, 538, 539, 540, 541, 542, 543, 544, 545, 546, 547, 548, 549, 550, 551, 552, 553, 554, 555, 556, 557, 558, 559, 560, 561, 562, 563, 564, 565, 566, 567, 568, 569, 570, 571, 572, 573, 574, 575, 576, 577, 578, 579, 580, 581, 582, 583, 584, 585, 586, 587, 588, 589, 590, 591, 592, 593, 594, 595, 596, 597, 598, 599, 600, 601, 602, 603, 604, 605, 606, 607, 608, 609, 610, 611, 612, 613, 614, 615, 616, 617, 618, 619, 620, 621, 622, 623, 624, 625, 626, 627, 628, 629, 630, 631, 632, 633, 634, 635, 636, 637, 638, 639, 640, 641, 642, 643, 644, 645, 646, 647, 648, 649, 650, 651, 652, 653, 654, 655, 656, 657, 658, 659, 660, 661, 662, 663, 664, 665, 666, 667, 668, 669, 670, 671, 672, 673, 674, 675, 676, 677, 678, 679, 680, 681, 682, 683, 684, 685, 686, 687, 688, 689, 690, 691, 692, 693, 694, 695, 696, 697, 698, 699, 700, 701, 702, 703, 704, 705, 706, 707, 708, 709, 710, 711, 712, 713, 714, 715, 716, 717, 718, 719, 720, 721, 722, 723, 724, 725, 726, 727, 728, 729, 730, 731, 732, 733, 734, 735, 736, 737, 738, 739, 740, 741, 742, 743, 744, 745, 746, 747, 748, 749, 750, 751, 752, 753, 754, 755, 756, 757, 758, 759, 760, 761, 762, 763, 764, 765, 766, 767, 768, 769, 770, 771, 772, 773, 774, 775, 776, 777, 778, 779, 780, 781, 782, 783, 784, 785, 786, 787, 788, 789, 790, 791, 792, 793, 794, 795, 796, 797, 798, 799, 800, 801, 802, 803, 804, 805, 806, 807, 808, 809, 810, 811, 812, 813, 814, 815, 816, 817, 818, 819, 820, 821, 822, 823, 824, 825, 826, 827, 828, 829, 830, 831, 832, 833, 834, 835, 836, 837, 838, 839, 840, 841, 842, 843, 844, 845, 846, 847, 848, 849, 850, 851, 852, 853, 854, 855, 856, 857, 858, 859, 860, 861, 862, 863, 864, 865, 866, 867, 868, 869, 870, 871, 872, 873, 874, 875, 876, 877, 878, 879, 880, 881, 882, 883, 884, 885, 886, 887, 888, 889, 890, 891, 892, 893, 894, 895, 896, 897, 898, 899, 900, 901, 902, 903, 904, 905, 906, 907, 908, 909, 910, 911, 912, 913, 914, 915, 916, 917, 918, 919, 920, 921, 922, 923, 924, 925, 926, 927, 928, 929, 930, 931, 932, 933, 934, 935, 936, 937, 938, 939, 940, 941, 942, 943, 944, 945, 946, 947, 948, 949, 950, 951, 952, 953, 954, 955, 956, 957, 958, 959, 960, 961, 962, 963, 964, 965, 966, 967, 968, 969, 970, 971, 972, 973, 974, 975, 976, 977, 978, 979, 980, 981, 982, 983, 984, 985, 986, 987, 988, 989, 990, 991, 992, 993, 994, 995, 996, 997, 998, 999, 1000, 1001, 1002, 1003, 1004, 1005, 1006, 1007, 1008, 1009, 1010, 1011, 1012, 1013, 1014, 1015, 1016],
      "AcquisitionTime": ["181831.982500", "181832.442500", "181832.902500", "181833.362500", "181833.822500", "181834.282500", "181834.742500", "181835.202500", "181835.662500", "181836.122500", "181836.582500", "181837.042500", "181837.502500", "181837.962500", "181838.422500", "181838.882500", "181839.342500", "181839.802500", "181840.262500", "181840.722500", "181841.182500", "181841.642500", "181842.102500", "181842.562500", "181843.022500", "181843.482500", "181843.942500", "181844.402500", "181844.862500", "181845.322500", "181845.782500", "181846.242500", "181846.702500", "181847.162500", "181847.622500", "181848.082500", "181848.542500", "181849.002500", "181849.462500", "181849.922500", "181850.382500", "181850.842500", "181851.302500", "181851.762500", "181852.222500", "181852.682500", "181853.142500", "181853.602500", "181854.062500", "181854.522500", "181854.982500", "181855.442500", "181855.902500", "181856.362500", "181856.822500", "181857.282500", "181857.742500", "181858.202500", "181858.662500", "181859.122500", "181859.582500", "181900.042500", "181900.502500", "181900.962500", "181901.422500", "181901.882500", "181902.342500", "181902.802500", "181903.262500", "181903.722500", "181904.182500", "181904.642500", "181905.102500", "181905.562500", "181906.022500", "181906.482500", "181906.942500", "181907.402500", "181907.862500", "181908.322500", "181908.782500", "181909.242500", "181909.702500", "181910.162500", "181910.622500", "181911.082500", "181911.542500", "181912.002500", "181912.462500", "181912.922500", "181913.382500", "181913.842500", "181914.302500", "181914.762500", "181915.222500", "181915.682500", "181916.142500", "181916.602500", "181917.062500", "181917.522500", "181917.982500", "181918.442500", "181918.902500", "181919.362500", "181919.822500", "181920.282500", "181920.742500", "181921.202500", "181921.662500", "181922.122500", "181922.582500", "181923.042500", "181923.502500", "181923.962500", "181924.422500", "181924.882500", "181925.342500", "181925.802500", "181926.262500", "181926.722500", "181927.182500", "181927.642500", "181928.102500", "181928.562500", "181929.022500", "181929.482500", "181929.942500", "181930.402500", "181930.862500", "181931.322500", "181931.782500", "181932.242500", "181932.702500", "181933.162500", "181933.622500", "181934.082500", "181934.542500", "181935.002500", "181935.462500", "181935.922500", "181936.382500", "181936.842500", "181937.302500", "181937.762500", "181938.222500", "181938.682500", "181939.142500", "181939.602500", "181940.062500", "181940.522500", "181940.982500", "181941.442500", "181941.902500", "181942.362500", "181942.822500", "181943.282500", "181943.742500", "181944.202500", "181944.662500", "181945.122500", "181945.582500", "181946.042500", "181946.502500", "181946.962500", "181947.422500", "181947.882500", "181948.342500", "181948.802500", "181949.262500", "181949.722500", "181950.182500", "181950.642500", "181951.102500", "181951.562500", "181952.022500", "181952.482500", "181952.942500", "181953.402500", "181953.862500", "181954.322500", "181954.782500", "181955.242500", "181955.702500", "181956.162500", "181956.622500", "181957.082500", "181957.542500", "181958.002500", "181958.462500", "181958.922500", "181959.382500", "181959.842500", "182000.302500", "182000.762500", "182001.222500", "182001.682500", "182002.142500", "182002.602500", "182003.062500", "182003.522500", "182003.982500", "182004.442500", "182004.902500", "182005.362500", "182005.822500", "182006.282500", "182006.742500", "182007.202500", "182007.662500", "182008.122500", "182008.582500", "182009.042500", "182009.502500", "182009.962500", "182010.422500", "182010.882500", "182011.342500", "182011.802500", "182012.262500", "182012.722500", "182013.182500", "182013.642500", "182014.102500", "182014.562500", "182015.022500", "182015.482500", "182015.942500", "182016.402500", "182016.862500", "182017.322500", "182017.782500", "182018.242500", "182018.702500", "182019.162500", "182019.622500", "182020.082500", "182020.542500", "182021.002500", "182021.462500", "182021.922500", "182022.382500", "182022.842500", "182023.302500", "182023.762500", "182024.222500", "182024.682500", "182025.142500", "182025.602500", "182026.062500", "182026.522500", "182026.982500", "182027.442500", "182027.902500", "182028.362500", "182028.822500", "182029.282500", "182029.742500", "182030.202500", "182030.662500", "182031.122500", "182031.582500", "182032.042500", "182032.502500", "182032.962500", "182033.422500", "182033.882500", "182034.342500", "182034.802500", "182035.262500", "182035.722500", "182036.182500", "182036.642500", "182037.102500", "182037.562500", "182038.022500", "182038.482500", "182038.942500", "182039.402500", "182039.862500", "182040.322500", "182040.782500", "182041.242500", "182041.702500", "182042.162500", "182042.622500", "182043.082500", "182043.542500", "182044.002500", "182044.462500", "182044.922500", "182045.382500", "182045.842500", "182046.302500", "182046.762500", "182047.222500", "182047.682500", "182048.142500", "182048.602500", "182049.062500", "182049.522500", "182049.982500", "182050.442500", "182050.902500", "182051.362500", "182051.822500", "182052.282500", "182052.742500", "182053.202500", "182053.662500", "182054.122500", "182054.582500", "182055.042500", "182055.502500", "182055.962500", "182056.422500", "182056.882500", "182057.342500", "182057.802500", "182058.262500", "182058.722500", "182059.182500", "182059.642500", "182100.102500", "182100.562500", "182101.022500", "182101.482500", "182101.942500", "182102.402500", "182102.862500", "182103.322500", "182103.782500", "182104.242500", "182104.702500", "182105.162500", "182105.622500", "182106.082500", "182106.542500", "182107.002500", "182107.462500", "182107.922500", "182108.382500", "182108.842500", "182109.302500", "182109.762500", "182110.222500", "182110.682500", "182111.142500", "182111.602500", "182112.062500", "182112.522500", "182112.982500", "182113.442500", "182113.902500", "182114.362500", "182114.822500", "182115.282500", "182115.742500", "182116.202500", "182116.662500", "182117.122500", "182117.582500", "182118.042500", "182118.502500", "182118.962500", "182119.422500", "182119.882500", "182120.342500", "182120.802500", "182121.262500", "182121.722500", "182122.182500", "182122.642500", "182123.102500", "182123.562500", "182124.022500", "182124.482500", "182124.942500", "182125.402500", "182125.862500", "182126.322500", "182126.782500", "182127.242500", "182127.702500", "182128.162500", "182128.622500", "182129.082500", "182129.542500", "182130.002500", "182130.462500", "182130.922500", "182131.382500", "182131.842500", "182132.302500", "182132.762500", "182133.222500", "182133.682500", "182134.142500", "182134.602500", "182135.062500", "182135.522500", "182135.982500", "182136.442500", "182136.902500", "182137.362500", "182137.822500", "182138.282500", "182138.742500", "182139.202500", "182139.662500", "182140.122500", "182140.582500", "182141.042500", "182141.502500", "182141.962500", "182142.422500", "182142.882500", "182143.342500", "182143.802500", "182144.262500", "182144.722500", "182145.182500", "182145.642500", "182146.102500", "182146.562500", "182147.022500", "182147.482500", "182147.942500", "182148.402500", "182148.862500", "182149.322500", "182149.782500", "182150.242500", "182150.702500", "182151.162500", "182151.622500", "182152.082500", "182152.542500", "182153.002500", "182153.462500", "182153.922500", "182154.382500", "182154.842500", "182155.302500", "182155.762500", "182156.222500", "182156.682500", "182157.142500", "182157.602500", "182158.062500", "182158.522500", "182158.982500", "182159.442500", "182159.902500", "182200.362500", "182200.822500", "182201.282500", "182201.742500", "182202.202500", "182202.662500", "182203.122500", "182203.582500", "182204.042500", "182204.502500", "182204.962500", "182205.422500", "182205.882500", "182206.342500", "182206.802500", "182207.262500", "182207.722500", "182208.182500", "182208.642500", "182209.102500", "182209.562500", "182210.022500", "182210.482500", "182210.942500", "182211.402500", "182211.862500", "182212.322500", "182212.782500", "182213.242500", "182213.702500", "182214.162500", "182214.622500", "182215.082500", "182215.542500", "182216.002500", "182216.462500", "182216.922500", "182217.382500", "182217.842500", "182218.302500", "182218.762500", "182219.222500", "182219.682500", "182220.142500", "182220.602500", "182221.062500", "182221.522500", "182221.982500", "182222.442500", "182222.902500", "182223.362500", "182223.822500", "182224.282500", "182224.742500", "182225.202500", "182225.662500", "182226.122500", "182226.582500", "182227.042500", "182227.502500", "182227.962500", "182228.422500", "182228.882500", "182229.342500", "182229.802500", "182230.262500", "182230.722500", "182231.182500", "182231.642500", "182232.102500", "182232.562500", "182233.022500", "182233.482500", "182233.942500", "182234.402500", "182234.862500", "182235.322500", "182235.782500", "182236.242500", "182236.702500", "182237.162500", "182237.622500", "182238.082500", "182238.542500", "182239.002500", "182239.462500", "182239.922500", "182240.382500", "182240.842500", "182241.302500", "182241.762500", "182242.222500", "182242.682500", "182243.142500", "182243.602500", "182244.062500", "182244.522500", "182244.982500", "182245.442500", "182245.902500", "182246.362500", "182246.822500", "182247.282500", "182247.742500", "182248.202500", "182248.662500", "182249.122500", "182249.582500", "182250.042500", "182250.502500", "182250.962500", "182251.422500", "182251.882500", "182252.342500", "182252.802500", "182253.262500", "182253.722500", "182254.182500", "182254.642500", "182255.102500", "182255.562500", "182256.022500", "182256.482500", "182256.942500", "182257.402500", "182257.862500", "182258.322500", "182258.782500", "182259.242500", "182259.702500", "182300.162500", "182300.622500", "182301.082500", "182301.542500", "182302.002500", "182302.462500", "182302.922500", "182303.382500", "182303.842500", "182304.302500", "182304.762500", "182305.222500", "182305.682500", "182306.142500", "182306.602500", "182307.062500", "182307.522500", "182307.982500", "182308.442500", "182308.902500", "182309.362500", "182309.822500", "182310.282500", "182310.742500", "182311.202500", "182311.662500", "182312.122500", "182312.582500", "182313.042500", "182313.502500", "182313.962500", "182314.422500", "182314.882500", "182315.342500", "182315.802500", "182316.262500", "182316.722500", "182317.182500", "182317.642500", "182318.102500", "182318.562500", "182319.022500", "182319.482500", "182319.942500", "182320.402500", "182320.862500", "182321.322500", "182321.782500", "182322.242500", "182322.702500", "182323.162500", "182323.622500", "182324.082500", "182324.542500", "182325.002500", "182325.462500", "182325.922500", "182326.382500", "182326.842500", "182327.302500", "182327.762500", "182328.222500", "182328.682500", "182329.142500", "182329.602500", "182330.062500", "182330.522500", "182330.982500", "182331.442500", "182331.902500", "182332.362500", "182332.822500", "182333.282500", "182333.742500", "182334.202500", "182334.662500", "182335.122500", "182335.582500", "182336.042500", "182336.502500", "182336.962500", "182337.422500", "182337.882500", "182338.342500", "182338.802500", "182339.262500", "182339.722500", "182340.182500", "182340.642500", "182341.102500", "182341.562500", "182342.022500", "182342.482500", "182342.942500", "182343.402500", "182343.862500", "182344.322500", "182344.782500", "182345.242500", "182345.702500", "182346.162500", "182346.622500", "182347.082500", "182347.542500", "182348.002500", "182348.462500", "182348.922500", "182349.382500", "182349.842500", "182350.302500", "182350.762500", "182351.222500", "182351.682500", "182352.142500", "182352.602500", "182353.062500", "182353.522500", "182353.982500", "182354.442500", "182354.902500", "182355.362500", "182355.822500", "182356.282500", "182356.742500", "182357.202500", "182357.662500", "182358.122500", "182358.582500", "182359.042500", "182359.502500", "182359.962500", "182400.422500", "182400.882500", "182401.342500", "182401.802500", "182402.262500", "182402.722500", "182403.182500", "182403.642500", "182404.102500", "182404.562500", "182405.022500", "182405.482500", "182405.942500", "182406.402500", "182406.862500", "182407.322500", "182407.782500", "182408.242500", "182408.702500", "182409.162500", "182409.622500", "182410.082500", "182410.542500", "182411.002500", "182411.462500", "182411.922500", "182412.382500", "182412.842500", "182413.302500", "182413.762500", "182414.222500", "182414.682500", "182415.142500", "182415.602500", "182416.062500", "182416.522500", "182416.982500", "182417.442500", "182417.902500", "182418.362500", "182418.822500", "182419.282500", "182419.742500", "182420.202500", "182420.662500", "182421.122500", "182421.582500", "182422.042500", "182422.502500", "182422.962500", "182423.422500", "182423.882500", "182424.342500", "182424.802500", "182425.262500", "182425.722500", "182426.182500", "182426.642500", "182427.102500", "182427.562500", "182428.022500", "182428.482500", "182428.942500", "182429.402500", "182429.862500", "182430.322500", "182430.782500", "182431.242500", "182431.702500", "182432.162500", "182432.622500", "182433.082500", "182433.542500", "182434.002500", "182434.462500", "182434.922500", "182435.382500", "182435.842500", "182436.302500", "182436.762500", "182437.222500", "182437.682500", "182438.142500", "182438.602500", "182439.062500", "182439.522500", "182439.982500", "182440.442500", "182440.902500", "182441.362500", "182441.822500", "182442.282500", "182442.742500", "182443.202500", "182443.662500", "182444.122500", "182444.582500", "182445.042500", "182445.502500", "182445.962500", "182446.422500", "182446.882500", "182447.342500", "182447.802500", "182448.262500", "182448.722500", "182449.182500", "182449.642500", "182450.102500", "182450.562500", "182451.022500", "182451.482500", "182451.942500", "182452.402500", "182452.862500", "182453.322500", "182453.782500", "182454.242500", "182454.702500", "182455.162500", "182455.622500", "182456.082500", "182456.542500", "182457.002500", "182457.462500", "182457.922500", "182458.382500", "182458.842500", "182459.302500", "182459.762500", "182500.222500", "182500.682500", "182501.142500", "182501.602500", "182502.062500", "182502.522500", "182502.982500", "182503.442500", "182503.902500", "182504.362500", "182504.822500", "182505.282500", "182505.742500", "182506.202500", "182506.662500", "182507.122500", "182507.582500", "182508.042500", "182508.502500", "182508.962500", "182509.422500", "182509.882500", "182510.342500", "182510.802500", "182511.262500", "182511.722500", "182512.182500", "182512.642500", "182513.102500", "182513.562500", "182514.022500", "182514.482500", "182514.942500", "182515.402500", "182515.862500", "182516.322500", "182516.782500", "182517.242500", "182517.702500", "182518.162500", "182518.622500", "182519.082500", "182519.542500", "182520.002500", "182520.462500", "182520.922500", "182521.382500", "182521.842500", "182522.302500", "182522.762500", "182523.222500", "182523.682500", "182524.142500", "182524.602500", "182525.062500", "182525.522500", "182525.982500", "182526.442500", "182526.902500", "182527.362500", "182527.822500", "182528.282500", "182528.742500", "182529.202500", "182529.662500", "182530.122500", "182530.582500", "182531.042500", "182531.502500", "182531.962500", "182532.422500", "182532.882500", "182533.342500", "182533.802500", "182534.262500", "182534.722500", "182535.182500", "182535.642500", "182536.102500", "182536.562500", "182537.022500", "182537.482500", "182537.942500", "182538.402500", "182538.862500", "182539.322500", "182539.782500", "182540.242500", "182540.702500", "182541.162500", "182541.622500", "182542.082500", "182542.542500", "182543.002500", "182543.462500", "182543.922500", "182544.382500", "182544.842500", "182545.302500", "182545.762500", "182546.222500", "182546.682500", "182547.142500", "182547.602500", "182548.062500", "182548.522500", "182548.982500", "182549.442500", "182549.902500", "182550.362500", "182550.822500", "182551.282500", "182551.742500", "182552.202500", "182552.662500", "182553.122500", "182553.582500", "182554.042500", "182554.502500", "182554.962500", "182555.422500", "182555.882500", "182556.342500", "182556.802500", "182557.262500", "182557.722500", "182558.182500", "182558.642500", "182559.102500", "182559.562500", "182600.022500", "182600.482500", "182600.942500", "182601.402500", "182601.862500", "182602.322500", "182602.782500", "182603.242500", "182603.702500", "182604.162500", "182604.622500", "182605.082500", "182605.542500", "182606.002500", "182606.462500", "182606.922500", "182607.382500", "182607.842500", "182608.302500", "182608.762500", "182609.222500", "182609.682500", "182610.142500", "182610.602500", "182611.062500", "182611.522500", "182611.982500", "182612.442500", "182612.902500", "182613.362500", "182613.822500", "182614.282500", "182614.742500", "182615.202500", "182615.662500", "182616.122500", "182616.582500", "182617.042500", "182617.502500", "182617.962500", "182618.422500", "182618.882500"],
