{
  "AcquisitionMatrixPE": 82,
  "AcquisitionNumber": 1,
  "AcquisitionTime": "17:32:37.597500",
  "BandwidthPerPixelPhaseEncode": 24.888,
  "BaseResolution": 82,
  "BodyPartExamined": "BRAIN",
  "ConsistencyInfo": "N4_VE11C_LATEST_20160120",
  "ConversionSoftware": "dcm2niix",
  "ConversionSoftwareVersion": "v1.0.20201102",
  "DerivedVendorReportedEchoSpacing": 0.00049,
  "DeviceSerialNumber": "66112",
  "DwellTime": 2e-06,
  "EchoTime": 0.0272,
  "EchoTrainLength": 82,
  "EffectiveEchoSpacing": 0.00049,
  "FlipAngle": 44,
  "ImageComments": "Unaliased MB8/PE3",
  "ImageOrientationPatientDICOM": [0.992535, -0.0377726, 0.115967, 0.027724, 0.995816, 0.0870721],
  "ImageType": [
    "ORIGINAL",
    "PRIMARY",
    "M",
    "MB",
    "ND",
    "NORM",
    "MOSAIC"
],
  "ImagingFrequency": 123.252,
  "InPlanePhaseEncodingDirectionDICOM": "COL",
  "InstitutionAddress": "Maynard 3,Hanover,NH,US,03755",
  "InstitutionName": "Dartmouth College - PBS",
  "InstitutionalDepartmentName": "Department",
  "MRAcquisitionType": "2D",
  "MagneticFieldStrength": 3,
  "Manufacturer": "Siemens",
  "ManufacturersModelName": "Prisma",
  "Modality": "MR",
  "MultibandAccelerationFactor": 8,
  "PartialFourier": 1,
  "PatientPosition": "HFS",
  "PercentPhaseFOV": 100,
  "PercentSampling": 100,
  "PhaseEncodingDirection": "j-",
  "PhaseEncodingSteps": 82,
  "PhaseResolution": 1,
  "PixelBandwidth": 3050,
  "ProcedureStepDescription": "Wager_Wager^1076_spacetop",
  "ProtocolName": "func_run-04_task-social_acq-ap-mb8",
  "PulseSequenceDetails": "%CustomerSeq%\\cmrr_mbep2d_bold",
  "ReceiveCoilActiveElements": "HEA;HEP",
  "ReceiveCoilName": "Head_32",
  "ReconMatrixPE": 82,
  "RepetitionTime": 0.46,
  "SAR": 0.116963,
  "ScanOptions": "FS",
  "ScanningSequence": "EP",
  "SequenceName": "epfid2d1_82",
  "SequenceVariant": "SK\\SS",
  "SeriesDescription": "func_run-04_task-social_acq-ap-mb8",
  "SeriesNumber": 18,
  "ShimSetting": [4178, -7726, -7182, 524, -26, -87, 41, 24],
  "SliceThickness": 2.7,
  "SliceTiming": [0, 0.2525, 0.0625, 0.315, 0.1275, 0.3775, 0.19, 0, 0.2525, 0.0625, 0.315, 0.1275, 0.3775, 0.19, 0, 0.2525, 0.0625, 0.315, 0.1275, 0.3775, 0.19, 0, 0.2525, 0.0625, 0.315, 0.1275, 0.3775, 0.19, 0, 0.2525, 0.0625, 0.315, 0.1275, 0.3775, 0.19, 0, 0.2525, 0.0625, 0.315, 0.1275, 0.3775, 0.19, 0, 0.2525, 0.0625, 0.315, 0.1275, 0.3775, 0.19, 0, 0.2525, 0.0625, 0.315, 0.1275, 0.3775, 0.19],
  "SoftwareVersions": "syngo MR E11",
  "SpacingBetweenSlices": 2.7,
  "StationName": "AWP66112",
  "TaskName": "social",
  "TotalReadoutTime": 0.03969,
  "TxRefAmp": 267.7,
  "WipMemBlock": "2b0eb274-11df-4bf7-88bb-9bc6d164c185||Sequence: R016 ve11c/master r/e634e98; Dec 19 2017 11:00:25 by eja",
  "dcmmeta_affine": [
    [-2.662897825241089, 0.07438157498836517, 0.3206802308559418, 102.71904754638672],
    [0.10134104639291763, 2.6717019081115723, 0.2246589958667755, -94.86126708984375],
    [0.311130166053772, -0.2336081564426422, 2.6714589595794678, -36.80232620239258],
    [0.0, 0.0, 0.0, 1.0]
],
  "dcmmeta_reorient_transform": [
    [0.0, -1.0, 0.0, 81.0],
    [1.0, 0.0, 0.0, 0.0],
    [0.0, 0.0, 1.0, 0.0],
    [0.0, 0.0, 0.0, 1.0]
],
  "dcmmeta_shape": [82, 82, 56, 872],
  "dcmmeta_slice_dim": 2,
  "dcmmeta_version": 0.6,
  "global": {
    "const": {
      "AccessionNumber": "A003799",
      "AcquisitionMatrix": [82, 0, 0, 82],
      "AngioFlag": "N",
      "BitsAllocated": 16,
      "BitsStored": 16,
      "BodyPartExamined": "BRAIN",
      "Columns": 656,
      "EchoNumbers": 1,
      "EchoTime": 27.2,
      "EchoTrainLength": 82,
      "FlipAngle": 44.0,
      "HighBit": 15,
      "ImageOrientationPatient": [0.99253461281447, -0.0377725706708, 0.11596669897069, 0.02772403957102, 0.99581615874372, 0.08707212880579],
      "ImagePositionPatient": [-894.34313676586, -859.24017226724, -212.06448871275],
      "ImageType": [
        "ORIGINAL",
        "PRIMARY",
        "M",
        "MB",
        "ND",
        "NORM",
        "MOSAIC"
],
      "ImagedNucleus": "1H",
      "ImagingFrequency": 123.252144,
      "InPlanePhaseEncodingDirection": "COL",
      "MRAcquisitionType": "2D",
      "MagneticFieldStrength": 3.0,
      "Manufacturer": "SIEMENS",
      "ManufacturerModelName": "Prisma",
      "Modality": "MR",
      "NumberOfAverages": 1.0,
      "NumberOfPhaseEncodingSteps": 82,
      "PercentPhaseFieldOfView": 100.0,
      "PercentSampling": 100.0,
      "PerformedProcedureStepStartTime": "164116.521000",
      "PhotometricInterpretation": "MONOCHROME2",
      "PixelBandwidth": 3050.0,
      "PixelRepresentation": 0,
      "PixelSpacing": [2.6829268932343, 2.6829268932343],
      "ProtocolName": "func_run-04_task-social_acq-ap-mb8",
      "RepetitionTime": 460.0,
      "Rows": 656,
      "SAR": 0.11696299074731,
      "SamplesPerPixel": 1,
      "ScanOptions": "FS",
      "ScanningSequence": "EP",
      "SequenceName": "epfid2d1_82",
      "SequenceVariant": [
        "SK",
        "SS"
],
      "SeriesDescription": "func_run-04_task-social_acq-ap-mb8",
      "SeriesNumber": 18,
      "SeriesTime": "173257.599000",
      "SliceLocation": -32.106434568828,
      "SliceThickness": 2.7000000476837,
      "SmallestImagePixelValue": 0,
      "SoftwareVersions": "syngo MR E11",
      "SpacingBetweenSlices": 2.7000000407679,
      "SpecificCharacterSet": "ISO_IR 100",
      "StudyID": "1",
      "StudyTime": "164116.411000",
      "TransmitCoilName": "Body",
      "VariableFlipAngleFlag": "N",
      "WindowCenterWidthExplanation": "Algo1",
      "dBdt": 0.0},
    "slices": {}
  },
  "time": {
    "samples": {
      "AcquisitionNumber": [1, 2, 3, 4, 5, 6, 7, 8, 9, 10, 11, 12, 13, 14, 15, 16, 17, 18, 19, 20, 21, 22, 23, 24, 25, 26, 27, 28, 29, 30, 31, 32, 33, 34, 35, 36, 37, 38, 39, 40, 41, 42, 43, 44, 45, 46, 47, 48, 49, 50, 51, 52, 53, 54, 55, 56, 57, 58, 59, 60, 61, 62, 63, 64, 65, 66, 67, 68, 69, 70, 71, 72, 73, 74, 75, 76, 77, 78, 79, 80, 81, 82, 83, 84, 85, 86, 87, 88, 89, 90, 91, 92, 93, 94, 95, 96, 97, 98, 99, 100, 101, 102, 103, 104, 105, 106, 107, 108, 109, 110, 111, 112, 113, 114, 115, 116, 117, 118, 119, 120, 121, 122, 123, 124, 125, 126, 127, 128, 129, 130, 131, 132, 133, 134, 135, 136, 137, 138, 139, 140, 141, 142, 143, 144, 145, 146, 147, 148, 149, 150, 151, 152, 153, 154, 155, 156, 157, 158, 159, 160, 161, 162, 163, 164, 165, 166, 167, 168, 169, 170, 171, 172, 173, 174, 175, 176, 177, 178, 179, 180, 181, 182, 183, 184, 185, 186, 187, 188, 189, 190, 191, 192, 193, 194, 195, 196, 197, 198, 199, 200, 201, 202, 203, 204, 205, 206, 207, 208, 209, 210, 211, 212, 213, 214, 215, 216, 217, 218, 219, 220, 221, 222, 223, 224, 225, 226, 227, 228, 229, 230, 231, 232, 233, 234, 235, 236, 237, 238, 239, 240, 241, 242, 243, 244, 245, 246, 247, 248, 249, 250, 251, 252, 253, 254, 255, 256, 257, 258, 259, 260, 261, 262, 263, 264, 265, 266, 267, 268, 269, 270, 271, 272, 273, 274, 275, 276, 277, 278, 279, 280, 281, 282, 283, 284, 285, 286, 287, 288, 289, 290, 291, 292, 293, 294, 295, 296, 297, 298, 299, 300, 301, 302, 303, 304, 305, 306, 307, 308, 309, 310, 311, 312, 313, 314, 315, 316, 317, 318, 319, 320, 321, 322, 323, 324, 325, 326, 327, 328, 329, 330, 331, 332, 333, 334, 335, 336, 337, 338, 339, 340, 341, 342, 343, 344, 345, 346, 347, 348, 349, 350, 351, 352, 353, 354, 355, 356, 357, 358, 359, 360, 361, 362, 363, 364, 365, 366, 367, 368, 369, 370, 371, 372, 373, 374, 375, 376, 377, 378, 379, 380, 381, 382, 383, 384, 385, 386, 387, 388, 389, 390, 391, 392, 393, 394, 395, 396, 397, 398, 399, 400, 401, 402, 403, 404, 405, 406, 407, 408, 409, 410, 411, 412, 413, 414, 415, 416, 417, 418, 419, 420, 421, 422, 423, 424, 425, 426, 427, 428, 429, 430, 431, 432, 433, 434, 435, 436, 437, 438, 439, 440, 441, 442, 443, 444, 445, 446, 447, 448, 449, 450, 451, 452, 453, 454, 455, 456, 457, 458, 459, 460, 461, 462, 463, 464, 465, 466, 467, 468, 469, 470, 471, 472, 473, 474, 475, 476, 477, 478, 479, 480, 481, 482, 483, 484, 485, 486, 487, 488, 489, 490, 491, 492, 493, 494, 495, 496, 497, 498, 499, 500, 501, 502, 503, 504, 505, 506, 507, 508, 509, 510, 511, 512, 513, 514, 515, 516, 517, 518, 519, 520, 521, 522, 523, 524, 525, 526, 527, 528, 529, 530, 531, 532, 533, 534, 535, 536, 537, 538, 539, 540, 541, 542, 543, 544, 545, 546, 547, 548, 549, 550, 551, 552, 553, 554, 555, 556, 557, 558, 559, 560, 561, 562, 563, 564, 565, 566, 567, 568, 569, 570, 571, 572, 573, 574, 575, 576, 577, 578, 579, 580, 581, 582, 583, 584, 585, 586, 587, 588, 589, 590, 591, 592, 593, 594, 595, 596, 597, 598, 599, 600, 601, 602, 603, 604, 605, 606, 607, 608, 609, 610, 611, 612, 613, 614, 615, 616, 617, 618, 619, 620, 621, 622, 623, 624, 625, 626, 627, 628, 629, 630, 631, 632, 633, 634, 635, 636, 637, 638, 639, 640, 641, 642, 643, 644, 645, 646, 647, 648, 649, 650, 651, 652, 653, 654, 655, 656, 657, 658, 659, 660, 661, 662, 663, 664, 665, 666, 667, 668, 669, 670, 671, 672, 673, 674, 675, 676, 677, 678, 679, 680, 681, 682, 683, 684, 685, 686, 687, 688, 689, 690, 691, 692, 693, 694, 695, 696, 697, 698, 699, 700, 701, 702, 703, 704, 705, 706, 707, 708, 709, 710, 711, 712, 713, 714, 715, 716, 717, 718, 719, 720, 721, 722, 723, 724, 725, 726, 727, 728, 729, 730, 731, 732, 733, 734, 735, 736, 737, 738, 739, 740, 741, 742, 743, 744, 745, 746, 747, 748, 749, 750, 751, 752, 753, 754, 755, 756, 757, 758, 759, 760, 761, 762, 763, 764, 765, 766, 767, 768, 769, 770, 771, 772, 773, 774, 775, 776, 777, 778, 779, 780, 781, 782, 783, 784, 785, 786, 787, 788, 789, 790, 791, 792, 793, 794, 795, 796, 797, 798, 799, 800, 801, 802, 803, 804, 805, 806, 807, 808, 809, 810, 811, 812, 813, 814, 815, 816, 817, 818, 819, 820, 821, 822, 823, 824, 825, 826, 827, 828, 829, 830, 831, 832, 833, 834, 835, 836, 837, 838, 839, 840, 841, 842, 843, 844, 845, 846, 847, 848, 849, 850, 851, 852, 853, 854, 855, 856, 857, 858, 859, 860, 861, 862, 863, 864, 865, 866, 867, 868, 869, 870, 871, 872],
      "AcquisitionTime": ["173237.597500", "173238.057500", "173238.517500", "173238.977500", "173239.437500", "173239.897500", "173240.357500", "173240.817500", "173241.277500", "173241.737500", "173242.197500", "173242.657500", "173243.117500", "173243.577500", "173244.037500", "173244.497500", "173244.957500", "173245.417500", "173245.877500", "173246.337500", "173246.797500", "173247.257500", "173247.717500", "173248.177500", "173248.637500", "173249.097500", "173249.557500", "173250.017500", "173250.477500", "173250.937500", "173251.397500", "173251.857500", "173252.317500", "173252.777500", "173253.237500", "173253.697500", "173254.157500", "173254.617500", "173255.077500", "173255.537500", "173255.997500", "173256.457500", "173256.917500", "173257.377500", "173257.837500", "173258.297500", "173258.757500", "173259.217500", "173259.677500", "173300.137500", "173300.597500", "173301.057500", "173301.517500", "173301.977500", "173302.437500", "173302.897500", "173303.357500", "173303.817500", "173304.277500", "173304.737500", "173305.197500", "173305.657500", "173306.117500", "173306.577500", "173307.037500", "173307.497500", "173307.957500", "173308.417500", "173308.877500", "173309.337500", "173309.797500", "173310.257500", "173310.717500", "173311.177500", "173311.637500", "173312.097500", "173312.557500", "173313.017500", "173313.477500", "173313.937500", "173314.397500", "173314.857500", "173315.317500", "173315.777500", "173316.237500", "173316.697500", "173317.157500", "173317.617500", "173318.077500", "173318.537500", "173318.997500", "173319.457500", "173319.917500", "173320.377500", "173320.837500", "173321.297500", "173321.757500", "173322.217500", "173322.677500", "173323.137500", "173323.597500", "173324.057500", "173324.517500", "173324.977500", "173325.437500", "173325.897500", "173326.357500", "173326.817500", "173327.277500", "173327.737500", "173328.197500", "173328.657500", "173329.117500", "173329.577500", "173330.037500", "173330.497500", "173330.957500", "173331.417500", "173331.877500", "173332.337500", "173332.797500", "173333.257500", "173333.717500", "173334.177500", "173334.637500", "173335.097500", "173335.557500", "173336.017500", "173336.477500", "173336.937500", "173337.397500", "173337.857500", "173338.317500", "173338.777500", "173339.237500", "173339.697500", "173340.157500", "173340.617500", "173341.077500", "173341.537500", "173341.997500", "173342.457500", "173342.917500", "173343.377500", "173343.837500", "173344.297500", "173344.757500", "173345.217500", "173345.677500", "173346.137500", "173346.597500", "173347.057500", "173347.517500", "173347.977500", "173348.437500", "173348.897500", "173349.357500", "173349.817500", "173350.277500", "173350.737500", "173351.197500", "173351.657500", "173352.117500", "173352.577500", "173353.037500", "173353.497500", "173353.957500", "173354.417500", "173354.877500", "173355.337500", "173355.797500", "173356.257500", "173356.717500", "173357.177500", "173357.637500", "173358.097500", "173358.557500", "173359.017500", "173359.477500", "173359.937500", "173400.397500", "173400.857500", "173401.317500", "173401.777500", "173402.237500", "173402.697500", "173403.157500", "173403.617500", "173404.077500", "173404.537500", "173404.997500", "173405.457500", "173405.917500", "173406.377500", "173406.837500", "173407.297500", "173407.757500", "173408.217500", "173408.677500", "173409.137500", "173409.597500", "173410.057500", "173410.517500", "173410.977500", "173411.437500", "173411.897500", "173412.357500", "173412.817500", "173413.277500", "173413.737500", "173414.197500", "173414.657500", "173415.117500", "173415.577500", "173416.037500", "173416.497500", "173416.957500", "173417.417500", "173417.877500", "173418.337500", "173418.797500", "173419.257500", "173419.717500", "173420.177500", "173420.637500", "173421.097500", "173421.557500", "173422.017500", "173422.477500", "173422.937500", "173423.397500", "173423.857500", "173424.317500", "173424.777500", "173425.237500", "173425.697500", "173426.157500", "173426.617500", "173427.077500", "173427.537500", "173427.997500", "173428.457500", "173428.917500", "173429.377500", "173429.837500", "173430.297500", "173430.757500", "173431.217500", "173431.677500", "173432.137500", "173432.597500", "173433.057500", "173433.517500", "173433.977500", "173434.437500", "173434.897500", "173435.357500", "173435.817500", "173436.277500", "173436.737500", "173437.197500", "173437.657500", "173438.117500", "173438.577500", "173439.037500", "173439.497500", "173439.957500", "173440.417500", "173440.877500", "173441.337500", "173441.797500", "173442.257500", "173442.717500", "173443.177500", "173443.637500", "173444.097500", "173444.557500", "173445.017500", "173445.477500", "173445.937500", "173446.397500", "173446.857500", "173447.317500", "173447.777500", "173448.237500", "173448.697500", "173449.157500", "173449.617500", "173450.077500", "173450.537500", "173450.997500", "173451.457500", "173451.917500", "173452.377500", "173452.837500", "173453.297500", "173453.757500", "173454.217500", "173454.677500", "173455.137500", "173455.597500", "173456.057500", "173456.517500", "173456.977500", "173457.437500", "173457.897500", "173458.357500", "173458.817500", "173459.277500", "173459.737500", "173500.197500", "173500.657500", "173501.117500", "173501.577500", "173502.037500", "173502.497500", "173502.957500", "173503.417500", "173503.877500", "173504.337500", "173504.797500", "173505.257500", "173505.717500", "173506.177500", "173506.637500", "173507.097500", "173507.557500", "173508.017500", "173508.477500", "173508.937500", "173509.397500", "173509.857500", "173510.317500", "173510.777500", "173511.237500", "173511.697500", "173512.157500", "173512.617500", "173513.077500", "173513.537500", "173513.997500", "173514.457500", "173514.917500", "173515.377500", "173515.837500", "173516.297500", "173516.757500", "173517.217500", "173517.677500", "173518.137500", "173518.597500", "173519.057500", "173519.517500", "173519.977500", "173520.437500", "173520.897500", "173521.357500", "173521.817500", "173522.277500", "173522.737500", "173523.197500", "173523.657500", "173524.117500", "173524.577500", "173525.037500", "173525.497500", "173525.957500", "173526.417500", "173526.877500", "173527.337500", "173527.797500", "173528.257500", "173528.717500", "173529.177500", "173529.637500", "173530.097500", "173530.557500", "173531.017500", "173531.477500", "173531.937500", "173532.397500", "173532.857500", "173533.317500", "173533.777500", "173534.237500", "173534.697500", "173535.157500", "173535.617500", "173536.077500", "173536.537500", "173536.997500", "173537.457500", "173537.917500", "173538.377500", "173538.837500", "173539.297500", "173539.757500", "173540.217500", "173540.677500", "173541.137500", "173541.597500", "173542.057500", "173542.517500", "173542.977500", "173543.437500", "173543.897500", "173544.357500", "173544.817500", "173545.277500", "173545.737500", "173546.197500", "173546.657500", "173547.117500", "173547.577500", "173548.037500", "173548.497500", "173548.957500", "173549.417500", "173549.877500", "173550.337500", "173550.797500", "173551.257500", "173551.717500", "173552.177500", "173552.637500", "173553.097500", "173553.557500", "173554.017500", "173554.477500", "173554.937500", "173555.397500", "173555.857500", "173556.317500", "173556.777500", "173557.237500", "173557.697500", "173558.157500", "173558.617500", "173559.077500", "173559.537500", "173559.997500", "173600.457500", "173600.917500", "173601.377500", "173601.837500", "173602.297500", "173602.757500", "173603.217500", "173603.677500", "173604.137500", "173604.597500", "173605.057500", "173605.517500", "173605.977500", "173606.437500", "173606.897500", "173607.357500", "173607.817500", "173608.277500", "173608.737500", "173609.197500", "173609.657500", "173610.117500", "173610.577500", "173611.037500", "173611.497500", "173611.957500", "173612.417500", "173612.877500", "173613.337500", "173613.797500", "173614.257500", "173614.717500", "173615.177500", "173615.637500", "173616.097500", "173616.557500", "173617.017500", "173617.477500", "173617.937500", "173618.397500", "173618.857500", "173619.317500", "173619.777500", "173620.237500", "173620.697500", "173621.157500", "173621.617500", "173622.077500", "173622.537500", "173622.997500", "173623.457500", "173623.917500", "173624.377500", "173624.837500", "173625.297500", "173625.757500", "173626.217500", "173626.677500", "173627.137500", "173627.597500", "173628.057500", "173628.517500", "173628.977500", "173629.437500", "173629.897500", "173630.357500", "173630.817500", "173631.277500", "173631.737500", "173632.197500", "173632.657500", "173633.117500", "173633.577500", "173634.037500", "173634.497500", "173634.957500", "173635.417500", "173635.877500", "173636.337500", "173636.797500", "173637.257500", "173637.717500", "173638.177500", "173638.637500", "173639.097500", "173639.557500", "173640.017500", "173640.477500", "173640.937500", "173641.397500", "173641.857500", "173642.317500", "173642.777500", "173643.237500", "173643.697500", "173644.157500", "173644.617500", "173645.077500", "173645.537500", "173645.997500", "173646.457500", "173646.917500", "173647.377500", "173647.837500", "173648.297500", "173648.757500", "173649.217500", "173649.677500", "173650.137500", "173650.597500", "173651.057500", "173651.517500", "173651.977500", "173652.437500", "173652.897500", "173653.357500", "173653.817500", "173654.277500", "173654.737500", "173655.197500", "173655.657500", "173656.117500", "173656.577500", "173657.037500", "173657.497500", "173657.957500", "173658.417500", "173658.877500", "173659.337500", "173659.797500", "173700.257500", "173700.717500", "173701.177500", "173701.637500", "173702.097500", "173702.557500", "173703.017500", "173703.477500", "173703.937500", "173704.397500", "173704.857500", "173705.317500", "173705.777500", "173706.237500", "173706.697500", "173707.157500", "173707.617500", "173708.077500", "173708.537500", "173708.997500", "173709.457500", "173709.917500", "173710.377500", "173710.837500", "173711.297500", "173711.757500", "173712.217500", "173712.677500", "173713.137500", "173713.597500", "173714.057500", "173714.517500", "173714.977500", "173715.437500", "173715.897500", "173716.357500", "173716.817500", "173717.277500", "173717.737500", "173718.197500", "173718.657500", "173719.117500", "173719.577500", "173720.037500", "173720.497500", "173720.957500", "173721.417500", "173721.877500", "173722.337500", "173722.797500", "173723.257500", "173723.717500", "173724.177500", "173724.637500", "173725.097500", "173725.557500", "173726.017500", "173726.477500", "173726.937500", "173727.397500", "173727.857500", "173728.317500", "173728.777500", "173729.237500", "173729.697500", "173730.157500", "173730.617500", "173731.077500", "173731.537500", "173731.997500", "173732.457500", "173732.917500", "173733.377500", "173733.837500", "173734.297500", "173734.757500", "173735.217500", "173735.677500", "173736.137500", "173736.597500", "173737.057500", "173737.517500", "173737.977500", "173738.437500", "173738.897500", "173739.357500", "173739.817500", "173740.277500", "173740.737500", "173741.197500", "173741.657500", "173742.117500", "173742.577500", "173743.037500", "173743.497500", "173743.957500", "173744.417500", "173744.877500", "173745.337500", "173745.797500", "173746.257500", "173746.717500", "173747.177500", "173747.637500", "173748.097500", "173748.557500", "173749.017500", "173749.477500", "173749.937500", "173750.397500", "173750.857500", "173751.317500", "173751.777500", "173752.237500", "173752.697500", "173753.157500", "173753.617500", "173754.077500", "173754.537500", "173754.997500", "173755.457500", "173755.917500", "173756.377500", "173756.837500", "173757.297500", "173757.757500", "173758.217500", "173758.677500", "173759.137500", "173759.597500", "173800.057500", "173800.517500", "173800.977500", "173801.437500", "173801.897500", "173802.357500", "173802.817500", "173803.277500", "173803.737500", "173804.197500", "173804.657500", "173805.117500", "173805.577500", "173806.037500", "173806.497500", "173806.957500", "173807.417500", "173807.877500", "173808.337500", "173808.797500", "173809.257500", "173809.717500", "173810.177500", "173810.637500", "173811.097500", "173811.557500", "173812.017500", "173812.477500", "173812.937500", "173813.397500", "173813.857500", "173814.317500", "173814.777500", "173815.237500", "173815.697500", "173816.157500", "173816.617500", "173817.077500", "173817.537500", "173817.997500", "173818.457500", "173818.917500", "173819.377500", "173819.837500", "173820.297500", "173820.757500", "173821.217500", "173821.677500", "173822.137500", "173822.597500", "173823.057500", "173823.517500", "173823.977500", "173824.437500", "173824.897500", "173825.357500", "173825.817500", "173826.277500", "173826.737500", "173827.197500", "173827.657500", "173828.117500", "173828.577500", "173829.037500", "173829.497500", "173829.957500", "173830.417500", "173830.877500", "173831.337500", "173831.797500", "173832.257500", "173832.717500", "173833.177500", "173833.637500", "173834.097500", "173834.557500", "173835.017500", "173835.477500", "173835.937500", "173836.397500", "173836.857500", "173837.317500", "173837.777500", "173838.237500", "173838.697500", "173839.157500", "173839.617500", "173840.077500", "173840.537500", "173840.997500", "173841.457500", "173841.917500", "173842.377500", "173842.837500", "173843.297500", "173843.757500", "173844.217500", "173844.677500", "173845.137500", "173845.597500", "173846.057500", "173846.517500", "173846.977500", "173847.437500", "173847.897500", "173848.357500", "173848.817500", "173849.277500", "173849.737500", "173850.197500", "173850.657500", "173851.117500", "173851.577500", "173852.037500", "173852.497500", "173852.957500", "173853.417500", "173853.877500", "173854.337500", "173854.797500", "173855.257500", "173855.717500", "173856.177500", "173856.637500", "173857.097500", "173857.557500", "173858.017500", "173858.477500", "173858.937500", "173859.397500", "173859.857500", "173900.317500", "173900.777500", "173901.237500", "173901.697500", "173902.157500", "173902.617500", "173903.077500", "173903.537500", "173903.997500", "173904.457500", "173904.917500", "173905.377500", "173905.837500", "173906.297500", "173906.757500", "173907.217500", "173907.677500", "173908.137500", "173908.597500", "173909.057500", "173909.517500", "173909.977500", "173910.437500", "173910.897500", "173911.357500", "173911.817500", "173912.277500", "173912.737500", "173913.197500", "173913.657500", "173914.117500", "173914.577500", "173915.037500", "173915.497500", "173915.957500", "173916.417500", "173916.877500", "173917.337500", "173917.797500", "173918.257500"],
