{
  "AcquisitionMatrixPE": 82,
  "AcquisitionNumber": 1,
  "AcquisitionTime": "17:58:54.230000",
  "BandwidthPerPixelPhaseEncode": 24.888,
  "BaseResolution": 82,
  "BodyPartExamined": "BRAIN",
  "ConsistencyInfo": "N4_VE11C_LATEST_20160120",
  "ConversionSoftware": "dcm2niix",
  "ConversionSoftwareVersion": "v1.0.20201102",
  "DerivedVendorReportedEchoSpacing": 0.00049,
  "DeviceSerialNumber": "66112",
  "DwellTime": 2e-06,
  "EchoTime": 0.0272,
  "EchoTrainLength": 82,
  "EffectiveEchoSpacing": 0.00049,
  "FlipAngle": 44,
  "ImageComments": "Unaliased MB8/PE3",
  "ImageOrientationPatientDICOM": [0.993772, -0.0401646, 0.103938, 0.0277585, 0.992606, 0.118166],
  "ImageType": [
    "ORIGINAL",
    "PRIMARY",
    "M",
    "MB",
    "ND",
    "NORM",
    "MOSAIC"
],
  "ImagingFrequency": 123.252,
  "InPlanePhaseEncodingDirectionDICOM": "COL",
  "InstitutionAddress": "Maynard 3,Hanover,NH,US,03755",
  "InstitutionName": "Dartmouth College - PBS",
  "InstitutionalDepartmentName": "Department",
  "MRAcquisitionType": "2D",
  "MagneticFieldStrength": 3,
  "Manufacturer": "Siemens",
  "ManufacturersModelName": "Prisma",
  "Modality": "MR",
  "MultibandAccelerationFactor": 8,
  "PartialFourier": 1,
  "PatientPosition": "HFS",
  "PercentPhaseFOV": 100,
  "PercentSampling": 100,
  "PhaseEncodingDirection": "j-",
  "PhaseEncodingSteps": 82,
  "PhaseResolution": 1,
  "PixelBandwidth": 3050,
  "ProcedureStepDescription": "Wager_Wager^1076_spacetop",
  "ProtocolName": "func_run-01_task-alignvideo_acq-ap-mb8",
  "PulseSequenceDetails": "%CustomerSeq%\\cmrr_mbep2d_bold",
  "ReceiveCoilActiveElements": "HEA;HEP",
  "ReceiveCoilName": "Head_32",
  "ReconMatrixPE": 82,
  "RepetitionTime": 0.46,
  "SAR": 0.117099,
  "ScanOptions": "FS",
  "ScanningSequence": "EP",
  "SequenceName": "epfid2d1_82",
  "SequenceVariant": "SK\\SS",
  "SeriesDescription": "func_run-01_task-alignvideo_acq-ap-mb8",
  "SeriesNumber": 30,
  "ShimSetting": [4179, -7727, -7184, 518, -24, -91, 44, 22],
  "SliceThickness": 2.7,
  "SliceTiming": [0, 0.25, 0.0625, 0.315, 0.125, 0.3775, 0.1875, 0, 0.25, 0.0625, 0.315, 0.125, 0.3775, 0.1875, 0, 0.25, 0.0625, 0.315, 0.125, 0.3775, 0.1875, 0, 0.25, 0.0625, 0.315, 0.125, 0.3775, 0.1875, 0, 0.25, 0.0625, 0.315, 0.125, 0.3775, 0.1875, 0, 0.25, 0.0625, 0.315, 0.125, 0.3775, 0.1875, 0, 0.25, 0.0625, 0.315, 0.125, 0.3775, 0.1875, 0, 0.25, 0.0625, 0.315, 0.125, 0.3775, 0.1875],
  "SoftwareVersions": "syngo MR E11",
  "SpacingBetweenSlices": 2.7,
  "StationName": "AWP66112",
  "TaskName": "alignvideo",
  "TotalReadoutTime": 0.03969,
  "TxRefAmp": 267.7,
  "WipMemBlock": "14ace49c-7d34-4723-b6f5-b42daffc5b2e||Sequence: R016 ve11c/master r/e634e98; Dec 19 2017 11:00:25 by eja",
  "dcmmeta_affine": [
    [-2.6662187576293945, 0.07447413355112076, 0.2913728654384613, 103.87084197998047],
    [0.1077587902545929, 2.663088798522949, 0.3092714846134186, -97.53112030029297],
    [0.27885890007019043, -0.3170308768749237, 2.666355848312378, -32.024471282958984],
    [0.0, 0.0, 0.0, 1.0]
],
  "dcmmeta_reorient_transform": [
    [0.0, -1.0, 0.0, 81.0],
    [1.0, 0.0, 0.0, 0.0],
    [0.0, 0.0, 1.0, 0.0],
    [0.0, 0.0, 0.0, 1.0]
],
  "dcmmeta_shape": [82, 82, 56, 1073],
  "dcmmeta_slice_dim": 2,
  "dcmmeta_version": 0.6,
  "global": {
    "const": {
      "AccessionNumber": "A003799",
      "AcquisitionMatrix": [82, 0, 0, 82],
      "AngioFlag": "N",
      "BitsAllocated": 16,
      "BitsStored": 16,
      "BodyPartExamined": "BRAIN",
      "Columns": 656,
      "EchoNumbers": 1,
      "EchoTime": 27.2,
      "EchoTrainLength": 82,
      "FlipAngle": 44.0,
      "HighBit": 15,
      "ImageOrientationPatient": [0.9937724223169, -0.0401646393044, 0.10393832013241, 0.02775854057064, 0.99260578621573, 0.11816605517846],
      "ImagePositionPatient": [-896.48210935741, -851.55876889208, -228.72434638858],
      "ImageType": [
        "ORIGINAL",
        "PRIMARY",
        "M",
        "MB",
        "ND",
        "NORM",
        "MOSAIC"
],
      "ImagedNucleus": "1H",
      "ImagingFrequency": 123.252142,
      "InPlanePhaseEncodingDirection": "COL",
      "MRAcquisitionType": "2D",
      "MagneticFieldStrength": 3.0,
      "Manufacturer": "SIEMENS",
      "ManufacturerModelName": "Prisma",
      "Modality": "MR",
      "NumberOfAverages": 1.0,
      "NumberOfPhaseEncodingSteps": 82,
      "PercentPhaseFieldOfView": 100.0,
      "PercentSampling": 100.0,
      "PerformedProcedureStepStartTime": "164116.521000",
      "PhotometricInterpretation": "MONOCHROME2",
      "PixelBandwidth": 3050.0,
      "PixelRepresentation": 0,
      "PixelSpacing": [2.6829268932343, 2.6829268932343],
      "ProtocolName": "func_run-01_task-alignvideo_acq-ap-mb8",
      "RepetitionTime": 460.0,
      "Rows": 656,
      "SAR": 0.11709940146274,
      "SamplesPerPixel": 1,
      "ScanOptions": "FS",
      "ScanningSequence": "EP",
      "SequenceName": "epfid2d1_82",
      "SequenceVariant": [
        "SK",
        "SS"
],
      "SeriesDescription": "func_run-01_task-alignvideo_acq-ap-mb8",
      "SeriesNumber": 30,
      "SeriesTime": "175917.566000",
      "SliceLocation": -31.587808237161,
      "SliceThickness": 2.7000000476837,
      "SmallestImagePixelValue": 0,
      "SoftwareVersions": "syngo MR E11",
      "SpacingBetweenSlices": 2.6999999987409,
      "SpecificCharacterSet": "ISO_IR 100",
      "StudyID": "1",
      "StudyTime": "164116.411000",
      "TransmitCoilName": "Body",
      "VariableFlipAngleFlag": "N",
      "WindowCenterWidthExplanation": "Algo1",
      "dBdt": 0.0},
    "slices": {}
  },
  "time": {
    "samples": {
      "AcquisitionNumber": [1, 2, 3, 4, 5, 6, 7, 8, 9, 10, 11, 12, 13, 14, 15, 16, 17, 18, 19, 20, 21, 22, 23, 24, 25, 26, 27, 28, 29, 30, 31, 32, 33, 34, 35, 36, 37, 38, 39, 40, 41, 42, 43, 44, 45, 46, 47, 48, 49, 50, 51, 52, 53, 54, 55, 56, 57, 58, 59, 60, 61, 62, 63, 64, 65, 66, 67, 68, 69, 70, 71, 72, 73, 74, 75, 76, 77, 78, 79, 80, 81, 82, 83, 84, 85, 86, 87, 88, 89, 90, 91, 92, 93, 94, 95, 96, 97, 98, 99, 100, 101, 102, 103, 104, 105, 106, 107, 108, 109, 110, 111, 112, 113, 114, 115, 116, 117, 118, 119, 120, 121, 122, 123, 124, 125, 126, 127, 128, 129, 130, 131, 132, 133, 134, 135, 136, 137, 138, 139, 140, 141, 142, 143, 144, 145, 146, 147, 148, 149, 150, 151, 152, 153, 154, 155, 156, 157, 158, 159, 160, 161, 162, 163, 164, 165, 166, 167, 168, 169, 170, 171, 172, 173, 174, 175, 176, 177, 178, 179, 180, 181, 182, 183, 184, 185, 186, 187, 188, 189, 190, 191, 192, 193, 194, 195, 196, 197, 198, 199, 200, 201, 202, 203, 204, 205, 206, 207, 208, 209, 210, 211, 212, 213, 214, 215, 216, 217, 218, 219, 220, 221, 222, 223, 224, 225, 226, 227, 228, 229, 230, 231, 232, 233, 234, 235, 236, 237, 238, 239, 240, 241, 242, 243, 244, 245, 246, 247, 248, 249, 250, 251, 252, 253, 254, 255, 256, 257, 258, 259, 260, 261, 262, 263, 264, 265, 266, 267, 268, 269, 270, 271, 272, 273, 274, 275, 276, 277, 278, 279, 280, 281, 282, 283, 284, 285, 286, 287, 288, 289, 290, 291, 292, 293, 294, 295, 296, 297, 298, 299, 300, 301, 302, 303, 304, 305, 306, 307, 308, 309, 310, 311, 312, 313, 314, 315, 316, 317, 318, 319, 320, 321, 322, 323, 324, 325, 326, 327, 328, 329, 330, 331, 332, 333, 334, 335, 336, 337, 338, 339, 340, 341, 342, 343, 344, 345, 346, 347, 348, 349, 350, 351, 352, 353, 354, 355, 356, 357, 358, 359, 360, 361, 362, 363, 364, 365, 366, 367, 368, 369, 370, 371, 372, 373, 374, 375, 376, 377, 378, 379, 380, 381, 382, 383, 384, 385, 386, 387, 388, 389, 390, 391, 392, 393, 394, 395, 396, 397, 398, 399, 400, 401, 402, 403, 404, 405, 406, 407, 408, 409, 410, 411, 412, 413, 414, 415, 416, 417, 418, 419, 420, 421, 422, 423, 424, 425, 426, 427, 428, 429, 430, 431, 432, 433, 434, 435, 436, 437, 438, 439, 440, 441, 442, 443, 444, 445, 446, 447, 448, 449, 450, 451, 452, 453, 454, 455, 456, 457, 458, 459, 460, 461, 462, 463, 464, 465, 466, 467, 468, 469, 470, 471, 472, 473, 474, 475, 476, 477, 478, 479, 480, 481, 482, 483, 484, 485, 486, 487, 488, 489, 490, 491, 492, 493, 494, 495, 496, 497, 498, 499, 500, 501, 502, 503, 504, 505, 506, 507, 508, 509, 510, 511, 512, 513, 514, 515, 516, 517, 518, 519, 520, 521, 522, 523, 524, 525, 526, 527, 528, 529, 530, 531, 532, 533, 534, 535, 536, 537, 538, 539, 540, 541, 542, 543, 544, 545, 546, 547, 548, 549, 550, 551, 552, 553, 554, 555, 556, 557, 558, 559, 560, 561, 562, 563, 564, 565, 566, 567, 568, 569, 570, 571, 572, 573, 574, 575, 576, 577, 578, 579, 580, 581, 582, 583, 584, 585, 586, 587, 588, 589, 590, 591, 592, 593, 594, 595, 596, 597, 598, 599, 600, 601, 602, 603, 604, 605, 606, 607, 608, 609, 610, 611, 612, 613, 614, 615, 616, 617, 618, 619, 620, 621, 622, 623, 624, 625, 626, 627, 628, 629, 630, 631, 632, 633, 634, 635, 636, 637, 638, 639, 640, 641, 642, 643, 644, 645, 646, 647, 648, 649, 650, 651, 652, 653, 654, 655, 656, 657, 658, 659, 660, 661, 662, 663, 664, 665, 666, 667, 668, 669, 670, 671, 672, 673, 674, 675, 676, 677, 678, 679, 680, 681, 682, 683, 684, 685, 686, 687, 688, 689, 690, 691, 692, 693, 694, 695, 696, 697, 698, 699, 700, 701, 702, 703, 704, 705, 706, 707, 708, 709, 710, 711, 712, 713, 714, 715, 716, 717, 718, 719, 720, 721, 722, 723, 724, 725, 726, 727, 728, 729, 730, 731, 732, 733, 734, 735, 736, 737, 738, 739, 740, 741, 742, 743, 744, 745, 746, 747, 748, 749, 750, 751, 752, 753, 754, 755, 756, 757, 758, 759, 760, 761, 762, 763, 764, 765, 766, 767, 768, 769, 770, 771, 772, 773, 774, 775, 776, 777, 778, 779, 780, 781, 782, 783, 784, 785, 786, 787, 788, 789, 790, 791, 792, 793, 794, 795, 796, 797, 798, 799, 800, 801, 802, 803, 804, 805, 806, 807, 808, 809, 810, 811, 812, 813, 814, 815, 816, 817, 818, 819, 820, 821, 822, 823, 824, 825, 826, 827, 828, 829, 830, 831, 832, 833, 834, 835, 836, 837, 838, 839, 840, 841, 842, 843, 844, 845, 846, 847, 848, 849, 850, 851, 852, 853, 854, 855, 856, 857, 858, 859, 860, 861, 862, 863, 864, 865, 866, 867, 868, 869, 870, 871, 872, 873, 874, 875, 876, 877, 878, 879, 880, 881, 882, 883, 884, 885, 886, 887, 888, 889, 890, 891, 892, 893, 894, 895, 896, 897, 898, 899, 900, 901, 902, 903, 904, 905, 906, 907, 908, 909, 910, 911, 912, 913, 914, 915, 916, 917, 918, 919, 920, 921, 922, 923, 924, 925, 926, 927, 928, 929, 930, 931, 932, 933, 934, 935, 936, 937, 938, 939, 940, 941, 942, 943, 944, 945, 946, 947, 948, 949, 950, 951, 952, 953, 954, 955, 956, 957, 958, 959, 960, 961, 962, 963, 964, 965, 966, 967, 968, 969, 970, 971, 972, 973, 974, 975, 976, 977, 978, 979, 980, 981, 982, 983, 984, 985, 986, 987, 988, 989, 990, 991, 992, 993, 994, 995, 996, 997, 998, 999, 1000, 1001, 1002, 1003, 1004, 1005, 1006, 1007, 1008, 1009, 1010, 1011, 1012, 1013, 1014, 1015, 1016, 1017, 1018, 1019, 1020, 1021, 1022, 1023, 1024, 1025, 1026, 1027, 1028, 1029, 1030, 1031, 1032, 1033, 1034, 1035, 1036, 1037, 1038, 1039, 1040, 1041, 1042, 1043, 1044, 1045, 1046, 1047, 1048, 1049, 1050, 1051, 1052, 1053, 1054, 1055, 1056, 1057, 1058, 1059, 1060, 1061, 1062, 1063, 1064, 1065, 1066, 1067, 1068, 1069, 1070, 1071, 1072, 1073],
      "AcquisitionTime": ["175854.230000", "175854.690000", "175855.150000", "175855.610000", "175856.070000", "175856.530000", "175856.990000", "175857.450000", "175857.910000", "175858.370000", "175858.830000", "175859.290000", "175859.750000", "175900.210000", "175900.670000", "175901.130000", "175901.590000", "175902.050000", "175902.510000", "175902.970000", "175903.430000", "175903.890000", "175904.350000", "175904.810000", "175905.270000", "175905.730000", "175906.190000", "175906.650000", "175907.110000", "175907.570000", "175908.030000", "175908.490000", "175908.950000", "175909.410000", "175909.870000", "175910.330000", "175910.790000", "175911.250000", "175911.710000", "175912.170000", "175912.630000", "175913.090000", "175913.550000", "175914.010000", "175914.470000", "175914.930000", "175915.390000", "175915.850000", "175916.310000", "175916.770000", "175917.230000", "175917.690000", "175918.150000", "175918.610000", "175919.070000", "175919.530000", "175919.990000", "175920.450000", "175920.910000", "175921.370000", "175921.830000", "175922.290000", "175922.750000", "175923.210000", "175923.670000", "175924.130000", "175924.590000", "175925.050000", "175925.510000", "175925.970000", "175926.430000", "175926.890000", "175927.350000", "175927.810000", "175928.270000", "175928.730000", "175929.190000", "175929.650000", "175930.110000", "175930.570000", "175931.030000", "175931.490000", "175931.950000", "175932.410000", "175932.870000", "175933.330000", "175933.790000", "175934.250000", "175934.710000", "175935.170000", "175935.630000", "175936.090000", "175936.550000", "175937.010000", "175937.470000", "175937.930000", "175938.390000", "175938.850000", "175939.310000", "175939.770000", "175940.230000", "175940.690000", "175941.150000", "175941.610000", "175942.070000", "175942.530000", "175942.990000", "175943.450000", "175943.910000", "175944.370000", "175944.830000", "175945.290000", "175945.750000", "175946.210000", "175946.670000", "175947.130000", "175947.590000", "175948.050000", "175948.510000", "175948.970000", "175949.430000", "175949.890000", "175950.350000", "175950.810000", "175951.270000", "175951.730000", "175952.190000", "175952.650000", "175953.110000", "175953.570000", "175954.030000", "175954.490000", "175954.950000", "175955.410000", "175955.870000", "175956.330000", "175956.790000", "175957.250000", "175957.710000", "175958.170000", "175958.630000", "175959.090000", "175959.550000", "180000.010000", "180000.470000", "180000.930000", "180001.390000", "180001.850000", "180002.310000", "180002.770000", "180003.230000", "180003.690000", "180004.150000", "180004.610000", "180005.070000", "180005.530000", "180005.990000", "180006.450000", "180006.910000", "180007.370000", "180007.830000", "180008.290000", "180008.750000", "180009.210000", "180009.670000", "180010.130000", "180010.590000", "180011.050000", "180011.510000", "180011.970000", "180012.430000", "180012.890000", "180013.350000", "180013.810000", "180014.270000", "180014.730000", "180015.190000", "180015.650000", "180016.110000", "180016.570000", "180017.030000", "180017.490000", "180017.950000", "180018.410000", "180018.870000", "180019.330000", "180019.790000", "180020.250000", "180020.710000", "180021.170000", "180021.630000", "180022.090000", "180022.550000", "180023.010000", "180023.470000", "180023.930000", "180024.390000", "180024.850000", "180025.310000", "180025.770000", "180026.230000", "180026.690000", "180027.150000", "180027.610000", "180028.070000", "180028.530000", "180028.990000", "180029.450000", "180029.910000", "180030.370000", "180030.830000", "180031.290000", "180031.750000", "180032.210000", "180032.670000", "180033.130000", "180033.590000", "180034.050000", "180034.510000", "180034.970000", "180035.430000", "180035.890000", "180036.350000", "180036.810000", "180037.270000", "180037.730000", "180038.190000", "180038.650000", "180039.110000", "180039.570000", "180040.030000", "180040.490000", "180040.950000", "180041.410000", "180041.870000", "180042.330000", "180042.790000", "180043.250000", "180043.710000", "180044.170000", "180044.630000", "180045.090000", "180045.550000", "180046.010000", "180046.470000", "180046.930000", "180047.390000", "180047.850000", "180048.310000", "180048.770000", "180049.230000", "180049.690000", "180050.150000", "180050.610000", "180051.070000", "180051.530000", "180051.990000", "180052.450000", "180052.910000", "180053.370000", "180053.830000", "180054.290000", "180054.750000", "180055.210000", "180055.670000", "180056.130000", "180056.590000", "180057.050000", "180057.510000", "180057.970000", "180058.430000", "180058.890000", "180059.350000", "180059.810000", "180100.270000", "180100.730000", "180101.190000", "180101.650000", "180102.110000", "180102.570000", "180103.030000", "180103.490000", "180103.950000", "180104.410000", "180104.870000", "180105.330000", "180105.790000", "180106.250000", "180106.710000", "180107.170000", "180107.630000", "180108.090000", "180108.550000", "180109.010000", "180109.470000", "180109.930000", "180110.390000", "180110.850000", "180111.310000", "180111.770000", "180112.230000", "180112.690000", "180113.150000", "180113.610000", "180114.070000", "180114.530000", "180114.990000", "180115.450000", "180115.910000", "180116.370000", "180116.830000", "180117.290000", "180117.750000", "180118.210000", "180118.670000", "180119.130000", "180119.590000", "180120.050000", "180120.510000", "180120.970000", "180121.430000", "180121.890000", "180122.350000", "180122.810000", "180123.270000", "180123.730000", "180124.190000", "180124.650000", "180125.110000", "180125.570000", "180126.030000", "180126.490000", "180126.950000", "180127.410000", "180127.870000", "180128.330000", "180128.790000", "180129.250000", "180129.710000", "180130.170000", "180130.630000", "180131.090000", "180131.550000", "180132.010000", "180132.470000", "180132.930000", "180133.390000", "180133.850000", "180134.310000", "180134.770000", "180135.230000", "180135.690000", "180136.150000", "180136.610000", "180137.070000", "180137.530000", "180137.990000", "180138.450000", "180138.910000", "180139.370000", "180139.830000", "180140.290000", "180140.750000", "180141.210000", "180141.670000", "180142.130000", "180142.590000", "180143.050000", "180143.510000", "180143.970000", "180144.430000", "180144.890000", "180145.350000", "180145.810000", "180146.270000", "180146.730000", "180147.190000", "180147.650000", "180148.110000", "180148.570000", "180149.030000", "180149.490000", "180149.950000", "180150.410000", "180150.870000", "180151.330000", "180151.790000", "180152.250000", "180152.710000", "180153.170000", "180153.630000", "180154.090000", "180154.550000", "180155.010000", "180155.470000", "180155.930000", "180156.390000", "180156.850000", "180157.310000", "180157.770000", "180158.230000", "180158.690000", "180159.150000", "180159.610000", "180200.070000", "180200.530000", "180200.990000", "180201.450000", "180201.910000", "180202.370000", "180202.830000", "180203.290000", "180203.750000", "180204.210000", "180204.670000", "180205.130000", "180205.590000", "180206.050000", "180206.510000", "180206.970000", "180207.430000", "180207.890000", "180208.350000", "180208.810000", "180209.270000", "180209.730000", "180210.190000", "180210.650000", "180211.110000", "180211.570000", "180212.030000", "180212.490000", "180212.950000", "180213.410000", "180213.870000", "180214.330000", "180214.790000", "180215.250000", "180215.710000", "180216.170000", "180216.630000", "180217.090000", "180217.550000", "180218.010000", "180218.470000", "180218.930000", "180219.390000", "180219.850000", "180220.310000", "180220.770000", "180221.230000", "180221.690000", "180222.150000", "180222.610000", "180223.070000", "180223.530000", "180223.990000", "180224.450000", "180224.910000", "180225.370000", "180225.830000", "180226.290000", "180226.750000", "180227.210000", "180227.670000", "180228.130000", "180228.590000", "180229.050000", "180229.510000", "180229.970000", "180230.430000", "180230.890000", "180231.350000", "180231.810000", "180232.270000", "180232.730000", "180233.190000", "180233.650000", "180234.110000", "180234.570000", "180235.030000", "180235.490000", "180235.950000", "180236.410000", "180236.870000", "180237.330000", "180237.790000", "180238.250000", "180238.710000", "180239.170000", "180239.630000", "180240.090000", "180240.550000", "180241.010000", "180241.470000", "180241.930000", "180242.390000", "180242.850000", "180243.310000", "180243.770000", "180244.230000", "180244.690000", "180245.150000", "180245.610000", "180246.070000", "180246.530000", "180246.990000", "180247.450000", "180247.910000", "180248.370000", "180248.830000", "180249.290000", "180249.750000", "180250.210000", "180250.670000", "180251.130000", "180251.590000", "180252.050000", "180252.510000", "180252.970000", "180253.430000", "180253.890000", "180254.350000", "180254.810000", "180255.270000", "180255.730000", "180256.190000", "180256.650000", "180257.110000", "180257.570000", "180258.030000", "180258.490000", "180258.950000", "180259.410000", "180259.870000", "180300.330000", "180300.790000", "180301.250000", "180301.710000", "180302.170000", "180302.630000", "180303.090000", "180303.550000", "180304.010000", "180304.470000", "180304.930000", "180305.390000", "180305.850000", "180306.310000", "180306.770000", "180307.230000", "180307.690000", "180308.150000", "180308.610000", "180309.070000", "180309.530000", "180309.990000", "180310.450000", "180310.910000", "180311.370000", "180311.830000", "180312.290000", "180312.750000", "180313.210000", "180313.670000", "180314.130000", "180314.590000", "180315.050000", "180315.510000", "180315.970000", "180316.430000", "180316.890000", "180317.350000", "180317.810000", "180318.270000", "180318.730000", "180319.190000", "180319.650000", "180320.110000", "180320.570000", "180321.030000", "180321.490000", "180321.950000", "180322.410000", "180322.870000", "180323.330000", "180323.790000", "180324.250000", "180324.710000", "180325.170000", "180325.630000", "180326.090000", "180326.550000", "180327.010000", "180327.470000", "180327.930000", "180328.390000", "180328.850000", "180329.310000", "180329.770000", "180330.230000", "180330.690000", "180331.150000", "180331.610000", "180332.070000", "180332.530000", "180332.990000", "180333.450000", "180333.910000", "180334.370000", "180334.830000", "180335.290000", "180335.750000", "180336.210000", "180336.670000", "180337.130000", "180337.590000", "180338.050000", "180338.510000", "180338.970000", "180339.430000", "180339.890000", "180340.350000", "180340.810000", "180341.270000", "180341.730000", "180342.190000", "180342.650000", "180343.110000", "180343.570000", "180344.030000", "180344.490000", "180344.950000", "180345.410000", "180345.870000", "180346.330000", "180346.790000", "180347.250000", "180347.710000", "180348.170000", "180348.630000", "180349.090000", "180349.550000", "180350.010000", "180350.470000", "180350.930000", "180351.390000", "180351.850000", "180352.310000", "180352.770000", "180353.230000", "180353.690000", "180354.150000", "180354.610000", "180355.070000", "180355.530000", "180355.990000", "180356.450000", "180356.910000", "180357.370000", "180357.830000", "180358.290000", "180358.750000", "180359.210000", "180359.670000", "180400.130000", "180400.590000", "180401.050000", "180401.510000", "180401.970000", "180402.430000", "180402.890000", "180403.350000", "180403.810000", "180404.270000", "180404.730000", "180405.190000", "180405.650000", "180406.110000", "180406.570000", "180407.030000", "180407.490000", "180407.950000", "180408.410000", "180408.870000", "180409.330000", "180409.790000", "180410.250000", "180410.710000", "180411.170000", "180411.630000", "180412.090000", "180412.550000", "180413.010000", "180413.470000", "180413.930000", "180414.390000", "180414.850000", "180415.310000", "180415.770000", "180416.230000", "180416.690000", "180417.150000", "180417.610000", "180418.070000", "180418.530000", "180418.990000", "180419.450000", "180419.910000", "180420.370000", "180420.830000", "180421.290000", "180421.750000", "180422.210000", "180422.670000", "180423.130000", "180423.590000", "180424.050000", "180424.510000", "180424.970000", "180425.430000", "180425.890000", "180426.350000", "180426.810000", "180427.270000", "180427.730000", "180428.190000", "180428.650000", "180429.110000", "180429.570000", "180430.030000", "180430.490000", "180430.950000", "180431.410000", "180431.870000", "180432.330000", "180432.790000", "180433.250000", "180433.710000", "180434.170000", "180434.630000", "180435.090000", "180435.550000", "180436.010000", "180436.470000", "180436.930000", "180437.390000", "180437.850000", "180438.310000", "180438.770000", "180439.230000", "180439.690000", "180440.150000", "180440.610000", "180441.070000", "180441.530000", "180441.990000", "180442.450000", "180442.910000", "180443.370000", "180443.830000", "180444.290000", "180444.750000", "180445.210000", "180445.670000", "180446.130000", "180446.590000", "180447.050000", "180447.510000", "180447.970000", "180448.430000", "180448.890000", "180449.350000", "180449.810000", "180450.270000", "180450.730000", "180451.190000", "180451.650000", "180452.110000", "180452.570000", "180453.030000", "180453.490000", "180453.950000", "180454.410000", "180454.870000", "180455.330000", "180455.790000", "180456.250000", "180456.710000", "180457.170000", "180457.630000", "180458.090000", "180458.550000", "180459.010000", "180459.470000", "180459.930000", "180500.390000", "180500.850000", "180501.310000", "180501.770000", "180502.230000", "180502.690000", "180503.150000", "180503.610000", "180504.070000", "180504.530000", "180504.990000", "180505.450000", "180505.910000", "180506.370000", "180506.830000", "180507.290000", "180507.750000", "180508.210000", "180508.670000", "180509.130000", "180509.590000", "180510.050000", "180510.510000", "180510.970000", "180511.430000", "180511.890000", "180512.350000", "180512.810000", "180513.270000", "180513.730000", "180514.190000", "180514.650000", "180515.110000", "180515.570000", "180516.030000", "180516.490000", "180516.950000", "180517.410000", "180517.870000", "180518.330000", "180518.790000", "180519.250000", "180519.710000", "180520.170000", "180520.630000", "180521.090000", "180521.550000", "180522.010000", "180522.470000", "180522.930000", "180523.390000", "180523.850000", "180524.310000", "180524.770000", "180525.230000", "180525.690000", "180526.150000", "180526.610000", "180527.070000", "180527.530000", "180527.990000", "180528.450000", "180528.910000", "180529.370000", "180529.830000", "180530.290000", "180530.750000", "180531.210000", "180531.670000", "180532.130000", "180532.590000", "180533.050000", "180533.510000", "180533.970000", "180534.430000", "180534.890000", "180535.350000", "180535.810000", "180536.270000", "180536.730000", "180537.190000", "180537.650000", "180538.110000", "180538.570000", "180539.030000", "180539.490000", "180539.950000", "180540.410000", "180540.870000", "180541.330000", "180541.790000", "180542.250000", "180542.710000", "180543.170000", "180543.630000", "180544.090000", "180544.550000", "180545.010000", "180545.470000", "180545.930000", "180546.390000", "180546.850000", "180547.310000", "180547.770000", "180548.230000", "180548.690000", "180549.150000", "180549.610000", "180550.070000", "180550.530000", "180550.990000", "180551.450000", "180551.910000", "180552.370000", "180552.830000", "180553.290000", "180553.750000", "180554.210000", "180554.670000", "180555.130000", "180555.590000", "180556.050000", "180556.510000", "180556.970000", "180557.430000", "180557.890000", "180558.350000", "180558.810000", "180559.270000", "180559.730000", "180600.190000", "180600.650000", "180601.110000", "180601.570000", "180602.030000", "180602.490000", "180602.950000", "180603.410000", "180603.870000", "180604.330000", "180604.790000", "180605.250000", "180605.710000", "180606.170000", "180606.630000", "180607.090000", "180607.550000", "180608.010000", "180608.470000", "180608.930000", "180609.390000", "180609.850000", "180610.310000", "180610.770000", "180611.230000", "180611.690000", "180612.150000", "180612.610000", "180613.070000", "180613.530000", "180613.990000", "180614.450000", "180614.910000", "180615.370000", "180615.830000", "180616.290000", "180616.750000", "180617.210000", "180617.670000", "180618.130000", "180618.590000", "180619.050000", "180619.510000", "180619.970000", "180620.430000", "180620.890000", "180621.350000", "180621.810000", "180622.270000", "180622.730000", "180623.190000", "180623.650000", "180624.110000", "180624.570000", "180625.030000", "180625.490000", "180625.950000", "180626.410000", "180626.870000", "180627.330000", "180627.790000", "180628.250000", "180628.710000", "180629.170000", "180629.630000", "180630.090000", "180630.550000", "180631.010000", "180631.470000", "180631.930000", "180632.390000", "180632.850000", "180633.310000", "180633.770000", "180634.230000", "180634.690000", "180635.150000", "180635.610000", "180636.070000", "180636.530000", "180636.990000", "180637.450000", "180637.910000", "180638.370000", "180638.830000", "180639.290000", "180639.750000", "180640.210000", "180640.670000", "180641.130000", "180641.590000", "180642.050000", "180642.510000", "180642.970000", "180643.430000", "180643.890000", "180644.350000", "180644.810000", "180645.270000", "180645.730000", "180646.190000", "180646.650000", "180647.110000", "180647.570000", "180648.030000", "180648.490000", "180648.950000", "180649.410000", "180649.870000", "180650.330000", "180650.790000", "180651.250000", "180651.710000", "180652.170000", "180652.630000", "180653.090000", "180653.550000", "180654.010000", "180654.470000", "180654.930000", "180655.390000", "180655.850000", "180656.310000", "180656.770000", "180657.230000", "180657.690000", "180658.150000", "180658.610000", "180659.070000", "180659.530000", "180659.990000", "180700.450000", "180700.910000", "180701.370000", "180701.830000", "180702.290000", "180702.750000", "180703.210000", "180703.670000", "180704.130000", "180704.590000", "180705.050000", "180705.510000", "180705.970000", "180706.430000", "180706.890000", "180707.350000"],
