{
  "AcquisitionMatrixPE": 82,
  "AcquisitionNumber": 1,
  "AcquisitionTime": "17:25:35.087500",
  "BandwidthPerPixelPhaseEncode": 24.888,
  "BaseResolution": 82,
  "BodyPartExamined": "BRAIN",
  "ConsistencyInfo": "N4_VE11C_LATEST_20160120",
  "ConversionSoftware": "dcm2niix",
  "ConversionSoftwareVersion": "v1.0.20201102",
  "DerivedVendorReportedEchoSpacing": 0.00049,
  "DeviceSerialNumber": "66112",
  "DwellTime": 2e-06,
  "EchoTime": 0.0272,
  "EchoTrainLength": 82,
  "EffectiveEchoSpacing": 0.00049,
  "FlipAngle": 44,
  "ImageComments": "Unaliased MB8/PE3",
  "ImageOrientationPatientDICOM": [0.992535, -0.0377726, 0.115967, 0.027724, 0.995816, 0.0870721],
  "ImageType": [
    "ORIGINAL",
    "PRIMARY",
    "M",
    "MB",
    "ND",
    "NORM",
    "MOSAIC"
],
  "ImagingFrequency": 123.252,
  "InPlanePhaseEncodingDirectionDICOM": "COL",
  "InstitutionAddress": "Maynard 3,Hanover,NH,US,03755",
  "InstitutionName": "Dartmouth College - PBS",
  "InstitutionalDepartmentName": "Department",
  "MRAcquisitionType": "2D",
  "MagneticFieldStrength": 3,
  "Manufacturer": "Siemens",
  "ManufacturersModelName": "Prisma",
  "Modality": "MR",
  "MultibandAccelerationFactor": 8,
  "PartialFourier": 1,
  "PatientPosition": "HFS",
  "PercentPhaseFOV": 100,
  "PercentSampling": 100,
  "PhaseEncodingDirection": "j-",
  "PhaseEncodingSteps": 82,
  "PhaseResolution": 1,
  "PixelBandwidth": 3050,
  "ProcedureStepDescription": "Wager_Wager^1076_spacetop",
  "ProtocolName": "func_run-03_task-social_acq-ap-mb8",
  "PulseSequenceDetails": "%CustomerSeq%\\cmrr_mbep2d_bold",
  "ReceiveCoilActiveElements": "HEA;HEP",
  "ReceiveCoilName": "Head_32",
  "ReconMatrixPE": 82,
  "RepetitionTime": 0.46,
  "SAR": 0.116963,
  "ScanOptions": "FS",
  "ScanningSequence": "EP",
  "SequenceName": "epfid2d1_82",
  "SequenceVariant": "SK\\SS",
  "SeriesDescription": "func_run-03_task-social_acq-ap-mb8",
  "SeriesNumber": 16,
  "ShimSetting": [4178, -7726, -7182, 524, -26, -87, 41, 24],
  "SliceThickness": 2.7,
  "SliceTiming": [0, 0.2525, 0.065, 0.315, 0.1275, 0.3775, 0.19, 0, 0.2525, 0.065, 0.315, 0.1275, 0.3775, 0.19, 0, 0.2525, 0.065, 0.315, 0.1275, 0.3775, 0.19, 0, 0.2525, 0.065, 0.315, 0.1275, 0.3775, 0.19, 0, 0.2525, 0.065, 0.315, 0.1275, 0.3775, 0.19, 0, 0.2525, 0.065, 0.315, 0.1275, 0.3775, 0.19, 0, 0.2525, 0.065, 0.315, 0.1275, 0.3775, 0.19, 0, 0.2525, 0.065, 0.315, 0.1275, 0.3775, 0.19],
  "SoftwareVersions": "syngo MR E11",
  "SpacingBetweenSlices": 2.7,
  "StationName": "AWP66112",
  "TaskName": "social",
  "TotalReadoutTime": 0.03969,
  "TxRefAmp": 267.7,
  "WipMemBlock": "31bf91f7-3495-4980-9960-0b964e1550db||Sequence: R016 ve11c/master r/e634e98; Dec 19 2017 11:00:25 by eja",
  "dcmmeta_affine": [
    [-2.662897825241089, 0.07438157498836517, 0.3206802308559418, 102.71904754638672],
    [0.10134104639291763, 2.6717019081115723, 0.2246589958667755, -94.86126708984375],
    [0.311130166053772, -0.2336081564426422, 2.6714589595794678, -36.80232620239258],
    [0.0, 0.0, 0.0, 1.0]
],
  "dcmmeta_reorient_transform": [
    [0.0, -1.0, 0.0, 81.0],
    [1.0, 0.0, 0.0, 0.0],
    [0.0, 0.0, 1.0, 0.0],
    [0.0, 0.0, 0.0, 1.0]
],
  "dcmmeta_shape": [82, 82, 56, 872],
  "dcmmeta_slice_dim": 2,
  "dcmmeta_version": 0.6,
  "global": {
    "const": {
      "AccessionNumber": "A003799",
      "AcquisitionMatrix": [82, 0, 0, 82],
      "AngioFlag": "N",
      "BitsAllocated": 16,
      "BitsStored": 16,
      "BodyPartExamined": "BRAIN",
      "Columns": 656,
      "EchoNumbers": 1,
      "EchoTime": 27.2,
      "EchoTrainLength": 82,
      "FlipAngle": 44.0,
      "HighBit": 15,
      "ImageOrientationPatient": [0.99253461281447, -0.0377725706708, 0.11596669897069, 0.02772403957102, 0.99581615874372, 0.08707212880579],
      "ImagePositionPatient": [-894.34313676586, -859.24017226724, -212.06448871275],
      "ImageType": [
        "ORIGINAL",
        "PRIMARY",
        "M",
        "MB",
        "ND",
        "NORM",
        "MOSAIC"
],
      "ImagedNucleus": "1H",
      "ImagingFrequency": 123.252143,
      "InPlanePhaseEncodingDirection": "COL",
      "MRAcquisitionType": "2D",
      "MagneticFieldStrength": 3.0,
      "Manufacturer": "SIEMENS",
      "ManufacturerModelName": "Prisma",
      "Modality": "MR",
      "NumberOfAverages": 1.0,
      "NumberOfPhaseEncodingSteps": 82,
      "PercentPhaseFieldOfView": 100.0,
      "PercentSampling": 100.0,
      "PerformedProcedureStepStartTime": "164116.521000",
      "PhotometricInterpretation": "MONOCHROME2",
      "PixelBandwidth": 3050.0,
      "PixelRepresentation": 0,
      "PixelSpacing": [2.6829268932343, 2.6829268932343],
      "ProtocolName": "func_run-03_task-social_acq-ap-mb8",
      "RepetitionTime": 460.0,
      "Rows": 656,
      "SAR": 0.11696299074731,
      "SamplesPerPixel": 1,
      "ScanOptions": "FS",
      "ScanningSequence": "EP",
      "SequenceName": "epfid2d1_82",
      "SequenceVariant": [
        "SK",
        "SS"
],
      "SeriesDescription": "func_run-03_task-social_acq-ap-mb8",
      "SeriesNumber": 16,
      "SeriesTime": "172557.735000",
      "SliceLocation": -32.106434568828,
      "SliceThickness": 2.7000000476837,
      "SmallestImagePixelValue": 0,
      "SoftwareVersions": "syngo MR E11",
      "SpacingBetweenSlices": 2.7000000407679,
      "SpecificCharacterSet": "ISO_IR 100",
      "StudyID": "1",
      "StudyTime": "164116.411000",
      "TransmitCoilName": "Body",
      "VariableFlipAngleFlag": "N",
      "WindowCenterWidthExplanation": "Algo1",
      "dBdt": 0.0},
    "slices": {}
  },
  "time": {
    "samples": {
      "AcquisitionNumber": [1, 2, 3, 4, 5, 6, 7, 8, 9, 10, 11, 12, 13, 14, 15, 16, 17, 18, 19, 20, 21, 22, 23, 24, 25, 26, 27, 28, 29, 30, 31, 32, 33, 34, 35, 36, 37, 38, 39, 40, 41, 42, 43, 44, 45, 46, 47, 48, 49, 50, 51, 52, 53, 54, 55, 56, 57, 58, 59, 60, 61, 62, 63, 64, 65, 66, 67, 68, 69, 70, 71, 72, 73, 74, 75, 76, 77, 78, 79, 80, 81, 82, 83, 84, 85, 86, 87, 88, 89, 90, 91, 92, 93, 94, 95, 96, 97, 98, 99, 100, 101, 102, 103, 104, 105, 106, 107, 108, 109, 110, 111, 112, 113, 114, 115, 116, 117, 118, 119, 120, 121, 122, 123, 124, 125, 126, 127, 128, 129, 130, 131, 132, 133, 134, 135, 136, 137, 138, 139, 140, 141, 142, 143, 144, 145, 146, 147, 148, 149, 150, 151, 152, 153, 154, 155, 156, 157, 158, 159, 160, 161, 162, 163, 164, 165, 166, 167, 168, 169, 170, 171, 172, 173, 174, 175, 176, 177, 178, 179, 180, 181, 182, 183, 184, 185, 186, 187, 188, 189, 190, 191, 192, 193, 194, 195, 196, 197, 198, 199, 200, 201, 202, 203, 204, 205, 206, 207, 208, 209, 210, 211, 212, 213, 214, 215, 216, 217, 218, 219, 220, 221, 222, 223, 224, 225, 226, 227, 228, 229, 230, 231, 232, 233, 234, 235, 236, 237, 238, 239, 240, 241, 242, 243, 244, 245, 246, 247, 248, 249, 250, 251, 252, 253, 254, 255, 256, 257, 258, 259, 260, 261, 262, 263, 264, 265, 266, 267, 268, 269, 270, 271, 272, 273, 274, 275, 276, 277, 278, 279, 280, 281, 282, 283, 284, 285, 286, 287, 288, 289, 290, 291, 292, 293, 294, 295, 296, 297, 298, 299, 300, 301, 302, 303, 304, 305, 306, 307, 308, 309, 310, 311, 312, 313, 314, 315, 316, 317, 318, 319, 320, 321, 322, 323, 324, 325, 326, 327, 328, 329, 330, 331, 332, 333, 334, 335, 336, 337, 338, 339, 340, 341, 342, 343, 344, 345, 346, 347, 348, 349, 350, 351, 352, 353, 354, 355, 356, 357, 358, 359, 360, 361, 362, 363, 364, 365, 366, 367, 368, 369, 370, 371, 372, 373, 374, 375, 376, 377, 378, 379, 380, 381, 382, 383, 384, 385, 386, 387, 388, 389, 390, 391, 392, 393, 394, 395, 396, 397, 398, 399, 400, 401, 402, 403, 404, 405, 406, 407, 408, 409, 410, 411, 412, 413, 414, 415, 416, 417, 418, 419, 420, 421, 422, 423, 424, 425, 426, 427, 428, 429, 430, 431, 432, 433, 434, 435, 436, 437, 438, 439, 440, 441, 442, 443, 444, 445, 446, 447, 448, 449, 450, 451, 452, 453, 454, 455, 456, 457, 458, 459, 460, 461, 462, 463, 464, 465, 466, 467, 468, 469, 470, 471, 472, 473, 474, 475, 476, 477, 478, 479, 480, 481, 482, 483, 484, 485, 486, 487, 488, 489, 490, 491, 492, 493, 494, 495, 496, 497, 498, 499, 500, 501, 502, 503, 504, 505, 506, 507, 508, 509, 510, 511, 512, 513, 514, 515, 516, 517, 518, 519, 520, 521, 522, 523, 524, 525, 526, 527, 528, 529, 530, 531, 532, 533, 534, 535, 536, 537, 538, 539, 540, 541, 542, 543, 544, 545, 546, 547, 548, 549, 550, 551, 552, 553, 554, 555, 556, 557, 558, 559, 560, 561, 562, 563, 564, 565, 566, 567, 568, 569, 570, 571, 572, 573, 574, 575, 576, 577, 578, 579, 580, 581, 582, 583, 584, 585, 586, 587, 588, 589, 590, 591, 592, 593, 594, 595, 596, 597, 598, 599, 600, 601, 602, 603, 604, 605, 606, 607, 608, 609, 610, 611, 612, 613, 614, 615, 616, 617, 618, 619, 620, 621, 622, 623, 624, 625, 626, 627, 628, 629, 630, 631, 632, 633, 634, 635, 636, 637, 638, 639, 640, 641, 642, 643, 644, 645, 646, 647, 648, 649, 650, 651, 652, 653, 654, 655, 656, 657, 658, 659, 660, 661, 662, 663, 664, 665, 666, 667, 668, 669, 670, 671, 672, 673, 674, 675, 676, 677, 678, 679, 680, 681, 682, 683, 684, 685, 686, 687, 688, 689, 690, 691, 692, 693, 694, 695, 696, 697, 698, 699, 700, 701, 702, 703, 704, 705, 706, 707, 708, 709, 710, 711, 712, 713, 714, 715, 716, 717, 718, 719, 720, 721, 722, 723, 724, 725, 726, 727, 728, 729, 730, 731, 732, 733, 734, 735, 736, 737, 738, 739, 740, 741, 742, 743, 744, 745, 746, 747, 748, 749, 750, 751, 752, 753, 754, 755, 756, 757, 758, 759, 760, 761, 762, 763, 764, 765, 766, 767, 768, 769, 770, 771, 772, 773, 774, 775, 776, 777, 778, 779, 780, 781, 782, 783, 784, 785, 786, 787, 788, 789, 790, 791, 792, 793, 794, 795, 796, 797, 798, 799, 800, 801, 802, 803, 804, 805, 806, 807, 808, 809, 810, 811, 812, 813, 814, 815, 816, 817, 818, 819, 820, 821, 822, 823, 824, 825, 826, 827, 828, 829, 830, 831, 832, 833, 834, 835, 836, 837, 838, 839, 840, 841, 842, 843, 844, 845, 846, 847, 848, 849, 850, 851, 852, 853, 854, 855, 856, 857, 858, 859, 860, 861, 862, 863, 864, 865, 866, 867, 868, 869, 870, 871, 872],
      "AcquisitionTime": ["172535.087500", "172535.547500", "172536.007500", "172536.467500", "172536.927500", "172537.387500", "172537.847500", "172538.307500", "172538.767500", "172539.227500", "172539.687500", "172540.147500", "172540.607500", "172541.067500", "172541.527500", "172541.987500", "172542.447500", "172542.907500", "172543.367500", "172543.827500", "172544.287500", "172544.747500", "172545.207500", "172545.667500", "172546.127500", "172546.587500", "172547.047500", "172547.507500", "172547.967500", "172548.427500", "172548.887500", "172549.347500", "172549.807500", "172550.267500", "172550.727500", "172551.187500", "172551.647500", "172552.107500", "172552.567500", "172553.027500", "172553.487500", "172553.947500", "172554.407500", "172554.867500", "172555.327500", "172555.787500", "172556.247500", "172556.707500", "172557.167500", "172557.627500", "172558.087500", "172558.547500", "172559.007500", "172559.467500", "172559.927500", "172600.387500", "172600.847500", "172601.307500", "172601.767500", "172602.227500", "172602.687500", "172603.147500", "172603.607500", "172604.067500", "172604.527500", "172604.987500", "172605.447500", "172605.907500", "172606.367500", "172606.827500", "172607.287500", "172607.747500", "172608.207500", "172608.667500", "172609.127500", "172609.587500", "172610.047500", "172610.507500", "172610.967500", "172611.427500", "172611.887500", "172612.347500", "172612.807500", "172613.267500", "172613.727500", "172614.187500", "172614.647500", "172615.107500", "172615.567500", "172616.027500", "172616.487500", "172616.947500", "172617.407500", "172617.867500", "172618.327500", "172618.787500", "172619.247500", "172619.707500", "172620.167500", "172620.627500", "172621.087500", "172621.547500", "172622.007500", "172622.467500", "172622.927500", "172623.387500", "172623.847500", "172624.307500", "172624.767500", "172625.227500", "172625.687500", "172626.147500", "172626.607500", "172627.067500", "172627.527500", "172627.987500", "172628.447500", "172628.907500", "172629.367500", "172629.827500", "172630.287500", "172630.747500", "172631.207500", "172631.667500", "172632.127500", "172632.587500", "172633.047500", "172633.507500", "172633.967500", "172634.427500", "172634.887500", "172635.347500", "172635.807500", "172636.267500", "172636.727500", "172637.187500", "172637.647500", "172638.107500", "172638.567500", "172639.027500", "172639.487500", "172639.947500", "172640.407500", "172640.867500", "172641.327500", "172641.787500", "172642.247500", "172642.707500", "172643.167500", "172643.627500", "172644.087500", "172644.547500", "172645.007500", "172645.467500", "172645.927500", "172646.387500", "172646.847500", "172647.307500", "172647.767500", "172648.227500", "172648.687500", "172649.147500", "172649.607500", "172650.067500", "172650.527500", "172650.987500", "172651.447500", "172651.907500", "172652.367500", "172652.827500", "172653.287500", "172653.747500", "172654.207500", "172654.667500", "172655.127500", "172655.587500", "172656.047500", "172656.507500", "172656.967500", "172657.427500", "172657.887500", "172658.347500", "172658.807500", "172659.267500", "172659.727500", "172700.187500", "172700.647500", "172701.107500", "172701.567500", "172702.027500", "172702.487500", "172702.947500", "172703.407500", "172703.867500", "172704.327500", "172704.787500", "172705.247500", "172705.707500", "172706.167500", "172706.627500", "172707.087500", "172707.547500", "172708.007500", "172708.467500", "172708.927500", "172709.387500", "172709.847500", "172710.307500", "172710.767500", "172711.227500", "172711.687500", "172712.147500", "172712.607500", "172713.067500", "172713.527500", "172713.987500", "172714.447500", "172714.907500", "172715.367500", "172715.827500", "172716.287500", "172716.747500", "172717.207500", "172717.667500", "172718.127500", "172718.587500", "172719.047500", "172719.507500", "172719.967500", "172720.427500", "172720.887500", "172721.347500", "172721.807500", "172722.267500", "172722.727500", "172723.187500", "172723.647500", "172724.107500", "172724.567500", "172725.027500", "172725.487500", "172725.947500", "172726.407500", "172726.867500", "172727.327500", "172727.787500", "172728.247500", "172728.707500", "172729.167500", "172729.627500", "172730.087500", "172730.547500", "172731.007500", "172731.467500", "172731.927500", "172732.387500", "172732.847500", "172733.307500", "172733.767500", "172734.227500", "172734.687500", "172735.147500", "172735.607500", "172736.067500", "172736.527500", "172736.987500", "172737.447500", "172737.907500", "172738.367500", "172738.827500", "172739.287500", "172739.747500", "172740.207500", "172740.667500", "172741.127500", "172741.587500", "172742.047500", "172742.507500", "172742.967500", "172743.427500", "172743.887500", "172744.347500", "172744.807500", "172745.267500", "172745.727500", "172746.187500", "172746.647500", "172747.107500", "172747.567500", "172748.027500", "172748.487500", "172748.947500", "172749.407500", "172749.867500", "172750.327500", "172750.787500", "172751.247500", "172751.707500", "172752.167500", "172752.627500", "172753.087500", "172753.547500", "172754.007500", "172754.467500", "172754.927500", "172755.387500", "172755.847500", "172756.307500", "172756.767500", "172757.227500", "172757.687500", "172758.147500", "172758.607500", "172759.067500", "172759.527500", "172759.987500", "172800.447500", "172800.907500", "172801.367500", "172801.827500", "172802.287500", "172802.747500", "172803.207500", "172803.667500", "172804.127500", "172804.587500", "172805.047500", "172805.507500", "172805.967500", "172806.427500", "172806.887500", "172807.347500", "172807.807500", "172808.267500", "172808.727500", "172809.187500", "172809.647500", "172810.107500", "172810.567500", "172811.027500", "172811.487500", "172811.947500", "172812.407500", "172812.867500", "172813.327500", "172813.787500", "172814.247500", "172814.707500", "172815.167500", "172815.627500", "172816.087500", "172816.547500", "172817.007500", "172817.467500", "172817.927500", "172818.387500", "172818.847500", "172819.307500", "172819.767500", "172820.227500", "172820.687500", "172821.147500", "172821.607500", "172822.067500", "172822.527500", "172822.987500", "172823.447500", "172823.907500", "172824.367500", "172824.827500", "172825.287500", "172825.747500", "172826.207500", "172826.667500", "172827.127500", "172827.587500", "172828.047500", "172828.507500", "172828.967500", "172829.427500", "172829.887500", "172830.347500", "172830.807500", "172831.267500", "172831.727500", "172832.187500", "172832.647500", "172833.107500", "172833.567500", "172834.027500", "172834.487500", "172834.947500", "172835.407500", "172835.867500", "172836.327500", "172836.787500", "172837.247500", "172837.707500", "172838.167500", "172838.627500", "172839.087500", "172839.547500", "172840.007500", "172840.467500", "172840.927500", "172841.387500", "172841.847500", "172842.307500", "172842.767500", "172843.227500", "172843.687500", "172844.147500", "172844.607500", "172845.067500", "172845.527500", "172845.987500", "172846.447500", "172846.907500", "172847.367500", "172847.827500", "172848.287500", "172848.747500", "172849.207500", "172849.667500", "172850.127500", "172850.587500", "172851.047500", "172851.507500", "172851.967500", "172852.427500", "172852.887500", "172853.347500", "172853.807500", "172854.267500", "172854.727500", "172855.187500", "172855.647500", "172856.107500", "172856.567500", "172857.027500", "172857.487500", "172857.947500", "172858.407500", "172858.867500", "172859.327500", "172859.787500", "172900.247500", "172900.707500", "172901.167500", "172901.627500", "172902.087500", "172902.547500", "172903.007500", "172903.467500", "172903.927500", "172904.387500", "172904.847500", "172905.307500", "172905.767500", "172906.227500", "172906.687500", "172907.147500", "172907.607500", "172908.067500", "172908.527500", "172908.987500", "172909.447500", "172909.907500", "172910.367500", "172910.827500", "172911.287500", "172911.747500", "172912.207500", "172912.667500", "172913.127500", "172913.587500", "172914.047500", "172914.507500", "172914.967500", "172915.427500", "172915.887500", "172916.347500", "172916.807500", "172917.267500", "172917.727500", "172918.187500", "172918.647500", "172919.107500", "172919.567500", "172920.027500", "172920.487500", "172920.947500", "172921.407500", "172921.867500", "172922.327500", "172922.787500", "172923.247500", "172923.707500", "172924.167500", "172924.627500", "172925.087500", "172925.547500", "172926.007500", "172926.467500", "172926.927500", "172927.387500", "172927.847500", "172928.307500", "172928.767500", "172929.227500", "172929.687500", "172930.147500", "172930.607500", "172931.067500", "172931.527500", "172931.987500", "172932.447500", "172932.907500", "172933.367500", "172933.827500", "172934.287500", "172934.747500", "172935.207500", "172935.667500", "172936.127500", "172936.587500", "172937.047500", "172937.507500", "172937.967500", "172938.427500", "172938.887500", "172939.347500", "172939.807500", "172940.267500", "172940.727500", "172941.187500", "172941.647500", "172942.107500", "172942.567500", "172943.027500", "172943.487500", "172943.947500", "172944.407500", "172944.867500", "172945.327500", "172945.787500", "172946.247500", "172946.707500", "172947.167500", "172947.627500", "172948.087500", "172948.547500", "172949.007500", "172949.467500", "172949.927500", "172950.387500", "172950.847500", "172951.307500", "172951.767500", "172952.227500", "172952.687500", "172953.147500", "172953.607500", "172954.067500", "172954.527500", "172954.987500", "172955.447500", "172955.907500", "172956.367500", "172956.827500", "172957.287500", "172957.747500", "172958.207500", "172958.667500", "172959.127500", "172959.587500", "173000.047500", "173000.507500", "173000.967500", "173001.427500", "173001.887500", "173002.347500", "173002.807500", "173003.267500", "173003.727500", "173004.187500", "173004.647500", "173005.107500", "173005.567500", "173006.027500", "173006.487500", "173006.947500", "173007.407500", "173007.867500", "173008.327500", "173008.787500", "173009.247500", "173009.707500", "173010.167500", "173010.627500", "173011.087500", "173011.547500", "173012.007500", "173012.467500", "173012.927500", "173013.387500", "173013.847500", "173014.307500", "173014.767500", "173015.227500", "173015.687500", "173016.147500", "173016.607500", "173017.067500", "173017.527500", "173017.987500", "173018.447500", "173018.907500", "173019.367500", "173019.827500", "173020.287500", "173020.747500", "173021.207500", "173021.667500", "173022.127500", "173022.587500", "173023.047500", "173023.507500", "173023.967500", "173024.427500", "173024.887500", "173025.347500", "173025.807500", "173026.267500", "173026.727500", "173027.187500", "173027.647500", "173028.107500", "173028.567500", "173029.027500", "173029.487500", "173029.947500", "173030.407500", "173030.867500", "173031.327500", "173031.787500", "173032.247500", "173032.707500", "173033.167500", "173033.627500", "173034.087500", "173034.547500", "173035.007500", "173035.467500", "173035.927500", "173036.387500", "173036.847500", "173037.307500", "173037.767500", "173038.227500", "173038.687500", "173039.147500", "173039.607500", "173040.067500", "173040.527500", "173040.987500", "173041.447500", "173041.907500", "173042.367500", "173042.827500", "173043.287500", "173043.747500", "173044.207500", "173044.667500", "173045.127500", "173045.587500", "173046.047500", "173046.507500", "173046.967500", "173047.427500", "173047.887500", "173048.347500", "173048.807500", "173049.267500", "173049.727500", "173050.187500", "173050.647500", "173051.107500", "173051.567500", "173052.027500", "173052.487500", "173052.947500", "173053.407500", "173053.867500", "173054.327500", "173054.787500", "173055.247500", "173055.707500", "173056.167500", "173056.627500", "173057.087500", "173057.547500", "173058.007500", "173058.467500", "173058.927500", "173059.387500", "173059.847500", "173100.307500", "173100.767500", "173101.227500", "173101.687500", "173102.147500", "173102.607500", "173103.067500", "173103.527500", "173103.987500", "173104.447500", "173104.907500", "173105.367500", "173105.827500", "173106.287500", "173106.747500", "173107.207500", "173107.667500", "173108.127500", "173108.587500", "173109.047500", "173109.507500", "173109.967500", "173110.427500", "173110.887500", "173111.347500", "173111.807500", "173112.267500", "173112.727500", "173113.187500", "173113.647500", "173114.107500", "173114.567500", "173115.027500", "173115.487500", "173115.947500", "173116.407500", "173116.867500", "173117.327500", "173117.787500", "173118.247500", "173118.707500", "173119.167500", "173119.627500", "173120.087500", "173120.547500", "173121.007500", "173121.467500", "173121.927500", "173122.387500", "173122.847500", "173123.307500", "173123.767500", "173124.227500", "173124.687500", "173125.147500", "173125.607500", "173126.067500", "173126.527500", "173126.987500", "173127.447500", "173127.907500", "173128.367500", "173128.827500", "173129.287500", "173129.747500", "173130.207500", "173130.667500", "173131.127500", "173131.587500", "173132.047500", "173132.507500", "173132.967500", "173133.427500", "173133.887500", "173134.347500", "173134.807500", "173135.267500", "173135.727500", "173136.187500", "173136.647500", "173137.107500", "173137.567500", "173138.027500", "173138.487500", "173138.947500", "173139.407500", "173139.867500", "173140.327500", "173140.787500", "173141.247500", "173141.707500", "173142.167500", "173142.627500", "173143.087500", "173143.547500", "173144.007500", "173144.467500", "173144.927500", "173145.387500", "173145.847500", "173146.307500", "173146.767500", "173147.227500", "173147.687500", "173148.147500", "173148.607500", "173149.067500", "173149.527500", "173149.987500", "173150.447500", "173150.907500", "173151.367500", "173151.827500", "173152.287500", "173152.747500", "173153.207500", "173153.667500", "173154.127500", "173154.587500", "173155.047500", "173155.507500", "173155.967500", "173156.427500", "173156.887500", "173157.347500", "173157.807500", "173158.267500", "173158.727500", "173159.187500", "173159.647500", "173200.107500", "173200.567500", "173201.027500", "173201.487500", "173201.947500", "173202.407500", "173202.867500", "173203.327500", "173203.787500", "173204.247500", "173204.707500", "173205.167500", "173205.627500", "173206.087500", "173206.547500", "173207.007500", "173207.467500", "173207.927500", "173208.387500", "173208.847500", "173209.307500", "173209.767500", "173210.227500", "173210.687500", "173211.147500", "173211.607500", "173212.067500", "173212.527500", "173212.987500", "173213.447500", "173213.907500", "173214.367500", "173214.827500", "173215.287500", "173215.747500"],
