{
  "AcquisitionMatrixPE": 82,
  "AcquisitionNumber": 1,
  "AcquisitionTime": "10:12:6.750000",
  "BandwidthPerPixelPhaseEncode": 24.888,
  "BaseResolution": 82,
  "BodyPartExamined": "BRAIN",
  "ConsistencyInfo": "N4_VE11E_LATEST_20181129",
  "ConversionSoftware": "dcm2niix",
  "ConversionSoftwareVersion": "v1.0.20201102",
  "DerivedVendorReportedEchoSpacing": 0.00049,
  "DeviceSerialNumber": "66112",
  "DwellTime": 2e-06,
  "EchoTime": 0.0272,
  "EchoTrainLength": 82,
  "EffectiveEchoSpacing": 0.00049,
  "FlipAngle": 44,
  "ImageComments": "Unaliased MB8/PE3",
  "ImageOrientationPatientDICOM": [0.998197, -0.0448054, 0.0399408, 0.0448041, 0.998995, 0.000927313],
  "ImageType": [
    "ORIGINAL",
    "PRIMARY",
    "M",
    "MB",
    "ND",
    "NORM",
    "MOSAIC"
],
  "ImagingFrequency": 123.259,
  "InPlanePhaseEncodingDirectionDICOM": "COL",
  "InstitutionAddress": "Maynard 3,Hanover,NH,US,03755",
  "InstitutionName": "Dartmouth College - PBS",
  "InstitutionalDepartmentName": "Department",
  "MRAcquisitionType": "2D",
  "MagneticFieldStrength": 3,
  "Manufacturer": "Siemens",
  "ManufacturersModelName": "Prisma",
  "Modality": "MR",
  "MultibandAccelerationFactor": 8,
  "PartialFourier": 1,
  "PatientPosition": "HFS",
  "PercentPhaseFOV": 100,
  "PercentSampling": 100,
  "PhaseEncodingDirection": "j-",
  "PhaseEncodingSteps": 82,
  "PhaseResolution": 1,
  "PixelBandwidth": 3050,
  "ProcedureStepDescription": "Wager_Wager^1076_spacetop",
  "ProtocolName": "func_run-03_task-alignvideo_acq-ap-mb8",
  "PulseSequenceDetails": "%CustomerSeq%\\cmrr_mbep2d_bold",
  "ReceiveCoilActiveElements": "HEA;HEP",
  "ReceiveCoilName": "Head_32",
  "ReconMatrixPE": 82,
  "RepetitionTime": 0.46,
  "SAR": 0.0735505,
  "ScanOptions": "FS",
  "ScanningSequence": "EP",
  "SequenceName": "epfid2d1_82",
  "SequenceVariant": "SK\\SS",
  "SeriesDescription": "func_run-03_task-alignvideo_acq-ap-mb8",
  "SeriesNumber": 34,
  "ShimSetting": [4239, -7731, -7338, 127, -118, 52, -90, 101],
  "SliceThickness": 2.7,
  "SliceTiming": [0, 0.2525, 0.0625, 0.315, 0.125, 0.3775, 0.19, 0, 0.2525, 0.0625, 0.315, 0.125, 0.3775, 0.19, 0, 0.2525, 0.0625, 0.315, 0.125, 0.3775, 0.19, 0, 0.2525, 0.0625, 0.315, 0.125, 0.3775, 0.19, 0, 0.2525, 0.0625, 0.315, 0.125, 0.3775, 0.19, 0, 0.2525, 0.0625, 0.315, 0.125, 0.3775, 0.19, 0, 0.2525, 0.0625, 0.315, 0.125, 0.3775, 0.19, 0, 0.2525, 0.0625, 0.315, 0.125, 0.3775, 0.19],
  "SoftwareVersions": "syngo MR E11",
  "SpacingBetweenSlices": 2.7,
  "StationName": "AWP66112",
  "TaskName": "alignvideo",
  "TotalReadoutTime": 0.03969,
  "TxRefAmp": 228.75,
  "WipMemBlock": "51469f2c-445e-482f-81b3-4dc48194fd5d||Sequence: R016 ve11e/master r/434b28f1; Aug  7 2019 18:53:46 by eja",
  "dcmmeta_affine": [
    [-2.6780896186828613, 0.12020612508058548, 0.10784407705068588, 104.15369415283203],
    [0.12020952999591827, 2.6802315711975098, -0.002332452917471528, -111.7833251953125],
    [0.10715831816196442, -0.002487913938239217, 2.6978442668914795, -99.52599334716797],
    [0.0, 0.0, 0.0, 1.0]
],
  "dcmmeta_reorient_transform": [
    [0.0, -1.0, 0.0, 81.0],
    [1.0, 0.0, 0.0, 0.0],
    [0.0, 0.0, 1.0, 0.0],
    [0.0, 0.0, 0.0, 1.0]
],
  "dcmmeta_shape": [82, 82, 56, 1016],
  "dcmmeta_slice_dim": 2,
  "dcmmeta_version": 0.6,
  "global": {
    "const": {
      "AccessionNumber": "A004707",
      "AcquisitionMatrix": [82, 0, 0, 82],
      "AngioFlag": "N",
      "BitsAllocated": 16,
      "BitsStored": 16,
      "BodyPartExamined": "BRAIN",
      "Columns": 656,
      "EchoNumbers": 1,
      "EchoTime": 27.2,
      "EchoTrainLength": 82,
      "FlipAngle": 44.0,
      "HighBit": 15,
      "ImageOrientationPatient": [0.99819697918833, -0.044805368208, 0.0399408277209, 0.04480410008113, 0.99899536170388, 0.00092731335584],
      "ImagePositionPatient": [-917.00124405961, -840.04173896811, -131.19598252207],
      "ImageType": [
        "ORIGINAL",
        "PRIMARY",
        "M",
        "MB",
        "ND",
        "NORM",
        "MOSAIC"
],
      "ImagedNucleus": "1H",
      "ImagingFrequency": 123.259142,
      "InPlanePhaseEncodingDirection": "COL",
      "MRAcquisitionType": "2D",
      "MagneticFieldStrength": 3.0,
      "Manufacturer": "SIEMENS",
      "ManufacturerModelName": "Prisma",
      "Modality": "MR",
      "NumberOfAverages": 1.0,
      "NumberOfPhaseEncodingSteps": 82,
      "PercentPhaseFieldOfView": 100.0,
      "PercentSampling": 100.0,
      "PerformedProcedureStepStartTime": "084346.241000",
      "PhotometricInterpretation": "MONOCHROME2",
      "PixelBandwidth": 3050.0,
      "PixelRepresentation": 0,
      "PixelSpacing": [2.6829268932343, 2.6829268932343],
      "ProtocolName": "func_run-03_task-alignvideo_acq-ap-mb8",
      "RepetitionTime": 460.0,
      "Rows": 656,
      "SAR": 0.0735505160439,
      "SamplesPerPixel": 1,
      "ScanOptions": "FS",
      "ScanningSequence": "EP",
      "SequenceName": "epfid2d1_82",
      "SequenceVariant": [
        "SK",
        "SS"
],
      "SeriesDescription": "func_run-03_task-alignvideo_acq-ap-mb8",
      "SeriesNumber": 34,
      "SeriesTime": "101230.798000",
      "SliceLocation": -95.189832716383,
      "SliceThickness": 2.7000000476837,
      "SmallestImagePixelValue": 0,
      "SoftwareVersions": "syngo MR E11",
      "SpacingBetweenSlices": 2.6999999848941,
      "SpecificCharacterSet": "ISO_IR 100",
      "StudyID": "1",
      "StudyTime": "084346.047000",
      "TransmitCoilName": "Body",
      "VariableFlipAngleFlag": "N",
      "WindowCenterWidthExplanation": "Algo1"
    },
    "slices": {}
  },
  "time": {
    "samples": {
      "AcquisitionNumber": [1, 2, 3, 4, 5, 6, 7, 8, 9, 10, 11, 12, 13, 14, 15, 16, 17, 18, 19, 20, 21, 22, 23, 24, 25, 26, 27, 28, 29, 30, 31, 32, 33, 34, 35, 36, 37, 38, 39, 40, 41, 42, 43, 44, 45, 46, 47, 48, 49, 50, 51, 52, 53, 54, 55, 56, 57, 58, 59, 60, 61, 62, 63, 64, 65, 66, 67, 68, 69, 70, 71, 72, 73, 74, 75, 76, 77, 78, 79, 80, 81, 82, 83, 84, 85, 86, 87, 88, 89, 90, 91, 92, 93, 94, 95, 96, 97, 98, 99, 100, 101, 102, 103, 104, 105, 106, 107, 108, 109, 110, 111, 112, 113, 114, 115, 116, 117, 118, 119, 120, 121, 122, 123, 124, 125, 126, 127, 128, 129, 130, 131, 132, 133, 134, 135, 136, 137, 138, 139, 140, 141, 142, 143, 144, 145, 146, 147, 148, 149, 150, 151, 152, 153, 154, 155, 156, 157, 158, 159, 160, 161, 162, 163, 164, 165, 166, 167, 168, 169, 170, 171, 172, 173, 174, 175, 176, 177, 178, 179, 180, 181, 182, 183, 184, 185, 186, 187, 188, 189, 190, 191, 192, 193, 194, 195, 196, 197, 198, 199, 200, 201, 202, 203, 204, 205, 206, 207, 208, 209, 210, 211, 212, 213, 214, 215, 216, 217, 218, 219, 220, 221, 222, 223, 224, 225, 226, 227, 228, 229, 230, 231, 232, 233, 234, 235, 236, 237, 238, 239, 240, 241, 242, 243, 244, 245, 246, 247, 248, 249, 250, 251, 252, 253, 254, 255, 256, 257, 258, 259, 260, 261, 262, 263, 264, 265, 266, 267, 268, 269, 270, 271, 272, 273, 274, 275, 276, 277, 278, 279, 280, 281, 282, 283, 284, 285, 286, 287, 288, 289, 290, 291, 292, 293, 294, 295, 296, 297, 298, 299, 300, 301, 302, 303, 304, 305, 306, 307, 308, 309, 310, 311, 312, 313, 314, 315, 316, 317, 318, 319, 320, 321, 322, 323, 324, 325, 326, 327, 328, 329, 330, 331, 332, 333, 334, 335, 336, 337, 338, 339, 340, 341, 342, 343, 344, 345, 346, 347, 348, 349, 350, 351, 352, 353, 354, 355, 356, 357, 358, 359, 360, 361, 362, 363, 364, 365, 366, 367, 368, 369, 370, 371, 372, 373, 374, 375, 376, 377, 378, 379, 380, 381, 382, 383, 384, 385, 386, 387, 388, 389, 390, 391, 392, 393, 394, 395, 396, 397, 398, 399, 400, 401, 402, 403, 404, 405, 406, 407, 408, 409, 410, 411, 412, 413, 414, 415, 416, 417, 418, 419, 420, 421, 422, 423, 424, 425, 426, 427, 428, 429, 430, 431, 432, 433, 434, 435, 436, 437, 438, 439, 440, 441, 442, 443, 444, 445, 446, 447, 448, 449, 450, 451, 452, 453, 454, 455, 456, 457, 458, 459, 460, 461, 462, 463, 464, 465, 466, 467, 468, 469, 470, 471, 472, 473, 474, 475, 476, 477, 478, 479, 480, 481, 482, 483, 484, 485, 486, 487, 488, 489, 490, 491, 492, 493, 494, 495, 496, 497, 498, 499, 500, 501, 502, 503, 504, 505, 506, 507, 508, 509, 510, 511, 512, 513, 514, 515, 516, 517, 518, 519, 520, 521, 522, 523, 524, 525, 526, 527, 528, 529, 530, 531, 532, 533, 534, 535, 536, 537, 538, 539, 540, 541, 542, 543, 544, 545, 546, 547, 548, 549, 550, 551, 552, 553, 554, 555, 556, 557, 558, 559, 560, 561, 562, 563, 564, 565, 566, 567, 568, 569, 570, 571, 572, 573, 574, 575, 576, 577, 578, 579, 580, 581, 582, 583, 584, 585, 586, 587, 588, 589, 590, 591, 592, 593, 594, 595, 596, 597, 598, 599, 600, 601, 602, 603, 604, 605, 606, 607, 608, 609, 610, 611, 612, 613, 614, 615, 616, 617, 618, 619, 620, 621, 622, 623, 624, 625, 626, 627, 628, 629, 630, 631, 632, 633, 634, 635, 636, 637, 638, 639, 640, 641, 642, 643, 644, 645, 646, 647, 648, 649, 650, 651, 652, 653, 654, 655, 656, 657, 658, 659, 660, 661, 662, 663, 664, 665, 666, 667, 668, 669, 670, 671, 672, 673, 674, 675, 676, 677, 678, 679, 680, 681, 682, 683, 684, 685, 686, 687, 688, 689, 690, 691, 692, 693, 694, 695, 696, 697, 698, 699, 700, 701, 702, 703, 704, 705, 706, 707, 708, 709, 710, 711, 712, 713, 714, 715, 716, 717, 718, 719, 720, 721, 722, 723, 724, 725, 726, 727, 728, 729, 730, 731, 732, 733, 734, 735, 736, 737, 738, 739, 740, 741, 742, 743, 744, 745, 746, 747, 748, 749, 750, 751, 752, 753, 754, 755, 756, 757, 758, 759, 760, 761, 762, 763, 764, 765, 766, 767, 768, 769, 770, 771, 772, 773, 774, 775, 776, 777, 778, 779, 780, 781, 782, 783, 784, 785, 786, 787, 788, 789, 790, 791, 792, 793, 794, 795, 796, 797, 798, 799, 800, 801, 802, 803, 804, 805, 806, 807, 808, 809, 810, 811, 812, 813, 814, 815, 816, 817, 818, 819, 820, 821, 822, 823, 824, 825, 826, 827, 828, 829, 830, 831, 832, 833, 834, 835, 836, 837, 838, 839, 840, 841, 842, 843, 844, 845, 846, 847, 848, 849, 850, 851, 852, 853, 854, 855, 856, 857, 858, 859, 860, 861, 862, 863, 864, 865, 866, 867, 868, 869, 870, 871, 872, 873, 874, 875, 876, 877, 878, 879, 880, 881, 882, 883, 884, 885, 886, 887, 888, 889, 890, 891, 892, 893, 894, 895, 896, 897, 898, 899, 900, 901, 902, 903, 904, 905, 906, 907, 908, 909, 910, 911, 912, 913, 914, 915, 916, 917, 918, 919, 920, 921, 922, 923, 924, 925, 926, 927, 928, 929, 930, 931, 932, 933, 934, 935, 936, 937, 938, 939, 940, 941, 942, 943, 944, 945, 946, 947, 948, 949, 950, 951, 952, 953, 954, 955, 956, 957, 958, 959, 960, 961, 962, 963, 964, 965, 966, 967, 968, 969, 970, 971, 972, 973, 974, 975, 976, 977, 978, 979, 980, 981, 982, 983, 984, 985, 986, 987, 988, 989, 990, 991, 992, 993, 994, 995, 996, 997, 998, 999, 1000, 1001, 1002, 1003, 1004, 1005, 1006, 1007, 1008, 1009, 1010, 1011, 1012, 1013, 1014, 1015, 1016],
      "AcquisitionTime": ["101206.750000", "101207.210000", "101207.670000", "101208.130000", "101208.590000", "101209.050000", "101209.510000", "101209.970000", "101210.430000", "101210.890000", "101211.350000", "101211.810000", "101212.270000", "101212.730000", "101213.190000", "101213.650000", "101214.110000", "101214.570000", "101215.030000", "101215.490000", "101215.950000", "101216.410000", "101216.870000", "101217.330000", "101217.790000", "101218.250000", "101218.710000", "101219.170000", "101219.630000", "101220.090000", "101220.550000", "101221.010000", "101221.470000", "101221.930000", "101222.390000", "101222.850000", "101223.310000", "101223.770000", "101224.230000", "101224.690000", "101225.150000", "101225.610000", "101226.070000", "101226.530000", "101226.990000", "101227.450000", "101227.910000", "101228.370000", "101228.830000", "101229.290000", "101229.750000", "101230.210000", "101230.670000", "101231.130000", "101231.590000", "101232.050000", "101232.510000", "101232.970000", "101233.430000", "101233.890000", "101234.350000", "101234.810000", "101235.270000", "101235.730000", "101236.190000", "101236.650000", "101237.110000", "101237.570000", "101238.030000", "101238.490000", "101238.950000", "101239.410000", "101239.870000", "101240.330000", "101240.790000", "101241.250000", "101241.710000", "101242.170000", "101242.630000", "101243.090000", "101243.550000", "101244.010000", "101244.470000", "101244.930000", "101245.390000", "101245.850000", "101246.310000", "101246.770000", "101247.230000", "101247.690000", "101248.150000", "101248.610000", "101249.070000", "101249.530000", "101249.990000", "101250.450000", "101250.910000", "101251.370000", "101251.830000", "101252.290000", "101252.750000", "101253.210000", "101253.670000", "101254.130000", "101254.590000", "101255.050000", "101255.510000", "101255.970000", "101256.430000", "101256.890000", "101257.350000", "101257.810000", "101258.270000", "101258.730000", "101259.190000", "101259.650000", "101300.110000", "101300.570000", "101301.030000", "101301.490000", "101301.950000", "101302.410000", "101302.870000", "101303.330000", "101303.790000", "101304.250000", "101304.710000", "101305.170000", "101305.630000", "101306.090000", "101306.550000", "101307.010000", "101307.470000", "101307.930000", "101308.390000", "101308.850000", "101309.310000", "101309.770000", "101310.230000", "101310.690000", "101311.150000", "101311.610000", "101312.070000", "101312.530000", "101312.990000", "101313.450000", "101313.910000", "101314.370000", "101314.830000", "101315.290000", "101315.750000", "101316.210000", "101316.670000", "101317.130000", "101317.590000", "101318.050000", "101318.510000", "101318.970000", "101319.430000", "101319.890000", "101320.350000", "101320.810000", "101321.270000", "101321.730000", "101322.190000", "101322.650000", "101323.110000", "101323.570000", "101324.030000", "101324.490000", "101324.950000", "101325.410000", "101325.870000", "101326.330000", "101326.790000", "101327.250000", "101327.710000", "101328.170000", "101328.630000", "101329.090000", "101329.550000", "101330.010000", "101330.470000", "101330.930000", "101331.390000", "101331.850000", "101332.310000", "101332.770000", "101333.230000", "101333.690000", "101334.150000", "101334.610000", "101335.070000", "101335.530000", "101335.990000", "101336.450000", "101336.910000", "101337.370000", "101337.830000", "101338.290000", "101338.750000", "101339.210000", "101339.670000", "101340.130000", "101340.590000", "101341.050000", "101341.510000", "101341.970000", "101342.430000", "101342.890000", "101343.350000", "101343.810000", "101344.270000", "101344.730000", "101345.190000", "101345.650000", "101346.110000", "101346.570000", "101347.030000", "101347.490000", "101347.950000", "101348.410000", "101348.870000", "101349.330000", "101349.790000", "101350.250000", "101350.710000", "101351.170000", "101351.630000", "101352.090000", "101352.550000", "101353.010000", "101353.470000", "101353.930000", "101354.390000", "101354.850000", "101355.310000", "101355.770000", "101356.230000", "101356.690000", "101357.150000", "101357.610000", "101358.070000", "101358.530000", "101358.990000", "101359.450000", "101359.910000", "101400.370000", "101400.830000", "101401.290000", "101401.750000", "101402.210000", "101402.670000", "101403.130000", "101403.590000", "101404.050000", "101404.510000", "101404.970000", "101405.430000", "101405.890000", "101406.350000", "101406.810000", "101407.270000", "101407.730000", "101408.190000", "101408.650000", "101409.110000", "101409.570000", "101410.030000", "101410.490000", "101410.950000", "101411.410000", "101411.870000", "101412.330000", "101412.790000", "101413.250000", "101413.710000", "101414.170000", "101414.630000", "101415.090000", "101415.550000", "101416.010000", "101416.470000", "101416.930000", "101417.390000", "101417.850000", "101418.310000", "101418.770000", "101419.230000", "101419.690000", "101420.150000", "101420.610000", "101421.070000", "101421.530000", "101421.990000", "101422.450000", "101422.910000", "101423.370000", "101423.830000", "101424.290000", "101424.750000", "101425.210000", "101425.670000", "101426.130000", "101426.590000", "101427.050000", "101427.510000", "101427.970000", "101428.430000", "101428.890000", "101429.350000", "101429.810000", "101430.270000", "101430.730000", "101431.190000", "101431.650000", "101432.110000", "101432.570000", "101433.030000", "101433.490000", "101433.950000", "101434.410000", "101434.870000", "101435.330000", "101435.790000", "101436.250000", "101436.710000", "101437.170000", "101437.630000", "101438.090000", "101438.550000", "101439.010000", "101439.470000", "101439.930000", "101440.390000", "101440.850000", "101441.310000", "101441.770000", "101442.230000", "101442.690000", "101443.150000", "101443.610000", "101444.070000", "101444.530000", "101444.990000", "101445.450000", "101445.910000", "101446.370000", "101446.830000", "101447.290000", "101447.750000", "101448.210000", "101448.670000", "101449.130000", "101449.590000", "101450.050000", "101450.510000", "101450.970000", "101451.430000", "101451.890000", "101452.350000", "101452.810000", "101453.270000", "101453.730000", "101454.190000", "101454.650000", "101455.110000", "101455.570000", "101456.030000", "101456.490000", "101456.950000", "101457.410000", "101457.870000", "101458.330000", "101458.790000", "101459.250000", "101459.710000", "101500.170000", "101500.630000", "101501.090000", "101501.550000", "101502.010000", "101502.470000", "101502.930000", "101503.390000", "101503.850000", "101504.310000", "101504.770000", "101505.230000", "101505.690000", "101506.150000", "101506.610000", "101507.070000", "101507.530000", "101507.990000", "101508.450000", "101508.910000", "101509.370000", "101509.830000", "101510.290000", "101510.750000", "101511.210000", "101511.670000", "101512.130000", "101512.590000", "101513.050000", "101513.510000", "101513.970000", "101514.430000", "101514.890000", "101515.350000", "101515.810000", "101516.270000", "101516.730000", "101517.190000", "101517.650000", "101518.110000", "101518.570000", "101519.030000", "101519.490000", "101519.950000", "101520.410000", "101520.870000", "101521.330000", "101521.790000", "101522.250000", "101522.710000", "101523.170000", "101523.630000", "101524.090000", "101524.550000", "101525.010000", "101525.470000", "101525.930000", "101526.390000", "101526.850000", "101527.310000", "101527.770000", "101528.230000", "101528.690000", "101529.150000", "101529.610000", "101530.070000", "101530.530000", "101530.990000", "101531.450000", "101531.910000", "101532.370000", "101532.830000", "101533.290000", "101533.750000", "101534.210000", "101534.670000", "101535.130000", "101535.590000", "101536.050000", "101536.510000", "101536.970000", "101537.430000", "101537.890000", "101538.350000", "101538.810000", "101539.270000", "101539.730000", "101540.190000", "101540.650000", "101541.110000", "101541.570000", "101542.030000", "101542.490000", "101542.950000", "101543.410000", "101543.870000", "101544.330000", "101544.790000", "101545.250000", "101545.710000", "101546.170000", "101546.630000", "101547.090000", "101547.550000", "101548.010000", "101548.470000", "101548.930000", "101549.390000", "101549.850000", "101550.310000", "101550.770000", "101551.230000", "101551.690000", "101552.150000", "101552.610000", "101553.070000", "101553.530000", "101553.990000", "101554.450000", "101554.910000", "101555.370000", "101555.830000", "101556.290000", "101556.750000", "101557.210000", "101557.670000", "101558.130000", "101558.590000", "101559.050000", "101559.510000", "101559.970000", "101600.430000", "101600.890000", "101601.350000", "101601.810000", "101602.270000", "101602.730000", "101603.190000", "101603.650000", "101604.110000", "101604.570000", "101605.030000", "101605.490000", "101605.950000", "101606.410000", "101606.870000", "101607.330000", "101607.790000", "101608.250000", "101608.710000", "101609.170000", "101609.630000", "101610.090000", "101610.550000", "101611.010000", "101611.470000", "101611.930000", "101612.390000", "101612.850000", "101613.310000", "101613.770000", "101614.230000", "101614.690000", "101615.150000", "101615.610000", "101616.070000", "101616.530000", "101616.990000", "101617.450000", "101617.910000", "101618.370000", "101618.830000", "101619.290000", "101619.750000", "101620.210000", "101620.670000", "101621.130000", "101621.590000", "101622.050000", "101622.510000", "101622.970000", "101623.430000", "101623.890000", "101624.350000", "101624.810000", "101625.270000", "101625.730000", "101626.190000", "101626.650000", "101627.110000", "101627.570000", "101628.030000", "101628.490000", "101628.950000", "101629.410000", "101629.870000", "101630.330000", "101630.790000", "101631.250000", "101631.710000", "101632.170000", "101632.630000", "101633.090000", "101633.550000", "101634.010000", "101634.470000", "101634.930000", "101635.390000", "101635.850000", "101636.310000", "101636.770000", "101637.230000", "101637.690000", "101638.150000", "101638.610000", "101639.070000", "101639.530000", "101639.990000", "101640.450000", "101640.910000", "101641.370000", "101641.830000", "101642.290000", "101642.750000", "101643.210000", "101643.670000", "101644.130000", "101644.590000", "101645.050000", "101645.510000", "101645.970000", "101646.430000", "101646.890000", "101647.350000", "101647.810000", "101648.270000", "101648.730000", "101649.190000", "101649.650000", "101650.110000", "101650.570000", "101651.030000", "101651.490000", "101651.950000", "101652.410000", "101652.870000", "101653.330000", "101653.790000", "101654.250000", "101654.710000", "101655.170000", "101655.630000", "101656.090000", "101656.550000", "101657.010000", "101657.470000", "101657.930000", "101658.390000", "101658.850000", "101659.310000", "101659.770000", "101700.230000", "101700.690000", "101701.150000", "101701.610000", "101702.070000", "101702.530000", "101702.990000", "101703.450000", "101703.910000", "101704.370000", "101704.830000", "101705.290000", "101705.750000", "101706.210000", "101706.670000", "101707.130000", "101707.590000", "101708.050000", "101708.510000", "101708.970000", "101709.430000", "101709.890000", "101710.350000", "101710.810000", "101711.270000", "101711.730000", "101712.190000", "101712.650000", "101713.110000", "101713.570000", "101714.030000", "101714.490000", "101714.950000", "101715.410000", "101715.870000", "101716.330000", "101716.790000", "101717.250000", "101717.710000", "101718.170000", "101718.630000", "101719.090000", "101719.550000", "101720.010000", "101720.470000", "101720.930000", "101721.390000", "101721.850000", "101722.310000", "101722.770000", "101723.230000", "101723.690000", "101724.150000", "101724.610000", "101725.070000", "101725.530000", "101725.990000", "101726.450000", "101726.910000", "101727.370000", "101727.830000", "101728.290000", "101728.750000", "101729.210000", "101729.670000", "101730.130000", "101730.590000", "101731.050000", "101731.510000", "101731.970000", "101732.430000", "101732.890000", "101733.350000", "101733.810000", "101734.270000", "101734.730000", "101735.190000", "101735.650000", "101736.110000", "101736.570000", "101737.030000", "101737.490000", "101737.950000", "101738.410000", "101738.870000", "101739.330000", "101739.790000", "101740.250000", "101740.710000", "101741.170000", "101741.630000", "101742.090000", "101742.550000", "101743.010000", "101743.470000", "101743.930000", "101744.390000", "101744.850000", "101745.310000", "101745.770000", "101746.230000", "101746.690000", "101747.150000", "101747.610000", "101748.070000", "101748.530000", "101748.990000", "101749.450000", "101749.910000", "101750.370000", "101750.830000", "101751.290000", "101751.750000", "101752.210000", "101752.670000", "101753.130000", "101753.590000", "101754.050000", "101754.510000", "101754.970000", "101755.430000", "101755.890000", "101756.350000", "101756.810000", "101757.270000", "101757.730000", "101758.190000", "101758.650000", "101759.110000", "101759.570000", "101800.030000", "101800.490000", "101800.950000", "101801.410000", "101801.870000", "101802.330000", "101802.790000", "101803.250000", "101803.710000", "101804.170000", "101804.630000", "101805.090000", "101805.550000", "101806.010000", "101806.470000", "101806.930000", "101807.390000", "101807.850000", "101808.310000", "101808.770000", "101809.230000", "101809.690000", "101810.150000", "101810.610000", "101811.070000", "101811.530000", "101811.990000", "101812.450000", "101812.910000", "101813.370000", "101813.830000", "101814.290000", "101814.750000", "101815.210000", "101815.670000", "101816.130000", "101816.590000", "101817.050000", "101817.510000", "101817.970000", "101818.430000", "101818.890000", "101819.350000", "101819.810000", "101820.270000", "101820.730000", "101821.190000", "101821.650000", "101822.110000", "101822.570000", "101823.030000", "101823.490000", "101823.950000", "101824.410000", "101824.870000", "101825.330000", "101825.790000", "101826.250000", "101826.710000", "101827.170000", "101827.630000", "101828.090000", "101828.550000", "101829.010000", "101829.470000", "101829.930000", "101830.390000", "101830.850000", "101831.310000", "101831.770000", "101832.230000", "101832.690000", "101833.150000", "101833.610000", "101834.070000", "101834.530000", "101834.990000", "101835.450000", "101835.910000", "101836.370000", "101836.830000", "101837.290000", "101837.750000", "101838.210000", "101838.670000", "101839.130000", "101839.590000", "101840.050000", "101840.510000", "101840.970000", "101841.430000", "101841.890000", "101842.350000", "101842.810000", "101843.270000", "101843.730000", "101844.190000", "101844.650000", "101845.110000", "101845.570000", "101846.030000", "101846.490000", "101846.950000", "101847.410000", "101847.870000", "101848.330000", "101848.790000", "101849.250000", "101849.710000", "101850.170000", "101850.630000", "101851.090000", "101851.550000", "101852.010000", "101852.470000", "101852.930000", "101853.390000", "101853.850000", "101854.310000", "101854.770000", "101855.230000", "101855.690000", "101856.150000", "101856.610000", "101857.070000", "101857.530000", "101857.990000", "101858.450000", "101858.910000", "101859.370000", "101859.830000", "101900.290000", "101900.750000", "101901.210000", "101901.670000", "101902.130000", "101902.590000", "101903.050000", "101903.510000", "101903.970000", "101904.430000", "101904.890000", "101905.350000", "101905.810000", "101906.270000", "101906.730000", "101907.190000", "101907.650000", "101908.110000", "101908.570000", "101909.030000", "101909.490000", "101909.950000", "101910.410000", "101910.870000", "101911.330000", "101911.790000", "101912.250000", "101912.710000", "101913.170000", "101913.630000", "101914.090000", "101914.550000", "101915.010000", "101915.470000", "101915.930000", "101916.390000", "101916.850000", "101917.310000", "101917.770000", "101918.230000", "101918.690000", "101919.150000", "101919.610000", "101920.070000", "101920.530000", "101920.990000", "101921.450000", "101921.910000", "101922.370000", "101922.830000", "101923.290000", "101923.750000", "101924.210000", "101924.670000", "101925.130000", "101925.590000", "101926.050000", "101926.510000", "101926.970000", "101927.430000", "101927.890000", "101928.350000", "101928.810000", "101929.270000", "101929.730000", "101930.190000", "101930.650000", "101931.110000", "101931.570000", "101932.030000", "101932.490000", "101932.950000", "101933.410000", "101933.870000", "101934.330000", "101934.790000", "101935.250000", "101935.710000", "101936.170000", "101936.630000", "101937.090000", "101937.550000", "101938.010000", "101938.470000", "101938.930000", "101939.390000", "101939.850000", "101940.310000", "101940.770000", "101941.230000", "101941.690000", "101942.150000", "101942.610000", "101943.070000", "101943.530000", "101943.990000", "101944.450000", "101944.910000", "101945.370000", "101945.830000", "101946.290000", "101946.750000", "101947.210000", "101947.670000", "101948.130000", "101948.590000", "101949.050000", "101949.510000", "101949.970000", "101950.430000", "101950.890000", "101951.350000", "101951.810000", "101952.270000", "101952.730000", "101953.190000", "101953.650000"],
