{
  "AcquisitionMatrixPE": 82,
  "AcquisitionNumber": 1,
  "AcquisitionTime": "09:20:32.450000",
  "BandwidthPerPixelPhaseEncode": 24.888,
  "BaseResolution": 82,
  "BodyPartExamined": "BRAIN",
  "ConsistencyInfo": "N4_VE11E_LATEST_20181129",
  "ConversionSoftware": "dcm2niix",
  "ConversionSoftwareVersion": "v1.0.20201102",
  "DerivedVendorReportedEchoSpacing": 0.00049,
  "DeviceSerialNumber": "66112",
  "DwellTime": 2e-06,
  "EchoTime": 0.0272,
  "EchoTrainLength": 82,
  "EffectiveEchoSpacing": 0.00049,
  "FlipAngle": 44,
  "ImageComments": "Unaliased MB8/PE3",
  "ImageOrientationPatientDICOM": [0.999968, -0.00474902, 0.00649547, 0.00593397, 0.980447, -0.196692],
  "ImageType": [
    "ORIGINAL",
    "PRIMARY",
    "M",
    "MB",
    "ND",
    "NORM",
    "MOSAIC"
],
  "ImagingFrequency": 123.259,
  "InPlanePhaseEncodingDirectionDICOM": "COL",
  "InstitutionAddress": "Maynard 3,Hanover,NH,US,03755",
  "InstitutionName": "Dartmouth College - PBS",
  "InstitutionalDepartmentName": "Department",
  "MRAcquisitionType": "2D",
  "MagneticFieldStrength": 3,
  "Manufacturer": "Siemens",
  "ManufacturersModelName": "Prisma",
  "Modality": "MR",
  "MultibandAccelerationFactor": 8,
  "PartialFourier": 1,
  "PatientPosition": "HFS",
  "PercentPhaseFOV": 100,
  "PercentSampling": 100,
  "PhaseEncodingDirection": "j-",
  "PhaseEncodingSteps": 82,
  "PhaseResolution": 1,
  "PixelBandwidth": 3050,
  "ProcedureStepDescription": "Wager_Wager^1076_spacetop",
  "ProtocolName": "func_run-03_task-social_acq-ap-mb8",
  "PulseSequenceDetails": "%CustomerSeq%\\cmrr_mbep2d_bold",
  "ReceiveCoilActiveElements": "HEA;HEP",
  "ReceiveCoilName": "Head_32",
  "ReconMatrixPE": 82,
  "RepetitionTime": 0.46,
  "SAR": 0.0734857,
  "ScanOptions": "FS",
  "ScanningSequence": "EP",
  "SequenceName": "epfid2d1_82",
  "SequenceVariant": "SK\\SS",
  "SeriesDescription": "func_run-03_task-social_acq-ap-mb8",
  "SeriesNumber": 16,
  "ShimSetting": [4240, -7732, -7340, 176, -115, 64, -97, 100],
  "SliceThickness": 2.7,
  "SliceTiming": [0, 0.25, 0.0625, 0.3125, 0.125, 0.3775, 0.1875, 0, 0.25, 0.0625, 0.3125, 0.125, 0.3775, 0.1875, 0, 0.25, 0.0625, 0.3125, 0.125, 0.3775, 0.1875, 0, 0.25, 0.0625, 0.3125, 0.125, 0.3775, 0.1875, 0, 0.25, 0.0625, 0.3125, 0.125, 0.3775, 0.1875, 0, 0.25, 0.0625, 0.3125, 0.125, 0.3775, 0.1875, 0, 0.25, 0.0625, 0.3125, 0.125, 0.3775, 0.1875, 0, 0.25, 0.0625, 0.3125, 0.125, 0.3775, 0.1875],
  "SoftwareVersions": "syngo MR E11",
  "SpacingBetweenSlices": 2.7,
  "StationName": "AWP66112",
  "TaskName": "social",
  "TotalReadoutTime": 0.03969,
  "TxRefAmp": 228.75,
  "WipMemBlock": "96065acc-0269-4d4f-a62e-d5ddaebd025d||Sequence: R016 ve11e/master r/434b28f1; Aug  7 2019 18:53:46 by eja",
  "dcmmeta_affine": [
    [-2.68284010887146, 0.015920398756861687, 0.01467281486839056, 110.75039672851562],
    [0.012741283513605595, 2.6304686069488525, -0.5311548113822937, -93.39981842041016],
    [0.017426880076527596, 0.5277098417282104, 2.647198438644409, -121.54998779296875],
    [0.0, 0.0, 0.0, 1.0]
],
  "dcmmeta_reorient_transform": [
    [0.0, -1.0, 0.0, 81.0],
    [1.0, 0.0, 0.0, 0.0],
    [0.0, 0.0, 1.0, 0.0],
    [0.0, 0.0, 0.0, 1.0]
],
  "dcmmeta_shape": [82, 82, 56, 872],
  "dcmmeta_slice_dim": 2,
  "dcmmeta_version": 0.6,
  "global": {
    "const": {
      "AccessionNumber": "A004707",
      "AcquisitionMatrix": [82, 0, 0, 82],
      "AngioFlag": "N",
      "BitsAllocated": 16,
      "BitsStored": 16,
      "BodyPartExamined": "BRAIN",
      "Columns": 656,
      "EchoNumbers": 1,
      "EchoTime": 27.2,
      "EchoTrainLength": 82,
      "FlipAngle": 44.0,
      "HighBit": 15,
      "ImageOrientationPatient": [0.99996762727556, -0.0047490236216, 0.00649547346393, 0.00593396659884, 0.9804474019796, -0.1966918401761],
      "ImagePositionPatient": [-886.58419534155, -870.95591632487, 67.645717768958],
      "ImageType": [
        "ORIGINAL",
        "PRIMARY",
        "M",
        "MB",
        "ND",
        "NORM",
        "MOSAIC"
],
      "ImagedNucleus": "1H",
      "ImagingFrequency": 123.259151,
      "InPlanePhaseEncodingDirection": "COL",
      "MRAcquisitionType": "2D",
      "MagneticFieldStrength": 3.0,
      "Manufacturer": "SIEMENS",
      "ManufacturerModelName": "Prisma",
      "Modality": "MR",
      "NumberOfAverages": 1.0,
      "NumberOfPhaseEncodingSteps": 82,
      "PercentPhaseFieldOfView": 100.0,
      "PercentSampling": 100.0,
      "PerformedProcedureStepStartTime": "084346.241000",
      "PhotometricInterpretation": "MONOCHROME2",
      "PixelBandwidth": 3050.0,
      "PixelRepresentation": 0,
      "PixelSpacing": [2.6829268932343, 2.6829268932343],
      "ProtocolName": "func_run-03_task-social_acq-ap-mb8",
      "RepetitionTime": 460.0,
      "Rows": 656,
      "SAR": 0.07348572709521,
      "SamplesPerPixel": 1,
      "ScanOptions": "FS",
      "ScanningSequence": "EP",
      "SequenceName": "epfid2d1_82",
      "SequenceVariant": [
        "SK",
        "SS"
],
      "SeriesDescription": "func_run-03_task-social_acq-ap-mb8",
      "SeriesNumber": 16,
      "SeriesTime": "092050.797000",
      "SliceLocation": -100.19708693303,
      "SliceThickness": 2.7000000476837,
      "SmallestImagePixelValue": 0,
      "SoftwareVersions": "syngo MR E11",
      "SpacingBetweenSlices": 2.699999975243,
      "SpecificCharacterSet": "ISO_IR 100",
      "StudyID": "1",
      "StudyTime": "084346.047000",
      "TransmitCoilName": "Body",
      "VariableFlipAngleFlag": "N",
      "WindowCenterWidthExplanation": "Algo1"
    },
    "slices": {}
  },
  "time": {
    "samples": {
      "AcquisitionNumber": [1, 2, 3, 4, 5, 6, 7, 8, 9, 10, 11, 12, 13, 14, 15, 16, 17, 18, 19, 20, 21, 22, 23, 24, 25, 26, 27, 28, 29, 30, 31, 32, 33, 34, 35, 36, 37, 38, 39, 40, 41, 42, 43, 44, 45, 46, 47, 48, 49, 50, 51, 52, 53, 54, 55, 56, 57, 58, 59, 60, 61, 62, 63, 64, 65, 66, 67, 68, 69, 70, 71, 72, 73, 74, 75, 76, 77, 78, 79, 80, 81, 82, 83, 84, 85, 86, 87, 88, 89, 90, 91, 92, 93, 94, 95, 96, 97, 98, 99, 100, 101, 102, 103, 104, 105, 106, 107, 108, 109, 110, 111, 112, 113, 114, 115, 116, 117, 118, 119, 120, 121, 122, 123, 124, 125, 126, 127, 128, 129, 130, 131, 132, 133, 134, 135, 136, 137, 138, 139, 140, 141, 142, 143, 144, 145, 146, 147, 148, 149, 150, 151, 152, 153, 154, 155, 156, 157, 158, 159, 160, 161, 162, 163, 164, 165, 166, 167, 168, 169, 170, 171, 172, 173, 174, 175, 176, 177, 178, 179, 180, 181, 182, 183, 184, 185, 186, 187, 188, 189, 190, 191, 192, 193, 194, 195, 196, 197, 198, 199, 200, 201, 202, 203, 204, 205, 206, 207, 208, 209, 210, 211, 212, 213, 214, 215, 216, 217, 218, 219, 220, 221, 222, 223, 224, 225, 226, 227, 228, 229, 230, 231, 232, 233, 234, 235, 236, 237, 238, 239, 240, 241, 242, 243, 244, 245, 246, 247, 248, 249, 250, 251, 252, 253, 254, 255, 256, 257, 258, 259, 260, 261, 262, 263, 264, 265, 266, 267, 268, 269, 270, 271, 272, 273, 274, 275, 276, 277, 278, 279, 280, 281, 282, 283, 284, 285, 286, 287, 288, 289, 290, 291, 292, 293, 294, 295, 296, 297, 298, 299, 300, 301, 302, 303, 304, 305, 306, 307, 308, 309, 310, 311, 312, 313, 314, 315, 316, 317, 318, 319, 320, 321, 322, 323, 324, 325, 326, 327, 328, 329, 330, 331, 332, 333, 334, 335, 336, 337, 338, 339, 340, 341, 342, 343, 344, 345, 346, 347, 348, 349, 350, 351, 352, 353, 354, 355, 356, 357, 358, 359, 360, 361, 362, 363, 364, 365, 366, 367, 368, 369, 370, 371, 372, 373, 374, 375, 376, 377, 378, 379, 380, 381, 382, 383, 384, 385, 386, 387, 388, 389, 390, 391, 392, 393, 394, 395, 396, 397, 398, 399, 400, 401, 402, 403, 404, 405, 406, 407, 408, 409, 410, 411, 412, 413, 414, 415, 416, 417, 418, 419, 420, 421, 422, 423, 424, 425, 426, 427, 428, 429, 430, 431, 432, 433, 434, 435, 436, 437, 438, 439, 440, 441, 442, 443, 444, 445, 446, 447, 448, 449, 450, 451, 452, 453, 454, 455, 456, 457, 458, 459, 460, 461, 462, 463, 464, 465, 466, 467, 468, 469, 470, 471, 472, 473, 474, 475, 476, 477, 478, 479, 480, 481, 482, 483, 484, 485, 486, 487, 488, 489, 490, 491, 492, 493, 494, 495, 496, 497, 498, 499, 500, 501, 502, 503, 504, 505, 506, 507, 508, 509, 510, 511, 512, 513, 514, 515, 516, 517, 518, 519, 520, 521, 522, 523, 524, 525, 526, 527, 528, 529, 530, 531, 532, 533, 534, 535, 536, 537, 538, 539, 540, 541, 542, 543, 544, 545, 546, 547, 548, 549, 550, 551, 552, 553, 554, 555, 556, 557, 558, 559, 560, 561, 562, 563, 564, 565, 566, 567, 568, 569, 570, 571, 572, 573, 574, 575, 576, 577, 578, 579, 580, 581, 582, 583, 584, 585, 586, 587, 588, 589, 590, 591, 592, 593, 594, 595, 596, 597, 598, 599, 600, 601, 602, 603, 604, 605, 606, 607, 608, 609, 610, 611, 612, 613, 614, 615, 616, 617, 618, 619, 620, 621, 622, 623, 624, 625, 626, 627, 628, 629, 630, 631, 632, 633, 634, 635, 636, 637, 638, 639, 640, 641, 642, 643, 644, 645, 646, 647, 648, 649, 650, 651, 652, 653, 654, 655, 656, 657, 658, 659, 660, 661, 662, 663, 664, 665, 666, 667, 668, 669, 670, 671, 672, 673, 674, 675, 676, 677, 678, 679, 680, 681, 682, 683, 684, 685, 686, 687, 688, 689, 690, 691, 692, 693, 694, 695, 696, 697, 698, 699, 700, 701, 702, 703, 704, 705, 706, 707, 708, 709, 710, 711, 712, 713, 714, 715, 716, 717, 718, 719, 720, 721, 722, 723, 724, 725, 726, 727, 728, 729, 730, 731, 732, 733, 734, 735, 736, 737, 738, 739, 740, 741, 742, 743, 744, 745, 746, 747, 748, 749, 750, 751, 752, 753, 754, 755, 756, 757, 758, 759, 760, 761, 762, 763, 764, 765, 766, 767, 768, 769, 770, 771, 772, 773, 774, 775, 776, 777, 778, 779, 780, 781, 782, 783, 784, 785, 786, 787, 788, 789, 790, 791, 792, 793, 794, 795, 796, 797, 798, 799, 800, 801, 802, 803, 804, 805, 806, 807, 808, 809, 810, 811, 812, 813, 814, 815, 816, 817, 818, 819, 820, 821, 822, 823, 824, 825, 826, 827, 828, 829, 830, 831, 832, 833, 834, 835, 836, 837, 838, 839, 840, 841, 842, 843, 844, 845, 846, 847, 848, 849, 850, 851, 852, 853, 854, 855, 856, 857, 858, 859, 860, 861, 862, 863, 864, 865, 866, 867, 868, 869, 870, 871, 872],
      "AcquisitionTime": ["092032.450000", "092032.910000", "092033.370000", "092033.830000", "092034.290000", "092034.750000", "092035.210000", "092035.670000", "092036.130000", "092036.590000", "092037.050000", "092037.510000", "092037.970000", "092038.430000", "092038.890000", "092039.350000", "092039.810000", "092040.270000", "092040.730000", "092041.190000", "092041.650000", "092042.110000", "092042.570000", "092043.030000", "092043.490000", "092043.950000", "092044.410000", "092044.870000", "092045.330000", "092045.790000", "092046.250000", "092046.710000", "092047.170000", "092047.630000", "092048.090000", "092048.550000", "092049.010000", "092049.470000", "092049.930000", "092050.390000", "092050.850000", "092051.310000", "092051.770000", "092052.230000", "092052.690000", "092053.150000", "092053.610000", "092054.070000", "092054.530000", "092054.990000", "092055.450000", "092055.910000", "092056.370000", "092056.830000", "092057.290000", "092057.750000", "092058.210000", "092058.670000", "092059.130000", "092059.590000", "092100.050000", "092100.510000", "092100.970000", "092101.430000", "092101.890000", "092102.350000", "092102.810000", "092103.270000", "092103.730000", "092104.190000", "092104.650000", "092105.110000", "092105.570000", "092106.030000", "092106.490000", "092106.950000", "092107.410000", "092107.870000", "092108.330000", "092108.790000", "092109.250000", "092109.710000", "092110.170000", "092110.630000", "092111.090000", "092111.550000", "092112.010000", "092112.470000", "092112.930000", "092113.390000", "092113.850000", "092114.310000", "092114.770000", "092115.230000", "092115.690000", "092116.150000", "092116.610000", "092117.070000", "092117.530000", "092117.990000", "092118.450000", "092118.910000", "092119.370000", "092119.830000", "092120.290000", "092120.750000", "092121.210000", "092121.670000", "092122.130000", "092122.590000", "092123.050000", "092123.510000", "092123.970000", "092124.430000", "092124.890000", "092125.350000", "092125.810000", "092126.270000", "092126.730000", "092127.190000", "092127.650000", "092128.110000", "092128.570000", "092129.030000", "092129.490000", "092129.950000", "092130.410000", "092130.870000", "092131.330000", "092131.790000", "092132.250000", "092132.710000", "092133.170000", "092133.630000", "092134.090000", "092134.550000", "092135.010000", "092135.470000", "092135.930000", "092136.390000", "092136.850000", "092137.310000", "092137.770000", "092138.230000", "092138.690000", "092139.150000", "092139.610000", "092140.070000", "092140.530000", "092140.990000", "092141.450000", "092141.910000", "092142.370000", "092142.830000", "092143.290000", "092143.750000", "092144.210000", "092144.670000", "092145.130000", "092145.590000", "092146.050000", "092146.510000", "092146.970000", "092147.430000", "092147.890000", "092148.350000", "092148.810000", "092149.270000", "092149.730000", "092150.190000", "092150.650000", "092151.110000", "092151.570000", "092152.030000", "092152.490000", "092152.950000", "092153.410000", "092153.870000", "092154.330000", "092154.790000", "092155.250000", "092155.710000", "092156.170000", "092156.630000", "092157.090000", "092157.550000", "092158.010000", "092158.470000", "092158.930000", "092159.390000", "092159.850000", "092200.310000", "092200.770000", "092201.230000", "092201.690000", "092202.150000", "092202.610000", "092203.070000", "092203.530000", "092203.990000", "092204.450000", "092204.910000", "092205.370000", "092205.830000", "092206.290000", "092206.750000", "092207.210000", "092207.670000", "092208.130000", "092208.590000", "092209.050000", "092209.510000", "092209.970000", "092210.430000", "092210.890000", "092211.350000", "092211.810000", "092212.270000", "092212.730000", "092213.190000", "092213.650000", "092214.110000", "092214.570000", "092215.030000", "092215.490000", "092215.950000", "092216.410000", "092216.870000", "092217.330000", "092217.790000", "092218.250000", "092218.710000", "092219.170000", "092219.630000", "092220.090000", "092220.550000", "092221.010000", "092221.470000", "092221.930000", "092222.390000", "092222.850000", "092223.310000", "092223.770000", "092224.230000", "092224.690000", "092225.150000", "092225.610000", "092226.070000", "092226.530000", "092226.990000", "092227.450000", "092227.910000", "092228.370000", "092228.830000", "092229.290000", "092229.750000", "092230.210000", "092230.670000", "092231.130000", "092231.590000", "092232.050000", "092232.510000", "092232.970000", "092233.430000", "092233.890000", "092234.350000", "092234.810000", "092235.270000", "092235.730000", "092236.190000", "092236.650000", "092237.110000", "092237.570000", "092238.030000", "092238.490000", "092238.950000", "092239.410000", "092239.870000", "092240.330000", "092240.790000", "092241.250000", "092241.710000", "092242.170000", "092242.630000", "092243.090000", "092243.550000", "092244.010000", "092244.470000", "092244.930000", "092245.390000", "092245.850000", "092246.310000", "092246.770000", "092247.230000", "092247.690000", "092248.150000", "092248.610000", "092249.070000", "092249.530000", "092249.990000", "092250.450000", "092250.910000", "092251.370000", "092251.830000", "092252.290000", "092252.750000", "092253.210000", "092253.670000", "092254.130000", "092254.590000", "092255.050000", "092255.510000", "092255.970000", "092256.430000", "092256.890000", "092257.350000", "092257.810000", "092258.270000", "092258.730000", "092259.190000", "092259.650000", "092300.110000", "092300.570000", "092301.030000", "092301.490000", "092301.950000", "092302.410000", "092302.870000", "092303.330000", "092303.790000", "092304.250000", "092304.710000", "092305.170000", "092305.630000", "092306.090000", "092306.550000", "092307.010000", "092307.470000", "092307.930000", "092308.390000", "092308.850000", "092309.310000", "092309.770000", "092310.230000", "092310.690000", "092311.150000", "092311.610000", "092312.070000", "092312.530000", "092312.990000", "092313.450000", "092313.910000", "092314.370000", "092314.830000", "092315.290000", "092315.750000", "092316.210000", "092316.670000", "092317.130000", "092317.590000", "092318.050000", "092318.510000", "092318.970000", "092319.430000", "092319.890000", "092320.350000", "092320.810000", "092321.270000", "092321.730000", "092322.190000", "092322.650000", "092323.110000", "092323.570000", "092324.030000", "092324.490000", "092324.950000", "092325.410000", "092325.870000", "092326.330000", "092326.790000", "092327.250000", "092327.710000", "092328.170000", "092328.630000", "092329.090000", "092329.550000", "092330.010000", "092330.470000", "092330.930000", "092331.390000", "092331.850000", "092332.310000", "092332.770000", "092333.230000", "092333.690000", "092334.150000", "092334.610000", "092335.070000", "092335.530000", "092335.990000", "092336.450000", "092336.910000", "092337.370000", "092337.830000", "092338.290000", "092338.750000", "092339.210000", "092339.670000", "092340.130000", "092340.590000", "092341.050000", "092341.510000", "092341.970000", "092342.430000", "092342.890000", "092343.350000", "092343.810000", "092344.270000", "092344.730000", "092345.190000", "092345.650000", "092346.110000", "092346.570000", "092347.030000", "092347.490000", "092347.950000", "092348.410000", "092348.870000", "092349.330000", "092349.790000", "092350.250000", "092350.710000", "092351.170000", "092351.630000", "092352.090000", "092352.550000", "092353.010000", "092353.470000", "092353.930000", "092354.390000", "092354.850000", "092355.310000", "092355.770000", "092356.230000", "092356.690000", "092357.150000", "092357.610000", "092358.070000", "092358.530000", "092358.990000", "092359.450000", "092359.910000", "092400.370000", "092400.830000", "092401.290000", "092401.750000", "092402.210000", "092402.670000", "092403.130000", "092403.590000", "092404.050000", "092404.510000", "092404.970000", "092405.430000", "092405.890000", "092406.350000", "092406.810000", "092407.270000", "092407.730000", "092408.190000", "092408.650000", "092409.110000", "092409.570000", "092410.030000", "092410.490000", "092410.950000", "092411.410000", "092411.870000", "092412.330000", "092412.790000", "092413.250000", "092413.710000", "092414.170000", "092414.630000", "092415.090000", "092415.550000", "092416.010000", "092416.470000", "092416.930000", "092417.390000", "092417.850000", "092418.310000", "092418.770000", "092419.230000", "092419.690000", "092420.150000", "092420.610000", "092421.070000", "092421.530000", "092421.990000", "092422.450000", "092422.910000", "092423.370000", "092423.830000", "092424.290000", "092424.750000", "092425.210000", "092425.670000", "092426.130000", "092426.590000", "092427.050000", "092427.510000", "092427.970000", "092428.430000", "092428.890000", "092429.350000", "092429.810000", "092430.270000", "092430.730000", "092431.190000", "092431.650000", "092432.110000", "092432.570000", "092433.030000", "092433.490000", "092433.950000", "092434.410000", "092434.870000", "092435.330000", "092435.790000", "092436.250000", "092436.710000", "092437.170000", "092437.630000", "092438.090000", "092438.550000", "092439.010000", "092439.470000", "092439.930000", "092440.390000", "092440.850000", "092441.310000", "092441.770000", "092442.230000", "092442.690000", "092443.150000", "092443.610000", "092444.070000", "092444.530000", "092444.990000", "092445.450000", "092445.910000", "092446.370000", "092446.830000", "092447.290000", "092447.750000", "092448.210000", "092448.670000", "092449.130000", "092449.590000", "092450.050000", "092450.510000", "092450.970000", "092451.430000", "092451.890000", "092452.350000", "092452.810000", "092453.270000", "092453.730000", "092454.190000", "092454.650000", "092455.110000", "092455.570000", "092456.030000", "092456.490000", "092456.950000", "092457.410000", "092457.870000", "092458.330000", "092458.790000", "092459.250000", "092459.710000", "092500.170000", "092500.630000", "092501.090000", "092501.550000", "092502.010000", "092502.470000", "092502.930000", "092503.390000", "092503.850000", "092504.310000", "092504.770000", "092505.230000", "092505.690000", "092506.150000", "092506.610000", "092507.070000", "092507.530000", "092507.990000", "092508.450000", "092508.910000", "092509.370000", "092509.830000", "092510.290000", "092510.750000", "092511.210000", "092511.670000", "092512.130000", "092512.590000", "092513.050000", "092513.510000", "092513.970000", "092514.430000", "092514.890000", "092515.350000", "092515.810000", "092516.270000", "092516.730000", "092517.190000", "092517.650000", "092518.110000", "092518.570000", "092519.030000", "092519.490000", "092519.950000", "092520.410000", "092520.870000", "092521.330000", "092521.790000", "092522.250000", "092522.710000", "092523.170000", "092523.630000", "092524.090000", "092524.550000", "092525.010000", "092525.470000", "092525.930000", "092526.390000", "092526.850000", "092527.310000", "092527.770000", "092528.230000", "092528.690000", "092529.150000", "092529.610000", "092530.070000", "092530.530000", "092530.990000", "092531.450000", "092531.910000", "092532.370000", "092532.830000", "092533.290000", "092533.750000", "092534.210000", "092534.670000", "092535.130000", "092535.590000", "092536.050000", "092536.510000", "092536.970000", "092537.430000", "092537.890000", "092538.350000", "092538.810000", "092539.270000", "092539.730000", "092540.190000", "092540.650000", "092541.110000", "092541.570000", "092542.030000", "092542.490000", "092542.950000", "092543.410000", "092543.870000", "092544.330000", "092544.790000", "092545.250000", "092545.710000", "092546.170000", "092546.630000", "092547.090000", "092547.550000", "092548.010000", "092548.470000", "092548.930000", "092549.390000", "092549.850000", "092550.310000", "092550.770000", "092551.230000", "092551.690000", "092552.150000", "092552.610000", "092553.070000", "092553.530000", "092553.990000", "092554.450000", "092554.910000", "092555.370000", "092555.830000", "092556.290000", "092556.750000", "092557.210000", "092557.670000", "092558.130000", "092558.590000", "092559.050000", "092559.510000", "092559.970000", "092600.430000", "092600.890000", "092601.350000", "092601.810000", "092602.270000", "092602.730000", "092603.190000", "092603.650000", "092604.110000", "092604.570000", "092605.030000", "092605.490000", "092605.950000", "092606.410000", "092606.870000", "092607.330000", "092607.790000", "092608.250000", "092608.710000", "092609.170000", "092609.630000", "092610.090000", "092610.550000", "092611.010000", "092611.470000", "092611.930000", "092612.390000", "092612.850000", "092613.310000", "092613.770000", "092614.230000", "092614.690000", "092615.150000", "092615.610000", "092616.070000", "092616.530000", "092616.990000", "092617.450000", "092617.910000", "092618.370000", "092618.830000", "092619.290000", "092619.750000", "092620.210000", "092620.670000", "092621.130000", "092621.590000", "092622.050000", "092622.510000", "092622.970000", "092623.430000", "092623.890000", "092624.350000", "092624.810000", "092625.270000", "092625.730000", "092626.190000", "092626.650000", "092627.110000", "092627.570000", "092628.030000", "092628.490000", "092628.950000", "092629.410000", "092629.870000", "092630.330000", "092630.790000", "092631.250000", "092631.710000", "092632.170000", "092632.630000", "092633.090000", "092633.550000", "092634.010000", "092634.470000", "092634.930000", "092635.390000", "092635.850000", "092636.310000", "092636.770000", "092637.230000", "092637.690000", "092638.150000", "092638.610000", "092639.070000", "092639.530000", "092639.990000", "092640.450000", "092640.910000", "092641.370000", "092641.830000", "092642.290000", "092642.750000", "092643.210000", "092643.670000", "092644.130000", "092644.590000", "092645.050000", "092645.510000", "092645.970000", "092646.430000", "092646.890000", "092647.350000", "092647.810000", "092648.270000", "092648.730000", "092649.190000", "092649.650000", "092650.110000", "092650.570000", "092651.030000", "092651.490000", "092651.950000", "092652.410000", "092652.870000", "092653.330000", "092653.790000", "092654.250000", "092654.710000", "092655.170000", "092655.630000", "092656.090000", "092656.550000", "092657.010000", "092657.470000", "092657.930000", "092658.390000", "092658.850000", "092659.310000", "092659.770000", "092700.230000", "092700.690000", "092701.150000", "092701.610000", "092702.070000", "092702.530000", "092702.990000", "092703.450000", "092703.910000", "092704.370000", "092704.830000", "092705.290000", "092705.750000", "092706.210000", "092706.670000", "092707.130000", "092707.590000", "092708.050000", "092708.510000", "092708.970000", "092709.430000", "092709.890000", "092710.350000", "092710.810000", "092711.270000", "092711.730000", "092712.190000", "092712.650000", "092713.110000"],
