{
  "AcquisitionMatrixPE": 82,
  "AcquisitionNumber": 1,
  "AcquisitionTime": "09:42:39.782500",
  "BandwidthPerPixelPhaseEncode": 24.888,
  "BaseResolution": 82,
  "BodyPartExamined": "BRAIN",
  "ConsistencyInfo": "N4_VE11E_LATEST_20181129",
  "ConversionSoftware": "dcm2niix",
  "ConversionSoftwareVersion": "v1.0.20201102",
  "DerivedVendorReportedEchoSpacing": 0.00049,
  "DeviceSerialNumber": "66112",
  "DwellTime": 2e-06,
  "EchoTime": 0.0272,
  "EchoTrainLength": 82,
  "EffectiveEchoSpacing": 0.00049,
  "FlipAngle": 44,
  "ImageComments": "Unaliased MB8/PE3",
  "ImageOrientationPatientDICOM": [0.999968, -0.00474902, 0.00649547, 0.00593397, 0.980447, -0.196692],
  "ImageType": [
    "ORIGINAL",
    "PRIMARY",
    "M",
    "MB",
    "ND",
    "NORM",
    "MOSAIC"
],
  "ImagingFrequency": 123.259,
  "InPlanePhaseEncodingDirectionDICOM": "COL",
  "InstitutionAddress": "Maynard 3,Hanover,NH,US,03755",
  "InstitutionName": "Dartmouth College - PBS",
  "InstitutionalDepartmentName": "Department",
  "MRAcquisitionType": "2D",
  "MagneticFieldStrength": 3,
  "Manufacturer": "Siemens",
  "ManufacturersModelName": "Prisma",
  "Modality": "MR",
  "MultibandAccelerationFactor": 8,
  "PartialFourier": 1,
  "PatientPosition": "HFS",
  "PercentPhaseFOV": 100,
  "PercentSampling": 100,
  "PhaseEncodingDirection": "j-",
  "PhaseEncodingSteps": 82,
  "PhaseResolution": 1,
  "PixelBandwidth": 3050,
  "ProcedureStepDescription": "Wager_Wager^1076_spacetop",
  "ProtocolName": "func_run-06_task-social_acq-ap-mb8",
  "PulseSequenceDetails": "%CustomerSeq%\\cmrr_mbep2d_bold",
  "ReceiveCoilActiveElements": "HEA;HEP",
  "ReceiveCoilName": "Head_32",
  "ReconMatrixPE": 82,
  "RepetitionTime": 0.46,
  "SAR": 0.0734857,
  "ScanOptions": "FS",
  "ScanningSequence": "EP",
  "SequenceName": "epfid2d1_82",
  "SequenceVariant": "SK\\SS",
  "SeriesDescription": "func_run-06_task-social_acq-ap-mb8",
  "SeriesNumber": 22,
  "ShimSetting": [4240, -7732, -7340, 176, -115, 64, -97, 100],
  "SliceThickness": 2.7,
  "SliceTiming": [0, 0.2525, 0.0625, 0.315, 0.1275, 0.3775, 0.19, 0, 0.2525, 0.0625, 0.315, 0.1275, 0.3775, 0.19, 0, 0.2525, 0.0625, 0.315, 0.1275, 0.3775, 0.19, 0, 0.2525, 0.0625, 0.315, 0.1275, 0.3775, 0.19, 0, 0.2525, 0.0625, 0.315, 0.1275, 0.3775, 0.19, 0, 0.2525, 0.0625, 0.315, 0.1275, 0.3775, 0.19, 0, 0.2525, 0.0625, 0.315, 0.1275, 0.3775, 0.19, 0, 0.2525, 0.0625, 0.315, 0.1275, 0.3775, 0.19],
  "SoftwareVersions": "syngo MR E11",
  "SpacingBetweenSlices": 2.7,
  "StationName": "AWP66112",
  "TaskName": "social",
  "TotalReadoutTime": 0.03969,
  "TxRefAmp": 228.75,
  "WipMemBlock": "b98d556a-aea4-4fcc-8262-05b7ac5d49b2||Sequence: R016 ve11e/master r/434b28f1; Aug  7 2019 18:53:46 by eja",
  "dcmmeta_affine": [
    [-2.68284010887146, 0.015920398756861687, 0.01467281486839056, 110.75039672851562],
    [0.012741283513605595, 2.6304686069488525, -0.5311548113822937, -93.39981842041016],
    [0.017426880076527596, 0.5277098417282104, 2.647198438644409, -121.54998779296875],
    [0.0, 0.0, 0.0, 1.0]
],
  "dcmmeta_reorient_transform": [
    [0.0, -1.0, 0.0, 81.0],
    [1.0, 0.0, 0.0, 0.0],
    [0.0, 0.0, 1.0, 0.0],
    [0.0, 0.0, 0.0, 1.0]
],
  "dcmmeta_shape": [82, 82, 56, 872],
  "dcmmeta_slice_dim": 2,
  "dcmmeta_version": 0.6,
  "global": {
    "const": {
      "AccessionNumber": "A004707",
      "AcquisitionMatrix": [82, 0, 0, 82],
      "AngioFlag": "N",
      "BitsAllocated": 16,
      "BitsStored": 16,
      "BodyPartExamined": "BRAIN",
      "Columns": 656,
      "EchoNumbers": 1,
      "EchoTime": 27.2,
      "EchoTrainLength": 82,
      "FlipAngle": 44.0,
      "HighBit": 15,
      "ImageOrientationPatient": [0.99996762727556, -0.0047490236216, 0.00649547346393, 0.00593396659884, 0.9804474019796, -0.1966918401761],
      "ImagePositionPatient": [-886.58419534155, -870.95591632487, 67.645717768958],
      "ImageType": [
        "ORIGINAL",
        "PRIMARY",
        "M",
        "MB",
        "ND",
        "NORM",
        "MOSAIC"
],
      "ImagedNucleus": "1H",
      "ImagingFrequency": 123.259151,
      "InPlanePhaseEncodingDirection": "COL",
      "MRAcquisitionType": "2D",
      "MagneticFieldStrength": 3.0,
      "Manufacturer": "SIEMENS",
      "ManufacturerModelName": "Prisma",
      "Modality": "MR",
      "NumberOfAverages": 1.0,
      "NumberOfPhaseEncodingSteps": 82,
      "PercentPhaseFieldOfView": 100.0,
      "PercentSampling": 100.0,
      "PerformedProcedureStepStartTime": "084346.241000",
      "PhotometricInterpretation": "MONOCHROME2",
      "PixelBandwidth": 3050.0,
      "PixelRepresentation": 0,
      "PixelSpacing": [2.6829268932343, 2.6829268932343],
      "ProtocolName": "func_run-06_task-social_acq-ap-mb8",
      "RepetitionTime": 460.0,
      "Rows": 656,
      "SAR": 0.07348572709521,
      "SamplesPerPixel": 1,
      "ScanOptions": "FS",
      "ScanningSequence": "EP",
      "SequenceName": "epfid2d1_82",
      "SequenceVariant": [
        "SK",
        "SS"
],
      "SeriesDescription": "func_run-06_task-social_acq-ap-mb8",
      "SeriesNumber": 22,
      "SeriesTime": "094250.805000",
      "SliceLocation": -100.19708693303,
      "SliceThickness": 2.7000000476837,
      "SmallestImagePixelValue": 0,
      "SoftwareVersions": "syngo MR E11",
      "SpacingBetweenSlices": 2.699999975243,
      "SpecificCharacterSet": "ISO_IR 100",
      "StudyID": "1",
      "StudyTime": "084346.047000",
      "TransmitCoilName": "Body",
      "VariableFlipAngleFlag": "N",
      "WindowCenterWidthExplanation": "Algo1"
    },
    "slices": {}
  },
  "time": {
    "samples": {
      "AcquisitionNumber": [1, 2, 3, 4, 5, 6, 7, 8, 9, 10, 11, 12, 13, 14, 15, 16, 17, 18, 19, 20, 21, 22, 23, 24, 25, 26, 27, 28, 29, 30, 31, 32, 33, 34, 35, 36, 37, 38, 39, 40, 41, 42, 43, 44, 45, 46, 47, 48, 49, 50, 51, 52, 53, 54, 55, 56, 57, 58, 59, 60, 61, 62, 63, 64, 65, 66, 67, 68, 69, 70, 71, 72, 73, 74, 75, 76, 77, 78, 79, 80, 81, 82, 83, 84, 85, 86, 87, 88, 89, 90, 91, 92, 93, 94, 95, 96, 97, 98, 99, 100, 101, 102, 103, 104, 105, 106, 107, 108, 109, 110, 111, 112, 113, 114, 115, 116, 117, 118, 119, 120, 121, 122, 123, 124, 125, 126, 127, 128, 129, 130, 131, 132, 133, 134, 135, 136, 137, 138, 139, 140, 141, 142, 143, 144, 145, 146, 147, 148, 149, 150, 151, 152, 153, 154, 155, 156, 157, 158, 159, 160, 161, 162, 163, 164, 165, 166, 167, 168, 169, 170, 171, 172, 173, 174, 175, 176, 177, 178, 179, 180, 181, 182, 183, 184, 185, 186, 187, 188, 189, 190, 191, 192, 193, 194, 195, 196, 197, 198, 199, 200, 201, 202, 203, 204, 205, 206, 207, 208, 209, 210, 211, 212, 213, 214, 215, 216, 217, 218, 219, 220, 221, 222, 223, 224, 225, 226, 227, 228, 229, 230, 231, 232, 233, 234, 235, 236, 237, 238, 239, 240, 241, 242, 243, 244, 245, 246, 247, 248, 249, 250, 251, 252, 253, 254, 255, 256, 257, 258, 259, 260, 261, 262, 263, 264, 265, 266, 267, 268, 269, 270, 271, 272, 273, 274, 275, 276, 277, 278, 279, 280, 281, 282, 283, 284, 285, 286, 287, 288, 289, 290, 291, 292, 293, 294, 295, 296, 297, 298, 299, 300, 301, 302, 303, 304, 305, 306, 307, 308, 309, 310, 311, 312, 313, 314, 315, 316, 317, 318, 319, 320, 321, 322, 323, 324, 325, 326, 327, 328, 329, 330, 331, 332, 333, 334, 335, 336, 337, 338, 339, 340, 341, 342, 343, 344, 345, 346, 347, 348, 349, 350, 351, 352, 353, 354, 355, 356, 357, 358, 359, 360, 361, 362, 363, 364, 365, 366, 367, 368, 369, 370, 371, 372, 373, 374, 375, 376, 377, 378, 379, 380, 381, 382, 383, 384, 385, 386, 387, 388, 389, 390, 391, 392, 393, 394, 395, 396, 397, 398, 399, 400, 401, 402, 403, 404, 405, 406, 407, 408, 409, 410, 411, 412, 413, 414, 415, 416, 417, 418, 419, 420, 421, 422, 423, 424, 425, 426, 427, 428, 429, 430, 431, 432, 433, 434, 435, 436, 437, 438, 439, 440, 441, 442, 443, 444, 445, 446, 447, 448, 449, 450, 451, 452, 453, 454, 455, 456, 457, 458, 459, 460, 461, 462, 463, 464, 465, 466, 467, 468, 469, 470, 471, 472, 473, 474, 475, 476, 477, 478, 479, 480, 481, 482, 483, 484, 485, 486, 487, 488, 489, 490, 491, 492, 493, 494, 495, 496, 497, 498, 499, 500, 501, 502, 503, 504, 505, 506, 507, 508, 509, 510, 511, 512, 513, 514, 515, 516, 517, 518, 519, 520, 521, 522, 523, 524, 525, 526, 527, 528, 529, 530, 531, 532, 533, 534, 535, 536, 537, 538, 539, 540, 541, 542, 543, 544, 545, 546, 547, 548, 549, 550, 551, 552, 553, 554, 555, 556, 557, 558, 559, 560, 561, 562, 563, 564, 565, 566, 567, 568, 569, 570, 571, 572, 573, 574, 575, 576, 577, 578, 579, 580, 581, 582, 583, 584, 585, 586, 587, 588, 589, 590, 591, 592, 593, 594, 595, 596, 597, 598, 599, 600, 601, 602, 603, 604, 605, 606, 607, 608, 609, 610, 611, 612, 613, 614, 615, 616, 617, 618, 619, 620, 621, 622, 623, 624, 625, 626, 627, 628, 629, 630, 631, 632, 633, 634, 635, 636, 637, 638, 639, 640, 641, 642, 643, 644, 645, 646, 647, 648, 649, 650, 651, 652, 653, 654, 655, 656, 657, 658, 659, 660, 661, 662, 663, 664, 665, 666, 667, 668, 669, 670, 671, 672, 673, 674, 675, 676, 677, 678, 679, 680, 681, 682, 683, 684, 685, 686, 687, 688, 689, 690, 691, 692, 693, 694, 695, 696, 697, 698, 699, 700, 701, 702, 703, 704, 705, 706, 707, 708, 709, 710, 711, 712, 713, 714, 715, 716, 717, 718, 719, 720, 721, 722, 723, 724, 725, 726, 727, 728, 729, 730, 731, 732, 733, 734, 735, 736, 737, 738, 739, 740, 741, 742, 743, 744, 745, 746, 747, 748, 749, 750, 751, 752, 753, 754, 755, 756, 757, 758, 759, 760, 761, 762, 763, 764, 765, 766, 767, 768, 769, 770, 771, 772, 773, 774, 775, 776, 777, 778, 779, 780, 781, 782, 783, 784, 785, 786, 787, 788, 789, 790, 791, 792, 793, 794, 795, 796, 797, 798, 799, 800, 801, 802, 803, 804, 805, 806, 807, 808, 809, 810, 811, 812, 813, 814, 815, 816, 817, 818, 819, 820, 821, 822, 823, 824, 825, 826, 827, 828, 829, 830, 831, 832, 833, 834, 835, 836, 837, 838, 839, 840, 841, 842, 843, 844, 845, 846, 847, 848, 849, 850, 851, 852, 853, 854, 855, 856, 857, 858, 859, 860, 861, 862, 863, 864, 865, 866, 867, 868, 869, 870, 871, 872],
      "AcquisitionTime": ["094239.782500", "094240.242500", "094240.702500", "094241.162500", "094241.622500", "094242.082500", "094242.542500", "094243.002500", "094243.462500", "094243.922500", "094244.382500", "094244.842500", "094245.302500", "094245.762500", "094246.222500", "094246.682500", "094247.142500", "094247.602500", "094248.062500", "094248.522500", "094248.982500", "094249.442500", "094249.902500", "094250.362500", "094250.822500", "094251.282500", "094251.742500", "094252.202500", "094252.662500", "094253.122500", "094253.582500", "094254.042500", "094254.502500", "094254.962500", "094255.422500", "094255.882500", "094256.342500", "094256.802500", "094257.262500", "094257.722500", "094258.182500", "094258.642500", "094259.102500", "094259.562500", "094300.022500", "094300.482500", "094300.942500", "094301.402500", "094301.862500", "094302.322500", "094302.782500", "094303.242500", "094303.702500", "094304.162500", "094304.622500", "094305.082500", "094305.542500", "094306.002500", "094306.462500", "094306.922500", "094307.382500", "094307.842500", "094308.302500", "094308.762500", "094309.222500", "094309.682500", "094310.142500", "094310.602500", "094311.062500", "094311.522500", "094311.982500", "094312.442500", "094312.902500", "094313.362500", "094313.822500", "094314.282500", "094314.742500", "094315.202500", "094315.662500", "094316.122500", "094316.582500", "094317.042500", "094317.502500", "094317.962500", "094318.422500", "094318.882500", "094319.342500", "094319.802500", "094320.262500", "094320.722500", "094321.182500", "094321.642500", "094322.102500", "094322.562500", "094323.022500", "094323.482500", "094323.942500", "094324.402500", "094324.862500", "094325.322500", "094325.782500", "094326.242500", "094326.702500", "094327.162500", "094327.622500", "094328.082500", "094328.542500", "094329.002500", "094329.462500", "094329.922500", "094330.382500", "094330.842500", "094331.302500", "094331.762500", "094332.222500", "094332.682500", "094333.142500", "094333.602500", "094334.062500", "094334.522500", "094334.982500", "094335.442500", "094335.902500", "094336.362500", "094336.822500", "094337.282500", "094337.742500", "094338.202500", "094338.662500", "094339.122500", "094339.582500", "094340.042500", "094340.502500", "094340.962500", "094341.422500", "094341.882500", "094342.342500", "094342.802500", "094343.262500", "094343.722500", "094344.182500", "094344.642500", "094345.102500", "094345.562500", "094346.022500", "094346.482500", "094346.942500", "094347.402500", "094347.862500", "094348.322500", "094348.782500", "094349.242500", "094349.702500", "094350.162500", "094350.622500", "094351.082500", "094351.542500", "094352.002500", "094352.462500", "094352.922500", "094353.382500", "094353.842500", "094354.302500", "094354.762500", "094355.222500", "094355.682500", "094356.142500", "094356.602500", "094357.062500", "094357.522500", "094357.982500", "094358.442500", "094358.902500", "094359.362500", "094359.822500", "094400.282500", "094400.742500", "094401.202500", "094401.662500", "094402.122500", "094402.582500", "094403.042500", "094403.502500", "094403.962500", "094404.422500", "094404.882500", "094405.342500", "094405.802500", "094406.262500", "094406.722500", "094407.182500", "094407.642500", "094408.102500", "094408.562500", "094409.022500", "094409.482500", "094409.942500", "094410.402500", "094410.862500", "094411.322500", "094411.782500", "094412.242500", "094412.702500", "094413.162500", "094413.622500", "094414.082500", "094414.542500", "094415.002500", "094415.462500", "094415.922500", "094416.382500", "094416.842500", "094417.302500", "094417.762500", "094418.222500", "094418.682500", "094419.142500", "094419.602500", "094420.062500", "094420.522500", "094420.982500", "094421.442500", "094421.902500", "094422.362500", "094422.822500", "094423.282500", "094423.742500", "094424.202500", "094424.662500", "094425.122500", "094425.582500", "094426.042500", "094426.502500", "094426.962500", "094427.422500", "094427.882500", "094428.342500", "094428.802500", "094429.262500", "094429.722500", "094430.182500", "094430.642500", "094431.102500", "094431.562500", "094432.022500", "094432.482500", "094432.942500", "094433.402500", "094433.862500", "094434.322500", "094434.782500", "094435.242500", "094435.702500", "094436.162500", "094436.622500", "094437.082500", "094437.542500", "094438.002500", "094438.462500", "094438.922500", "094439.382500", "094439.842500", "094440.302500", "094440.762500", "094441.222500", "094441.682500", "094442.142500", "094442.602500", "094443.062500", "094443.522500", "094443.982500", "094444.442500", "094444.902500", "094445.362500", "094445.822500", "094446.282500", "094446.742500", "094447.202500", "094447.662500", "094448.122500", "094448.582500", "094449.042500", "094449.502500", "094449.962500", "094450.422500", "094450.882500", "094451.342500", "094451.802500", "094452.262500", "094452.722500", "094453.182500", "094453.642500", "094454.102500", "094454.562500", "094455.022500", "094455.482500", "094455.942500", "094456.402500", "094456.862500", "094457.322500", "094457.782500", "094458.242500", "094458.702500", "094459.162500", "094459.622500", "094500.082500", "094500.542500", "094501.002500", "094501.462500", "094501.922500", "094502.382500", "094502.842500", "094503.302500", "094503.762500", "094504.222500", "094504.682500", "094505.142500", "094505.602500", "094506.062500", "094506.522500", "094506.982500", "094507.442500", "094507.902500", "094508.362500", "094508.822500", "094509.282500", "094509.742500", "094510.202500", "094510.662500", "094511.122500", "094511.582500", "094512.042500", "094512.502500", "094512.962500", "094513.422500", "094513.882500", "094514.342500", "094514.802500", "094515.262500", "094515.722500", "094516.182500", "094516.642500", "094517.102500", "094517.562500", "094518.022500", "094518.482500", "094518.942500", "094519.402500", "094519.862500", "094520.322500", "094520.782500", "094521.242500", "094521.702500", "094522.162500", "094522.622500", "094523.082500", "094523.542500", "094524.002500", "094524.462500", "094524.922500", "094525.382500", "094525.842500", "094526.302500", "094526.762500", "094527.222500", "094527.682500", "094528.142500", "094528.602500", "094529.062500", "094529.522500", "094529.982500", "094530.442500", "094530.902500", "094531.362500", "094531.822500", "094532.282500", "094532.742500", "094533.202500", "094533.662500", "094534.122500", "094534.582500", "094535.042500", "094535.502500", "094535.962500", "094536.422500", "094536.882500", "094537.342500", "094537.802500", "094538.262500", "094538.722500", "094539.182500", "094539.642500", "094540.102500", "094540.562500", "094541.022500", "094541.482500", "094541.942500", "094542.402500", "094542.862500", "094543.322500", "094543.782500", "094544.242500", "094544.702500", "094545.162500", "094545.622500", "094546.082500", "094546.542500", "094547.002500", "094547.462500", "094547.922500", "094548.382500", "094548.842500", "094549.302500", "094549.762500", "094550.222500", "094550.682500", "094551.142500", "094551.602500", "094552.062500", "094552.522500", "094552.982500", "094553.442500", "094553.902500", "094554.362500", "094554.822500", "094555.282500", "094555.742500", "094556.202500", "094556.662500", "094557.122500", "094557.582500", "094558.042500", "094558.502500", "094558.962500", "094559.422500", "094559.882500", "094600.342500", "094600.802500", "094601.262500", "094601.722500", "094602.182500", "094602.642500", "094603.102500", "094603.562500", "094604.022500", "094604.482500", "094604.942500", "094605.402500", "094605.862500", "094606.322500", "094606.782500", "094607.242500", "094607.702500", "094608.162500", "094608.622500", "094609.082500", "094609.542500", "094610.002500", "094610.462500", "094610.922500", "094611.382500", "094611.842500", "094612.302500", "094612.762500", "094613.222500", "094613.682500", "094614.142500", "094614.602500", "094615.062500", "094615.522500", "094615.982500", "094616.442500", "094616.902500", "094617.362500", "094617.822500", "094618.282500", "094618.742500", "094619.202500", "094619.662500", "094620.122500", "094620.582500", "094621.042500", "094621.502500", "094621.962500", "094622.422500", "094622.882500", "094623.342500", "094623.802500", "094624.262500", "094624.722500", "094625.182500", "094625.642500", "094626.102500", "094626.562500", "094627.022500", "094627.482500", "094627.942500", "094628.402500", "094628.862500", "094629.322500", "094629.782500", "094630.242500", "094630.702500", "094631.162500", "094631.622500", "094632.082500", "094632.542500", "094633.002500", "094633.462500", "094633.922500", "094634.382500", "094634.842500", "094635.302500", "094635.762500", "094636.222500", "094636.682500", "094637.142500", "094637.602500", "094638.062500", "094638.522500", "094638.982500", "094639.442500", "094639.902500", "094640.362500", "094640.822500", "094641.282500", "094641.742500", "094642.202500", "094642.662500", "094643.122500", "094643.582500", "094644.042500", "094644.502500", "094644.962500", "094645.422500", "094645.882500", "094646.342500", "094646.802500", "094647.262500", "094647.722500", "094648.182500", "094648.642500", "094649.102500", "094649.562500", "094650.022500", "094650.482500", "094650.942500", "094651.402500", "094651.862500", "094652.322500", "094652.782500", "094653.242500", "094653.702500", "094654.162500", "094654.622500", "094655.082500", "094655.542500", "094656.002500", "094656.462500", "094656.922500", "094657.382500", "094657.842500", "094658.302500", "094658.762500", "094659.222500", "094659.682500", "094700.142500", "094700.602500", "094701.062500", "094701.522500", "094701.982500", "094702.442500", "094702.902500", "094703.362500", "094703.822500", "094704.282500", "094704.742500", "094705.202500", "094705.662500", "094706.122500", "094706.582500", "094707.042500", "094707.502500", "094707.962500", "094708.422500", "094708.882500", "094709.342500", "094709.802500", "094710.262500", "094710.722500", "094711.182500", "094711.642500", "094712.102500", "094712.562500", "094713.022500", "094713.482500", "094713.942500", "094714.402500", "094714.862500", "094715.322500", "094715.782500", "094716.242500", "094716.702500", "094717.162500", "094717.622500", "094718.082500", "094718.542500", "094719.002500", "094719.462500", "094719.922500", "094720.382500", "094720.842500", "094721.302500", "094721.762500", "094722.222500", "094722.682500", "094723.142500", "094723.602500", "094724.062500", "094724.522500", "094724.982500", "094725.442500", "094725.902500", "094726.362500", "094726.822500", "094727.282500", "094727.742500", "094728.202500", "094728.662500", "094729.122500", "094729.582500", "094730.042500", "094730.502500", "094730.962500", "094731.422500", "094731.882500", "094732.342500", "094732.802500", "094733.262500", "094733.722500", "094734.182500", "094734.642500", "094735.102500", "094735.562500", "094736.022500", "094736.482500", "094736.942500", "094737.402500", "094737.862500", "094738.322500", "094738.782500", "094739.242500", "094739.702500", "094740.162500", "094740.622500", "094741.082500", "094741.542500", "094742.002500", "094742.462500", "094742.922500", "094743.382500", "094743.842500", "094744.302500", "094744.762500", "094745.222500", "094745.682500", "094746.142500", "094746.602500", "094747.062500", "094747.522500", "094747.982500", "094748.442500", "094748.902500", "094749.362500", "094749.822500", "094750.282500", "094750.742500", "094751.202500", "094751.662500", "094752.122500", "094752.582500", "094753.042500", "094753.502500", "094753.962500", "094754.422500", "094754.882500", "094755.342500", "094755.802500", "094756.262500", "094756.722500", "094757.182500", "094757.642500", "094758.102500", "094758.562500", "094759.022500", "094759.482500", "094759.942500", "094800.402500", "094800.862500", "094801.322500", "094801.782500", "094802.242500", "094802.702500", "094803.162500", "094803.622500", "094804.082500", "094804.542500", "094805.002500", "094805.462500", "094805.922500", "094806.382500", "094806.842500", "094807.302500", "094807.762500", "094808.222500", "094808.682500", "094809.142500", "094809.602500", "094810.062500", "094810.522500", "094810.982500", "094811.442500", "094811.902500", "094812.362500", "094812.822500", "094813.282500", "094813.742500", "094814.202500", "094814.662500", "094815.122500", "094815.582500", "094816.042500", "094816.502500", "094816.962500", "094817.422500", "094817.882500", "094818.342500", "094818.802500", "094819.262500", "094819.722500", "094820.182500", "094820.642500", "094821.102500", "094821.562500", "094822.022500", "094822.482500", "094822.942500", "094823.402500", "094823.862500", "094824.322500", "094824.782500", "094825.242500", "094825.702500", "094826.162500", "094826.622500", "094827.082500", "094827.542500", "094828.002500", "094828.462500", "094828.922500", "094829.382500", "094829.842500", "094830.302500", "094830.762500", "094831.222500", "094831.682500", "094832.142500", "094832.602500", "094833.062500", "094833.522500", "094833.982500", "094834.442500", "094834.902500", "094835.362500", "094835.822500", "094836.282500", "094836.742500", "094837.202500", "094837.662500", "094838.122500", "094838.582500", "094839.042500", "094839.502500", "094839.962500", "094840.422500", "094840.882500", "094841.342500", "094841.802500", "094842.262500", "094842.722500", "094843.182500", "094843.642500", "094844.102500", "094844.562500", "094845.022500", "094845.482500", "094845.942500", "094846.402500", "094846.862500", "094847.322500", "094847.782500", "094848.242500", "094848.702500", "094849.162500", "094849.622500", "094850.082500", "094850.542500", "094851.002500", "094851.462500", "094851.922500", "094852.382500", "094852.842500", "094853.302500", "094853.762500", "094854.222500", "094854.682500", "094855.142500", "094855.602500", "094856.062500", "094856.522500", "094856.982500", "094857.442500", "094857.902500", "094858.362500", "094858.822500", "094859.282500", "094859.742500", "094900.202500", "094900.662500", "094901.122500", "094901.582500", "094902.042500", "094902.502500", "094902.962500", "094903.422500", "094903.882500", "094904.342500", "094904.802500", "094905.262500", "094905.722500", "094906.182500", "094906.642500", "094907.102500", "094907.562500", "094908.022500", "094908.482500", "094908.942500", "094909.402500", "094909.862500", "094910.322500", "094910.782500", "094911.242500", "094911.702500", "094912.162500", "094912.622500", "094913.082500", "094913.542500", "094914.002500", "094914.462500", "094914.922500", "094915.382500", "094915.842500", "094916.302500", "094916.762500", "094917.222500", "094917.682500", "094918.142500", "094918.602500", "094919.062500", "094919.522500", "094919.982500", "094920.442500"],
