{
  "AcquisitionMatrixPE": 82,
  "AcquisitionNumber": 1,
  "AcquisitionTime": "09:09:35.467500",
  "BandwidthPerPixelPhaseEncode": 24.888,
  "BaseResolution": 82,
  "BodyPartExamined": "BRAIN",
  "ConsistencyInfo": "N4_VE11E_LATEST_20181129",
  "ConversionSoftware": "dcm2niix",
  "ConversionSoftwareVersion": "v1.0.20201102",
  "DerivedVendorReportedEchoSpacing": 0.00049,
  "DeviceSerialNumber": "66112",
  "DwellTime": 2e-06,
  "EchoTime": 0.0272,
  "EchoTrainLength": 82,
  "EffectiveEchoSpacing": 0.00049,
  "FlipAngle": 44,
  "ImageComments": "Unaliased MB8/PE3",
  "ImageOrientationPatientDICOM": [0.9995, -0.0316038, 0.000476872, 0.0315852, 0.998116, -0.0525935],
  "ImageType": [
    "ORIGINAL",
    "PRIMARY",
    "M",
    "MB",
    "ND",
    "NORM",
    "MOSAIC"
],
  "ImagingFrequency": 123.252,
  "InPlanePhaseEncodingDirectionDICOM": "COL",
  "InstitutionAddress": "Maynard 3,Hanover,NH,US,03755",
  "InstitutionName": "Dartmouth College - PBS",
  "InstitutionalDepartmentName": "Department",
  "MRAcquisitionType": "2D",
  "MagneticFieldStrength": 3,
  "Manufacturer": "Siemens",
  "ManufacturersModelName": "Prisma",
  "Modality": "MR",
  "MultibandAccelerationFactor": 8,
  "PartialFourier": 1,
  "PatientPosition": "HFS",
  "PercentPhaseFOV": 100,
  "PercentSampling": 100,
  "PhaseEncodingDirection": "j-",
  "PhaseEncodingSteps": 82,
  "PhaseResolution": 1,
  "PixelBandwidth": 3050,
  "ProcedureStepDescription": "Wager_Wager^1076_spacetop",
  "ProtocolName": "func_run-02_task-social_acq-ap-mb8",
  "PulseSequenceDetails": "%CustomerSeq%\\cmrr_mbep2d_bold",
  "ReceiveCoilActiveElements": "HEA;HEP",
  "ReceiveCoilName": "Head_32",
  "ReconMatrixPE": 82,
  "RepetitionTime": 0.46,
  "SAR": 0.101012,
  "ScanOptions": "FS",
  "ScanningSequence": "EP",
  "SequenceName": "epfid2d1_82",
  "SequenceVariant": "SK\\SS",
  "SeriesDescription": "func_run-02_task-social_acq-ap-mb8",
  "SeriesNumber": 14,
  "ShimSetting": [4140, -7760, -7213, 498, -47, -169, 75, 67],
  "SliceThickness": 2.7,
  "SliceTiming": [0, 0.25, 0.0625, 0.3125, 0.125, 0.3775, 0.1875, 0, 0.25, 0.0625, 0.3125, 0.125, 0.3775, 0.1875, 0, 0.25, 0.0625, 0.3125, 0.125, 0.3775, 0.1875, 0, 0.25, 0.0625, 0.3125, 0.125, 0.3775, 0.1875, 0, 0.25, 0.0625, 0.3125, 0.125, 0.3775, 0.1875, 0, 0.25, 0.0625, 0.3125, 0.125, 0.3775, 0.1875, 0, 0.25, 0.0625, 0.3125, 0.125, 0.3775, 0.1875, 0, 0.25, 0.0625, 0.3125, 0.125, 0.3775, 0.1875],
  "SoftwareVersions": "syngo MR E11",
  "SpacingBetweenSlices": 2.7,
  "StationName": "AWP66112",
  "TaskName": "social",
  "TotalReadoutTime": 0.03969,
  "TxRefAmp": 273.8,
  "WipMemBlock": "443f0801-e993-4c52-8c25-1ed46cb5e084||Sequence: R016 ve11e/master r/434b28f1; Aug  7 2019 18:53:46 by eja",
  "dcmmeta_affine": [
    [-2.681586503982544, 0.08474066108465195, -0.003202686784788966, 106.5873794555664],
    [0.08479074388742447, 2.677873373031616, -0.14197205007076263, -84.18524932861328],
    [0.0012794134672731161, 0.14110440015792847, 2.696262836456299, -83.28367614746094],
    [0.0, 0.0, 0.0, 1.0]
],
  "dcmmeta_reorient_transform": [
    [0.0, -1.0, 0.0, 81.0],
    [1.0, 0.0, 0.0, 0.0],
    [0.0, 0.0, 1.0, 0.0],
    [0.0, 0.0, 0.0, 1.0]
],
  "dcmmeta_shape": [82, 82, 56, 458],
  "dcmmeta_slice_dim": 2,
  "dcmmeta_version": 0.6,
  "global": {
    "const": {
      "AccessionNumber": "A003977",
      "AcquisitionMatrix": [82, 0, 0, 82],
      "AngioFlag": "N",
      "BitsAllocated": 16,
      "BitsStored": 16,
      "BodyPartExamined": "BRAIN",
      "Columns": 656,
      "EchoNumbers": 1,
      "EchoTime": 27.2,
      "EchoTrainLength": 82,
      "FlipAngle": 44.0,
      "HighBit": 15,
      "ImageOrientationPatient": [0.99950036069419, -0.0316038219999, 0.00047687228729, 0.03158515392512, 0.99811637900745, -0.0525934597511],
      "ImagePositionPatient": [-907.38723759682, -876.93717357908, -31.724445700593],
      "ImageType": [
        "ORIGINAL",
        "PRIMARY",
        "M",
        "MB",
        "ND",
        "NORM",
        "MOSAIC"
],
      "ImagedNucleus": "1H",
      "ImagingFrequency": 123.25218,
      "InPlanePhaseEncodingDirection": "COL",
      "MRAcquisitionType": "2D",
      "MagneticFieldStrength": 3.0,
      "Manufacturer": "SIEMENS",
      "ManufacturerModelName": "Prisma",
      "Modality": "MR",
      "NumberOfAverages": 1.0,
      "NumberOfPhaseEncodingSteps": 82,
      "PercentPhaseFieldOfView": 100.0,
      "PercentSampling": 100.0,
      "PerformedProcedureStepStartTime": "084236.359000",
      "PhotometricInterpretation": "MONOCHROME2",
      "PixelBandwidth": 3050.0,
      "PixelRepresentation": 0,
      "PixelSpacing": [2.6829268932343, 2.6829268932343],
      "ProtocolName": "func_run-02_task-social_acq-ap-mb8",
      "RepetitionTime": 460.0,
      "Rows": 656,
      "SAR": 0.10101238787092,
      "SamplesPerPixel": 1,
      "ScanOptions": "FS",
      "ScanningSequence": "EP",
      "SequenceName": "epfid2d1_82",
      "SequenceVariant": [
        "SK",
        "SS"
],
      "SeriesDescription": "func_run-02_task-social_acq-ap-mb8",
      "SeriesNumber": 14,
      "SeriesTime": "090953.505000",
      "SliceLocation": -78.868185020548,
      "SliceThickness": 2.7000000476837,
      "SmallestImagePixelValue": 0,
      "SoftwareVersions": "syngo MR E11",
      "SpacingBetweenSlices": 2.6999999364657,
      "SpecificCharacterSet": "ISO_IR 100",
      "StudyID": "1",
      "StudyTime": "084236.283000",
      "TransmitCoilName": "Body",
      "VariableFlipAngleFlag": "N",
      "WindowCenterWidthExplanation": "Algo1"
    },
    "slices": {}
  },
  "time": {
    "samples": {
      "AcquisitionNumber": [1, 2, 3, 4, 5, 6, 7, 8, 9, 10, 11, 12, 13, 14, 15, 16, 17, 18, 19, 20, 21, 22, 23, 24, 25, 26, 27, 28, 29, 30, 31, 32, 33, 34, 35, 36, 37, 38, 39, 40, 41, 42, 43, 44, 45, 46, 47, 48, 49, 50, 51, 52, 53, 54, 55, 56, 57, 58, 59, 60, 61, 62, 63, 64, 65, 66, 67, 68, 69, 70, 71, 72, 73, 74, 75, 76, 77, 78, 79, 80, 81, 82, 83, 84, 85, 86, 87, 88, 89, 90, 91, 92, 93, 94, 95, 96, 97, 98, 99, 100, 101, 102, 103, 104, 105, 106, 107, 108, 109, 110, 111, 112, 113, 114, 115, 116, 117, 118, 119, 120, 121, 122, 123, 124, 125, 126, 127, 128, 129, 130, 131, 132, 133, 134, 135, 136, 137, 138, 139, 140, 141, 142, 143, 144, 145, 146, 147, 148, 149, 150, 151, 152, 153, 154, 155, 156, 157, 158, 159, 160, 161, 162, 163, 164, 165, 166, 167, 168, 169, 170, 171, 172, 173, 174, 175, 176, 177, 178, 179, 180, 181, 182, 183, 184, 185, 186, 187, 188, 189, 190, 191, 192, 193, 194, 195, 196, 197, 198, 199, 200, 201, 202, 203, 204, 205, 206, 207, 208, 209, 210, 211, 212, 213, 214, 215, 216, 217, 218, 219, 220, 221, 222, 223, 224, 225, 226, 227, 228, 229, 230, 231, 232, 233, 234, 235, 236, 237, 238, 239, 240, 241, 242, 243, 244, 245, 246, 247, 248, 249, 250, 251, 252, 253, 254, 255, 256, 257, 258, 259, 260, 261, 262, 263, 264, 265, 266, 267, 268, 269, 270, 271, 272, 273, 274, 275, 276, 277, 278, 279, 280, 281, 282, 283, 284, 285, 286, 287, 288, 289, 290, 291, 292, 293, 294, 295, 296, 297, 298, 299, 300, 301, 302, 303, 304, 305, 306, 307, 308, 309, 310, 311, 312, 313, 314, 315, 316, 317, 318, 319, 320, 321, 322, 323, 324, 325, 326, 327, 328, 329, 330, 331, 332, 333, 334, 335, 336, 337, 338, 339, 340, 341, 342, 343, 344, 345, 346, 347, 348, 349, 350, 351, 352, 353, 354, 355, 356, 357, 358, 359, 360, 361, 362, 363, 364, 365, 366, 367, 368, 369, 370, 371, 372, 373, 374, 375, 376, 377, 378, 379, 380, 381, 382, 383, 384, 385, 386, 387, 388, 389, 390, 391, 392, 393, 394, 395, 396, 397, 398, 399, 400, 401, 402, 403, 404, 405, 406, 407, 408, 409, 410, 411, 412, 413, 414, 415, 416, 417, 418, 419, 420, 421, 422, 423, 424, 425, 426, 427, 428, 429, 430, 431, 432, 433, 434, 435, 436, 437, 438, 439, 440, 441, 442, 443, 444, 445, 446, 447, 448, 449, 450, 451, 452, 453, 454, 455, 456, 457, 458],
      "AcquisitionTime": ["090935.467500", "090935.927500", "090936.387500", "090936.847500", "090937.307500", "090937.767500", "090938.227500", "090938.687500", "090939.147500", "090939.607500", "090940.067500", "090940.527500", "090940.987500", "090941.447500", "090941.907500", "090942.367500", "090942.827500", "090943.287500", "090943.747500", "090944.207500", "090944.667500", "090945.127500", "090945.587500", "090946.047500", "090946.507500", "090946.967500", "090947.427500", "090947.887500", "090948.347500", "090948.807500", "090949.267500", "090949.727500", "090950.187500", "090950.647500", "090951.107500", "090951.567500", "090952.027500", "090952.487500", "090952.947500", "090953.407500", "090953.867500", "090954.327500", "090954.787500", "090955.247500", "090955.707500", "090956.167500", "090956.627500", "090957.087500", "090957.547500", "090958.007500", "090958.467500", "090958.927500", "090959.387500", "090959.847500", "091000.307500", "091000.767500", "091001.227500", "091001.687500", "091002.147500", "091002.607500", "091003.067500", "091003.527500", "091003.987500", "091004.447500", "091004.907500", "091005.367500", "091005.827500", "091006.287500", "091006.747500", "091007.207500", "091007.667500", "091008.127500", "091008.587500", "091009.047500", "091009.507500", "091009.967500", "091010.427500", "091010.887500", "091011.347500", "091011.807500", "091012.267500", "091012.727500", "091013.187500", "091013.647500", "091014.107500", "091014.567500", "091015.027500", "091015.487500", "091015.947500", "091016.407500", "091016.867500", "091017.327500", "091017.787500", "091018.247500", "091018.707500", "091019.167500", "091019.627500", "091020.087500", "091020.547500", "091021.007500", "091021.467500", "091021.927500", "091022.387500", "091022.847500", "091023.307500", "091023.767500", "091024.227500", "091024.687500", "091025.147500", "091025.607500", "091026.067500", "091026.527500", "091026.987500", "091027.447500", "091027.907500", "091028.367500", "091028.827500", "091029.287500", "091029.747500", "091030.207500", "091030.667500", "091031.127500", "091031.587500", "091032.047500", "091032.507500", "091032.967500", "091033.427500", "091033.887500", "091034.347500", "091034.807500", "091035.267500", "091035.727500", "091036.187500", "091036.647500", "091037.107500", "091037.567500", "091038.027500", "091038.487500", "091038.947500", "091039.407500", "091039.867500", "091040.327500", "091040.787500", "091041.247500", "091041.707500", "091042.167500", "091042.627500", "091043.087500", "091043.547500", "091044.007500", "091044.467500", "091044.927500", "091045.387500", "091045.847500", "091046.307500", "091046.767500", "091047.227500", "091047.687500", "091048.147500", "091048.607500", "091049.067500", "091049.527500", "091049.987500", "091050.447500", "091050.907500", "091051.367500", "091051.827500", "091052.287500", "091052.747500", "091053.207500", "091053.667500", "091054.127500", "091054.587500", "091055.047500", "091055.507500", "091055.967500", "091056.427500", "091056.887500", "091057.347500", "091057.807500", "091058.267500", "091058.727500", "091059.187500", "091059.647500", "091100.107500", "091100.567500", "091101.027500", "091101.487500", "091101.947500", "091102.407500", "091102.867500", "091103.327500", "091103.787500", "091104.247500", "091104.707500", "091105.167500", "091105.627500", "091106.087500", "091106.547500", "091107.007500", "091107.467500", "091107.927500", "091108.387500", "091108.847500", "091109.307500", "091109.767500", "091110.227500", "091110.687500", "091111.147500", "091111.607500", "091112.067500", "091112.527500", "091112.987500", "091113.447500", "091113.907500", "091114.367500", "091114.827500", "091115.287500", "091115.747500", "091116.207500", "091116.667500", "091117.127500", "091117.587500", "091118.047500", "091118.507500", "091118.967500", "091119.427500", "091119.887500", "091120.347500", "091120.807500", "091121.267500", "091121.727500", "091122.187500", "091122.647500", "091123.107500", "091123.567500", "091124.027500", "091124.487500", "091124.947500", "091125.407500", "091125.867500", "091126.327500", "091126.787500", "091127.247500", "091127.707500", "091128.167500", "091128.627500", "091129.087500", "091129.547500", "091130.007500", "091130.467500", "091130.927500", "091131.387500", "091131.847500", "091132.307500", "091132.767500", "091133.227500", "091133.687500", "091134.147500", "091134.607500", "091135.067500", "091135.527500", "091135.987500", "091136.447500", "091136.907500", "091137.367500", "091137.827500", "091138.287500", "091138.747500", "091139.207500", "091139.667500", "091140.127500", "091140.587500", "091141.047500", "091141.507500", "091141.967500", "091142.427500", "091142.887500", "091143.347500", "091143.807500", "091144.267500", "091144.727500", "091145.187500", "091145.647500", "091146.107500", "091146.567500", "091147.027500", "091147.487500", "091147.947500", "091148.407500", "091148.867500", "091149.327500", "091149.787500", "091150.247500", "091150.707500", "091151.167500", "091151.627500", "091152.087500", "091152.547500", "091153.007500", "091153.467500", "091153.927500", "091154.387500", "091154.847500", "091155.307500", "091155.767500", "091156.227500", "091156.687500", "091157.147500", "091157.607500", "091158.067500", "091158.527500", "091158.987500", "091159.447500", "091159.907500", "091200.367500", "091200.827500", "091201.287500", "091201.747500", "091202.207500", "091202.667500", "091203.127500", "091203.587500", "091204.047500", "091204.507500", "091204.967500", "091205.427500", "091205.887500", "091206.347500", "091206.807500", "091207.267500", "091207.727500", "091208.187500", "091208.647500", "091209.107500", "091209.567500", "091210.027500", "091210.487500", "091210.947500", "091211.407500", "091211.867500", "091212.327500", "091212.787500", "091213.247500", "091213.707500", "091214.167500", "091214.627500", "091215.087500", "091215.547500", "091216.007500", "091216.467500", "091216.927500", "091217.387500", "091217.847500", "091218.307500", "091218.767500", "091219.227500", "091219.687500", "091220.147500", "091220.607500", "091221.067500", "091221.527500", "091221.987500", "091222.447500", "091222.907500", "091223.367500", "091223.827500", "091224.287500", "091224.747500", "091225.207500", "091225.667500", "091226.127500", "091226.587500", "091227.047500", "091227.507500", "091227.967500", "091228.427500", "091228.887500", "091229.347500", "091229.807500", "091230.267500", "091230.727500", "091231.187500", "091231.647500", "091232.107500", "091232.567500", "091233.027500", "091233.487500", "091233.947500", "091234.407500", "091234.867500", "091235.327500", "091235.787500", "091236.247500", "091236.707500", "091237.167500", "091237.627500", "091238.087500", "091238.547500", "091239.007500", "091239.467500", "091239.927500", "091240.387500", "091240.847500", "091241.307500", "091241.767500", "091242.227500", "091242.687500", "091243.147500", "091243.607500", "091244.067500", "091244.527500", "091244.987500", "091245.447500", "091245.907500", "091246.367500", "091246.827500", "091247.287500", "091247.747500", "091248.207500", "091248.667500", "091249.127500", "091249.587500", "091250.047500", "091250.507500", "091250.967500", "091251.427500", "091251.887500", "091252.347500", "091252.807500", "091253.267500", "091253.727500", "091254.187500", "091254.647500", "091255.107500", "091255.567500", "091256.027500", "091256.487500", "091256.947500", "091257.407500", "091257.867500", "091258.327500", "091258.787500", "091259.247500", "091259.707500", "091300.167500", "091300.627500", "091301.087500", "091301.547500", "091302.007500", "091302.467500", "091302.927500", "091303.387500", "091303.847500", "091304.307500", "091304.767500", "091305.227500", "091305.687500"],
      "ContentTime": ["090953.508000", "090953.511000", "090953.513000", "090953.516000", "090953.518000", "090953.521000", "090953.523000", "090953.526000", "090953.529000", "090953.531000", "090953.534000", "090953.536000", "090953.552000", "090953.555000", "090953.558000", "090953.560000", "090953.563000", "090953.565000", "090953.568000", "090953.570000", "090953.573000", "090953.575000", "090953.578000", "090953.580000", "090953.583000", "090953.586000", "090953.588000", "090953.591000", "090953.600000", "090953.602000", "090953.605000", "090953.607000", "090953.610000", "090953.612000", "090953.615000", "090953.618000", "090953.620000", "091013.475000", "091013.478000", "091013.481000", "091013.484000", "091013.487000", "091013.490000", "091013.493000", "091013.495000", "091013.498000", "091013.500000", "091013.503000", "091013.505000", "091013.508000", "091013.510000", "091013.513000", "091013.516000", "091013.518000", "091013.521000", "091013.523000", "091013.526000", "091013.529000", "091013.531000", "091013.534000", "091013.536000", "091013.539000", "091013.541000", "091013.544000", "091013.546000", "091013.549000", "091013.551000", "091013.554000", "091013.557000", "091013.559000", "091013.562000", "091013.564000", "091013.567000", "091013.569000", "091013.572000", "091013.574000", "091013.577000", "091013.579000", "091013.582000", "091013.584000", "091033.476000", "091033.478000", "091033.481000", "091033.484000", "091033.486000", "091033.489000", "091033.491000", "091033.494000", "091033.496000", "091033.499000", "091033.512000", "091033.514000", "091033.517000", "091033.519000", "091033.522000", "091033.525000", "091033.527000", "091033.530000", "091033.568000", "091033.571000", "091033.573000", "091033.576000", "091033.578000", "091033.581000", "091033.583000", "091033.586000", "091033.589000", "091033.591000", "091033.594000", "091033.596000", "091033.599000", "091033.601000", "091033.604000", "091033.607000", "091033.609000", "091033.612000", "091033.614000", "091033.617000", "091033.619000", "091033.622000", "091033.624000", "091033.627000", "091033.630000", "091033.632000", "091053.476000", "091053.479000", "091053.481000", "091053.484000", "091053.486000", "091053.489000", "091053.491000", "091053.494000", "091053.496000", "091053.499000", "091053.502000", "091053.504000", "091053.507000", "091053.509000", "091053.512000", "091053.514000", "091053.517000", "091053.519000", "091053.522000", "091053.525000", "091053.527000", "091053.530000", "091053.532000", "091053.535000", "091053.537000", "091053.541000", "091053.543000", "091053.546000", "091053.549000", "091053.551000", "091053.554000", "091053.556000", "091053.559000", "091053.562000", "091053.564000", "091053.567000", "091053.569000", "091053.572000", "091053.574000", "091053.577000", "091053.580000", "091053.582000", "091053.585000", "091113.474000", "091113.477000", "091113.480000", "091113.482000", "091113.485000", "091113.487000", "091113.490000", "091113.493000", "091113.495000", "091113.498000", "091113.500000", "091113.503000", "091113.505000", "091113.508000", "091113.510000", "091113.513000", "091113.516000", "091113.518000", "091113.521000", "091113.523000", "091113.526000", "091113.528000", "091113.531000", "091113.534000", "091113.536000", "091113.539000", "091113.541000", "091113.544000", "091113.546000", "091113.549000", "091113.552000", "091113.554000", "091113.557000", "091113.559000", "091113.562000", "091113.564000", "091113.567000", "091113.570000", "091113.572000", "091113.575000", "091113.577000", "091113.580000", "091113.582000", "091113.585000", "091133.475000", "091133.478000", "091133.481000", "091133.483000", "091133.486000", "091133.488000", "091133.491000", "091133.493000", "091133.496000", "091133.499000", "091133.501000", "091133.504000", "091133.507000", "091133.510000", "091133.513000", "091133.516000", "091133.518000", "091133.521000", "091133.523000", "091133.526000", "091133.528000", "091133.531000", "091133.533000", "091133.536000", "091133.539000", "091133.541000", "091133.544000", "091133.546000", "091133.549000", "091133.551000", "091133.554000", "091133.556000", "091133.559000", "091133.562000", "091133.564000", "091133.567000", "091133.569000", "091133.572000", "091133.574000", "091133.577000", "091133.580000", "091133.582000", "091133.585000", "091153.476000", "091153.478000", "091153.481000", "091153.484000", "091153.486000", "091153.489000", "091153.491000", "091153.494000", "091153.496000", "091153.499000", "091153.501000", "091153.504000", "091153.507000", "091153.509000", "091153.512000", "091153.514000", "091153.517000", "091153.519000", "091153.522000", "091153.525000", "091153.527000", "091153.530000", "091153.532000", "091153.535000", "091153.538000", "091153.540000", "091153.543000", "091153.545000", "091153.548000", "091153.550000", "091153.553000", "091153.556000", "091153.558000", "091153.561000", "091153.563000", "091153.566000", "091153.568000", "091153.571000", "091153.573000", "091153.576000", "091153.579000", "091153.581000", "091153.584000", "091153.586000", "091213.475000", "091213.478000", "091213.481000", "091213.483000", "091213.486000", "091213.488000", "091213.491000", "091213.494000", "091213.496000", "091213.499000", "091213.501000", "091213.504000", "091213.506000", "091213.520000", "091213.523000", "091213.526000", "091213.529000", "091213.532000", "091213.534000", "091213.537000", "091213.540000", "091213.542000", "091213.545000", "091213.547000", "091213.550000", "091213.553000", "091213.555000", "091213.558000", "091213.560000", "091213.563000", "091213.566000", "091213.568000", "091213.571000", "091213.573000", "091213.576000", "091213.579000", "091213.582000", "091213.585000", "091213.587000", "091213.590000", "091213.592000", "091213.595000", "091213.598000", "091233.476000", "091233.478000", "091233.481000", "091233.483000", "091233.486000", "091233.489000", "091233.491000", "091233.494000", "091233.496000", "091233.499000", "091233.501000", "091233.504000", "091233.506000", "091233.509000", "091233.512000", "091233.514000", "091233.517000", "091233.519000", "091233.522000", "091233.524000", "091233.527000", "091233.529000", "091233.532000", "091233.535000", "091233.537000", "091233.540000", "091233.542000", "091233.545000", "091233.547000", "091233.550000", "091233.553000", "091233.555000", "091233.558000", "091233.560000", "091233.563000", "091233.566000", "091233.568000", "091233.571000", "091233.573000", "091233.576000", "091233.578000", "091233.581000", "091233.583000", "091233.586000", "091253.476000", "091253.478000", "091253.481000", "091253.483000", "091253.486000", "091253.489000", "091253.491000", "091253.494000", "091253.496000", "091253.499000", "091253.501000", "091253.504000", "091253.507000", "091253.509000", "091253.512000", "091253.515000", "091253.518000", "091253.521000", "091253.524000", "091253.526000", "091253.529000", "091253.531000", "091253.534000", "091253.537000", "091253.539000", "091253.542000", "091253.544000", "091253.547000", "091253.549000", "091253.552000", "091253.555000", "091253.557000", "091253.560000", "091253.562000", "091253.565000", "091253.567000", "091253.570000", "091253.573000", "091253.575000", "091253.578000", "091253.580000", "091253.583000", "091253.586000", "091307.193000", "091307.196000", "091307.199000", "091307.202000", "091307.204000", "091307.207000", "091307.209000", "091307.212000", "091307.214000", "091307.217000", "091307.220000", "091307.222000", "091307.225000", "091307.227000", "091307.230000", "091307.232000", "091307.235000", "091307.238000", "091307.240000", "091307.243000", "091307.245000", "091307.248000", "091307.250000", "091307.253000", "091307.255000", "091307.258000", "091307.261000", "091307.263000", "091307.266000", "091307.268000"],
