{
  "AcquisitionMatrixPE": 82,
  "AcquisitionNumber": 1,
  "AcquisitionTime": "10:05:11.557500",
  "BandwidthPerPixelPhaseEncode": 24.888,
  "BaseResolution": 82,
  "BodyPartExamined": "BRAIN",
  "ConsistencyInfo": "N4_VE11C_LATEST_20160120",
  "ConversionSoftware": "dcm2niix",
  "ConversionSoftwareVersion": "v1.0.20201102",
  "DerivedVendorReportedEchoSpacing": 0.00049,
  "DeviceSerialNumber": "66112",
  "DwellTime": 2e-06,
  "EchoTime": 0.0272,
  "EchoTrainLength": 82,
  "EffectiveEchoSpacing": 0.00049,
  "FlipAngle": 44,
  "ImageComments": "Unaliased MB8/PE3",
  "ImageOrientationPatientDICOM": [0.99647, 0.0826215, 0.0149018, -0.0829754, 0.942179, 0.324675],
  "ImageType": [
    "ORIGINAL",
    "PRIMARY",
    "M",
    "MB",
    "ND",
    "NORM",
    "MOSAIC"
],
  "ImagingFrequency": 123.252,
  "InPlanePhaseEncodingDirectionDICOM": "COL",
  "InstitutionAddress": "Maynard 3,Hanover,NH,US,03755",
  "InstitutionName": "Dartmouth College - PBS",
  "InstitutionalDepartmentName": "Department",
  "MRAcquisitionType": "2D",
  "MagneticFieldStrength": 3,
  "Manufacturer": "Siemens",
  "ManufacturersModelName": "Prisma",
  "Modality": "MR",
  "MultibandAccelerationFactor": 8,
  "PartialFourier": 1,
  "PatientPosition": "HFS",
  "PercentPhaseFOV": 100,
  "PercentSampling": 100,
  "PhaseEncodingDirection": "j-",
  "PhaseEncodingSteps": 82,
  "PhaseResolution": 1,
  "PixelBandwidth": 3050,
  "ProcedureStepDescription": "Wager_Wager^1076_spacetop",
  "ProtocolName": "func_run-02_task-social_acq-ap-mb8",
  "PulseSequenceDetails": "%CustomerSeq%\\cmrr_mbep2d_bold",
  "ReceiveCoilActiveElements": "HEA;HEP",
  "ReceiveCoilName": "Head_32",
  "ReconMatrixPE": 82,
  "RepetitionTime": 0.46,
  "SAR": 0.0975402,
  "ScanOptions": "FS",
  "ScanningSequence": "EP",
  "SequenceName": "epfid2d1_82",
  "SequenceVariant": "SK\\SS",
  "SeriesDescription": "func_run-02_task-social_acq-ap-mb8",
  "SeriesNumber": 10,
  "ShimSetting": [4138, -7782, -7243, 427, -158, -167, 54, 41],
  "SliceThickness": 2.7,
  "SliceTiming": [0, 0.25, 0.0625, 0.3125, 0.125, 0.375, 0.1875, 0, 0.25, 0.0625, 0.3125, 0.125, 0.375, 0.1875, 0, 0.25, 0.0625, 0.3125, 0.125, 0.375, 0.1875, 0, 0.25, 0.0625, 0.3125, 0.125, 0.375, 0.1875, 0, 0.25, 0.0625, 0.3125, 0.125, 0.375, 0.1875, 0, 0.25, 0.0625, 0.3125, 0.125, 0.375, 0.1875, 0, 0.25, 0.0625, 0.3125, 0.125, 0.375, 0.1875, 0, 0.25, 0.0625, 0.3125, 0.125, 0.375, 0.1875],
  "SoftwareVersions": "syngo MR E11",
  "SpacingBetweenSlices": 2.7,
  "StationName": "AWP66112",
  "TaskName": "social",
  "TotalReadoutTime": 0.03969,
  "TxRefAmp": 251.33,
  "WipMemBlock": "3c61aa37-8272-40b3-bfd6-2fee24dca530||Sequence: R016 ve11c/master r/e634e98; Dec 19 2017 11:00:25 by eja",
  "dcmmeta_affine": [
    [-2.673454999923706, -0.22261697053909302, -0.0345195010304451, 125.21573638916016],
    [-0.22166745364665985, 2.5277974605560303, 0.8768657445907593, -88.23226928710938],
    [0.03998032584786415, -0.8710789084434509, 2.553412437438965, -9.392427444458008],
    [0.0, 0.0, 0.0, 1.0]
],
  "dcmmeta_reorient_transform": [
    [0.0, -1.0, 0.0, 81.0],
    [1.0, 0.0, 0.0, 0.0],
    [0.0, 0.0, 1.0, 0.0],
    [0.0, 0.0, 0.0, 1.0]
],
  "dcmmeta_shape": [82, 82, 56, 872],
  "dcmmeta_slice_dim": 2,
  "dcmmeta_version": 0.6,
  "global": {
    "const": {
      "AccessionNumber": "A003531",
      "AcquisitionMatrix": [82, 0, 0, 82],
      "AngioFlag": "N",
      "BitsAllocated": 16,
      "BitsStored": 16,
      "BodyPartExamined": "BRAIN",
      "Columns": 656,
      "EchoNumbers": 1,
      "EchoTime": 27.2,
      "EchoTrainLength": 82,
      "FlipAngle": 44.0,
      "HighBit": 15,
      "ImageOrientationPatient": [0.99646958044792, 0.08262150364524, 0.01490175752554, -0.0829754120149, 0.94217902970015, 0.32467484810844],
      "ImagePositionPatient": [-810.57428733503, -905.61575371018, -341.42380985301],
      "ImageType": [
        "ORIGINAL",
        "PRIMARY",
        "M",
        "MB",
        "ND",
        "NORM",
        "MOSAIC"
],
      "ImagedNucleus": "1H",
      "ImagingFrequency": 123.252097,
      "InPlanePhaseEncodingDirection": "COL",
      "MRAcquisitionType": "2D",
      "MagneticFieldStrength": 3.0,
      "Manufacturer": "SIEMENS",
      "ManufacturerModelName": "Prisma",
      "Modality": "MR",
      "NumberOfAverages": 1.0,
      "NumberOfPhaseEncodingSteps": 82,
      "PercentPhaseFieldOfView": 100.0,
      "PercentSampling": 100.0,
      "PerformedProcedureStepStartTime": "084137.980000",
      "PhotometricInterpretation": "MONOCHROME2",
      "PixelBandwidth": 3050.0,
      "PixelRepresentation": 0,
      "PixelSpacing": [2.6829268932343, 2.6829268932343],
      "ProtocolName": "func_run-02_task-social_acq-ap-mb8",
      "RepetitionTime": 460.0,
      "Rows": 656,
      "SAR": 0.09754019298294,
      "SamplesPerPixel": 1,
      "ScanOptions": "FS",
      "ScanningSequence": "EP",
      "SequenceName": "epfid2d1_82",
      "SequenceVariant": [
        "SK",
        "SS"
],
      "SeriesDescription": "func_run-02_task-social_acq-ap-mb8",
      "SeriesNumber": 10,
      "SeriesTime": "100523.207000",
      "SliceLocation": -39.13814118515,
      "SliceThickness": 2.7000000476837,
      "SmallestImagePixelValue": 0,
      "SoftwareVersions": "syngo MR E11",
      "SpacingBetweenSlices": 2.7000000220317,
      "SpecificCharacterSet": "ISO_IR 100",
      "StudyID": "3",
      "StudyTime": "084137.898000",
      "TransmitCoilName": "Body",
      "VariableFlipAngleFlag": "N",
      "WindowCenterWidthExplanation": "Algo1",
      "dBdt": 0.0},
    "slices": {}
  },
  "time": {
    "samples": {
      "AcquisitionNumber": [1, 2, 3, 4, 5, 6, 7, 8, 9, 10, 11, 12, 13, 14, 15, 16, 17, 18, 19, 20, 21, 22, 23, 24, 25, 26, 27, 28, 29, 30, 31, 32, 33, 34, 35, 36, 37, 38, 39, 40, 41, 42, 43, 44, 45, 46, 47, 48, 49, 50, 51, 52, 53, 54, 55, 56, 57, 58, 59, 60, 61, 62, 63, 64, 65, 66, 67, 68, 69, 70, 71, 72, 73, 74, 75, 76, 77, 78, 79, 80, 81, 82, 83, 84, 85, 86, 87, 88, 89, 90, 91, 92, 93, 94, 95, 96, 97, 98, 99, 100, 101, 102, 103, 104, 105, 106, 107, 108, 109, 110, 111, 112, 113, 114, 115, 116, 117, 118, 119, 120, 121, 122, 123, 124, 125, 126, 127, 128, 129, 130, 131, 132, 133, 134, 135, 136, 137, 138, 139, 140, 141, 142, 143, 144, 145, 146, 147, 148, 149, 150, 151, 152, 153, 154, 155, 156, 157, 158, 159, 160, 161, 162, 163, 164, 165, 166, 167, 168, 169, 170, 171, 172, 173, 174, 175, 176, 177, 178, 179, 180, 181, 182, 183, 184, 185, 186, 187, 188, 189, 190, 191, 192, 193, 194, 195, 196, 197, 198, 199, 200, 201, 202, 203, 204, 205, 206, 207, 208, 209, 210, 211, 212, 213, 214, 215, 216, 217, 218, 219, 220, 221, 222, 223, 224, 225, 226, 227, 228, 229, 230, 231, 232, 233, 234, 235, 236, 237, 238, 239, 240, 241, 242, 243, 244, 245, 246, 247, 248, 249, 250, 251, 252, 253, 254, 255, 256, 257, 258, 259, 260, 261, 262, 263, 264, 265, 266, 267, 268, 269, 270, 271, 272, 273, 274, 275, 276, 277, 278, 279, 280, 281, 282, 283, 284, 285, 286, 287, 288, 289, 290, 291, 292, 293, 294, 295, 296, 297, 298, 299, 300, 301, 302, 303, 304, 305, 306, 307, 308, 309, 310, 311, 312, 313, 314, 315, 316, 317, 318, 319, 320, 321, 322, 323, 324, 325, 326, 327, 328, 329, 330, 331, 332, 333, 334, 335, 336, 337, 338, 339, 340, 341, 342, 343, 344, 345, 346, 347, 348, 349, 350, 351, 352, 353, 354, 355, 356, 357, 358, 359, 360, 361, 362, 363, 364, 365, 366, 367, 368, 369, 370, 371, 372, 373, 374, 375, 376, 377, 378, 379, 380, 381, 382, 383, 384, 385, 386, 387, 388, 389, 390, 391, 392, 393, 394, 395, 396, 397, 398, 399, 400, 401, 402, 403, 404, 405, 406, 407, 408, 409, 410, 411, 412, 413, 414, 415, 416, 417, 418, 419, 420, 421, 422, 423, 424, 425, 426, 427, 428, 429, 430, 431, 432, 433, 434, 435, 436, 437, 438, 439, 440, 441, 442, 443, 444, 445, 446, 447, 448, 449, 450, 451, 452, 453, 454, 455, 456, 457, 458, 459, 460, 461, 462, 463, 464, 465, 466, 467, 468, 469, 470, 471, 472, 473, 474, 475, 476, 477, 478, 479, 480, 481, 482, 483, 484, 485, 486, 487, 488, 489, 490, 491, 492, 493, 494, 495, 496, 497, 498, 499, 500, 501, 502, 503, 504, 505, 506, 507, 508, 509, 510, 511, 512, 513, 514, 515, 516, 517, 518, 519, 520, 521, 522, 523, 524, 525, 526, 527, 528, 529, 530, 531, 532, 533, 534, 535, 536, 537, 538, 539, 540, 541, 542, 543, 544, 545, 546, 547, 548, 549, 550, 551, 552, 553, 554, 555, 556, 557, 558, 559, 560, 561, 562, 563, 564, 565, 566, 567, 568, 569, 570, 571, 572, 573, 574, 575, 576, 577, 578, 579, 580, 581, 582, 583, 584, 585, 586, 587, 588, 589, 590, 591, 592, 593, 594, 595, 596, 597, 598, 599, 600, 601, 602, 603, 604, 605, 606, 607, 608, 609, 610, 611, 612, 613, 614, 615, 616, 617, 618, 619, 620, 621, 622, 623, 624, 625, 626, 627, 628, 629, 630, 631, 632, 633, 634, 635, 636, 637, 638, 639, 640, 641, 642, 643, 644, 645, 646, 647, 648, 649, 650, 651, 652, 653, 654, 655, 656, 657, 658, 659, 660, 661, 662, 663, 664, 665, 666, 667, 668, 669, 670, 671, 672, 673, 674, 675, 676, 677, 678, 679, 680, 681, 682, 683, 684, 685, 686, 687, 688, 689, 690, 691, 692, 693, 694, 695, 696, 697, 698, 699, 700, 701, 702, 703, 704, 705, 706, 707, 708, 709, 710, 711, 712, 713, 714, 715, 716, 717, 718, 719, 720, 721, 722, 723, 724, 725, 726, 727, 728, 729, 730, 731, 732, 733, 734, 735, 736, 737, 738, 739, 740, 741, 742, 743, 744, 745, 746, 747, 748, 749, 750, 751, 752, 753, 754, 755, 756, 757, 758, 759, 760, 761, 762, 763, 764, 765, 766, 767, 768, 769, 770, 771, 772, 773, 774, 775, 776, 777, 778, 779, 780, 781, 782, 783, 784, 785, 786, 787, 788, 789, 790, 791, 792, 793, 794, 795, 796, 797, 798, 799, 800, 801, 802, 803, 804, 805, 806, 807, 808, 809, 810, 811, 812, 813, 814, 815, 816, 817, 818, 819, 820, 821, 822, 823, 824, 825, 826, 827, 828, 829, 830, 831, 832, 833, 834, 835, 836, 837, 838, 839, 840, 841, 842, 843, 844, 845, 846, 847, 848, 849, 850, 851, 852, 853, 854, 855, 856, 857, 858, 859, 860, 861, 862, 863, 864, 865, 866, 867, 868, 869, 870, 871, 872],
      "AcquisitionTime": ["100511.557500", "100512.017500", "100512.477500", "100512.937500", "100513.397500", "100513.857500", "100514.317500", "100514.777500", "100515.237500", "100515.697500", "100516.157500", "100516.617500", "100517.077500", "100517.537500", "100517.997500", "100518.457500", "100518.917500", "100519.377500", "100519.837500", "100520.297500", "100520.757500", "100521.217500", "100521.677500", "100522.137500", "100522.597500", "100523.057500", "100523.517500", "100523.977500", "100524.437500", "100524.897500", "100525.357500", "100525.817500", "100526.277500", "100526.737500", "100527.197500", "100527.657500", "100528.117500", "100528.577500", "100529.037500", "100529.497500", "100529.957500", "100530.417500", "100530.877500", "100531.337500", "100531.797500", "100532.257500", "100532.717500", "100533.177500", "100533.637500", "100534.097500", "100534.557500", "100535.017500", "100535.477500", "100535.937500", "100536.397500", "100536.857500", "100537.317500", "100537.777500", "100538.237500", "100538.697500", "100539.157500", "100539.617500", "100540.077500", "100540.537500", "100540.997500", "100541.457500", "100541.917500", "100542.377500", "100542.837500", "100543.297500", "100543.757500", "100544.217500", "100544.677500", "100545.137500", "100545.597500", "100546.057500", "100546.517500", "100546.977500", "100547.437500", "100547.897500", "100548.357500", "100548.817500", "100549.277500", "100549.737500", "100550.197500", "100550.657500", "100551.117500", "100551.577500", "100552.037500", "100552.497500", "100552.957500", "100553.417500", "100553.877500", "100554.337500", "100554.797500", "100555.257500", "100555.717500", "100556.177500", "100556.637500", "100557.097500", "100557.557500", "100558.017500", "100558.477500", "100558.937500", "100559.397500", "100559.857500", "100600.317500", "100600.777500", "100601.237500", "100601.697500", "100602.157500", "100602.617500", "100603.077500", "100603.537500", "100603.997500", "100604.457500", "100604.917500", "100605.377500", "100605.837500", "100606.297500", "100606.757500", "100607.217500", "100607.677500", "100608.137500", "100608.597500", "100609.057500", "100609.517500", "100609.977500", "100610.437500", "100610.897500", "100611.357500", "100611.817500", "100612.277500", "100612.737500", "100613.197500", "100613.657500", "100614.117500", "100614.577500", "100615.037500", "100615.497500", "100615.957500", "100616.417500", "100616.877500", "100617.337500", "100617.797500", "100618.257500", "100618.717500", "100619.177500", "100619.637500", "100620.097500", "100620.557500", "100621.017500", "100621.477500", "100621.937500", "100622.397500", "100622.857500", "100623.317500", "100623.777500", "100624.237500", "100624.697500", "100625.157500", "100625.617500", "100626.077500", "100626.537500", "100626.997500", "100627.457500", "100627.917500", "100628.377500", "100628.837500", "100629.297500", "100629.757500", "100630.217500", "100630.677500", "100631.137500", "100631.597500", "100632.057500", "100632.517500", "100632.977500", "100633.437500", "100633.897500", "100634.357500", "100634.817500", "100635.277500", "100635.737500", "100636.197500", "100636.657500", "100637.117500", "100637.577500", "100638.037500", "100638.497500", "100638.957500", "100639.417500", "100639.877500", "100640.337500", "100640.797500", "100641.257500", "100641.717500", "100642.177500", "100642.637500", "100643.097500", "100643.557500", "100644.017500", "100644.477500", "100644.937500", "100645.397500", "100645.857500", "100646.317500", "100646.777500", "100647.237500", "100647.697500", "100648.157500", "100648.617500", "100649.077500", "100649.537500", "100649.997500", "100650.457500", "100650.917500", "100651.377500", "100651.837500", "100652.297500", "100652.757500", "100653.217500", "100653.677500", "100654.137500", "100654.597500", "100655.057500", "100655.517500", "100655.977500", "100656.437500", "100656.897500", "100657.357500", "100657.817500", "100658.277500", "100658.737500", "100659.197500", "100659.657500", "100700.117500", "100700.577500", "100701.037500", "100701.497500", "100701.957500", "100702.417500", "100702.877500", "100703.337500", "100703.797500", "100704.257500", "100704.717500", "100705.177500", "100705.637500", "100706.097500", "100706.557500", "100707.017500", "100707.477500", "100707.937500", "100708.397500", "100708.857500", "100709.317500", "100709.777500", "100710.237500", "100710.697500", "100711.157500", "100711.617500", "100712.077500", "100712.537500", "100712.997500", "100713.457500", "100713.917500", "100714.377500", "100714.837500", "100715.297500", "100715.757500", "100716.217500", "100716.677500", "100717.137500", "100717.597500", "100718.057500", "100718.517500", "100718.977500", "100719.437500", "100719.897500", "100720.357500", "100720.817500", "100721.277500", "100721.737500", "100722.197500", "100722.657500", "100723.117500", "100723.577500", "100724.037500", "100724.497500", "100724.957500", "100725.417500", "100725.877500", "100726.337500", "100726.797500", "100727.257500", "100727.717500", "100728.177500", "100728.637500", "100729.097500", "100729.557500", "100730.017500", "100730.477500", "100730.937500", "100731.397500", "100731.857500", "100732.317500", "100732.777500", "100733.237500", "100733.697500", "100734.157500", "100734.617500", "100735.077500", "100735.537500", "100735.997500", "100736.457500", "100736.917500", "100737.377500", "100737.837500", "100738.297500", "100738.757500", "100739.217500", "100739.677500", "100740.137500", "100740.597500", "100741.057500", "100741.517500", "100741.977500", "100742.437500", "100742.897500", "100743.357500", "100743.817500", "100744.277500", "100744.737500", "100745.197500", "100745.657500", "100746.117500", "100746.577500", "100747.037500", "100747.497500", "100747.957500", "100748.417500", "100748.877500", "100749.337500", "100749.797500", "100750.257500", "100750.717500", "100751.177500", "100751.637500", "100752.097500", "100752.557500", "100753.017500", "100753.477500", "100753.937500", "100754.397500", "100754.857500", "100755.317500", "100755.777500", "100756.237500", "100756.697500", "100757.157500", "100757.617500", "100758.077500", "100758.537500", "100758.997500", "100759.457500", "100759.917500", "100800.377500", "100800.837500", "100801.297500", "100801.757500", "100802.217500", "100802.677500", "100803.137500", "100803.597500", "100804.057500", "100804.517500", "100804.977500", "100805.437500", "100805.897500", "100806.357500", "100806.817500", "100807.277500", "100807.737500", "100808.197500", "100808.657500", "100809.117500", "100809.577500", "100810.037500", "100810.497500", "100810.957500", "100811.417500", "100811.877500", "100812.337500", "100812.797500", "100813.257500", "100813.717500", "100814.177500", "100814.637500", "100815.097500", "100815.557500", "100816.017500", "100816.477500", "100816.937500", "100817.397500", "100817.857500", "100818.317500", "100818.777500", "100819.237500", "100819.697500", "100820.157500", "100820.617500", "100821.077500", "100821.537500", "100821.997500", "100822.457500", "100822.917500", "100823.377500", "100823.837500", "100824.297500", "100824.757500", "100825.217500", "100825.677500", "100826.137500", "100826.597500", "100827.057500", "100827.517500", "100827.977500", "100828.437500", "100828.897500", "100829.357500", "100829.817500", "100830.277500", "100830.737500", "100831.197500", "100831.657500", "100832.117500", "100832.577500", "100833.037500", "100833.497500", "100833.957500", "100834.417500", "100834.877500", "100835.337500", "100835.797500", "100836.257500", "100836.717500", "100837.177500", "100837.637500", "100838.097500", "100838.557500", "100839.017500", "100839.477500", "100839.937500", "100840.397500", "100840.857500", "100841.317500", "100841.777500", "100842.237500", "100842.697500", "100843.157500", "100843.617500", "100844.077500", "100844.537500", "100844.997500", "100845.457500", "100845.917500", "100846.377500", "100846.837500", "100847.297500", "100847.757500", "100848.217500", "100848.677500", "100849.137500", "100849.597500", "100850.057500", "100850.517500", "100850.977500", "100851.437500", "100851.897500", "100852.357500", "100852.817500", "100853.277500", "100853.737500", "100854.197500", "100854.657500", "100855.117500", "100855.577500", "100856.037500", "100856.497500", "100856.957500", "100857.417500", "100857.877500", "100858.337500", "100858.797500", "100859.257500", "100859.717500", "100900.177500", "100900.637500", "100901.097500", "100901.557500", "100902.017500", "100902.477500", "100902.937500", "100903.397500", "100903.857500", "100904.317500", "100904.777500", "100905.237500", "100905.697500", "100906.157500", "100906.617500", "100907.077500", "100907.537500", "100907.997500", "100908.457500", "100908.917500", "100909.377500", "100909.837500", "100910.297500", "100910.757500", "100911.217500", "100911.677500", "100912.137500", "100912.597500", "100913.057500", "100913.517500", "100913.977500", "100914.437500", "100914.897500", "100915.357500", "100915.817500", "100916.277500", "100916.737500", "100917.197500", "100917.657500", "100918.117500", "100918.577500", "100919.037500", "100919.497500", "100919.957500", "100920.417500", "100920.877500", "100921.337500", "100921.797500", "100922.257500", "100922.717500", "100923.177500", "100923.637500", "100924.097500", "100924.557500", "100925.017500", "100925.477500", "100925.937500", "100926.397500", "100926.857500", "100927.317500", "100927.777500", "100928.237500", "100928.697500", "100929.157500", "100929.617500", "100930.077500", "100930.537500", "100930.997500", "100931.457500", "100931.917500", "100932.377500", "100932.837500", "100933.297500", "100933.757500", "100934.217500", "100934.677500", "100935.137500", "100935.597500", "100936.057500", "100936.517500", "100936.977500", "100937.437500", "100937.897500", "100938.357500", "100938.817500", "100939.277500", "100939.737500", "100940.197500", "100940.657500", "100941.117500", "100941.577500", "100942.037500", "100942.497500", "100942.957500", "100943.417500", "100943.877500", "100944.337500", "100944.797500", "100945.257500", "100945.717500", "100946.177500", "100946.637500", "100947.097500", "100947.557500", "100948.017500", "100948.477500", "100948.937500", "100949.397500", "100949.857500", "100950.317500", "100950.777500", "100951.237500", "100951.697500", "100952.157500", "100952.617500", "100953.077500", "100953.537500", "100953.997500", "100954.457500", "100954.917500", "100955.377500", "100955.837500", "100956.297500", "100956.757500", "100957.217500", "100957.677500", "100958.137500", "100958.597500", "100959.057500", "100959.517500", "100959.977500", "101000.437500", "101000.897500", "101001.357500", "101001.817500", "101002.277500", "101002.737500", "101003.197500", "101003.657500", "101004.117500", "101004.577500", "101005.037500", "101005.497500", "101005.957500", "101006.417500", "101006.877500", "101007.337500", "101007.797500", "101008.257500", "101008.717500", "101009.177500", "101009.637500", "101010.097500", "101010.557500", "101011.017500", "101011.477500", "101011.937500", "101012.397500", "101012.857500", "101013.317500", "101013.777500", "101014.237500", "101014.697500", "101015.157500", "101015.617500", "101016.077500", "101016.537500", "101016.997500", "101017.457500", "101017.917500", "101018.377500", "101018.837500", "101019.297500", "101019.757500", "101020.217500", "101020.677500", "101021.137500", "101021.597500", "101022.057500", "101022.517500", "101022.977500", "101023.437500", "101023.897500", "101024.357500", "101024.817500", "101025.277500", "101025.737500", "101026.197500", "101026.657500", "101027.117500", "101027.577500", "101028.037500", "101028.497500", "101028.957500", "101029.417500", "101029.877500", "101030.337500", "101030.797500", "101031.257500", "101031.717500", "101032.177500", "101032.637500", "101033.097500", "101033.557500", "101034.017500", "101034.477500", "101034.937500", "101035.397500", "101035.857500", "101036.317500", "101036.777500", "101037.237500", "101037.697500", "101038.157500", "101038.617500", "101039.077500", "101039.537500", "101039.997500", "101040.457500", "101040.917500", "101041.377500", "101041.837500", "101042.297500", "101042.757500", "101043.217500", "101043.677500", "101044.137500", "101044.597500", "101045.057500", "101045.517500", "101045.977500", "101046.437500", "101046.897500", "101047.357500", "101047.817500", "101048.277500", "101048.737500", "101049.197500", "101049.657500", "101050.117500", "101050.577500", "101051.037500", "101051.497500", "101051.957500", "101052.417500", "101052.877500", "101053.337500", "101053.797500", "101054.257500", "101054.717500", "101055.177500", "101055.637500", "101056.097500", "101056.557500", "101057.017500", "101057.477500", "101057.937500", "101058.397500", "101058.857500", "101059.317500", "101059.777500", "101100.237500", "101100.697500", "101101.157500", "101101.617500", "101102.077500", "101102.537500", "101102.997500", "101103.457500", "101103.917500", "101104.377500", "101104.837500", "101105.297500", "101105.757500", "101106.217500", "101106.677500", "101107.137500", "101107.597500", "101108.057500", "101108.517500", "101108.977500", "101109.437500", "101109.897500", "101110.357500", "101110.817500", "101111.277500", "101111.737500", "101112.197500", "101112.657500", "101113.117500", "101113.577500", "101114.037500", "101114.497500", "101114.957500", "101115.417500", "101115.877500", "101116.337500", "101116.797500", "101117.257500", "101117.717500", "101118.177500", "101118.637500", "101119.097500", "101119.557500", "101120.017500", "101120.477500", "101120.937500", "101121.397500", "101121.857500", "101122.317500", "101122.777500", "101123.237500", "101123.697500", "101124.157500", "101124.617500", "101125.077500", "101125.537500", "101125.997500", "101126.457500", "101126.917500", "101127.377500", "101127.837500", "101128.297500", "101128.757500", "101129.217500", "101129.677500", "101130.137500", "101130.597500", "101131.057500", "101131.517500", "101131.977500", "101132.437500", "101132.897500", "101133.357500", "101133.817500", "101134.277500", "101134.737500", "101135.197500", "101135.657500", "101136.117500", "101136.577500", "101137.037500", "101137.497500", "101137.957500", "101138.417500", "101138.877500", "101139.337500", "101139.797500", "101140.257500", "101140.717500", "101141.177500", "101141.637500", "101142.097500", "101142.557500", "101143.017500", "101143.477500", "101143.937500", "101144.397500", "101144.857500", "101145.317500", "101145.777500", "101146.237500", "101146.697500", "101147.157500", "101147.617500", "101148.077500", "101148.537500", "101148.997500", "101149.457500", "101149.917500", "101150.377500", "101150.837500", "101151.297500", "101151.757500", "101152.217500"],
