{
  "AcquisitionMatrixPE": 140,
  "AcquisitionNumber": 1,
  "AcquisitionTime": "16:11:56.012500",
  "BandwidthPerPixelPhaseEncode": 10.352,
  "BaseResolution": 140,
  "BodyPartExamined": "BRAIN",
  "ConsistencyInfo": "N4_VE11E_LATEST_20181129",
  "ConversionSoftware": "dcm2niix",
  "ConversionSoftwareVersion": "v1.0.20201102",
  "DerivedVendorReportedEchoSpacing": 0.000689998,
  "DeviceSerialNumber": "66112",
  "DiffusionScheme": "Monopolar",
  "DwellTime": 2.1e-06,
  "EchoTime": 0.088,
  "EchoTrainLength": 105,
  "EffectiveEchoSpacing": 0.000689998,
  "FlipAngle": 90,
  "ImageComments": "Unaliased MB3/PE3",
  "ImageOrientationPatientDICOM": [0.999681, -0.0180643, 0.0176504, 0.012912, 0.966184, 0.25753],
  "ImageType": [
    "ORIGINAL",
    "PRIMARY",
    "DIFFUSION",
    "NONE",
    "MB",
    "ND"
],
  "ImagingFrequency": 123.252,
  "InPlanePhaseEncodingDirectionDICOM": "COL",
  "InstitutionAddress": "Maynard 3,Hanover,NH,US,03755",
  "InstitutionName": "Dartmouth College - PBS",
  "InstitutionalDepartmentName": "Department",
  "IntendedFor": [
    "ses-01/dwi/sub-0077_ses-01_acq-96dirX6b0Xmb_dwi.nii.gz"
],
  "MRAcquisitionType": "2D",
  "MagneticFieldStrength": 3,
  "Manufacturer": "Siemens",
  "ManufacturersModelName": "Prisma",
  "Modality": "MR",
  "MultibandAccelerationFactor": 3,
  "PartialFourier": 0.75,
  "PatientPosition": "HFS",
  "PercentPhaseFOV": 100,
  "PercentSampling": 100,
  "PhaseEncodingDirection": "j-",
  "PhaseEncodingSteps": 105,
  "PhaseResolution": 1,
  "PixelBandwidth": 1700,
  "ProcedureStepDescription": "Wager_Wager^1076_spacetop",
  "ProtocolName": "dwi_acq-discorr-AP",
  "PulseSequenceDetails": "%CustomerSeq%\\cmrr_mbep2d_diff",
  "ReceiveCoilActiveElements": "HEA;HEP",
  "ReceiveCoilName": "Head_32",
  "ReconMatrixPE": 140,
  "RepetitionTime": 4.1,
  "SAR": 0.133642,
  "ScanOptions": "PFP\\FS",
  "ScanningSequence": "EP",
  "SequenceName": "ep_b0",
  "SequenceVariant": "SK\\SS",
  "SeriesDescription": "dwi_acq-discorr-AP",
  "SeriesNumber": 7,
  "ShimSetting": [4161, -7717, -7251, 680, -57, -46, -58, 26],
  "SliceThickness": 1.7,
  "SliceTiming": [0, 2.10938, 0.15625, 2.26562, 0.29688, 2.42188, 0.45312, 2.5625, 0.60938, 2.71875, 0.75, 2.875, 0.90625, 3.01562, 1.04688, 3.17188, 1.20312, 3.32812, 1.35938, 3.46875, 1.51562, 3.625, 1.65625, 3.78125, 1.8125, 3.92188, 1.96875, 0, 2.10938, 0.15625, 2.26562, 0.29688, 2.42188, 0.45312, 2.5625, 0.60938, 2.71875, 0.75, 2.875, 0.90625, 3.01562, 1.04688, 3.17188, 1.20312, 3.32812, 1.35938, 3.46875, 1.51562, 3.625, 1.65625, 3.78125, 1.8125, 3.92188, 1.96875, 0, 2.10938, 0.15625, 2.26562, 0.29688, 2.42188, 0.45312, 2.5625, 0.60938, 2.71875, 0.75, 2.875, 0.90625, 3.01562, 1.04688, 3.17188, 1.20312, 3.32812, 1.35938, 3.46875, 1.51562, 3.625, 1.65625, 3.78125, 1.8125, 3.92188, 1.96875],
  "SoftwareVersions": "syngo MR E11",
  "SpacingBetweenSlices": 1.7,
  "StationName": "AWP66112",
  "TotalReadoutTime": 0.0959097,
  "TxRefAmp": 232.593,
  "WipMemBlock": "bdd1fe55-784f-4350-8f31-3bd67c5f7074||Sequence: R016 ve11e/master r/434b28f1; Aug  7 2019 19:06:17 by eja",
  "dcmmeta_affine": [
    [-1.7137389183044434, 0.022134913131594658, 0.03689932823181152, 119.2621841430664],
    [0.030967339873313904, 1.6563154458999634, 0.4372749328613281, -102.0564193725586],
    [0.03025779500603676, -0.44148024916648865, 1.6423797607421875, -22.647531509399414],
    [0.0, 0.0, 0.0, 1.0]
],
  "dcmmeta_reorient_transform": [
    [0.0, -1.0, 0.0, 139.0],
    [1.0, 0.0, 0.0, 0.0],
    [0.0, 0.0, -1.0, 80.0],
    [0.0, 0.0, 0.0, 1.0]
],
  "dcmmeta_shape": [140, 140, 81],
  "dcmmeta_slice_dim": 2,
  "dcmmeta_version": 0.6,
  "global": {
    "const": {
      "AccessionNumber": "A004017",
      "AcquisitionMatrix": [140, 0, 0, 140],
      "AcquisitionNumber": 1,
      "AngioFlag": "N",
      "BitsAllocated": 16,
      "BitsStored": 16,
      "BodyPartExamined": "BRAIN",
      "Columns": 140,
      "EchoNumbers": 1,
      "EchoTime": 88.0,
      "EchoTrainLength": 105,
      "FlipAngle": 90.0,
      "HighBit": 15,
      "ImageOrientationPatient": [0.99968102203524, -0.0180642810134, 0.01765038056401, 0.01291203293141, 0.96618399334097, 0.25753013496925],
      "ImageType": [
        "ORIGINAL",
        "PRIMARY",
        "DIFFUSION",
        "NONE",
        "MB",
        "ND"
],
      "ImagedNucleus": "1H",
      "ImagingFrequency": 123.252192,
      "InPlanePhaseEncodingDirection": "COL",
      "MRAcquisitionType": "2D",
      "MagneticFieldStrength": 3.0,
      "Manufacturer": "SIEMENS",
      "ManufacturerModelName": "Prisma",
      "Modality": "MR",
      "NumberOfAverages": 1.0,
      "NumberOfPhaseEncodingSteps": 105,
      "PercentPhaseFieldOfView": 100.0,
      "PercentSampling": 100.0,
      "PerformedProcedureStepStartTime": "155909.629000",
      "PhotometricInterpretation": "MONOCHROME2",
      "PixelBandwidth": 1700.0,
      "PixelRepresentation": 0,
      "PixelSpacing": [1.7142857313156, 1.7142857313156],
      "ProtocolName": "dwi_acq-discorr-AP",
      "RepetitionTime": 4100.0,
      "Rows": 140,
      "SAR": 0.13364173462081,
      "SamplesPerPixel": 1,
      "ScanOptions": [
        "PFP",
        "FS"
],
      "ScanningSequence": "EP",
      "SequenceName": "ep_b0",
      "SequenceVariant": [
        "SK",
        "SS"
],
      "SeriesDescription": "dwi_acq-discorr-AP",
      "SeriesNumber": 7,
      "SeriesTime": "161200.845000",
      "SliceThickness": 1.7000000476837,
      "SmallestImagePixelValue": 0,
      "SoftwareVersions": "syngo MR E11",
      "SpacingBetweenSlices": 1.7,
      "SpecificCharacterSet": "ISO_IR 100",
      "StudyID": "1",
      "StudyTime": "155909.565000",
      "TransmitCoilName": "Body",
      "VariableFlipAngleFlag": "N",
      "WindowCenterWidthExplanation": "Algo1"
    },
    "slices": {
      "AcquisitionTime": ["161156.012500", "161158.127500", "161156.165000", "161158.280000", "161156.315000", "161158.430000", "161156.467500", "161158.582500", "161156.617500", "161158.732500", "161156.767500", "161158.885000", "161156.920000", "161159.035000", "161157.070000", "161159.187500", "161157.222500", "161159.337500", "161157.372500", "161159.487500", "161157.525000", "161159.640000", "161157.675000", "161159.790000", "161157.827500", "161159.942500", "161157.977500", "161156.012500", "161158.127500", "161156.165000", "161158.280000", "161156.315000", "161158.430000", "161156.467500", "161158.582500", "161156.617500", "161158.732500", "161156.767500", "161158.885000", "161156.920000", "161159.035000", "161157.070000", "161159.187500", "161157.222500", "161159.337500", "161157.372500", "161159.487500", "161157.525000", "161159.640000", "161157.675000", "161159.790000", "161157.827500", "161159.942500", "161157.977500", "161156.012500", "161158.127500", "161156.165000", "161158.280000", "161156.315000", "161158.430000", "161156.467500", "161158.582500", "161156.617500", "161158.732500", "161156.767500", "161158.885000", "161156.920000", "161159.035000", "161157.070000", "161159.187500", "161157.222500", "161159.337500", "161157.372500", "161159.487500", "161157.525000", "161159.640000", "161157.675000", "161159.790000", "161157.827500", "161159.942500", "161157.977500"],
      "ContentTime": ["161200.848000", "161200.938000", "161200.854000", "161200.944000", "161200.860000", "161200.950000", "161200.866000", "161200.957000", "161200.875000", "161200.964000", "161200.881000", "161200.970000", "161200.888000", "161200.976000", "161200.893000", "161200.982000", "161200.899000", "161200.988000", "161200.905000", "161200.995000", "161200.911000", "161201.002000", "161200.920000", "161201.008000", "161200.926000", "161201.014000", "161200.932000", "161200.851000", "161200.940000", "161200.856000", "161200.946000", "161200.862000", "161200.952000", "161200.868000", "161200.959000", "161200.877000", "161200.966000", "161200.883000", "161200.972000", "161200.890000", "161200.978000", "161200.895000", "161200.984000", "161200.901000", "161200.990000", "161200.907000", "161200.997000", "161200.913000", "161201.004000", "161200.922000", "161201.010000", "161200.928000", "161201.016000", "161200.934000", "161200.852000", "161200.942000", "161200.858000", "161200.948000", "161200.864000", "161200.955000", "161200.870000", "161200.962000", "161200.879000", "161200.968000", "161200.886000", "161200.974000", "161200.891000", "161200.980000", "161200.897000", "161200.986000", "161200.903000", "161200.992000", "161200.909000", "161201.000000", "161200.915000", "161201.006000", "161200.924000", "161201.012000", "161200.930000", "161201.018000", "161200.936000"],
      "CsaImage.GSWDDataType": [
        "predicted",
        "predicted",
        "predicted",
        "predicted",
        "predicted",
        "predicted",
        "predicted",
        "predicted",
        "predicted",
        "predicted",
        "predicted",
        "predicted",
        "predicted",
        "predicted",
        "predicted",
        "predicted",
        "predicted",
        "predicted",
        "predicted",
        "predicted",
        "predicted",
        "predicted",
        "predicted",
        "measured",
        "predicted",
        "measured",
        "predicted",
        "predicted",
        "predicted",
        "predicted",
        "predicted",
        "predicted",
        "predicted",
        "predicted",
        "predicted",
        "predicted",
        "predicted",
        "predicted",
        "predicted",
        "predicted",
        "predicted",
        "predicted",
        "predicted",
        "predicted",
        "predicted",
        "predicted",
        "predicted",
        "predicted",
        "predicted",
        "predicted",
        "measured",
        "predicted",
        "measured",
        "predicted",
        "predicted",
        "predicted",
        "predicted",
        "predicted",
        "predicted",
        "predicted",
        "predicted",
        "predicted",
        "predicted",
        "predicted",
        "predicted",
        "predicted",
        "predicted",
        "predicted",
        "predicted",
        "predicted",
        "predicted",
        "predicted",
        "predicted",
        "predicted",
        "predicted",
        "predicted",
        "predicted",
        "measured",
        "predicted",
        "measured",
        "predicted"
],
      "CsaImage.ICE_Dims": [
        "X_1_1_1_1_1_1_1_1_1_1_1_197",
        "X_1_1_1_1_1_1_42_1_1_2_1_197",
        "X_1_1_1_1_1_1_2_1_1_3_1_197",
        "X_1_1_1_1_1_1_43_1_1_4_1_197",
        "X_1_1_1_1_1_1_3_1_1_5_1_197",
        "X_1_1_1_1_1_1_44_1_1_6_1_197",
        "X_1_1_1_1_1_1_4_1_1_7_1_197",
        "X_1_1_1_1_1_1_45_1_1_8_1_197",
        "X_1_1_1_1_1_1_5_1_1_9_1_197",
        "X_1_1_1_1_1_1_46_1_1_10_1_197",
        "X_1_1_1_1_1_1_6_1_1_11_1_197",
        "X_1_1_1_1_1_1_47_1_1_12_1_197",
        "X_1_1_1_1_1_1_7_1_1_13_1_197",
        "X_1_1_1_1_1_1_48_1_1_14_1_197",
        "X_1_1_1_1_1_1_8_1_1_15_1_197",
        "X_1_1_1_1_1_1_49_1_1_16_1_197",
        "X_1_1_1_1_1_1_9_1_1_17_1_197",
        "X_1_1_1_1_1_1_50_1_1_18_1_197",
        "X_1_1_1_1_1_1_10_1_1_19_1_197",
        "X_1_1_1_1_1_1_51_1_1_20_1_197",
        "X_1_1_1_1_1_1_11_1_1_21_1_197",
        "X_1_1_1_1_1_1_52_1_1_22_1_197",
        "X_1_1_1_1_1_1_12_1_1_23_1_197",
        "X_1_1_1_1_1_1_53_1_1_24_1_197",
        "X_1_1_1_1_1_1_13_1_1_25_1_197",
        "X_1_1_1_1_1_1_54_1_1_26_1_197",
        "X_1_1_1_1_1_1_14_1_1_27_1_197",
        "X_1_1_1_1_1_1_55_1_1_28_1_197",
        "X_1_1_1_1_1_1_15_1_1_29_1_197",
        "X_1_1_1_1_1_1_56_1_1_30_1_197",
        "X_1_1_1_1_1_1_16_1_1_31_1_197",
        "X_1_1_1_1_1_1_57_1_1_32_1_197",
        "X_1_1_1_1_1_1_17_1_1_33_1_197",
        "X_1_1_1_1_1_1_58_1_1_34_1_197",
        "X_1_1_1_1_1_1_18_1_1_35_1_197",
        "X_1_1_1_1_1_1_59_1_1_36_1_197",
        "X_1_1_1_1_1_1_19_1_1_37_1_197",
        "X_1_1_1_1_1_1_60_1_1_38_1_197",
        "X_1_1_1_1_1_1_20_1_1_39_1_197",
        "X_1_1_1_1_1_1_61_1_1_40_1_197",
        "X_1_1_1_1_1_1_21_1_1_41_1_197",
        "X_1_1_1_1_1_1_62_1_1_42_1_197",
        "X_1_1_1_1_1_1_22_1_1_43_1_197",
        "X_1_1_1_1_1_1_63_1_1_44_1_197",
        "X_1_1_1_1_1_1_23_1_1_45_1_197",
        "X_1_1_1_1_1_1_64_1_1_46_1_197",
        "X_1_1_1_1_1_1_24_1_1_47_1_197",
        "X_1_1_1_1_1_1_65_1_1_48_1_197",
        "X_1_1_1_1_1_1_25_1_1_49_1_197",
        "X_1_1_1_1_1_1_66_1_1_50_1_197",
        "X_1_1_1_1_1_1_26_1_1_51_1_197",
        "X_1_1_1_1_1_1_67_1_1_52_1_197",
        "X_1_1_1_1_1_1_27_1_1_53_1_197",
        "X_1_1_1_1_1_1_68_1_1_54_1_197",
        "X_1_1_1_1_1_1_28_1_1_55_1_197",
        "X_1_1_1_1_1_1_69_1_1_56_1_197",
        "X_1_1_1_1_1_1_29_1_1_57_1_197",
        "X_1_1_1_1_1_1_70_1_1_58_1_197",
        "X_1_1_1_1_1_1_30_1_1_59_1_197",
        "X_1_1_1_1_1_1_71_1_1_60_1_197",
        "X_1_1_1_1_1_1_31_1_1_61_1_197",
        "X_1_1_1_1_1_1_72_1_1_62_1_197",
        "X_1_1_1_1_1_1_32_1_1_63_1_197",
        "X_1_1_1_1_1_1_73_1_1_64_1_197",
        "X_1_1_1_1_1_1_33_1_1_65_1_197",
        "X_1_1_1_1_1_1_74_1_1_66_1_197",
        "X_1_1_1_1_1_1_34_1_1_67_1_197",
        "X_1_1_1_1_1_1_75_1_1_68_1_197",
        "X_1_1_1_1_1_1_35_1_1_69_1_197",
        "X_1_1_1_1_1_1_76_1_1_70_1_197",
        "X_1_1_1_1_1_1_36_1_1_71_1_197",
        "X_1_1_1_1_1_1_77_1_1_72_1_197",
        "X_1_1_1_1_1_1_37_1_1_73_1_197",
        "X_1_1_1_1_1_1_78_1_1_74_1_197",
        "X_1_1_1_1_1_1_38_1_1_75_1_197",
        "X_1_1_1_1_1_1_79_1_1_76_1_197",
        "X_1_1_1_1_1_1_39_1_1_77_1_197",
        "X_1_1_1_1_1_1_80_1_1_78_1_197",
        "X_1_1_1_1_1_1_40_1_1_79_1_197",
        "X_1_1_1_1_1_1_81_1_1_80_1_197",
        "X_1_1_1_1_1_1_41_1_1_81_1_197"
],
      "CsaImage.ProtocolSliceNumber": [0, 1, 2, 3, 4, 5, 6, 7, 8, 9, 10, 11, 12, 13, 14, 15, 16, 17, 18, 19, 20, 21, 22, 23, 24, 25, 26, 27, 28, 29, 30, 31, 32, 33, 34, 35, 36, 37, 38, 39, 40, 41, 42, 43, 44, 45, 46, 47, 48, 49, 50, 51, 52, 53, 54, 55, 56, 57, 58, 59, 60, 61, 62, 63, 64, 65, 66, 67, 68, 69, 70, 71, 72, 73, 74, 75, 76, 77, 78, 79, 80],
      "CsaImage.RFSWDDataType": [
        "predicted",
        "predicted",
        "predicted",
        "predicted",
        "predicted",
        "predicted",
        "predicted",
        "predicted",
        "predicted",
        "predicted",
        "predicted",
        "predicted",
        "predicted",
        "predicted",
        "predicted",
        "predicted",
        "predicted",
        "predicted",
        "predicted",
        "predicted",
        "predicted",
        "predicted",
        "predicted",
        "measured",
        "predicted",
        "measured",
        "predicted",
        "predicted",
        "predicted",
        "predicted",
        "predicted",
        "predicted",
        "predicted",
        "predicted",
        "predicted",
        "predicted",
        "predicted",
        "predicted",
        "predicted",
        "predicted",
        "predicted",
        "predicted",
        "predicted",
        "predicted",
        "predicted",
        "predicted",
        "predicted",
        "predicted",
        "predicted",
        "predicted",
        "measured",
        "predicted",
        "measured",
        "predicted",
        "predicted",
        "predicted",
        "predicted",
        "predicted",
        "predicted",
        "predicted",
        "predicted",
        "predicted",
        "predicted",
        "predicted",
        "predicted",
        "predicted",
        "predicted",
        "predicted",
        "predicted",
        "predicted",
        "predicted",
        "predicted",
        "predicted",
        "predicted",
        "predicted",
        "predicted",
        "predicted",
        "measured",
        "predicted",
        "measured",
        "predicted"
],
      "CsaImage.SlicePosition_PCS": [
        [-122.33892117, -128.17148422, -84.01373144],
        [-122.37582068, -128.6087582, -82.37134786],
        [-122.41272024, -129.04603218, -80.72896047],
        [-122.44961981, -129.48330616, -79.0865769],
        [-122.48651938, -129.92058014, -77.44418951],
        [-122.52341894, -130.35785507, -75.80180593],
        [-122.56031839, -130.7951281, -74.15941854],
        [-122.59721796, -131.23240303, -72.51703496],
        [-122.63411752, -131.66967797, -70.87464757],
        [-122.67101709, -132.10695099, -69.232264],
        [-122.70791666, -132.54422592, -67.58988042],
        [-122.74481622, -132.98149895, -65.94749303],
        [-122.78171579, -133.41877388, -64.30510755],
        [-122.81861524, -133.85604881, -62.66272207],
        [-122.8555148, -134.29332184, -61.02033658],
        [-122.89241437, -134.73059677, -59.3779511],
        [-122.92931394, -135.1678698, -57.73556562],
        [-122.9662135, -135.60514473, -56.09318014],
        [-123.00311307, -136.04241966, -54.45079656],
        [-123.04001264, -136.47969269, -52.80841108],
        [-123.07691208, -136.91696762, -51.1660256],
        [-123.11381165, -137.35424065, -49.52364011],
        [-123.15071122, -137.79151558, -47.88125368],
        [-123.18761078, -138.22878861, -46.23886915],
        [-123.22451035, -138.66606354, -44.59648366],
        [-123.26140992, -139.10333847, -42.95409818],
        [-123.29830948, -139.5406115, -41.3117127],
        [-123.33520893, -139.97788643, -39.66932722],
        [-123.3721085, -140.41515946, -38.02694173],
        [-123.40900806, -140.85243439, -36.38455649],
        [-123.44590763, -141.28970932, -34.74217113],
        [-123.4828072, -141.72698235, -33.0997857],
        [-123.51970676, -142.16425728, -31.45740028],
        [-123.55660633, -142.60153031, -29.81501503],
        [-123.5935059, -143.03880524, -28.17262979],
        [-123.63040546, -143.47608017, -26.53024431],
        [-123.66730503, -143.9133532, -24.88785882],
        [-123.7042046, -144.35062813, -23.24547334],
        [-123.74110393, -144.78790116, -21.60308786],
        [-123.77800349, -145.22517609, -19.96070238],
        [-123.81490306, -145.66244911, -18.31831689],
        [-123.85180263, -146.09972595, -16.67593236],
        [-123.88870219, -146.53699707, -15.03354688],
        [-123.92560176, -146.97427201, -13.3911614],
        [-123.96250133, -147.41154694, -11.74877592],
        [-123.99940089, -147.84882187, -10.10639043],
        [-124.03630046, -148.2860968, -8.46400495],
        [-124.07320003, -148.72336792, -6.82161947],
        [-124.11009959, -149.16064285, -5.17923398],
        [-124.14699916, -149.59791779, -3.5368485],
        [-124.18389873, -150.03519272, -1.89446302],
        [-124.22079829, -150.47246384, -0.25207754],
        [-124.25769762, -150.90973877, 1.39030604],
        [-124.29459719, -151.3470137, 3.03269343],
        [-124.33149675, -151.78428864, 4.675077],
        [-124.36839632, -152.22156357, 6.31746439],
        [-124.40529589, -152.65883469, 7.95984797],
        [-124.44219545, -153.09610962, 9.60223536],
        [-124.47909502, -153.53338455, 11.24461894],
        [-124.51599459, -153.97065949, 12.88700633],
        [-124.55289415, -154.40793442, 14.5293899],
        [-124.58979372, -154.84520554, 16.17177729],
        [-124.62669329, -155.28248047, 17.81416087],
        [-124.66359285, -155.7197554, 19.45654826],
        [-124.70049242, -156.15703034, 21.09893183],
        [-124.73739199, -156.59430527, 22.74131541],
        [-124.77429132, -157.03157639, 24.3837028],
        [-124.81119088, -157.46885132, 26.02608637],
        [-124.84809045, -157.90612625, 27.66847376],
        [-124.88499002, -158.34340119, 29.31085734],
        [-124.92188958, -158.78067612, 30.95324473],
        [-124.95878915, -159.21794724, 32.59563212],
        [-124.99568872, -159.65522217, 34.23801188],
        [-125.03258828, -160.0924971, 35.88039927],
        [-125.06948785, -160.52977204, 37.52278666],
        [-125.10638742, -160.96704697, 39.16517405],
        [-125.14328698, -161.40431809, 40.80755381],
        [-125.18018655, -161.84159302, 42.4499412],
        [-125.21708612, -162.27886795, 44.09232859],
        [-125.25398568, -162.71614289, 45.73471598],
        [-125.29088501, -163.15341782, 47.37709574]
],
      "CsaImage.TimeAfterStart": [16.4, 18.515, 16.55, 18.6675, 16.7025, 18.8175, 16.8525, 18.97, 17.005, 19.12, 17.155, 19.27, 17.3075, 19.4225, 17.4575, 19.5725, 17.61, 19.725, 17.76, 19.875, 17.91, 20.0275, 18.0625, 20.1775, 18.2125, 20.33, 18.365, 16.4, 18.515, 16.55, 18.6675, 16.7025, 18.8175, 16.8525, 18.97, 17.005, 19.12, 17.155, 19.27, 17.3075, 19.4225, 17.4575, 19.5725, 17.61, 19.725, 17.76, 19.875, 17.91, 20.0275, 18.0625, 20.1775, 18.2125, 20.33, 18.365, 16.4, 18.515, 16.55, 18.6675, 16.7025, 18.8175, 16.8525, 18.97, 17.005, 19.12, 17.155, 19.27, 17.3075, 19.4225, 17.4575, 19.5725, 17.61, 19.725, 17.76, 19.875, 17.91, 20.0275, 18.0625, 20.1775, 18.2125, 20.33, 18.365],
      "ImagePositionPatient": [
        [-122.33892116814, -128.1714842243, -84.013731436416],
        [-122.37582067519, -128.60875820349, -82.371347860977],
        [-122.41272024184, -129.04603218268, -80.72896047084],
        [-122.44961980849, -129.48330616187, -79.086576895401],
        [-122.48651937514, -129.92058014105, -77.444189505264],
        [-122.52341894179, -130.35785507391, -75.801805929825],
        [-122.56031838923, -130.79512809943, -74.159418539688],
        [-122.59721795588, -131.23240303229, -72.517034964248],
        [-122.63411752253, -131.66967796515, -70.874647574112],
        [-122.67101708918, -132.10695099066, -69.232263998672],
        [-122.70791665583, -132.54422592352, -67.589880423233],
        [-122.74481622248, -132.98149894904, -65.947493033096],
        [-122.78171578913, -133.4187738819, -64.305107550308],
        [-122.81861523657, -133.85604881476, -62.66272206752],
        [-122.85551480323, -134.29332184027, -61.020336584732],
        [-122.89241436988, -134.73059677313, -59.377951101944],
        [-122.92931393653, -135.16786979865, -57.735565619156],
        [-122.96621350318, -135.60514473151, -56.093180136368],
        [-123.00311306983, -136.04241966437, -54.450796560928],
        [-123.04001263648, -136.47969268988, -52.80841107814],
        [-123.07691208392, -136.91696762274, -51.166025595352],
        [-123.11381165057, -137.35424064825, -49.523640112564],
        [-123.15071121722, -137.79151558112, -47.881253676102],
        [-123.18761078387, -138.22878860663, -46.238869146988],
        [-123.22451035052, -138.66606353949, -44.5964836642],
        [-123.26140991717, -139.10333847235, -42.954098181412],
        [-123.29830948382, -139.54061149786, -41.311712698623],
        [-123.33520893126, -139.97788643073, -39.669327215835],
        [-123.37210849791, -140.41515945624, -38.026941733047],
        [-123.40900806456, -140.8524343891, -36.384556488678],
        [-123.44590763121, -141.28970932196, -34.742171125099],
        [-123.48280719786, -141.72698234747, -33.099785701916],
        [-123.51970676451, -142.16425728034, -31.457400278732],
        [-123.55660633116, -142.60153030585, -29.815015034363],
        [-123.59350589781, -143.03880523871, -28.172629789993],
        [-123.63040546446, -143.47608017157, -26.530244307205],
        [-123.66730503112, -143.91335319708, -24.887858824417],
        [-123.70420459777, -144.35062812994, -23.245473341629],
        [-123.741103926, -144.78790115546, -21.603087858841],
        [-123.77800349265, -145.22517608832, -19.960702376053],
        [-123.8149030593, -145.66244911383, -18.318316893265],
        [-123.85180262595, -146.09972595404, -16.675932364151],
        [-123.8887021926, -146.53699707221, -15.033546881363],
        [-123.92560175925, -146.97427200507, -13.391161398575],
        [-123.9625013259, -147.41154693793, -11.748775915787],
        [-123.99940089255, -147.84882187079, -10.106390432998],
        [-124.0363004592, -148.28609680365, -8.4640049502104],
        [-124.07320002585, -148.72336792181, -6.8216194674223],
        [-124.1100995925, -149.16064285468, -5.1792339846342],
        [-124.14699915915, -149.59791778754, -3.5368485018461],
        [-124.1838987258, -150.0351927204, -1.8944630190581],
        [-124.22079829245, -150.47246383856, -0.25207753627],
        [-124.25769762068, -150.90973877142, 1.3903060391695],
        [-124.29459718733, -151.34701370429, 3.0326934293062],
        [-124.33149675398, -151.78428863715, 4.6750770047457],
        [-124.36839632064, -152.22156357001, 6.3174643948824],
        [-124.40529588729, -152.65883468817, 7.9598479703218],
        [-124.44219545394, -153.09610962103, 9.6022353604585],
        [-124.47909502059, -153.53338455389, 11.244618935898],
        [-124.51599458724, -153.97065948676, 12.887006326035],
        [-124.55289415389, -154.40793441962, 14.529389901474],
        [-124.58979372054, -154.84520553778, 16.171777291611],
        [-124.62669328719, -155.28248047064, 17.81416086705],
        [-124.66359285384, -155.7197554035, 19.456548257187],
        [-124.70049242049, -156.15703033637, 21.098931832627],
        [-124.73739198714, -156.59430526923, 22.741315408066],
        [-124.77429131537, -157.03157638739, 24.383702798203],
        [-124.81119088202, -157.46885132025, 26.026086373642],
        [-124.84809044867, -157.90612625311, 27.668473763779],
        [-124.88499001532, -158.34340118597, 29.310857339218],
        [-124.92188958197, -158.78067611884, 30.953244729355],
        [-124.95878914862, -159.217947237, 32.595632119492],
        [-124.99568871527, -159.65522216986, 34.238011880234],
        [-125.03258828192, -160.09249710272, 35.880399270371],
        [-125.06948784857, -160.52977203558, 37.522786660507],
        [-125.10638741522, -160.96704696845, 39.165174050644],
        [-125.14328698187, -161.40431808661, 40.807553811386],
        [-125.18018654853, -161.84159301947, 42.449941201523],
        [-125.21708611518, -162.27886795233, 44.09232859166],
        [-125.25398568183, -162.71614288519, 45.734715981796],
        [-125.29088501006, -163.15341781805, 47.377095742539]
],
      "InstanceCreationTime": ["161200.848000", "161200.938000", "161200.854000", "161200.944000", "161200.860000", "161200.950000", "161200.866000", "161200.957000", "161200.875000", "161200.964000", "161200.881000", "161200.970000", "161200.888000", "161200.976000", "161200.893000", "161200.982000", "161200.899000", "161200.988000", "161200.905000", "161200.995000", "161200.911000", "161201.002000", "161200.920000", "161201.008000", "161200.926000", "161201.014000", "161200.932000", "161200.851000", "161200.940000", "161200.856000", "161200.946000", "161200.862000", "161200.952000", "161200.868000", "161200.959000", "161200.877000", "161200.966000", "161200.883000", "161200.972000", "161200.890000", "161200.978000", "161200.895000", "161200.984000", "161200.901000", "161200.990000", "161200.907000", "161200.997000", "161200.913000", "161201.004000", "161200.922000", "161201.010000", "161200.928000", "161201.016000", "161200.934000", "161200.852000", "161200.942000", "161200.858000", "161200.948000", "161200.864000", "161200.955000", "161200.870000", "161200.962000", "161200.879000", "161200.968000", "161200.886000", "161200.974000", "161200.891000", "161200.980000", "161200.897000", "161200.986000", "161200.903000", "161200.992000", "161200.909000", "161201.000000", "161200.915000", "161201.006000", "161200.924000", "161201.012000", "161200.930000", "161201.018000", "161200.936000"],
      "InstanceNumber": [1, 2, 3, 4, 5, 6, 7, 8, 9, 10, 11, 12, 13, 14, 15, 16, 17, 18, 19, 20, 21, 22, 23, 24, 25, 26, 27, 28, 29, 30, 31, 32, 33, 34, 35, 36, 37, 38, 39, 40, 41, 42, 43, 44, 45, 46, 47, 48, 49, 50, 51, 52, 53, 54, 55, 56, 57, 58, 59, 60, 61, 62, 63, 64, 65, 66, 67, 68, 69, 70, 71, 72, 73, 74, 75, 76, 77, 78, 79, 80, 81],
      "LargestImagePixelValue": [30712, 19988, 21533, 17150, 20621, 16051, 26043, 23751, 22152, 17436, 21469, 29009, 34371, 39187, 35569, 34423, 30441, 26214, 35057, 39020, 47305, 48706, 55935, 56153, 61905, 62986, 52373, 43223, 37672, 35616, 31883, 43437, 35147, 30054, 34938, 33973, 39229, 31941, 34154, 32220, 32148, 34686, 34507, 33423, 37077, 37924, 37968, 47939, 59366, 45997, 41159, 48138, 43760, 40775, 41097, 31598, 34091, 41459, 37575, 37919, 42876, 35711, 36449, 32963, 39019, 47097, 46355, 36344, 35376, 38941, 49797, 44811, 47552, 45529, 25957, 10949, 11178, 7613, 7713, 5393, 912],
      "SliceLocation": [-45.542704772486, -43.842706562084, -42.142704664976, -40.442706453281, -38.742704556172, -37.042706099173, -35.342704449956, -33.642705992957, -31.942703850544, -30.242705884154, -28.542707427154, -26.84270577535, -25.142705475644, -23.442705178526, -21.742705369428, -20.042705069722, -18.342705260624, -16.642704960918, -14.942706503919, -13.242706694822, -11.542706397703, -9.8427065886056, -8.1427053675463, -6.4427064798021, -4.7427061800961, -3.0427058803901, -1.3427060712925, 0.35729422582593, 2.0572940349235, 3.7572941042911, 5.4572942888279, 7.1572940403409, 8.8572942824623, 10.557293861222, 12.257293930589, 13.957294230295, 15.657294039393, 17.357294339099, 19.057294143021, 20.757294442727, 22.457294251825, 24.157294120786, 25.857293439275, 27.557293738981, 29.257294038687, 30.957294338393, 32.657294638099, 34.357293956588, 36.057294256294, 37.757294556, 39.457294855706, 41.157294174195, 42.857292626019, 44.557294768432, 46.257293225431, 47.957295367844, 49.657292843626, 51.357294986039, 53.057293443038, 54.757295585451, 56.45729404245, 58.157295203646, 59.857293660646, 61.557295803058, 63.257294260057, 64.957292717057, 66.657293873078, 68.357292330077, 70.05729447249, 71.757292929489, 73.457295071901, 75.157296233097, 76.857291004683, 78.557293147096, 80.257295289509, 81.957297431921, 83.65729122229, 85.357293364703, 87.057295507116, 88.757297649528, 90.457292415939],
