{
  "AcquisitionMatrixPE": 82,
  "AcquisitionNumber": 1,
  "AcquisitionTime": "17:12:10.022500",
  "BandwidthPerPixelPhaseEncode": 24.888,
  "BaseResolution": 82,
  "BodyPartExamined": "BRAIN",
  "ConsistencyInfo": "N4_VE11E_LATEST_20181129",
  "ConversionSoftware": "dcm2niix",
  "ConversionSoftwareVersion": "v1.0.20201102",
  "DerivedVendorReportedEchoSpacing": 0.00049,
  "DeviceSerialNumber": "66112",
  "DwellTime": 2e-06,
  "EchoTime": 0.0272,
  "EchoTrainLength": 82,
  "EffectiveEchoSpacing": 0.00049,
  "FlipAngle": 44,
  "ImageComments": "Unaliased MB8/PE3",
  "ImageOrientationPatientDICOM": [0.997992, 0.0627394, 0.00875779, -0.063138, 0.973896, 0.218035],
  "ImageType": [
    "ORIGINAL",
    "PRIMARY",
    "M",
    "MB",
    "ND",
    "NORM",
    "MOSAIC"
],
  "ImagingFrequency": 123.252,
  "InPlanePhaseEncodingDirectionDICOM": "COL",
  "InstitutionAddress": "Maynard 3,Hanover,NH,US,03755",
  "InstitutionName": "Dartmouth College - PBS",
  "InstitutionalDepartmentName": "Department",
  "MRAcquisitionType": "2D",
  "MagneticFieldStrength": 3,
  "Manufacturer": "Siemens",
  "ManufacturersModelName": "Prisma",
  "Modality": "MR",
  "MultibandAccelerationFactor": 8,
  "PartialFourier": 1,
  "PatientPosition": "HFS",
  "PercentPhaseFOV": 100,
  "PercentSampling": 100,
  "PhaseEncodingDirection": "j-",
  "PhaseEncodingSteps": 82,
  "PhaseResolution": 1,
  "PixelBandwidth": 3050,
  "ProcedureStepDescription": "Wager_Wager^1076_spacetop",
  "ProtocolName": "func_run-04_task-social_acq-ap-mb8",
  "PulseSequenceDetails": "%CustomerSeq%\\cmrr_mbep2d_bold",
  "ReceiveCoilActiveElements": "HEA;HEP",
  "ReceiveCoilName": "Head_32",
  "ReconMatrixPE": 82,
  "RepetitionTime": 0.46,
  "SAR": 0.0936151,
  "ScanOptions": "FS",
  "ScanningSequence": "EP",
  "SequenceName": "epfid2d1_82",
  "SequenceVariant": "SK\\SS",
  "SeriesDescription": "func_run-04_task-social_acq-ap-mb8",
  "SeriesNumber": 18,
  "ShimSetting": [4153, -7751, -7293, 770, -52, -37, -26, 72],
  "SliceThickness": 2.7,
  "SliceTiming": [0, 0.25, 0.0625, 0.3125, 0.125, 0.375, 0.1875, 0, 0.25, 0.0625, 0.3125, 0.125, 0.375, 0.1875, 0, 0.25, 0.0625, 0.3125, 0.125, 0.375, 0.1875, 0, 0.25, 0.0625, 0.3125, 0.125, 0.375, 0.1875, 0, 0.25, 0.0625, 0.3125, 0.125, 0.375, 0.1875, 0, 0.25, 0.0625, 0.3125, 0.125, 0.375, 0.1875, 0, 0.25, 0.0625, 0.3125, 0.125, 0.375, 0.1875, 0, 0.25, 0.0625, 0.3125, 0.125, 0.375, 0.1875],
  "SoftwareVersions": "syngo MR E11",
  "SpacingBetweenSlices": 2.7,
  "StationName": "AWP66112",
  "TaskName": "social",
  "TotalReadoutTime": 0.03969,
  "TxRefAmp": 233.487,
  "WipMemBlock": "23fdfcff-3a38-4c7e-ad23-d0173ee487ed||Sequence: R016 ve11e/master r/434b28f1; Aug  7 2019 18:53:46 by eja",
  "dcmmeta_affine": [
    [-2.6775383949279785, -0.16939468681812286, -0.013905595056712627, 116.53318786621094],
    [-0.168325275182724, 2.6128928661346436, 0.5890057682991028, -101.15373229980469],
    [0.02349652349948883, -0.584972620010376, 2.634934186935425, -47.02948760986328],
    [0.0, 0.0, 0.0, 1.0]
],
  "dcmmeta_reorient_transform": [
    [0.0, -1.0, 0.0, 81.0],
    [1.0, 0.0, 0.0, 0.0],
    [0.0, 0.0, 1.0, 0.0],
    [0.0, 0.0, 0.0, 1.0]
],
  "dcmmeta_shape": [82, 82, 56, 872],
  "dcmmeta_slice_dim": 2,
  "dcmmeta_version": 0.6,
  "global": {
    "const": {
      "AccessionNumber": "A003933",
      "AcquisitionMatrix": [82, 0, 0, 82],
      "AngioFlag": "N",
      "BitsAllocated": 16,
      "BitsStored": 16,
      "BodyPartExamined": "BRAIN",
      "Columns": 656,
      "EchoNumbers": 1,
      "EchoTime": 27.2,
      "EchoTrainLength": 82,
      "FlipAngle": 44.0,
      "HighBit": 15,
      "ImageOrientationPatient": [0.99799151609587, 0.06273942009211, 0.00875779465225, -0.063138015728, 0.97389641141508, 0.21803525128467],
      "ImagePositionPatient": [-822.64942758831, -908.70020272775, -269.04291966766],
      "ImageType": [
        "ORIGINAL",
        "PRIMARY",
        "M",
        "MB",
        "ND",
        "NORM",
        "MOSAIC"
],
      "ImagedNucleus": "1H",
      "ImagingFrequency": 123.252199,
      "InPlanePhaseEncodingDirection": "COL",
      "MRAcquisitionType": "2D",
      "MagneticFieldStrength": 3.0,
      "Manufacturer": "SIEMENS",
      "ManufacturerModelName": "Prisma",
      "Modality": "MR",
      "NumberOfAverages": 1.0,
      "NumberOfPhaseEncodingSteps": 82,
      "PercentPhaseFieldOfView": 100.0,
      "PercentSampling": 100.0,
      "PerformedProcedureStepStartTime": "160058.281000",
      "PhotometricInterpretation": "MONOCHROME2",
      "PixelBandwidth": 3050.0,
      "PixelRepresentation": 0,
      "PixelSpacing": [2.6829268932343, 2.6829268932343],
      "ProtocolName": "func_run-04_task-social_acq-ap-mb8",
      "RepetitionTime": 460.0,
      "Rows": 656,
      "SAR": 0.09361511638018,
      "SamplesPerPixel": 1,
      "ScanOptions": "FS",
      "ScanningSequence": "EP",
      "SequenceName": "epfid2d1_82",
      "SequenceVariant": [
        "SK",
        "SS"
],
      "SeriesDescription": "func_run-04_task-social_acq-ap-mb8",
      "SeriesNumber": 18,
      "SeriesTime": "171236.817000",
      "SliceLocation": -68.563036945481,
      "SliceThickness": 2.7000000476837,
      "SmallestImagePixelValue": 0,
      "SoftwareVersions": "syngo MR E11",
      "SpacingBetweenSlices": 2.69999998285,
      "SpecificCharacterSet": "ISO_IR 100",
      "StudyID": "1",
      "StudyTime": "160058.229000",
      "TransmitCoilName": "Body",
      "VariableFlipAngleFlag": "N",
      "WindowCenterWidthExplanation": "Algo1"
    },
    "slices": {}
  },
  "time": {
    "samples": {
      "AcquisitionNumber": [1, 2, 3, 4, 5, 6, 7, 8, 9, 10, 11, 12, 13, 14, 15, 16, 17, 18, 19, 20, 21, 22, 23, 24, 25, 26, 27, 28, 29, 30, 31, 32, 33, 34, 35, 36, 37, 38, 39, 40, 41, 42, 43, 44, 45, 46, 47, 48, 49, 50, 51, 52, 53, 54, 55, 56, 57, 58, 59, 60, 61, 62, 63, 64, 65, 66, 67, 68, 69, 70, 71, 72, 73, 74, 75, 76, 77, 78, 79, 80, 81, 82, 83, 84, 85, 86, 87, 88, 89, 90, 91, 92, 93, 94, 95, 96, 97, 98, 99, 100, 101, 102, 103, 104, 105, 106, 107, 108, 109, 110, 111, 112, 113, 114, 115, 116, 117, 118, 119, 120, 121, 122, 123, 124, 125, 126, 127, 128, 129, 130, 131, 132, 133, 134, 135, 136, 137, 138, 139, 140, 141, 142, 143, 144, 145, 146, 147, 148, 149, 150, 151, 152, 153, 154, 155, 156, 157, 158, 159, 160, 161, 162, 163, 164, 165, 166, 167, 168, 169, 170, 171, 172, 173, 174, 175, 176, 177, 178, 179, 180, 181, 182, 183, 184, 185, 186, 187, 188, 189, 190, 191, 192, 193, 194, 195, 196, 197, 198, 199, 200, 201, 202, 203, 204, 205, 206, 207, 208, 209, 210, 211, 212, 213, 214, 215, 216, 217, 218, 219, 220, 221, 222, 223, 224, 225, 226, 227, 228, 229, 230, 231, 232, 233, 234, 235, 236, 237, 238, 239, 240, 241, 242, 243, 244, 245, 246, 247, 248, 249, 250, 251, 252, 253, 254, 255, 256, 257, 258, 259, 260, 261, 262, 263, 264, 265, 266, 267, 268, 269, 270, 271, 272, 273, 274, 275, 276, 277, 278, 279, 280, 281, 282, 283, 284, 285, 286, 287, 288, 289, 290, 291, 292, 293, 294, 295, 296, 297, 298, 299, 300, 301, 302, 303, 304, 305, 306, 307, 308, 309, 310, 311, 312, 313, 314, 315, 316, 317, 318, 319, 320, 321, 322, 323, 324, 325, 326, 327, 328, 329, 330, 331, 332, 333, 334, 335, 336, 337, 338, 339, 340, 341, 342, 343, 344, 345, 346, 347, 348, 349, 350, 351, 352, 353, 354, 355, 356, 357, 358, 359, 360, 361, 362, 363, 364, 365, 366, 367, 368, 369, 370, 371, 372, 373, 374, 375, 376, 377, 378, 379, 380, 381, 382, 383, 384, 385, 386, 387, 388, 389, 390, 391, 392, 393, 394, 395, 396, 397, 398, 399, 400, 401, 402, 403, 404, 405, 406, 407, 408, 409, 410, 411, 412, 413, 414, 415, 416, 417, 418, 419, 420, 421, 422, 423, 424, 425, 426, 427, 428, 429, 430, 431, 432, 433, 434, 435, 436, 437, 438, 439, 440, 441, 442, 443, 444, 445, 446, 447, 448, 449, 450, 451, 452, 453, 454, 455, 456, 457, 458, 459, 460, 461, 462, 463, 464, 465, 466, 467, 468, 469, 470, 471, 472, 473, 474, 475, 476, 477, 478, 479, 480, 481, 482, 483, 484, 485, 486, 487, 488, 489, 490, 491, 492, 493, 494, 495, 496, 497, 498, 499, 500, 501, 502, 503, 504, 505, 506, 507, 508, 509, 510, 511, 512, 513, 514, 515, 516, 517, 518, 519, 520, 521, 522, 523, 524, 525, 526, 527, 528, 529, 530, 531, 532, 533, 534, 535, 536, 537, 538, 539, 540, 541, 542, 543, 544, 545, 546, 547, 548, 549, 550, 551, 552, 553, 554, 555, 556, 557, 558, 559, 560, 561, 562, 563, 564, 565, 566, 567, 568, 569, 570, 571, 572, 573, 574, 575, 576, 577, 578, 579, 580, 581, 582, 583, 584, 585, 586, 587, 588, 589, 590, 591, 592, 593, 594, 595, 596, 597, 598, 599, 600, 601, 602, 603, 604, 605, 606, 607, 608, 609, 610, 611, 612, 613, 614, 615, 616, 617, 618, 619, 620, 621, 622, 623, 624, 625, 626, 627, 628, 629, 630, 631, 632, 633, 634, 635, 636, 637, 638, 639, 640, 641, 642, 643, 644, 645, 646, 647, 648, 649, 650, 651, 652, 653, 654, 655, 656, 657, 658, 659, 660, 661, 662, 663, 664, 665, 666, 667, 668, 669, 670, 671, 672, 673, 674, 675, 676, 677, 678, 679, 680, 681, 682, 683, 684, 685, 686, 687, 688, 689, 690, 691, 692, 693, 694, 695, 696, 697, 698, 699, 700, 701, 702, 703, 704, 705, 706, 707, 708, 709, 710, 711, 712, 713, 714, 715, 716, 717, 718, 719, 720, 721, 722, 723, 724, 725, 726, 727, 728, 729, 730, 731, 732, 733, 734, 735, 736, 737, 738, 739, 740, 741, 742, 743, 744, 745, 746, 747, 748, 749, 750, 751, 752, 753, 754, 755, 756, 757, 758, 759, 760, 761, 762, 763, 764, 765, 766, 767, 768, 769, 770, 771, 772, 773, 774, 775, 776, 777, 778, 779, 780, 781, 782, 783, 784, 785, 786, 787, 788, 789, 790, 791, 792, 793, 794, 795, 796, 797, 798, 799, 800, 801, 802, 803, 804, 805, 806, 807, 808, 809, 810, 811, 812, 813, 814, 815, 816, 817, 818, 819, 820, 821, 822, 823, 824, 825, 826, 827, 828, 829, 830, 831, 832, 833, 834, 835, 836, 837, 838, 839, 840, 841, 842, 843, 844, 845, 846, 847, 848, 849, 850, 851, 852, 853, 854, 855, 856, 857, 858, 859, 860, 861, 862, 863, 864, 865, 866, 867, 868, 869, 870, 871, 872],
      "AcquisitionTime": ["171210.022500", "171210.482500", "171210.942500", "171211.402500", "171211.862500", "171212.322500", "171212.782500", "171213.242500", "171213.702500", "171214.162500", "171214.622500", "171215.082500", "171215.542500", "171216.002500", "171216.462500", "171216.922500", "171217.382500", "171217.842500", "171218.302500", "171218.762500", "171219.222500", "171219.682500", "171220.142500", "171220.602500", "171221.062500", "171221.522500", "171221.982500", "171222.442500", "171222.902500", "171223.362500", "171223.822500", "171224.282500", "171224.742500", "171225.202500", "171225.662500", "171226.122500", "171226.582500", "171227.042500", "171227.502500", "171227.962500", "171228.422500", "171228.882500", "171229.342500", "171229.802500", "171230.262500", "171230.722500", "171231.182500", "171231.642500", "171232.102500", "171232.562500", "171233.022500", "171233.482500", "171233.942500", "171234.402500", "171234.862500", "171235.322500", "171235.782500", "171236.242500", "171236.702500", "171237.162500", "171237.622500", "171238.082500", "171238.542500", "171239.002500", "171239.462500", "171239.922500", "171240.382500", "171240.842500", "171241.302500", "171241.762500", "171242.222500", "171242.682500", "171243.142500", "171243.602500", "171244.062500", "171244.522500", "171244.982500", "171245.442500", "171245.902500", "171246.362500", "171246.822500", "171247.282500", "171247.742500", "171248.202500", "171248.662500", "171249.122500", "171249.582500", "171250.042500", "171250.502500", "171250.962500", "171251.422500", "171251.882500", "171252.342500", "171252.802500", "171253.262500", "171253.722500", "171254.182500", "171254.642500", "171255.102500", "171255.562500", "171256.022500", "171256.482500", "171256.942500", "171257.402500", "171257.862500", "171258.322500", "171258.782500", "171259.242500", "171259.702500", "171300.162500", "171300.622500", "171301.082500", "171301.542500", "171302.002500", "171302.462500", "171302.922500", "171303.382500", "171303.842500", "171304.302500", "171304.762500", "171305.222500", "171305.682500", "171306.142500", "171306.602500", "171307.062500", "171307.522500", "171307.982500", "171308.442500", "171308.902500", "171309.362500", "171309.822500", "171310.282500", "171310.742500", "171311.202500", "171311.662500", "171312.122500", "171312.582500", "171313.042500", "171313.502500", "171313.962500", "171314.422500", "171314.882500", "171315.342500", "171315.802500", "171316.262500", "171316.722500", "171317.182500", "171317.642500", "171318.102500", "171318.562500", "171319.022500", "171319.482500", "171319.942500", "171320.402500", "171320.862500", "171321.322500", "171321.782500", "171322.242500", "171322.702500", "171323.162500", "171323.622500", "171324.082500", "171324.542500", "171325.002500", "171325.462500", "171325.922500", "171326.382500", "171326.842500", "171327.302500", "171327.762500", "171328.222500", "171328.682500", "171329.142500", "171329.602500", "171330.062500", "171330.522500", "171330.982500", "171331.442500", "171331.902500", "171332.362500", "171332.822500", "171333.282500", "171333.742500", "171334.202500", "171334.662500", "171335.122500", "171335.582500", "171336.042500", "171336.502500", "171336.962500", "171337.422500", "171337.882500", "171338.342500", "171338.802500", "171339.262500", "171339.722500", "171340.182500", "171340.642500", "171341.102500", "171341.562500", "171342.022500", "171342.482500", "171342.942500", "171343.402500", "171343.862500", "171344.322500", "171344.782500", "171345.242500", "171345.702500", "171346.162500", "171346.622500", "171347.082500", "171347.542500", "171348.002500", "171348.462500", "171348.922500", "171349.382500", "171349.842500", "171350.302500", "171350.762500", "171351.222500", "171351.682500", "171352.142500", "171352.602500", "171353.062500", "171353.522500", "171353.982500", "171354.442500", "171354.902500", "171355.362500", "171355.822500", "171356.282500", "171356.742500", "171357.202500", "171357.662500", "171358.122500", "171358.582500", "171359.042500", "171359.502500", "171359.962500", "171400.422500", "171400.882500", "171401.342500", "171401.802500", "171402.262500", "171402.722500", "171403.182500", "171403.642500", "171404.102500", "171404.562500", "171405.022500", "171405.482500", "171405.942500", "171406.402500", "171406.862500", "171407.322500", "171407.782500", "171408.242500", "171408.702500", "171409.162500", "171409.622500", "171410.082500", "171410.542500", "171411.002500", "171411.462500", "171411.922500", "171412.382500", "171412.842500", "171413.302500", "171413.762500", "171414.222500", "171414.682500", "171415.142500", "171415.602500", "171416.062500", "171416.522500", "171416.982500", "171417.442500", "171417.902500", "171418.362500", "171418.822500", "171419.282500", "171419.742500", "171420.202500", "171420.662500", "171421.122500", "171421.582500", "171422.042500", "171422.502500", "171422.962500", "171423.422500", "171423.882500", "171424.342500", "171424.802500", "171425.262500", "171425.722500", "171426.182500", "171426.642500", "171427.102500", "171427.562500", "171428.022500", "171428.482500", "171428.942500", "171429.402500", "171429.862500", "171430.322500", "171430.782500", "171431.242500", "171431.702500", "171432.162500", "171432.622500", "171433.082500", "171433.542500", "171434.002500", "171434.462500", "171434.922500", "171435.382500", "171435.842500", "171436.302500", "171436.762500", "171437.222500", "171437.682500", "171438.142500", "171438.602500", "171439.062500", "171439.522500", "171439.982500", "171440.442500", "171440.902500", "171441.362500", "171441.822500", "171442.282500", "171442.742500", "171443.202500", "171443.662500", "171444.122500", "171444.582500", "171445.042500", "171445.502500", "171445.962500", "171446.422500", "171446.882500", "171447.342500", "171447.802500", "171448.262500", "171448.722500", "171449.182500", "171449.642500", "171450.102500", "171450.562500", "171451.022500", "171451.482500", "171451.942500", "171452.402500", "171452.862500", "171453.322500", "171453.782500", "171454.242500", "171454.702500", "171455.162500", "171455.622500", "171456.082500", "171456.542500", "171457.002500", "171457.462500", "171457.922500", "171458.382500", "171458.842500", "171459.302500", "171459.762500", "171500.222500", "171500.682500", "171501.142500", "171501.602500", "171502.062500", "171502.522500", "171502.982500", "171503.442500", "171503.902500", "171504.362500", "171504.822500", "171505.282500", "171505.742500", "171506.202500", "171506.662500", "171507.122500", "171507.582500", "171508.042500", "171508.502500", "171508.962500", "171509.422500", "171509.882500", "171510.342500", "171510.802500", "171511.262500", "171511.722500", "171512.182500", "171512.642500", "171513.102500", "171513.562500", "171514.022500", "171514.482500", "171514.942500", "171515.402500", "171515.862500", "171516.322500", "171516.782500", "171517.242500", "171517.702500", "171518.162500", "171518.622500", "171519.082500", "171519.542500", "171520.002500", "171520.462500", "171520.922500", "171521.382500", "171521.842500", "171522.302500", "171522.762500", "171523.222500", "171523.682500", "171524.142500", "171524.602500", "171525.062500", "171525.522500", "171525.982500", "171526.442500", "171526.902500", "171527.362500", "171527.822500", "171528.282500", "171528.742500", "171529.202500", "171529.662500", "171530.122500", "171530.582500", "171531.042500", "171531.502500", "171531.962500", "171532.422500", "171532.882500", "171533.342500", "171533.802500", "171534.262500", "171534.722500", "171535.182500", "171535.642500", "171536.102500", "171536.562500", "171537.022500", "171537.482500", "171537.942500", "171538.402500", "171538.862500", "171539.322500", "171539.782500", "171540.242500", "171540.702500", "171541.162500", "171541.622500", "171542.082500", "171542.542500", "171543.002500", "171543.462500", "171543.922500", "171544.382500", "171544.842500", "171545.302500", "171545.762500", "171546.222500", "171546.682500", "171547.142500", "171547.602500", "171548.062500", "171548.522500", "171548.982500", "171549.442500", "171549.902500", "171550.362500", "171550.822500", "171551.282500", "171551.742500", "171552.202500", "171552.662500", "171553.122500", "171553.582500", "171554.042500", "171554.502500", "171554.962500", "171555.422500", "171555.882500", "171556.342500", "171556.802500", "171557.262500", "171557.722500", "171558.182500", "171558.642500", "171559.102500", "171559.562500", "171600.022500", "171600.482500", "171600.942500", "171601.402500", "171601.862500", "171602.322500", "171602.782500", "171603.242500", "171603.702500", "171604.162500", "171604.622500", "171605.082500", "171605.542500", "171606.002500", "171606.462500", "171606.922500", "171607.382500", "171607.842500", "171608.302500", "171608.762500", "171609.222500", "171609.682500", "171610.142500", "171610.602500", "171611.062500", "171611.522500", "171611.982500", "171612.442500", "171612.902500", "171613.362500", "171613.822500", "171614.282500", "171614.742500", "171615.202500", "171615.662500", "171616.122500", "171616.582500", "171617.042500", "171617.502500", "171617.962500", "171618.422500", "171618.882500", "171619.342500", "171619.802500", "171620.262500", "171620.722500", "171621.182500", "171621.642500", "171622.102500", "171622.562500", "171623.022500", "171623.482500", "171623.942500", "171624.402500", "171624.862500", "171625.322500", "171625.782500", "171626.242500", "171626.702500", "171627.162500", "171627.622500", "171628.082500", "171628.542500", "171629.002500", "171629.462500", "171629.922500", "171630.382500", "171630.842500", "171631.302500", "171631.762500", "171632.222500", "171632.682500", "171633.142500", "171633.602500", "171634.062500", "171634.522500", "171634.982500", "171635.442500", "171635.902500", "171636.362500", "171636.822500", "171637.282500", "171637.742500", "171638.202500", "171638.662500", "171639.122500", "171639.582500", "171640.042500", "171640.502500", "171640.962500", "171641.422500", "171641.882500", "171642.342500", "171642.802500", "171643.262500", "171643.722500", "171644.182500", "171644.642500", "171645.102500", "171645.562500", "171646.022500", "171646.482500", "171646.942500", "171647.402500", "171647.862500", "171648.322500", "171648.782500", "171649.242500", "171649.702500", "171650.162500", "171650.622500", "171651.082500", "171651.542500", "171652.002500", "171652.462500", "171652.922500", "171653.382500", "171653.842500", "171654.302500", "171654.762500", "171655.222500", "171655.682500", "171656.142500", "171656.602500", "171657.062500", "171657.522500", "171657.982500", "171658.442500", "171658.902500", "171659.362500", "171659.822500", "171700.282500", "171700.742500", "171701.202500", "171701.662500", "171702.122500", "171702.582500", "171703.042500", "171703.502500", "171703.962500", "171704.422500", "171704.882500", "171705.342500", "171705.802500", "171706.262500", "171706.722500", "171707.182500", "171707.642500", "171708.102500", "171708.562500", "171709.022500", "171709.482500", "171709.942500", "171710.402500", "171710.862500", "171711.322500", "171711.782500", "171712.242500", "171712.702500", "171713.162500", "171713.622500", "171714.082500", "171714.542500", "171715.002500", "171715.462500", "171715.922500", "171716.382500", "171716.842500", "171717.302500", "171717.762500", "171718.222500", "171718.682500", "171719.142500", "171719.602500", "171720.062500", "171720.522500", "171720.982500", "171721.442500", "171721.902500", "171722.362500", "171722.822500", "171723.282500", "171723.742500", "171724.202500", "171724.662500", "171725.122500", "171725.582500", "171726.042500", "171726.502500", "171726.962500", "171727.422500", "171727.882500", "171728.342500", "171728.802500", "171729.262500", "171729.722500", "171730.182500", "171730.642500", "171731.102500", "171731.562500", "171732.022500", "171732.482500", "171732.942500", "171733.402500", "171733.862500", "171734.322500", "171734.782500", "171735.242500", "171735.702500", "171736.162500", "171736.622500", "171737.082500", "171737.542500", "171738.002500", "171738.462500", "171738.922500", "171739.382500", "171739.842500", "171740.302500", "171740.762500", "171741.222500", "171741.682500", "171742.142500", "171742.602500", "171743.062500", "171743.522500", "171743.982500", "171744.442500", "171744.902500", "171745.362500", "171745.822500", "171746.282500", "171746.742500", "171747.202500", "171747.662500", "171748.122500", "171748.582500", "171749.042500", "171749.502500", "171749.962500", "171750.422500", "171750.882500", "171751.342500", "171751.802500", "171752.262500", "171752.722500", "171753.182500", "171753.642500", "171754.102500", "171754.562500", "171755.022500", "171755.482500", "171755.942500", "171756.402500", "171756.862500", "171757.322500", "171757.782500", "171758.242500", "171758.702500", "171759.162500", "171759.622500", "171800.082500", "171800.542500", "171801.002500", "171801.462500", "171801.922500", "171802.382500", "171802.842500", "171803.302500", "171803.762500", "171804.222500", "171804.682500", "171805.142500", "171805.602500", "171806.062500", "171806.522500", "171806.982500", "171807.442500", "171807.902500", "171808.362500", "171808.822500", "171809.282500", "171809.742500", "171810.202500", "171810.662500", "171811.122500", "171811.582500", "171812.042500", "171812.502500", "171812.962500", "171813.422500", "171813.882500", "171814.342500", "171814.802500", "171815.262500", "171815.722500", "171816.182500", "171816.642500", "171817.102500", "171817.562500", "171818.022500", "171818.482500", "171818.942500", "171819.402500", "171819.862500", "171820.322500", "171820.782500", "171821.242500", "171821.702500", "171822.162500", "171822.622500", "171823.082500", "171823.542500", "171824.002500", "171824.462500", "171824.922500", "171825.382500", "171825.842500", "171826.302500", "171826.762500", "171827.222500", "171827.682500", "171828.142500", "171828.602500", "171829.062500", "171829.522500", "171829.982500", "171830.442500", "171830.902500", "171831.362500", "171831.822500", "171832.282500", "171832.742500", "171833.202500", "171833.662500", "171834.122500", "171834.582500", "171835.042500", "171835.502500", "171835.962500", "171836.422500", "171836.882500", "171837.342500", "171837.802500", "171838.262500", "171838.722500", "171839.182500", "171839.642500", "171840.102500", "171840.562500", "171841.022500", "171841.482500", "171841.942500", "171842.402500", "171842.862500", "171843.322500", "171843.782500", "171844.242500", "171844.702500", "171845.162500", "171845.622500", "171846.082500", "171846.542500", "171847.002500", "171847.462500", "171847.922500", "171848.382500", "171848.842500", "171849.302500", "171849.762500", "171850.222500", "171850.682500"],
