{
  "AcquisitionMatrixPE": 82,
  "AcquisitionNumber": 1,
  "AcquisitionTime": "17:27:10.272500",
  "BandwidthPerPixelPhaseEncode": 24.888,
  "BaseResolution": 82,
  "BodyPartExamined": "BRAIN",
  "ConsistencyInfo": "N4_VE11E_LATEST_20181129",
  "ConversionSoftware": "dcm2niix",
  "ConversionSoftwareVersion": "v1.0.20201102",
  "DerivedVendorReportedEchoSpacing": 0.00049,
  "DeviceSerialNumber": "66112",
  "DwellTime": 2e-06,
  "EchoTime": 0.0272,
  "EchoTrainLength": 82,
  "EffectiveEchoSpacing": 0.00049,
  "FlipAngle": 44,
  "ImageComments": "Unaliased MB8/PE3",
  "ImageOrientationPatientDICOM": [0.997992, 0.0627394, 0.00875779, -0.063138, 0.973896, 0.218035],
  "ImageType": [
    "ORIGINAL",
    "PRIMARY",
    "M",
    "MB",
    "ND",
    "NORM",
    "MOSAIC"
],
  "ImagingFrequency": 123.252,
  "InPlanePhaseEncodingDirectionDICOM": "COL",
  "InstitutionAddress": "Maynard 3,Hanover,NH,US,03755",
  "InstitutionName": "Dartmouth College - PBS",
  "InstitutionalDepartmentName": "Department",
  "MRAcquisitionType": "2D",
  "MagneticFieldStrength": 3,
  "Manufacturer": "Siemens",
  "ManufacturersModelName": "Prisma",
  "Modality": "MR",
  "MultibandAccelerationFactor": 8,
  "PartialFourier": 1,
  "PatientPosition": "HFS",
  "PercentPhaseFOV": 100,
  "PercentSampling": 100,
  "PhaseEncodingDirection": "j-",
  "PhaseEncodingSteps": 82,
  "PhaseResolution": 1,
  "PixelBandwidth": 3050,
  "ProcedureStepDescription": "Wager_Wager^1076_spacetop",
  "ProtocolName": "func_run-06_task-social_acq-ap-mb8",
  "PulseSequenceDetails": "%CustomerSeq%\\cmrr_mbep2d_bold",
  "ReceiveCoilActiveElements": "HEA;HEP",
  "ReceiveCoilName": "Head_32",
  "ReconMatrixPE": 82,
  "RepetitionTime": 0.46,
  "SAR": 0.0936151,
  "ScanOptions": "FS",
  "ScanningSequence": "EP",
  "SequenceName": "epfid2d1_82",
  "SequenceVariant": "SK\\SS",
  "SeriesDescription": "func_run-06_task-social_acq-ap-mb8",
  "SeriesNumber": 22,
  "ShimSetting": [4153, -7751, -7293, 770, -52, -37, -26, 72],
  "SliceThickness": 2.7,
  "SliceTiming": [0, 0.2525, 0.0625, 0.315, 0.125, 0.3775, 0.19, 0, 0.2525, 0.0625, 0.315, 0.125, 0.3775, 0.19, 0, 0.2525, 0.0625, 0.315, 0.125, 0.3775, 0.19, 0, 0.2525, 0.0625, 0.315, 0.125, 0.3775, 0.19, 0, 0.2525, 0.0625, 0.315, 0.125, 0.3775, 0.19, 0, 0.2525, 0.0625, 0.315, 0.125, 0.3775, 0.19, 0, 0.2525, 0.0625, 0.315, 0.125, 0.3775, 0.19, 0, 0.2525, 0.0625, 0.315, 0.125, 0.3775, 0.19],
  "SoftwareVersions": "syngo MR E11",
  "SpacingBetweenSlices": 2.7,
  "StationName": "AWP66112",
  "TaskName": "social",
  "TotalReadoutTime": 0.03969,
  "TxRefAmp": 233.487,
  "WipMemBlock": "a68887f9-44a8-4f66-85d8-30336bd026a8||Sequence: R016 ve11e/master r/434b28f1; Aug  7 2019 18:53:46 by eja",
  "dcmmeta_affine": [
    [-2.6775383949279785, -0.16939468681812286, -0.013905595056712627, 116.53318786621094],
    [-0.168325275182724, 2.6128928661346436, 0.5890057682991028, -101.15373229980469],
    [0.02349652349948883, -0.584972620010376, 2.634934186935425, -47.02948760986328],
    [0.0, 0.0, 0.0, 1.0]
],
  "dcmmeta_reorient_transform": [
    [0.0, -1.0, 0.0, 81.0],
    [1.0, 0.0, 0.0, 0.0],
    [0.0, 0.0, 1.0, 0.0],
    [0.0, 0.0, 0.0, 1.0]
],
  "dcmmeta_shape": [82, 82, 56, 872],
  "dcmmeta_slice_dim": 2,
  "dcmmeta_version": 0.6,
  "global": {
    "const": {
      "AccessionNumber": "A003933",
      "AcquisitionMatrix": [82, 0, 0, 82],
      "AngioFlag": "N",
      "BitsAllocated": 16,
      "BitsStored": 16,
      "BodyPartExamined": "BRAIN",
      "Columns": 656,
      "EchoNumbers": 1,
      "EchoTime": 27.2,
      "EchoTrainLength": 82,
      "FlipAngle": 44.0,
      "HighBit": 15,
      "ImageOrientationPatient": [0.99799151609587, 0.06273942009211, 0.00875779465225, -0.063138015728, 0.97389641141508, 0.21803525128467],
      "ImagePositionPatient": [-822.64942758831, -908.70020272775, -269.04291966766],
      "ImageType": [
        "ORIGINAL",
        "PRIMARY",
        "M",
        "MB",
        "ND",
        "NORM",
        "MOSAIC"
],
      "ImagedNucleus": "1H",
      "ImagingFrequency": 123.252206,
      "InPlanePhaseEncodingDirection": "COL",
      "MRAcquisitionType": "2D",
      "MagneticFieldStrength": 3.0,
      "Manufacturer": "SIEMENS",
      "ManufacturerModelName": "Prisma",
      "Modality": "MR",
      "NumberOfAverages": 1.0,
      "NumberOfPhaseEncodingSteps": 82,
      "PercentPhaseFieldOfView": 100.0,
      "PercentSampling": 100.0,
      "PerformedProcedureStepStartTime": "160058.281000",
      "PhotometricInterpretation": "MONOCHROME2",
      "PixelBandwidth": 3050.0,
      "PixelRepresentation": 0,
      "PixelSpacing": [2.6829268932343, 2.6829268932343],
      "ProtocolName": "func_run-06_task-social_acq-ap-mb8",
      "RepetitionTime": 460.0,
      "Rows": 656,
      "SAR": 0.09361511638018,
      "SamplesPerPixel": 1,
      "ScanOptions": "FS",
      "ScanningSequence": "EP",
      "SequenceName": "epfid2d1_82",
      "SequenceVariant": [
        "SK",
        "SS"
],
      "SeriesDescription": "func_run-06_task-social_acq-ap-mb8",
      "SeriesNumber": 22,
      "SeriesTime": "172736.980000",
      "SliceLocation": -68.563036945481,
      "SliceThickness": 2.7000000476837,
      "SmallestImagePixelValue": 0,
      "SoftwareVersions": "syngo MR E11",
      "SpacingBetweenSlices": 2.69999998285,
      "SpecificCharacterSet": "ISO_IR 100",
      "StudyID": "1",
      "StudyTime": "160058.229000",
      "TransmitCoilName": "Body",
      "VariableFlipAngleFlag": "N",
      "WindowCenterWidthExplanation": "Algo1"
    },
    "slices": {}
  },
  "time": {
    "samples": {
      "AcquisitionNumber": [1, 2, 3, 4, 5, 6, 7, 8, 9, 10, 11, 12, 13, 14, 15, 16, 17, 18, 19, 20, 21, 22, 23, 24, 25, 26, 27, 28, 29, 30, 31, 32, 33, 34, 35, 36, 37, 38, 39, 40, 41, 42, 43, 44, 45, 46, 47, 48, 49, 50, 51, 52, 53, 54, 55, 56, 57, 58, 59, 60, 61, 62, 63, 64, 65, 66, 67, 68, 69, 70, 71, 72, 73, 74, 75, 76, 77, 78, 79, 80, 81, 82, 83, 84, 85, 86, 87, 88, 89, 90, 91, 92, 93, 94, 95, 96, 97, 98, 99, 100, 101, 102, 103, 104, 105, 106, 107, 108, 109, 110, 111, 112, 113, 114, 115, 116, 117, 118, 119, 120, 121, 122, 123, 124, 125, 126, 127, 128, 129, 130, 131, 132, 133, 134, 135, 136, 137, 138, 139, 140, 141, 142, 143, 144, 145, 146, 147, 148, 149, 150, 151, 152, 153, 154, 155, 156, 157, 158, 159, 160, 161, 162, 163, 164, 165, 166, 167, 168, 169, 170, 171, 172, 173, 174, 175, 176, 177, 178, 179, 180, 181, 182, 183, 184, 185, 186, 187, 188, 189, 190, 191, 192, 193, 194, 195, 196, 197, 198, 199, 200, 201, 202, 203, 204, 205, 206, 207, 208, 209, 210, 211, 212, 213, 214, 215, 216, 217, 218, 219, 220, 221, 222, 223, 224, 225, 226, 227, 228, 229, 230, 231, 232, 233, 234, 235, 236, 237, 238, 239, 240, 241, 242, 243, 244, 245, 246, 247, 248, 249, 250, 251, 252, 253, 254, 255, 256, 257, 258, 259, 260, 261, 262, 263, 264, 265, 266, 267, 268, 269, 270, 271, 272, 273, 274, 275, 276, 277, 278, 279, 280, 281, 282, 283, 284, 285, 286, 287, 288, 289, 290, 291, 292, 293, 294, 295, 296, 297, 298, 299, 300, 301, 302, 303, 304, 305, 306, 307, 308, 309, 310, 311, 312, 313, 314, 315, 316, 317, 318, 319, 320, 321, 322, 323, 324, 325, 326, 327, 328, 329, 330, 331, 332, 333, 334, 335, 336, 337, 338, 339, 340, 341, 342, 343, 344, 345, 346, 347, 348, 349, 350, 351, 352, 353, 354, 355, 356, 357, 358, 359, 360, 361, 362, 363, 364, 365, 366, 367, 368, 369, 370, 371, 372, 373, 374, 375, 376, 377, 378, 379, 380, 381, 382, 383, 384, 385, 386, 387, 388, 389, 390, 391, 392, 393, 394, 395, 396, 397, 398, 399, 400, 401, 402, 403, 404, 405, 406, 407, 408, 409, 410, 411, 412, 413, 414, 415, 416, 417, 418, 419, 420, 421, 422, 423, 424, 425, 426, 427, 428, 429, 430, 431, 432, 433, 434, 435, 436, 437, 438, 439, 440, 441, 442, 443, 444, 445, 446, 447, 448, 449, 450, 451, 452, 453, 454, 455, 456, 457, 458, 459, 460, 461, 462, 463, 464, 465, 466, 467, 468, 469, 470, 471, 472, 473, 474, 475, 476, 477, 478, 479, 480, 481, 482, 483, 484, 485, 486, 487, 488, 489, 490, 491, 492, 493, 494, 495, 496, 497, 498, 499, 500, 501, 502, 503, 504, 505, 506, 507, 508, 509, 510, 511, 512, 513, 514, 515, 516, 517, 518, 519, 520, 521, 522, 523, 524, 525, 526, 527, 528, 529, 530, 531, 532, 533, 534, 535, 536, 537, 538, 539, 540, 541, 542, 543, 544, 545, 546, 547, 548, 549, 550, 551, 552, 553, 554, 555, 556, 557, 558, 559, 560, 561, 562, 563, 564, 565, 566, 567, 568, 569, 570, 571, 572, 573, 574, 575, 576, 577, 578, 579, 580, 581, 582, 583, 584, 585, 586, 587, 588, 589, 590, 591, 592, 593, 594, 595, 596, 597, 598, 599, 600, 601, 602, 603, 604, 605, 606, 607, 608, 609, 610, 611, 612, 613, 614, 615, 616, 617, 618, 619, 620, 621, 622, 623, 624, 625, 626, 627, 628, 629, 630, 631, 632, 633, 634, 635, 636, 637, 638, 639, 640, 641, 642, 643, 644, 645, 646, 647, 648, 649, 650, 651, 652, 653, 654, 655, 656, 657, 658, 659, 660, 661, 662, 663, 664, 665, 666, 667, 668, 669, 670, 671, 672, 673, 674, 675, 676, 677, 678, 679, 680, 681, 682, 683, 684, 685, 686, 687, 688, 689, 690, 691, 692, 693, 694, 695, 696, 697, 698, 699, 700, 701, 702, 703, 704, 705, 706, 707, 708, 709, 710, 711, 712, 713, 714, 715, 716, 717, 718, 719, 720, 721, 722, 723, 724, 725, 726, 727, 728, 729, 730, 731, 732, 733, 734, 735, 736, 737, 738, 739, 740, 741, 742, 743, 744, 745, 746, 747, 748, 749, 750, 751, 752, 753, 754, 755, 756, 757, 758, 759, 760, 761, 762, 763, 764, 765, 766, 767, 768, 769, 770, 771, 772, 773, 774, 775, 776, 777, 778, 779, 780, 781, 782, 783, 784, 785, 786, 787, 788, 789, 790, 791, 792, 793, 794, 795, 796, 797, 798, 799, 800, 801, 802, 803, 804, 805, 806, 807, 808, 809, 810, 811, 812, 813, 814, 815, 816, 817, 818, 819, 820, 821, 822, 823, 824, 825, 826, 827, 828, 829, 830, 831, 832, 833, 834, 835, 836, 837, 838, 839, 840, 841, 842, 843, 844, 845, 846, 847, 848, 849, 850, 851, 852, 853, 854, 855, 856, 857, 858, 859, 860, 861, 862, 863, 864, 865, 866, 867, 868, 869, 870, 871, 872],
      "AcquisitionTime": ["172710.272500", "172710.732500", "172711.192500", "172711.652500", "172712.112500", "172712.572500", "172713.032500", "172713.492500", "172713.952500", "172714.412500", "172714.872500", "172715.332500", "172715.792500", "172716.252500", "172716.712500", "172717.172500", "172717.632500", "172718.092500", "172718.552500", "172719.012500", "172719.472500", "172719.932500", "172720.392500", "172720.852500", "172721.312500", "172721.772500", "172722.232500", "172722.692500", "172723.152500", "172723.612500", "172724.072500", "172724.532500", "172724.992500", "172725.452500", "172725.912500", "172726.372500", "172726.832500", "172727.292500", "172727.752500", "172728.212500", "172728.672500", "172729.132500", "172729.592500", "172730.052500", "172730.512500", "172730.972500", "172731.432500", "172731.892500", "172732.352500", "172732.812500", "172733.272500", "172733.732500", "172734.192500", "172734.652500", "172735.112500", "172735.572500", "172736.032500", "172736.492500", "172736.952500", "172737.412500", "172737.872500", "172738.332500", "172738.792500", "172739.252500", "172739.712500", "172740.172500", "172740.632500", "172741.092500", "172741.552500", "172742.012500", "172742.472500", "172742.932500", "172743.392500", "172743.852500", "172744.312500", "172744.772500", "172745.232500", "172745.692500", "172746.152500", "172746.612500", "172747.072500", "172747.532500", "172747.992500", "172748.452500", "172748.912500", "172749.372500", "172749.832500", "172750.292500", "172750.752500", "172751.212500", "172751.672500", "172752.132500", "172752.592500", "172753.052500", "172753.512500", "172753.972500", "172754.432500", "172754.892500", "172755.352500", "172755.812500", "172756.272500", "172756.732500", "172757.192500", "172757.652500", "172758.112500", "172758.572500", "172759.032500", "172759.492500", "172759.952500", "172800.412500", "172800.872500", "172801.332500", "172801.792500", "172802.252500", "172802.712500", "172803.172500", "172803.632500", "172804.092500", "172804.552500", "172805.012500", "172805.472500", "172805.932500", "172806.392500", "172806.852500", "172807.312500", "172807.772500", "172808.232500", "172808.692500", "172809.152500", "172809.612500", "172810.072500", "172810.532500", "172810.992500", "172811.452500", "172811.912500", "172812.372500", "172812.832500", "172813.292500", "172813.752500", "172814.212500", "172814.672500", "172815.132500", "172815.592500", "172816.052500", "172816.512500", "172816.972500", "172817.432500", "172817.892500", "172818.352500", "172818.812500", "172819.272500", "172819.732500", "172820.192500", "172820.652500", "172821.112500", "172821.572500", "172822.032500", "172822.492500", "172822.952500", "172823.412500", "172823.872500", "172824.332500", "172824.792500", "172825.252500", "172825.712500", "172826.172500", "172826.632500", "172827.092500", "172827.552500", "172828.012500", "172828.472500", "172828.932500", "172829.392500", "172829.852500", "172830.312500", "172830.772500", "172831.232500", "172831.692500", "172832.152500", "172832.612500", "172833.072500", "172833.532500", "172833.992500", "172834.452500", "172834.912500", "172835.372500", "172835.832500", "172836.292500", "172836.752500", "172837.212500", "172837.672500", "172838.132500", "172838.592500", "172839.052500", "172839.512500", "172839.972500", "172840.432500", "172840.892500", "172841.352500", "172841.812500", "172842.272500", "172842.732500", "172843.192500", "172843.652500", "172844.112500", "172844.572500", "172845.032500", "172845.492500", "172845.952500", "172846.412500", "172846.872500", "172847.332500", "172847.792500", "172848.252500", "172848.712500", "172849.172500", "172849.632500", "172850.092500", "172850.552500", "172851.012500", "172851.472500", "172851.932500", "172852.392500", "172852.852500", "172853.312500", "172853.772500", "172854.232500", "172854.692500", "172855.152500", "172855.612500", "172856.072500", "172856.532500", "172856.992500", "172857.452500", "172857.912500", "172858.372500", "172858.832500", "172859.292500", "172859.752500", "172900.212500", "172900.672500", "172901.132500", "172901.592500", "172902.052500", "172902.512500", "172902.972500", "172903.432500", "172903.892500", "172904.352500", "172904.812500", "172905.272500", "172905.732500", "172906.192500", "172906.652500", "172907.112500", "172907.572500", "172908.032500", "172908.492500", "172908.952500", "172909.412500", "172909.872500", "172910.332500", "172910.792500", "172911.252500", "172911.712500", "172912.172500", "172912.632500", "172913.092500", "172913.552500", "172914.012500", "172914.472500", "172914.932500", "172915.392500", "172915.852500", "172916.312500", "172916.772500", "172917.232500", "172917.692500", "172918.152500", "172918.612500", "172919.072500", "172919.532500", "172919.992500", "172920.452500", "172920.912500", "172921.372500", "172921.832500", "172922.292500", "172922.752500", "172923.212500", "172923.672500", "172924.132500", "172924.592500", "172925.052500", "172925.512500", "172925.972500", "172926.432500", "172926.892500", "172927.352500", "172927.812500", "172928.272500", "172928.732500", "172929.192500", "172929.652500", "172930.112500", "172930.572500", "172931.032500", "172931.492500", "172931.952500", "172932.412500", "172932.872500", "172933.332500", "172933.792500", "172934.252500", "172934.712500", "172935.172500", "172935.632500", "172936.092500", "172936.552500", "172937.012500", "172937.472500", "172937.932500", "172938.392500", "172938.852500", "172939.312500", "172939.772500", "172940.232500", "172940.692500", "172941.152500", "172941.612500", "172942.072500", "172942.532500", "172942.992500", "172943.452500", "172943.912500", "172944.372500", "172944.832500", "172945.292500", "172945.752500", "172946.212500", "172946.672500", "172947.132500", "172947.592500", "172948.052500", "172948.512500", "172948.972500", "172949.432500", "172949.892500", "172950.352500", "172950.812500", "172951.272500", "172951.732500", "172952.192500", "172952.652500", "172953.112500", "172953.572500", "172954.032500", "172954.492500", "172954.952500", "172955.412500", "172955.872500", "172956.332500", "172956.792500", "172957.252500", "172957.712500", "172958.172500", "172958.632500", "172959.092500", "172959.552500", "173000.012500", "173000.472500", "173000.932500", "173001.392500", "173001.852500", "173002.312500", "173002.772500", "173003.232500", "173003.692500", "173004.152500", "173004.612500", "173005.072500", "173005.532500", "173005.992500", "173006.452500", "173006.912500", "173007.372500", "173007.832500", "173008.292500", "173008.752500", "173009.212500", "173009.672500", "173010.132500", "173010.592500", "173011.052500", "173011.512500", "173011.972500", "173012.432500", "173012.892500", "173013.352500", "173013.812500", "173014.272500", "173014.732500", "173015.192500", "173015.652500", "173016.112500", "173016.572500", "173017.032500", "173017.492500", "173017.952500", "173018.412500", "173018.872500", "173019.332500", "173019.792500", "173020.252500", "173020.712500", "173021.172500", "173021.632500", "173022.092500", "173022.552500", "173023.012500", "173023.472500", "173023.932500", "173024.392500", "173024.852500", "173025.312500", "173025.772500", "173026.232500", "173026.692500", "173027.152500", "173027.612500", "173028.072500", "173028.532500", "173028.992500", "173029.452500", "173029.912500", "173030.372500", "173030.832500", "173031.292500", "173031.752500", "173032.212500", "173032.672500", "173033.132500", "173033.592500", "173034.052500", "173034.512500", "173034.972500", "173035.432500", "173035.892500", "173036.352500", "173036.812500", "173037.272500", "173037.732500", "173038.192500", "173038.652500", "173039.112500", "173039.572500", "173040.032500", "173040.492500", "173040.952500", "173041.412500", "173041.872500", "173042.332500", "173042.792500", "173043.252500", "173043.712500", "173044.172500", "173044.632500", "173045.092500", "173045.552500", "173046.012500", "173046.472500", "173046.932500", "173047.392500", "173047.852500", "173048.312500", "173048.772500", "173049.232500", "173049.692500", "173050.152500", "173050.612500", "173051.072500", "173051.532500", "173051.992500", "173052.452500", "173052.912500", "173053.372500", "173053.832500", "173054.292500", "173054.752500", "173055.212500", "173055.672500", "173056.132500", "173056.592500", "173057.052500", "173057.512500", "173057.972500", "173058.432500", "173058.892500", "173059.352500", "173059.812500", "173100.272500", "173100.732500", "173101.192500", "173101.652500", "173102.112500", "173102.572500", "173103.032500", "173103.492500", "173103.952500", "173104.412500", "173104.872500", "173105.332500", "173105.792500", "173106.252500", "173106.712500", "173107.172500", "173107.632500", "173108.092500", "173108.552500", "173109.012500", "173109.472500", "173109.932500", "173110.392500", "173110.852500", "173111.312500", "173111.772500", "173112.232500", "173112.692500", "173113.152500", "173113.612500", "173114.072500", "173114.532500", "173114.992500", "173115.452500", "173115.912500", "173116.372500", "173116.832500", "173117.292500", "173117.752500", "173118.212500", "173118.672500", "173119.132500", "173119.592500", "173120.052500", "173120.512500", "173120.972500", "173121.432500", "173121.892500", "173122.352500", "173122.812500", "173123.272500", "173123.732500", "173124.192500", "173124.652500", "173125.112500", "173125.572500", "173126.032500", "173126.492500", "173126.952500", "173127.412500", "173127.872500", "173128.332500", "173128.792500", "173129.252500", "173129.712500", "173130.172500", "173130.632500", "173131.092500", "173131.552500", "173132.012500", "173132.472500", "173132.932500", "173133.392500", "173133.852500", "173134.312500", "173134.772500", "173135.232500", "173135.692500", "173136.152500", "173136.612500", "173137.072500", "173137.532500", "173137.992500", "173138.452500", "173138.912500", "173139.372500", "173139.832500", "173140.292500", "173140.752500", "173141.212500", "173141.672500", "173142.132500", "173142.592500", "173143.052500", "173143.512500", "173143.972500", "173144.432500", "173144.892500", "173145.352500", "173145.812500", "173146.272500", "173146.732500", "173147.192500", "173147.652500", "173148.112500", "173148.572500", "173149.032500", "173149.492500", "173149.952500", "173150.412500", "173150.872500", "173151.332500", "173151.792500", "173152.252500", "173152.712500", "173153.172500", "173153.632500", "173154.092500", "173154.552500", "173155.012500", "173155.472500", "173155.932500", "173156.392500", "173156.852500", "173157.312500", "173157.772500", "173158.232500", "173158.692500", "173159.152500", "173159.612500", "173200.072500", "173200.532500", "173200.992500", "173201.452500", "173201.912500", "173202.372500", "173202.832500", "173203.292500", "173203.752500", "173204.212500", "173204.672500", "173205.132500", "173205.592500", "173206.052500", "173206.512500", "173206.972500", "173207.432500", "173207.892500", "173208.352500", "173208.812500", "173209.272500", "173209.732500", "173210.192500", "173210.652500", "173211.112500", "173211.572500", "173212.032500", "173212.492500", "173212.952500", "173213.412500", "173213.872500", "173214.332500", "173214.792500", "173215.252500", "173215.712500", "173216.172500", "173216.632500", "173217.092500", "173217.552500", "173218.012500", "173218.472500", "173218.932500", "173219.392500", "173219.852500", "173220.312500", "173220.772500", "173221.232500", "173221.692500", "173222.152500", "173222.612500", "173223.072500", "173223.532500", "173223.992500", "173224.452500", "173224.912500", "173225.372500", "173225.832500", "173226.292500", "173226.752500", "173227.212500", "173227.672500", "173228.132500", "173228.592500", "173229.052500", "173229.512500", "173229.972500", "173230.432500", "173230.892500", "173231.352500", "173231.812500", "173232.272500", "173232.732500", "173233.192500", "173233.652500", "173234.112500", "173234.572500", "173235.032500", "173235.492500", "173235.952500", "173236.412500", "173236.872500", "173237.332500", "173237.792500", "173238.252500", "173238.712500", "173239.172500", "173239.632500", "173240.092500", "173240.552500", "173241.012500", "173241.472500", "173241.932500", "173242.392500", "173242.852500", "173243.312500", "173243.772500", "173244.232500", "173244.692500", "173245.152500", "173245.612500", "173246.072500", "173246.532500", "173246.992500", "173247.452500", "173247.912500", "173248.372500", "173248.832500", "173249.292500", "173249.752500", "173250.212500", "173250.672500", "173251.132500", "173251.592500", "173252.052500", "173252.512500", "173252.972500", "173253.432500", "173253.892500", "173254.352500", "173254.812500", "173255.272500", "173255.732500", "173256.192500", "173256.652500", "173257.112500", "173257.572500", "173258.032500", "173258.492500", "173258.952500", "173259.412500", "173259.872500", "173300.332500", "173300.792500", "173301.252500", "173301.712500", "173302.172500", "173302.632500", "173303.092500", "173303.552500", "173304.012500", "173304.472500", "173304.932500", "173305.392500", "173305.852500", "173306.312500", "173306.772500", "173307.232500", "173307.692500", "173308.152500", "173308.612500", "173309.072500", "173309.532500", "173309.992500", "173310.452500", "173310.912500", "173311.372500", "173311.832500", "173312.292500", "173312.752500", "173313.212500", "173313.672500", "173314.132500", "173314.592500", "173315.052500", "173315.512500", "173315.972500", "173316.432500", "173316.892500", "173317.352500", "173317.812500", "173318.272500", "173318.732500", "173319.192500", "173319.652500", "173320.112500", "173320.572500", "173321.032500", "173321.492500", "173321.952500", "173322.412500", "173322.872500", "173323.332500", "173323.792500", "173324.252500", "173324.712500", "173325.172500", "173325.632500", "173326.092500", "173326.552500", "173327.012500", "173327.472500", "173327.932500", "173328.392500", "173328.852500", "173329.312500", "173329.772500", "173330.232500", "173330.692500", "173331.152500", "173331.612500", "173332.072500", "173332.532500", "173332.992500", "173333.452500", "173333.912500", "173334.372500", "173334.832500", "173335.292500", "173335.752500", "173336.212500", "173336.672500", "173337.132500", "173337.592500", "173338.052500", "173338.512500", "173338.972500", "173339.432500", "173339.892500", "173340.352500", "173340.812500", "173341.272500", "173341.732500", "173342.192500", "173342.652500", "173343.112500", "173343.572500", "173344.032500", "173344.492500", "173344.952500", "173345.412500", "173345.872500", "173346.332500", "173346.792500", "173347.252500", "173347.712500", "173348.172500", "173348.632500", "173349.092500", "173349.552500", "173350.012500", "173350.472500", "173350.932500"],
