{
  "AcquisitionMatrixPE": 82,
  "AcquisitionNumber": 1,
  "AcquisitionTime": "17:05:14.415000",
  "BandwidthPerPixelPhaseEncode": 24.888,
  "BaseResolution": 82,
  "BodyPartExamined": "BRAIN",
  "ConsistencyInfo": "N4_VE11E_LATEST_20181129",
  "ConversionSoftware": "dcm2niix",
  "ConversionSoftwareVersion": "v1.0.20201102",
  "DerivedVendorReportedEchoSpacing": 0.00049,
  "DeviceSerialNumber": "66112",
  "DwellTime": 2e-06,
  "EchoTime": 0.0272,
  "EchoTrainLength": 82,
  "EffectiveEchoSpacing": 0.00049,
  "FlipAngle": 44,
  "ImageComments": "Unaliased MB8/PE3",
  "ImageOrientationPatientDICOM": [0.997992, 0.0627394, 0.00875779, -0.063138, 0.973896, 0.218035],
  "ImageType": [
    "ORIGINAL",
    "PRIMARY",
    "M",
    "MB",
    "ND",
    "NORM",
    "MOSAIC"
],
  "ImagingFrequency": 123.252,
  "InPlanePhaseEncodingDirectionDICOM": "COL",
  "InstitutionAddress": "Maynard 3,Hanover,NH,US,03755",
  "InstitutionName": "Dartmouth College - PBS",
  "InstitutionalDepartmentName": "Department",
  "MRAcquisitionType": "2D",
  "MagneticFieldStrength": 3,
  "Manufacturer": "Siemens",
  "ManufacturersModelName": "Prisma",
  "Modality": "MR",
  "MultibandAccelerationFactor": 8,
  "PartialFourier": 1,
  "PatientPosition": "HFS",
  "PercentPhaseFOV": 100,
  "PercentSampling": 100,
  "PhaseEncodingDirection": "j-",
  "PhaseEncodingSteps": 82,
  "PhaseResolution": 1,
  "PixelBandwidth": 3050,
  "ProcedureStepDescription": "Wager_Wager^1076_spacetop",
  "ProtocolName": "func_run-03_task-social_acq-ap-mb8",
  "PulseSequenceDetails": "%CustomerSeq%\\cmrr_mbep2d_bold",
  "ReceiveCoilActiveElements": "HEA;HEP",
  "ReceiveCoilName": "Head_32",
  "ReconMatrixPE": 82,
  "RepetitionTime": 0.46,
  "SAR": 0.0936151,
  "ScanOptions": "FS",
  "ScanningSequence": "EP",
  "SequenceName": "epfid2d1_82",
  "SequenceVariant": "SK\\SS",
  "SeriesDescription": "func_run-03_task-social_acq-ap-mb8",
  "SeriesNumber": 16,
  "ShimSetting": [4153, -7751, -7293, 770, -52, -37, -26, 72],
  "SliceThickness": 2.7,
  "SliceTiming": [0, 0.25, 0.0625, 0.3125, 0.125, 0.375, 0.1875, 0, 0.25, 0.0625, 0.3125, 0.125, 0.375, 0.1875, 0, 0.25, 0.0625, 0.3125, 0.125, 0.375, 0.1875, 0, 0.25, 0.0625, 0.3125, 0.125, 0.375, 0.1875, 0, 0.25, 0.0625, 0.3125, 0.125, 0.375, 0.1875, 0, 0.25, 0.0625, 0.3125, 0.125, 0.375, 0.1875, 0, 0.25, 0.0625, 0.3125, 0.125, 0.375, 0.1875, 0, 0.25, 0.0625, 0.3125, 0.125, 0.375, 0.1875],
  "SoftwareVersions": "syngo MR E11",
  "SpacingBetweenSlices": 2.7,
  "StationName": "AWP66112",
  "TaskName": "social",
  "TotalReadoutTime": 0.03969,
  "TxRefAmp": 233.487,
  "WipMemBlock": "d9711d82-2848-4a96-a83c-ab17ce1e09db||Sequence: R016 ve11e/master r/434b28f1; Aug  7 2019 18:53:46 by eja",
  "dcmmeta_affine": [
    [-2.6775383949279785, -0.16939468681812286, -0.013905595056712627, 116.53318786621094],
    [-0.168325275182724, 2.6128928661346436, 0.5890057682991028, -101.15373229980469],
    [0.02349652349948883, -0.584972620010376, 2.634934186935425, -47.02948760986328],
    [0.0, 0.0, 0.0, 1.0]
],
  "dcmmeta_reorient_transform": [
    [0.0, -1.0, 0.0, 81.0],
    [1.0, 0.0, 0.0, 0.0],
    [0.0, 0.0, 1.0, 0.0],
    [0.0, 0.0, 0.0, 1.0]
],
  "dcmmeta_shape": [82, 82, 56, 872],
  "dcmmeta_slice_dim": 2,
  "dcmmeta_version": 0.6,
  "global": {
    "const": {
      "AccessionNumber": "A003933",
      "AcquisitionMatrix": [82, 0, 0, 82],
      "AngioFlag": "N",
      "BitsAllocated": 16,
      "BitsStored": 16,
      "BodyPartExamined": "BRAIN",
      "Columns": 656,
      "EchoNumbers": 1,
      "EchoTime": 27.2,
      "EchoTrainLength": 82,
      "FlipAngle": 44.0,
      "HighBit": 15,
      "ImageOrientationPatient": [0.99799151609587, 0.06273942009211, 0.00875779465225, -0.063138015728, 0.97389641141508, 0.21803525128467],
      "ImagePositionPatient": [-822.64942758831, -908.70020272775, -269.04291966766],
      "ImageType": [
        "ORIGINAL",
        "PRIMARY",
        "M",
        "MB",
        "ND",
        "NORM",
        "MOSAIC"
],
      "ImagedNucleus": "1H",
      "ImagingFrequency": 123.252196,
      "InPlanePhaseEncodingDirection": "COL",
      "MRAcquisitionType": "2D",
      "MagneticFieldStrength": 3.0,
      "Manufacturer": "SIEMENS",
      "ManufacturerModelName": "Prisma",
      "Modality": "MR",
      "NumberOfAverages": 1.0,
      "NumberOfPhaseEncodingSteps": 82,
      "PercentPhaseFieldOfView": 100.0,
      "PercentSampling": 100.0,
      "PerformedProcedureStepStartTime": "160058.281000",
      "PhotometricInterpretation": "MONOCHROME2",
      "PixelBandwidth": 3050.0,
      "PixelRepresentation": 0,
      "PixelSpacing": [2.6829268932343, 2.6829268932343],
      "ProtocolName": "func_run-03_task-social_acq-ap-mb8",
      "RepetitionTime": 460.0,
      "Rows": 656,
      "SAR": 0.09361511638018,
      "SamplesPerPixel": 1,
      "ScanOptions": "FS",
      "ScanningSequence": "EP",
      "SequenceName": "epfid2d1_82",
      "SequenceVariant": [
        "SK",
        "SS"
],
      "SeriesDescription": "func_run-03_task-social_acq-ap-mb8",
      "SeriesNumber": 16,
      "SeriesTime": "170536.991000",
      "SliceLocation": -68.563036945481,
      "SliceThickness": 2.7000000476837,
      "SmallestImagePixelValue": 0,
      "SoftwareVersions": "syngo MR E11",
      "SpacingBetweenSlices": 2.69999998285,
      "SpecificCharacterSet": "ISO_IR 100",
      "StudyID": "1",
      "StudyTime": "160058.229000",
      "TransmitCoilName": "Body",
      "VariableFlipAngleFlag": "N",
      "WindowCenterWidthExplanation": "Algo1"
    },
    "slices": {}
  },
  "time": {
    "samples": {
      "AcquisitionNumber": [1, 2, 3, 4, 5, 6, 7, 8, 9, 10, 11, 12, 13, 14, 15, 16, 17, 18, 19, 20, 21, 22, 23, 24, 25, 26, 27, 28, 29, 30, 31, 32, 33, 34, 35, 36, 37, 38, 39, 40, 41, 42, 43, 44, 45, 46, 47, 48, 49, 50, 51, 52, 53, 54, 55, 56, 57, 58, 59, 60, 61, 62, 63, 64, 65, 66, 67, 68, 69, 70, 71, 72, 73, 74, 75, 76, 77, 78, 79, 80, 81, 82, 83, 84, 85, 86, 87, 88, 89, 90, 91, 92, 93, 94, 95, 96, 97, 98, 99, 100, 101, 102, 103, 104, 105, 106, 107, 108, 109, 110, 111, 112, 113, 114, 115, 116, 117, 118, 119, 120, 121, 122, 123, 124, 125, 126, 127, 128, 129, 130, 131, 132, 133, 134, 135, 136, 137, 138, 139, 140, 141, 142, 143, 144, 145, 146, 147, 148, 149, 150, 151, 152, 153, 154, 155, 156, 157, 158, 159, 160, 161, 162, 163, 164, 165, 166, 167, 168, 169, 170, 171, 172, 173, 174, 175, 176, 177, 178, 179, 180, 181, 182, 183, 184, 185, 186, 187, 188, 189, 190, 191, 192, 193, 194, 195, 196, 197, 198, 199, 200, 201, 202, 203, 204, 205, 206, 207, 208, 209, 210, 211, 212, 213, 214, 215, 216, 217, 218, 219, 220, 221, 222, 223, 224, 225, 226, 227, 228, 229, 230, 231, 232, 233, 234, 235, 236, 237, 238, 239, 240, 241, 242, 243, 244, 245, 246, 247, 248, 249, 250, 251, 252, 253, 254, 255, 256, 257, 258, 259, 260, 261, 262, 263, 264, 265, 266, 267, 268, 269, 270, 271, 272, 273, 274, 275, 276, 277, 278, 279, 280, 281, 282, 283, 284, 285, 286, 287, 288, 289, 290, 291, 292, 293, 294, 295, 296, 297, 298, 299, 300, 301, 302, 303, 304, 305, 306, 307, 308, 309, 310, 311, 312, 313, 314, 315, 316, 317, 318, 319, 320, 321, 322, 323, 324, 325, 326, 327, 328, 329, 330, 331, 332, 333, 334, 335, 336, 337, 338, 339, 340, 341, 342, 343, 344, 345, 346, 347, 348, 349, 350, 351, 352, 353, 354, 355, 356, 357, 358, 359, 360, 361, 362, 363, 364, 365, 366, 367, 368, 369, 370, 371, 372, 373, 374, 375, 376, 377, 378, 379, 380, 381, 382, 383, 384, 385, 386, 387, 388, 389, 390, 391, 392, 393, 394, 395, 396, 397, 398, 399, 400, 401, 402, 403, 404, 405, 406, 407, 408, 409, 410, 411, 412, 413, 414, 415, 416, 417, 418, 419, 420, 421, 422, 423, 424, 425, 426, 427, 428, 429, 430, 431, 432, 433, 434, 435, 436, 437, 438, 439, 440, 441, 442, 443, 444, 445, 446, 447, 448, 449, 450, 451, 452, 453, 454, 455, 456, 457, 458, 459, 460, 461, 462, 463, 464, 465, 466, 467, 468, 469, 470, 471, 472, 473, 474, 475, 476, 477, 478, 479, 480, 481, 482, 483, 484, 485, 486, 487, 488, 489, 490, 491, 492, 493, 494, 495, 496, 497, 498, 499, 500, 501, 502, 503, 504, 505, 506, 507, 508, 509, 510, 511, 512, 513, 514, 515, 516, 517, 518, 519, 520, 521, 522, 523, 524, 525, 526, 527, 528, 529, 530, 531, 532, 533, 534, 535, 536, 537, 538, 539, 540, 541, 542, 543, 544, 545, 546, 547, 548, 549, 550, 551, 552, 553, 554, 555, 556, 557, 558, 559, 560, 561, 562, 563, 564, 565, 566, 567, 568, 569, 570, 571, 572, 573, 574, 575, 576, 577, 578, 579, 580, 581, 582, 583, 584, 585, 586, 587, 588, 589, 590, 591, 592, 593, 594, 595, 596, 597, 598, 599, 600, 601, 602, 603, 604, 605, 606, 607, 608, 609, 610, 611, 612, 613, 614, 615, 616, 617, 618, 619, 620, 621, 622, 623, 624, 625, 626, 627, 628, 629, 630, 631, 632, 633, 634, 635, 636, 637, 638, 639, 640, 641, 642, 643, 644, 645, 646, 647, 648, 649, 650, 651, 652, 653, 654, 655, 656, 657, 658, 659, 660, 661, 662, 663, 664, 665, 666, 667, 668, 669, 670, 671, 672, 673, 674, 675, 676, 677, 678, 679, 680, 681, 682, 683, 684, 685, 686, 687, 688, 689, 690, 691, 692, 693, 694, 695, 696, 697, 698, 699, 700, 701, 702, 703, 704, 705, 706, 707, 708, 709, 710, 711, 712, 713, 714, 715, 716, 717, 718, 719, 720, 721, 722, 723, 724, 725, 726, 727, 728, 729, 730, 731, 732, 733, 734, 735, 736, 737, 738, 739, 740, 741, 742, 743, 744, 745, 746, 747, 748, 749, 750, 751, 752, 753, 754, 755, 756, 757, 758, 759, 760, 761, 762, 763, 764, 765, 766, 767, 768, 769, 770, 771, 772, 773, 774, 775, 776, 777, 778, 779, 780, 781, 782, 783, 784, 785, 786, 787, 788, 789, 790, 791, 792, 793, 794, 795, 796, 797, 798, 799, 800, 801, 802, 803, 804, 805, 806, 807, 808, 809, 810, 811, 812, 813, 814, 815, 816, 817, 818, 819, 820, 821, 822, 823, 824, 825, 826, 827, 828, 829, 830, 831, 832, 833, 834, 835, 836, 837, 838, 839, 840, 841, 842, 843, 844, 845, 846, 847, 848, 849, 850, 851, 852, 853, 854, 855, 856, 857, 858, 859, 860, 861, 862, 863, 864, 865, 866, 867, 868, 869, 870, 871, 872],
      "AcquisitionTime": ["170514.415000", "170514.875000", "170515.335000", "170515.795000", "170516.255000", "170516.715000", "170517.175000", "170517.635000", "170518.095000", "170518.555000", "170519.015000", "170519.475000", "170519.935000", "170520.395000", "170520.855000", "170521.315000", "170521.775000", "170522.235000", "170522.695000", "170523.155000", "170523.615000", "170524.075000", "170524.535000", "170524.995000", "170525.455000", "170525.915000", "170526.375000", "170526.835000", "170527.295000", "170527.755000", "170528.215000", "170528.675000", "170529.135000", "170529.595000", "170530.055000", "170530.515000", "170530.975000", "170531.435000", "170531.895000", "170532.355000", "170532.815000", "170533.275000", "170533.735000", "170534.195000", "170534.655000", "170535.115000", "170535.575000", "170536.035000", "170536.495000", "170536.955000", "170537.415000", "170537.875000", "170538.335000", "170538.795000", "170539.255000", "170539.715000", "170540.175000", "170540.635000", "170541.095000", "170541.555000", "170542.015000", "170542.475000", "170542.935000", "170543.395000", "170543.855000", "170544.315000", "170544.775000", "170545.235000", "170545.695000", "170546.155000", "170546.615000", "170547.075000", "170547.535000", "170547.995000", "170548.455000", "170548.915000", "170549.375000", "170549.835000", "170550.295000", "170550.755000", "170551.215000", "170551.675000", "170552.135000", "170552.595000", "170553.055000", "170553.515000", "170553.975000", "170554.435000", "170554.895000", "170555.355000", "170555.815000", "170556.275000", "170556.735000", "170557.195000", "170557.655000", "170558.115000", "170558.575000", "170559.035000", "170559.495000", "170559.955000", "170600.415000", "170600.875000", "170601.335000", "170601.795000", "170602.255000", "170602.715000", "170603.175000", "170603.635000", "170604.095000", "170604.555000", "170605.015000", "170605.475000", "170605.935000", "170606.395000", "170606.855000", "170607.315000", "170607.775000", "170608.235000", "170608.695000", "170609.155000", "170609.615000", "170610.075000", "170610.535000", "170610.995000", "170611.455000", "170611.915000", "170612.375000", "170612.835000", "170613.295000", "170613.755000", "170614.215000", "170614.675000", "170615.135000", "170615.595000", "170616.055000", "170616.515000", "170616.975000", "170617.435000", "170617.895000", "170618.355000", "170618.815000", "170619.275000", "170619.735000", "170620.195000", "170620.655000", "170621.115000", "170621.575000", "170622.035000", "170622.495000", "170622.955000", "170623.415000", "170623.875000", "170624.335000", "170624.795000", "170625.255000", "170625.715000", "170626.175000", "170626.635000", "170627.095000", "170627.555000", "170628.015000", "170628.475000", "170628.935000", "170629.395000", "170629.855000", "170630.315000", "170630.775000", "170631.235000", "170631.695000", "170632.155000", "170632.615000", "170633.075000", "170633.535000", "170633.995000", "170634.455000", "170634.915000", "170635.375000", "170635.835000", "170636.295000", "170636.755000", "170637.215000", "170637.675000", "170638.135000", "170638.595000", "170639.055000", "170639.515000", "170639.975000", "170640.435000", "170640.895000", "170641.355000", "170641.815000", "170642.275000", "170642.735000", "170643.195000", "170643.655000", "170644.115000", "170644.575000", "170645.035000", "170645.495000", "170645.955000", "170646.415000", "170646.875000", "170647.335000", "170647.795000", "170648.255000", "170648.715000", "170649.175000", "170649.635000", "170650.095000", "170650.555000", "170651.015000", "170651.475000", "170651.935000", "170652.395000", "170652.855000", "170653.315000", "170653.775000", "170654.235000", "170654.695000", "170655.155000", "170655.615000", "170656.075000", "170656.535000", "170656.995000", "170657.455000", "170657.915000", "170658.375000", "170658.835000", "170659.295000", "170659.755000", "170700.215000", "170700.675000", "170701.135000", "170701.595000", "170702.055000", "170702.515000", "170702.975000", "170703.435000", "170703.895000", "170704.355000", "170704.815000", "170705.275000", "170705.735000", "170706.195000", "170706.655000", "170707.115000", "170707.575000", "170708.035000", "170708.495000", "170708.955000", "170709.415000", "170709.875000", "170710.335000", "170710.795000", "170711.255000", "170711.715000", "170712.175000", "170712.635000", "170713.095000", "170713.555000", "170714.015000", "170714.475000", "170714.935000", "170715.395000", "170715.855000", "170716.315000", "170716.775000", "170717.235000", "170717.695000", "170718.155000", "170718.615000", "170719.075000", "170719.535000", "170719.995000", "170720.455000", "170720.915000", "170721.375000", "170721.835000", "170722.295000", "170722.755000", "170723.215000", "170723.675000", "170724.135000", "170724.595000", "170725.055000", "170725.515000", "170725.975000", "170726.435000", "170726.895000", "170727.355000", "170727.815000", "170728.275000", "170728.735000", "170729.195000", "170729.655000", "170730.115000", "170730.575000", "170731.035000", "170731.495000", "170731.955000", "170732.415000", "170732.875000", "170733.335000", "170733.795000", "170734.255000", "170734.715000", "170735.175000", "170735.635000", "170736.095000", "170736.555000", "170737.015000", "170737.475000", "170737.935000", "170738.395000", "170738.855000", "170739.315000", "170739.775000", "170740.235000", "170740.695000", "170741.155000", "170741.615000", "170742.075000", "170742.535000", "170742.995000", "170743.455000", "170743.915000", "170744.375000", "170744.835000", "170745.295000", "170745.755000", "170746.215000", "170746.675000", "170747.135000", "170747.595000", "170748.055000", "170748.515000", "170748.975000", "170749.435000", "170749.895000", "170750.355000", "170750.815000", "170751.275000", "170751.735000", "170752.195000", "170752.655000", "170753.115000", "170753.575000", "170754.035000", "170754.495000", "170754.955000", "170755.415000", "170755.875000", "170756.335000", "170756.795000", "170757.255000", "170757.715000", "170758.175000", "170758.635000", "170759.095000", "170759.555000", "170800.015000", "170800.475000", "170800.935000", "170801.395000", "170801.855000", "170802.315000", "170802.775000", "170803.235000", "170803.695000", "170804.155000", "170804.615000", "170805.075000", "170805.535000", "170805.995000", "170806.455000", "170806.915000", "170807.375000", "170807.835000", "170808.295000", "170808.755000", "170809.215000", "170809.675000", "170810.135000", "170810.595000", "170811.055000", "170811.515000", "170811.975000", "170812.435000", "170812.895000", "170813.355000", "170813.815000", "170814.275000", "170814.735000", "170815.195000", "170815.655000", "170816.115000", "170816.575000", "170817.035000", "170817.495000", "170817.955000", "170818.415000", "170818.875000", "170819.335000", "170819.795000", "170820.255000", "170820.715000", "170821.175000", "170821.635000", "170822.095000", "170822.555000", "170823.015000", "170823.475000", "170823.935000", "170824.395000", "170824.855000", "170825.315000", "170825.775000", "170826.235000", "170826.695000", "170827.155000", "170827.615000", "170828.075000", "170828.535000", "170828.995000", "170829.455000", "170829.915000", "170830.375000", "170830.835000", "170831.295000", "170831.755000", "170832.215000", "170832.675000", "170833.135000", "170833.595000", "170834.055000", "170834.515000", "170834.975000", "170835.435000", "170835.895000", "170836.355000", "170836.815000", "170837.275000", "170837.735000", "170838.195000", "170838.655000", "170839.115000", "170839.575000", "170840.035000", "170840.495000", "170840.955000", "170841.415000", "170841.875000", "170842.335000", "170842.795000", "170843.255000", "170843.715000", "170844.175000", "170844.635000", "170845.095000", "170845.555000", "170846.015000", "170846.475000", "170846.935000", "170847.395000", "170847.855000", "170848.315000", "170848.775000", "170849.235000", "170849.695000", "170850.155000", "170850.615000", "170851.075000", "170851.535000", "170851.995000", "170852.455000", "170852.915000", "170853.375000", "170853.835000", "170854.295000", "170854.755000", "170855.215000", "170855.675000", "170856.135000", "170856.595000", "170857.055000", "170857.515000", "170857.975000", "170858.435000", "170858.895000", "170859.355000", "170859.815000", "170900.275000", "170900.735000", "170901.195000", "170901.655000", "170902.115000", "170902.575000", "170903.035000", "170903.495000", "170903.955000", "170904.415000", "170904.875000", "170905.335000", "170905.795000", "170906.255000", "170906.715000", "170907.175000", "170907.635000", "170908.095000", "170908.555000", "170909.015000", "170909.475000", "170909.935000", "170910.395000", "170910.855000", "170911.315000", "170911.775000", "170912.235000", "170912.695000", "170913.155000", "170913.615000", "170914.075000", "170914.535000", "170914.995000", "170915.455000", "170915.915000", "170916.375000", "170916.835000", "170917.295000", "170917.755000", "170918.215000", "170918.675000", "170919.135000", "170919.595000", "170920.055000", "170920.515000", "170920.975000", "170921.435000", "170921.895000", "170922.355000", "170922.815000", "170923.275000", "170923.735000", "170924.195000", "170924.655000", "170925.115000", "170925.575000", "170926.035000", "170926.495000", "170926.955000", "170927.415000", "170927.875000", "170928.335000", "170928.795000", "170929.255000", "170929.715000", "170930.175000", "170930.635000", "170931.095000", "170931.555000", "170932.015000", "170932.475000", "170932.935000", "170933.395000", "170933.855000", "170934.315000", "170934.775000", "170935.235000", "170935.695000", "170936.155000", "170936.615000", "170937.075000", "170937.535000", "170937.995000", "170938.455000", "170938.915000", "170939.375000", "170939.835000", "170940.295000", "170940.755000", "170941.215000", "170941.675000", "170942.135000", "170942.595000", "170943.055000", "170943.515000", "170943.975000", "170944.435000", "170944.895000", "170945.355000", "170945.815000", "170946.275000", "170946.735000", "170947.195000", "170947.655000", "170948.115000", "170948.575000", "170949.035000", "170949.495000", "170949.955000", "170950.415000", "170950.875000", "170951.335000", "170951.795000", "170952.255000", "170952.715000", "170953.175000", "170953.635000", "170954.095000", "170954.555000", "170955.015000", "170955.475000", "170955.935000", "170956.395000", "170956.855000", "170957.315000", "170957.775000", "170958.235000", "170958.695000", "170959.155000", "170959.615000", "171000.075000", "171000.535000", "171000.995000", "171001.455000", "171001.915000", "171002.375000", "171002.835000", "171003.295000", "171003.755000", "171004.215000", "171004.675000", "171005.135000", "171005.595000", "171006.055000", "171006.515000", "171006.975000", "171007.435000", "171007.895000", "171008.355000", "171008.815000", "171009.275000", "171009.735000", "171010.195000", "171010.655000", "171011.115000", "171011.575000", "171012.035000", "171012.495000", "171012.955000", "171013.415000", "171013.875000", "171014.335000", "171014.795000", "171015.255000", "171015.715000", "171016.175000", "171016.635000", "171017.095000", "171017.555000", "171018.015000", "171018.475000", "171018.935000", "171019.395000", "171019.855000", "171020.315000", "171020.775000", "171021.235000", "171021.695000", "171022.155000", "171022.615000", "171023.075000", "171023.535000", "171023.995000", "171024.455000", "171024.915000", "171025.375000", "171025.835000", "171026.295000", "171026.755000", "171027.215000", "171027.675000", "171028.135000", "171028.595000", "171029.055000", "171029.515000", "171029.975000", "171030.435000", "171030.895000", "171031.355000", "171031.815000", "171032.275000", "171032.735000", "171033.195000", "171033.655000", "171034.115000", "171034.575000", "171035.035000", "171035.495000", "171035.955000", "171036.415000", "171036.875000", "171037.335000", "171037.795000", "171038.255000", "171038.715000", "171039.175000", "171039.635000", "171040.095000", "171040.555000", "171041.015000", "171041.475000", "171041.935000", "171042.395000", "171042.855000", "171043.315000", "171043.775000", "171044.235000", "171044.695000", "171045.155000", "171045.615000", "171046.075000", "171046.535000", "171046.995000", "171047.455000", "171047.915000", "171048.375000", "171048.835000", "171049.295000", "171049.755000", "171050.215000", "171050.675000", "171051.135000", "171051.595000", "171052.055000", "171052.515000", "171052.975000", "171053.435000", "171053.895000", "171054.355000", "171054.815000", "171055.275000", "171055.735000", "171056.195000", "171056.655000", "171057.115000", "171057.575000", "171058.035000", "171058.495000", "171058.955000", "171059.415000", "171059.875000", "171100.335000", "171100.795000", "171101.255000", "171101.715000", "171102.175000", "171102.635000", "171103.095000", "171103.555000", "171104.015000", "171104.475000", "171104.935000", "171105.395000", "171105.855000", "171106.315000", "171106.775000", "171107.235000", "171107.695000", "171108.155000", "171108.615000", "171109.075000", "171109.535000", "171109.995000", "171110.455000", "171110.915000", "171111.375000", "171111.835000", "171112.295000", "171112.755000", "171113.215000", "171113.675000", "171114.135000", "171114.595000", "171115.055000", "171115.515000", "171115.975000", "171116.435000", "171116.895000", "171117.355000", "171117.815000", "171118.275000", "171118.735000", "171119.195000", "171119.655000", "171120.115000", "171120.575000", "171121.035000", "171121.495000", "171121.955000", "171122.415000", "171122.875000", "171123.335000", "171123.795000", "171124.255000", "171124.715000", "171125.175000", "171125.635000", "171126.095000", "171126.555000", "171127.015000", "171127.475000", "171127.935000", "171128.395000", "171128.855000", "171129.315000", "171129.775000", "171130.235000", "171130.695000", "171131.155000", "171131.615000", "171132.075000", "171132.535000", "171132.995000", "171133.455000", "171133.915000", "171134.375000", "171134.835000", "171135.295000", "171135.755000", "171136.215000", "171136.675000", "171137.135000", "171137.595000", "171138.055000", "171138.515000", "171138.975000", "171139.435000", "171139.895000", "171140.355000", "171140.815000", "171141.275000", "171141.735000", "171142.195000", "171142.655000", "171143.115000", "171143.575000", "171144.035000", "171144.495000", "171144.955000", "171145.415000", "171145.875000", "171146.335000", "171146.795000", "171147.255000", "171147.715000", "171148.175000", "171148.635000", "171149.095000", "171149.555000", "171150.015000", "171150.475000", "171150.935000", "171151.395000", "171151.855000", "171152.315000", "171152.775000", "171153.235000", "171153.695000", "171154.155000", "171154.615000", "171155.075000"],
