{
  "AcquisitionMatrixPE": 82,
  "AcquisitionNumber": 1,
  "AcquisitionTime": "16:51:17.990000",
  "BandwidthPerPixelPhaseEncode": 24.888,
  "BaseResolution": 82,
  "BodyPartExamined": "BRAIN",
  "ConsistencyInfo": "N4_VE11E_LATEST_20181129",
  "ConversionSoftware": "dcm2niix",
  "ConversionSoftwareVersion": "v1.0.20201102",
  "DerivedVendorReportedEchoSpacing": 0.00049,
  "DeviceSerialNumber": "66112",
  "DwellTime": 2e-06,
  "EchoTime": 0.0272,
  "EchoTrainLength": 82,
  "EffectiveEchoSpacing": 0.00049,
  "FlipAngle": 44,
  "ImageComments": "Unaliased MB8/PE3",
  "ImageOrientationPatientDICOM": [0.997992, 0.0627394, 0.00875779, -0.063138, 0.973896, 0.218035],
  "ImageType": [
    "ORIGINAL",
    "PRIMARY",
    "M",
    "MB",
    "ND",
    "NORM",
    "MOSAIC"
],
  "ImagingFrequency": 123.252,
  "InPlanePhaseEncodingDirectionDICOM": "COL",
  "InstitutionAddress": "Maynard 3,Hanover,NH,US,03755",
  "InstitutionName": "Dartmouth College - PBS",
  "InstitutionalDepartmentName": "Department",
  "MRAcquisitionType": "2D",
  "MagneticFieldStrength": 3,
  "Manufacturer": "Siemens",
  "ManufacturersModelName": "Prisma",
  "Modality": "MR",
  "MultibandAccelerationFactor": 8,
  "PartialFourier": 1,
  "PatientPosition": "HFS",
  "PercentPhaseFOV": 100,
  "PercentSampling": 100,
  "PhaseEncodingDirection": "j-",
  "PhaseEncodingSteps": 82,
  "PhaseResolution": 1,
  "PixelBandwidth": 3050,
  "ProcedureStepDescription": "Wager_Wager^1076_spacetop",
  "ProtocolName": "func_run-01_task-social_acq-ap-mb8",
  "PulseSequenceDetails": "%CustomerSeq%\\cmrr_mbep2d_bold",
  "ReceiveCoilActiveElements": "HEA;HEP",
  "ReceiveCoilName": "Head_32",
  "ReconMatrixPE": 82,
  "RepetitionTime": 0.46,
  "SAR": 0.0936151,
  "ScanOptions": "FS",
  "ScanningSequence": "EP",
  "SequenceName": "epfid2d1_82",
  "SequenceVariant": "SK\\SS",
  "SeriesDescription": "func_run-01_task-social_acq-ap-mb8",
  "SeriesNumber": 12,
  "ShimSetting": [4153, -7751, -7293, 770, -52, -37, -26, 72],
  "SliceThickness": 2.7,
  "SliceTiming": [0, 0.25, 0.0625, 0.315, 0.125, 0.3775, 0.1875, 0, 0.25, 0.0625, 0.315, 0.125, 0.3775, 0.1875, 0, 0.25, 0.0625, 0.315, 0.125, 0.3775, 0.1875, 0, 0.25, 0.0625, 0.315, 0.125, 0.3775, 0.1875, 0, 0.25, 0.0625, 0.315, 0.125, 0.3775, 0.1875, 0, 0.25, 0.0625, 0.315, 0.125, 0.3775, 0.1875, 0, 0.25, 0.0625, 0.315, 0.125, 0.3775, 0.1875, 0, 0.25, 0.0625, 0.315, 0.125, 0.3775, 0.1875],
  "SoftwareVersions": "syngo MR E11",
  "SpacingBetweenSlices": 2.7,
  "StationName": "AWP66112",
  "TaskName": "social",
  "TotalReadoutTime": 0.03969,
  "TxRefAmp": 233.487,
  "WipMemBlock": "0a42e47f-9cfe-4814-8933-f002c1d637c0||Sequence: R016 ve11e/master r/434b28f1; Aug  7 2019 18:53:46 by eja",
  "dcmmeta_affine": [
    [-2.6775383949279785, -0.16939468681812286, -0.013905595056712627, 116.53318786621094],
    [-0.168325275182724, 2.6128928661346436, 0.5890057682991028, -101.15373229980469],
    [0.02349652349948883, -0.584972620010376, 2.634934186935425, -47.02948760986328],
    [0.0, 0.0, 0.0, 1.0]
],
  "dcmmeta_reorient_transform": [
    [0.0, -1.0, 0.0, 81.0],
    [1.0, 0.0, 0.0, 0.0],
    [0.0, 0.0, 1.0, 0.0],
    [0.0, 0.0, 0.0, 1.0]
],
  "dcmmeta_shape": [82, 82, 56, 872],
  "dcmmeta_slice_dim": 2,
  "dcmmeta_version": 0.6,
  "global": {
    "const": {
      "AccessionNumber": "A003933",
      "AcquisitionMatrix": [82, 0, 0, 82],
      "AngioFlag": "N",
      "BitsAllocated": 16,
      "BitsStored": 16,
      "BodyPartExamined": "BRAIN",
      "Columns": 656,
      "EchoNumbers": 1,
      "EchoTime": 27.2,
      "EchoTrainLength": 82,
      "FlipAngle": 44.0,
      "HighBit": 15,
      "ImageOrientationPatient": [0.99799151609587, 0.06273942009211, 0.00875779465225, -0.063138015728, 0.97389641141508, 0.21803525128467],
      "ImagePositionPatient": [-822.64942758831, -908.70020272775, -269.04291966766],
      "ImageType": [
        "ORIGINAL",
        "PRIMARY",
        "M",
        "MB",
        "ND",
        "NORM",
        "MOSAIC"
],
      "ImagedNucleus": "1H",
      "ImagingFrequency": 123.252183,
      "InPlanePhaseEncodingDirection": "COL",
      "MRAcquisitionType": "2D",
      "MagneticFieldStrength": 3.0,
      "Manufacturer": "SIEMENS",
      "ManufacturerModelName": "Prisma",
      "Modality": "MR",
      "NumberOfAverages": 1.0,
      "NumberOfPhaseEncodingSteps": 82,
      "PercentPhaseFieldOfView": 100.0,
      "PercentSampling": 100.0,
      "PerformedProcedureStepStartTime": "160058.281000",
      "PhotometricInterpretation": "MONOCHROME2",
      "PixelBandwidth": 3050.0,
      "PixelRepresentation": 0,
      "PixelSpacing": [2.6829268932343, 2.6829268932343],
      "ProtocolName": "func_run-01_task-social_acq-ap-mb8",
      "RepetitionTime": 460.0,
      "Rows": 656,
      "SAR": 0.09361511638018,
      "SamplesPerPixel": 1,
      "ScanOptions": "FS",
      "ScanningSequence": "EP",
      "SequenceName": "epfid2d1_82",
      "SequenceVariant": [
        "SK",
        "SS"
],
      "SeriesDescription": "func_run-01_task-social_acq-ap-mb8",
      "SeriesNumber": 12,
      "SeriesTime": "165136.820000",
      "SliceLocation": -68.563036945481,
      "SliceThickness": 2.7000000476837,
      "SmallestImagePixelValue": 0,
      "SoftwareVersions": "syngo MR E11",
      "SpacingBetweenSlices": 2.69999998285,
      "SpecificCharacterSet": "ISO_IR 100",
      "StudyID": "1",
      "StudyTime": "160058.229000",
      "TransmitCoilName": "Body",
      "VariableFlipAngleFlag": "N",
      "WindowCenterWidthExplanation": "Algo1"
    },
    "slices": {}
  },
  "time": {
    "samples": {
      "AcquisitionNumber": [1, 2, 3, 4, 5, 6, 7, 8, 9, 10, 11, 12, 13, 14, 15, 16, 17, 18, 19, 20, 21, 22, 23, 24, 25, 26, 27, 28, 29, 30, 31, 32, 33, 34, 35, 36, 37, 38, 39, 40, 41, 42, 43, 44, 45, 46, 47, 48, 49, 50, 51, 52, 53, 54, 55, 56, 57, 58, 59, 60, 61, 62, 63, 64, 65, 66, 67, 68, 69, 70, 71, 72, 73, 74, 75, 76, 77, 78, 79, 80, 81, 82, 83, 84, 85, 86, 87, 88, 89, 90, 91, 92, 93, 94, 95, 96, 97, 98, 99, 100, 101, 102, 103, 104, 105, 106, 107, 108, 109, 110, 111, 112, 113, 114, 115, 116, 117, 118, 119, 120, 121, 122, 123, 124, 125, 126, 127, 128, 129, 130, 131, 132, 133, 134, 135, 136, 137, 138, 139, 140, 141, 142, 143, 144, 145, 146, 147, 148, 149, 150, 151, 152, 153, 154, 155, 156, 157, 158, 159, 160, 161, 162, 163, 164, 165, 166, 167, 168, 169, 170, 171, 172, 173, 174, 175, 176, 177, 178, 179, 180, 181, 182, 183, 184, 185, 186, 187, 188, 189, 190, 191, 192, 193, 194, 195, 196, 197, 198, 199, 200, 201, 202, 203, 204, 205, 206, 207, 208, 209, 210, 211, 212, 213, 214, 215, 216, 217, 218, 219, 220, 221, 222, 223, 224, 225, 226, 227, 228, 229, 230, 231, 232, 233, 234, 235, 236, 237, 238, 239, 240, 241, 242, 243, 244, 245, 246, 247, 248, 249, 250, 251, 252, 253, 254, 255, 256, 257, 258, 259, 260, 261, 262, 263, 264, 265, 266, 267, 268, 269, 270, 271, 272, 273, 274, 275, 276, 277, 278, 279, 280, 281, 282, 283, 284, 285, 286, 287, 288, 289, 290, 291, 292, 293, 294, 295, 296, 297, 298, 299, 300, 301, 302, 303, 304, 305, 306, 307, 308, 309, 310, 311, 312, 313, 314, 315, 316, 317, 318, 319, 320, 321, 322, 323, 324, 325, 326, 327, 328, 329, 330, 331, 332, 333, 334, 335, 336, 337, 338, 339, 340, 341, 342, 343, 344, 345, 346, 347, 348, 349, 350, 351, 352, 353, 354, 355, 356, 357, 358, 359, 360, 361, 362, 363, 364, 365, 366, 367, 368, 369, 370, 371, 372, 373, 374, 375, 376, 377, 378, 379, 380, 381, 382, 383, 384, 385, 386, 387, 388, 389, 390, 391, 392, 393, 394, 395, 396, 397, 398, 399, 400, 401, 402, 403, 404, 405, 406, 407, 408, 409, 410, 411, 412, 413, 414, 415, 416, 417, 418, 419, 420, 421, 422, 423, 424, 425, 426, 427, 428, 429, 430, 431, 432, 433, 434, 435, 436, 437, 438, 439, 440, 441, 442, 443, 444, 445, 446, 447, 448, 449, 450, 451, 452, 453, 454, 455, 456, 457, 458, 459, 460, 461, 462, 463, 464, 465, 466, 467, 468, 469, 470, 471, 472, 473, 474, 475, 476, 477, 478, 479, 480, 481, 482, 483, 484, 485, 486, 487, 488, 489, 490, 491, 492, 493, 494, 495, 496, 497, 498, 499, 500, 501, 502, 503, 504, 505, 506, 507, 508, 509, 510, 511, 512, 513, 514, 515, 516, 517, 518, 519, 520, 521, 522, 523, 524, 525, 526, 527, 528, 529, 530, 531, 532, 533, 534, 535, 536, 537, 538, 539, 540, 541, 542, 543, 544, 545, 546, 547, 548, 549, 550, 551, 552, 553, 554, 555, 556, 557, 558, 559, 560, 561, 562, 563, 564, 565, 566, 567, 568, 569, 570, 571, 572, 573, 574, 575, 576, 577, 578, 579, 580, 581, 582, 583, 584, 585, 586, 587, 588, 589, 590, 591, 592, 593, 594, 595, 596, 597, 598, 599, 600, 601, 602, 603, 604, 605, 606, 607, 608, 609, 610, 611, 612, 613, 614, 615, 616, 617, 618, 619, 620, 621, 622, 623, 624, 625, 626, 627, 628, 629, 630, 631, 632, 633, 634, 635, 636, 637, 638, 639, 640, 641, 642, 643, 644, 645, 646, 647, 648, 649, 650, 651, 652, 653, 654, 655, 656, 657, 658, 659, 660, 661, 662, 663, 664, 665, 666, 667, 668, 669, 670, 671, 672, 673, 674, 675, 676, 677, 678, 679, 680, 681, 682, 683, 684, 685, 686, 687, 688, 689, 690, 691, 692, 693, 694, 695, 696, 697, 698, 699, 700, 701, 702, 703, 704, 705, 706, 707, 708, 709, 710, 711, 712, 713, 714, 715, 716, 717, 718, 719, 720, 721, 722, 723, 724, 725, 726, 727, 728, 729, 730, 731, 732, 733, 734, 735, 736, 737, 738, 739, 740, 741, 742, 743, 744, 745, 746, 747, 748, 749, 750, 751, 752, 753, 754, 755, 756, 757, 758, 759, 760, 761, 762, 763, 764, 765, 766, 767, 768, 769, 770, 771, 772, 773, 774, 775, 776, 777, 778, 779, 780, 781, 782, 783, 784, 785, 786, 787, 788, 789, 790, 791, 792, 793, 794, 795, 796, 797, 798, 799, 800, 801, 802, 803, 804, 805, 806, 807, 808, 809, 810, 811, 812, 813, 814, 815, 816, 817, 818, 819, 820, 821, 822, 823, 824, 825, 826, 827, 828, 829, 830, 831, 832, 833, 834, 835, 836, 837, 838, 839, 840, 841, 842, 843, 844, 845, 846, 847, 848, 849, 850, 851, 852, 853, 854, 855, 856, 857, 858, 859, 860, 861, 862, 863, 864, 865, 866, 867, 868, 869, 870, 871, 872],
      "AcquisitionTime": ["165117.990000", "165118.450000", "165118.910000", "165119.370000", "165119.830000", "165120.290000", "165120.750000", "165121.210000", "165121.670000", "165122.130000", "165122.590000", "165123.050000", "165123.510000", "165123.970000", "165124.430000", "165124.890000", "165125.350000", "165125.810000", "165126.270000", "165126.730000", "165127.190000", "165127.650000", "165128.110000", "165128.570000", "165129.030000", "165129.490000", "165129.950000", "165130.410000", "165130.870000", "165131.330000", "165131.790000", "165132.250000", "165132.710000", "165133.170000", "165133.630000", "165134.090000", "165134.550000", "165135.010000", "165135.470000", "165135.930000", "165136.390000", "165136.850000", "165137.310000", "165137.770000", "165138.230000", "165138.690000", "165139.150000", "165139.610000", "165140.070000", "165140.530000", "165140.990000", "165141.450000", "165141.910000", "165142.370000", "165142.830000", "165143.290000", "165143.750000", "165144.210000", "165144.670000", "165145.130000", "165145.590000", "165146.050000", "165146.510000", "165146.970000", "165147.430000", "165147.890000", "165148.350000", "165148.810000", "165149.270000", "165149.730000", "165150.190000", "165150.650000", "165151.110000", "165151.570000", "165152.030000", "165152.490000", "165152.950000", "165153.410000", "165153.870000", "165154.330000", "165154.790000", "165155.250000", "165155.710000", "165156.170000", "165156.630000", "165157.090000", "165157.550000", "165158.010000", "165158.470000", "165158.930000", "165159.390000", "165159.850000", "165200.310000", "165200.770000", "165201.230000", "165201.690000", "165202.150000", "165202.610000", "165203.070000", "165203.530000", "165203.990000", "165204.450000", "165204.910000", "165205.370000", "165205.830000", "165206.290000", "165206.750000", "165207.210000", "165207.670000", "165208.130000", "165208.590000", "165209.050000", "165209.510000", "165209.970000", "165210.430000", "165210.890000", "165211.350000", "165211.810000", "165212.270000", "165212.730000", "165213.190000", "165213.650000", "165214.110000", "165214.570000", "165215.030000", "165215.490000", "165215.950000", "165216.410000", "165216.870000", "165217.330000", "165217.790000", "165218.250000", "165218.710000", "165219.170000", "165219.630000", "165220.090000", "165220.550000", "165221.010000", "165221.470000", "165221.930000", "165222.390000", "165222.850000", "165223.310000", "165223.770000", "165224.230000", "165224.690000", "165225.150000", "165225.610000", "165226.070000", "165226.530000", "165226.990000", "165227.450000", "165227.910000", "165228.370000", "165228.830000", "165229.290000", "165229.750000", "165230.210000", "165230.670000", "165231.130000", "165231.590000", "165232.050000", "165232.510000", "165232.970000", "165233.430000", "165233.890000", "165234.350000", "165234.810000", "165235.270000", "165235.730000", "165236.190000", "165236.650000", "165237.110000", "165237.570000", "165238.030000", "165238.490000", "165238.950000", "165239.410000", "165239.870000", "165240.330000", "165240.790000", "165241.250000", "165241.710000", "165242.170000", "165242.630000", "165243.090000", "165243.550000", "165244.010000", "165244.470000", "165244.930000", "165245.390000", "165245.850000", "165246.310000", "165246.770000", "165247.230000", "165247.690000", "165248.150000", "165248.610000", "165249.070000", "165249.530000", "165249.990000", "165250.450000", "165250.910000", "165251.370000", "165251.830000", "165252.290000", "165252.750000", "165253.210000", "165253.670000", "165254.130000", "165254.590000", "165255.050000", "165255.510000", "165255.970000", "165256.430000", "165256.890000", "165257.350000", "165257.810000", "165258.270000", "165258.730000", "165259.190000", "165259.650000", "165300.110000", "165300.570000", "165301.030000", "165301.490000", "165301.950000", "165302.410000", "165302.870000", "165303.330000", "165303.790000", "165304.250000", "165304.710000", "165305.170000", "165305.630000", "165306.090000", "165306.550000", "165307.010000", "165307.470000", "165307.930000", "165308.390000", "165308.850000", "165309.310000", "165309.770000", "165310.230000", "165310.690000", "165311.150000", "165311.610000", "165312.070000", "165312.530000", "165312.990000", "165313.450000", "165313.910000", "165314.370000", "165314.830000", "165315.290000", "165315.750000", "165316.210000", "165316.670000", "165317.130000", "165317.590000", "165318.050000", "165318.510000", "165318.970000", "165319.430000", "165319.890000", "165320.350000", "165320.810000", "165321.270000", "165321.730000", "165322.190000", "165322.650000", "165323.110000", "165323.570000", "165324.030000", "165324.490000", "165324.950000", "165325.410000", "165325.870000", "165326.330000", "165326.790000", "165327.250000", "165327.710000", "165328.170000", "165328.630000", "165329.090000", "165329.550000", "165330.010000", "165330.470000", "165330.930000", "165331.390000", "165331.850000", "165332.310000", "165332.770000", "165333.230000", "165333.690000", "165334.150000", "165334.610000", "165335.070000", "165335.530000", "165335.990000", "165336.450000", "165336.910000", "165337.370000", "165337.830000", "165338.290000", "165338.750000", "165339.210000", "165339.670000", "165340.130000", "165340.590000", "165341.050000", "165341.510000", "165341.970000", "165342.430000", "165342.890000", "165343.350000", "165343.810000", "165344.270000", "165344.730000", "165345.190000", "165345.650000", "165346.110000", "165346.570000", "165347.030000", "165347.490000", "165347.950000", "165348.410000", "165348.870000", "165349.330000", "165349.790000", "165350.250000", "165350.710000", "165351.170000", "165351.630000", "165352.090000", "165352.550000", "165353.010000", "165353.470000", "165353.930000", "165354.390000", "165354.850000", "165355.310000", "165355.770000", "165356.230000", "165356.690000", "165357.150000", "165357.610000", "165358.070000", "165358.530000", "165358.990000", "165359.450000", "165359.910000", "165400.370000", "165400.830000", "165401.290000", "165401.750000", "165402.210000", "165402.670000", "165403.130000", "165403.590000", "165404.050000", "165404.510000", "165404.970000", "165405.430000", "165405.890000", "165406.350000", "165406.810000", "165407.270000", "165407.730000", "165408.190000", "165408.650000", "165409.110000", "165409.570000", "165410.030000", "165410.490000", "165410.950000", "165411.410000", "165411.870000", "165412.330000", "165412.790000", "165413.250000", "165413.710000", "165414.170000", "165414.630000", "165415.090000", "165415.550000", "165416.010000", "165416.470000", "165416.930000", "165417.390000", "165417.850000", "165418.310000", "165418.770000", "165419.230000", "165419.690000", "165420.150000", "165420.610000", "165421.070000", "165421.530000", "165421.990000", "165422.450000", "165422.910000", "165423.370000", "165423.830000", "165424.290000", "165424.750000", "165425.210000", "165425.670000", "165426.130000", "165426.590000", "165427.050000", "165427.510000", "165427.970000", "165428.430000", "165428.890000", "165429.350000", "165429.810000", "165430.270000", "165430.730000", "165431.190000", "165431.650000", "165432.110000", "165432.570000", "165433.030000", "165433.490000", "165433.950000", "165434.410000", "165434.870000", "165435.330000", "165435.790000", "165436.250000", "165436.710000", "165437.170000", "165437.630000", "165438.090000", "165438.550000", "165439.010000", "165439.470000", "165439.930000", "165440.390000", "165440.850000", "165441.310000", "165441.770000", "165442.230000", "165442.690000", "165443.150000", "165443.610000", "165444.070000", "165444.530000", "165444.990000", "165445.450000", "165445.910000", "165446.370000", "165446.830000", "165447.290000", "165447.750000", "165448.210000", "165448.670000", "165449.130000", "165449.590000", "165450.050000", "165450.510000", "165450.970000", "165451.430000", "165451.890000", "165452.350000", "165452.810000", "165453.270000", "165453.730000", "165454.190000", "165454.650000", "165455.110000", "165455.570000", "165456.030000", "165456.490000", "165456.950000", "165457.410000", "165457.870000", "165458.330000", "165458.790000", "165459.250000", "165459.710000", "165500.170000", "165500.630000", "165501.090000", "165501.550000", "165502.010000", "165502.470000", "165502.930000", "165503.390000", "165503.850000", "165504.310000", "165504.770000", "165505.230000", "165505.690000", "165506.150000", "165506.610000", "165507.070000", "165507.530000", "165507.990000", "165508.450000", "165508.910000", "165509.370000", "165509.830000", "165510.290000", "165510.750000", "165511.210000", "165511.670000", "165512.130000", "165512.590000", "165513.050000", "165513.510000", "165513.970000", "165514.430000", "165514.890000", "165515.350000", "165515.810000", "165516.270000", "165516.730000", "165517.190000", "165517.650000", "165518.110000", "165518.570000", "165519.030000", "165519.490000", "165519.950000", "165520.410000", "165520.870000", "165521.330000", "165521.790000", "165522.250000", "165522.710000", "165523.170000", "165523.630000", "165524.090000", "165524.550000", "165525.010000", "165525.470000", "165525.930000", "165526.390000", "165526.850000", "165527.310000", "165527.770000", "165528.230000", "165528.690000", "165529.150000", "165529.610000", "165530.070000", "165530.530000", "165530.990000", "165531.450000", "165531.910000", "165532.370000", "165532.830000", "165533.290000", "165533.750000", "165534.210000", "165534.670000", "165535.130000", "165535.590000", "165536.050000", "165536.510000", "165536.970000", "165537.430000", "165537.890000", "165538.350000", "165538.810000", "165539.270000", "165539.730000", "165540.190000", "165540.650000", "165541.110000", "165541.570000", "165542.030000", "165542.490000", "165542.950000", "165543.410000", "165543.870000", "165544.330000", "165544.790000", "165545.250000", "165545.710000", "165546.170000", "165546.630000", "165547.090000", "165547.550000", "165548.010000", "165548.470000", "165548.930000", "165549.390000", "165549.850000", "165550.310000", "165550.770000", "165551.230000", "165551.690000", "165552.150000", "165552.610000", "165553.070000", "165553.530000", "165553.990000", "165554.450000", "165554.910000", "165555.370000", "165555.830000", "165556.290000", "165556.750000", "165557.210000", "165557.670000", "165558.130000", "165558.590000", "165559.050000", "165559.510000", "165559.970000", "165600.430000", "165600.890000", "165601.350000", "165601.810000", "165602.270000", "165602.730000", "165603.190000", "165603.650000", "165604.110000", "165604.570000", "165605.030000", "165605.490000", "165605.950000", "165606.410000", "165606.870000", "165607.330000", "165607.790000", "165608.250000", "165608.710000", "165609.170000", "165609.630000", "165610.090000", "165610.550000", "165611.010000", "165611.470000", "165611.930000", "165612.390000", "165612.850000", "165613.310000", "165613.770000", "165614.230000", "165614.690000", "165615.150000", "165615.610000", "165616.070000", "165616.530000", "165616.990000", "165617.450000", "165617.910000", "165618.370000", "165618.830000", "165619.290000", "165619.750000", "165620.210000", "165620.670000", "165621.130000", "165621.590000", "165622.050000", "165622.510000", "165622.970000", "165623.430000", "165623.890000", "165624.350000", "165624.810000", "165625.270000", "165625.730000", "165626.190000", "165626.650000", "165627.110000", "165627.570000", "165628.030000", "165628.490000", "165628.950000", "165629.410000", "165629.870000", "165630.330000", "165630.790000", "165631.250000", "165631.710000", "165632.170000", "165632.630000", "165633.090000", "165633.550000", "165634.010000", "165634.470000", "165634.930000", "165635.390000", "165635.850000", "165636.310000", "165636.770000", "165637.230000", "165637.690000", "165638.150000", "165638.610000", "165639.070000", "165639.530000", "165639.990000", "165640.450000", "165640.910000", "165641.370000", "165641.830000", "165642.290000", "165642.750000", "165643.210000", "165643.670000", "165644.130000", "165644.590000", "165645.050000", "165645.510000", "165645.970000", "165646.430000", "165646.890000", "165647.350000", "165647.810000", "165648.270000", "165648.730000", "165649.190000", "165649.650000", "165650.110000", "165650.570000", "165651.030000", "165651.490000", "165651.950000", "165652.410000", "165652.870000", "165653.330000", "165653.790000", "165654.250000", "165654.710000", "165655.170000", "165655.630000", "165656.090000", "165656.550000", "165657.010000", "165657.470000", "165657.930000", "165658.390000", "165658.850000", "165659.310000", "165659.770000", "165700.230000", "165700.690000", "165701.150000", "165701.610000", "165702.070000", "165702.530000", "165702.990000", "165703.450000", "165703.910000", "165704.370000", "165704.830000", "165705.290000", "165705.750000", "165706.210000", "165706.670000", "165707.130000", "165707.590000", "165708.050000", "165708.510000", "165708.970000", "165709.430000", "165709.890000", "165710.350000", "165710.810000", "165711.270000", "165711.730000", "165712.190000", "165712.650000", "165713.110000", "165713.570000", "165714.030000", "165714.490000", "165714.950000", "165715.410000", "165715.870000", "165716.330000", "165716.790000", "165717.250000", "165717.710000", "165718.170000", "165718.630000", "165719.090000", "165719.550000", "165720.010000", "165720.470000", "165720.930000", "165721.390000", "165721.850000", "165722.310000", "165722.770000", "165723.230000", "165723.690000", "165724.150000", "165724.610000", "165725.070000", "165725.530000", "165725.990000", "165726.450000", "165726.910000", "165727.370000", "165727.830000", "165728.290000", "165728.750000", "165729.210000", "165729.670000", "165730.130000", "165730.590000", "165731.050000", "165731.510000", "165731.970000", "165732.430000", "165732.890000", "165733.350000", "165733.810000", "165734.270000", "165734.730000", "165735.190000", "165735.650000", "165736.110000", "165736.570000", "165737.030000", "165737.490000", "165737.950000", "165738.410000", "165738.870000", "165739.330000", "165739.790000", "165740.250000", "165740.710000", "165741.170000", "165741.630000", "165742.090000", "165742.550000", "165743.010000", "165743.470000", "165743.930000", "165744.390000", "165744.850000", "165745.310000", "165745.770000", "165746.230000", "165746.690000", "165747.150000", "165747.610000", "165748.070000", "165748.530000", "165748.990000", "165749.450000", "165749.910000", "165750.370000", "165750.830000", "165751.290000", "165751.750000", "165752.210000", "165752.670000", "165753.130000", "165753.590000", "165754.050000", "165754.510000", "165754.970000", "165755.430000", "165755.890000", "165756.350000", "165756.810000", "165757.270000", "165757.730000", "165758.190000", "165758.650000"],
