{
  "AcquisitionMatrixPE": 140,
  "AcquisitionNumber": 1,
  "AcquisitionTime": "16:37:9.127500",
  "BandwidthPerPixelPhaseEncode": 10.352,
  "BaseResolution": 140,
  "BodyPartExamined": "BRAIN",
  "ConsistencyInfo": "N4_VE11C_LATEST_20160120",
  "ConversionSoftware": "dcm2niix",
  "ConversionSoftwareVersion": "v1.0.20201102",
  "DerivedVendorReportedEchoSpacing": 0.000689998,
  "DeviceSerialNumber": "66112",
  "DiffusionScheme": "Monopolar",
  "DwellTime": 2.1e-06,
  "EchoTime": 0.0884,
  "EchoTrainLength": 105,
  "EffectiveEchoSpacing": 0.000689998,
  "FlipAngle": 90,
  "ImageComments": "Unaliased MB3/PE3 SENSE1",
  "ImageOrientationPatientDICOM": [0.999498, -0.00353211, -0.0314951, 0.0101181, 0.977327, 0.211493],
  "ImageType": [
    "ORIGINAL",
    "PRIMARY",
    "DIFFUSION",
    "NONE",
    "MB",
    "ND",
    "MOSAIC"
],
  "ImagingFrequency": 123.252,
  "InPlanePhaseEncodingDirectionDICOM": "COL",
  "InstitutionAddress": "Maynard 3,Hanover,NH,US,03755",
  "InstitutionName": "Dartmouth College - PBS",
  "InstitutionalDepartmentName": "Department",
  "MRAcquisitionType": "2D",
  "MagneticFieldStrength": 3,
  "Manufacturer": "Siemens",
  "ManufacturersModelName": "Prisma",
  "Modality": "MR",
  "MultibandAccelerationFactor": 3,
  "PartialFourier": 0.75,
  "PatientPosition": "HFS",
  "PercentPhaseFOV": 100,
  "PercentSampling": 100,
  "PhaseEncodingDirection": "j-",
  "PhaseEncodingSteps": 105,
  "PhaseResolution": 1,
  "PixelBandwidth": 1700,
  "ProcedureStepDescription": "Wager_Wager^1076_spacetop",
  "ProtocolName": "dwi_acq-96dir-6b0-mb",
  "PulseSequenceDetails": "%CustomerSeq%\\cmrr_mbep2d_diff",
  "ReceiveCoilActiveElements": "HEA;HEP",
  "ReceiveCoilName": "Head_32",
  "ReconMatrixPE": 140,
  "RepetitionTime": 4.11,
  "SAR": 0.203399,
  "ScanOptions": "PFP\\FS",
  "ScanningSequence": "EP",
  "SequenceName": "ep_b5#1",
  "SequenceVariant": "SK\\SS",
  "SeriesDescription": "dwi_acq-96dir-6b0-mb",
  "SeriesNumber": 8,
  "ShimSetting": [4135, -7737, -7224, 600, -41, -40, 67, 80],
  "SliceThickness": 1.7,
  "SliceTiming": [0, 2.12, 0.15, 2.27, 0.3025, 2.4225, 0.4525, 2.575, 0.605, 2.725, 0.7575, 2.8775, 0.9075, 3.0275, 1.06, 3.18, 1.21, 3.3325, 1.3625, 3.4825, 1.515, 3.635, 1.665, 3.785, 1.8175, 3.9375, 1.9675, 0, 2.12, 0.15, 2.27, 0.3025, 2.4225, 0.4525, 2.575, 0.605, 2.725, 0.7575, 2.8775, 0.9075, 3.0275, 1.06, 3.18, 1.21, 3.3325, 1.3625, 3.4825, 1.515, 3.635, 1.665, 3.785, 1.8175, 3.9375, 1.9675, 0, 2.12, 0.15, 2.27, 0.3025, 2.4225, 0.4525, 2.575, 0.605, 2.725, 0.7575, 2.8775, 0.9075, 3.0275, 1.06, 3.18, 1.21, 3.3325, 1.3625, 3.4825, 1.515, 3.635, 1.665, 3.785, 1.8175, 3.9375, 1.9675],
  "SoftwareVersions": "syngo MR E11",
  "SpacingBetweenSlices": 1.7,
  "StationName": "AWP66112",
  "TotalReadoutTime": 0.0959097,
  "TxRefAmp": 241.162,
  "WipMemBlock": "4216dcf8-1860-4893-a1f2-45bc5b47fb29||Sequence: R016 ve11c/master r/e634e98; Dec 19 2017 11:11:25 by eja",
  "dcmmeta_affine": [
    [-1.713424563407898, 0.017345337197184563, -0.05105779692530632, 125.51466369628906],
    [0.00605505146086216, 1.6754179000854492, 0.3598996102809906, -102.11943054199219],
    [-0.05399160459637642, -0.36255982518196106, 1.660682201385498, -16.155309677124023],
    [0.0, 0.0, 0.0, 1.0]
],
  "dcmmeta_reorient_transform": [
    [0.0, -1.0, 0.0, 139.0],
    [1.0, 0.0, 0.0, 0.0],
    [0.0, 0.0, 1.0, 0.0],
    [0.0, 0.0, 0.0, 1.0]
],
  "dcmmeta_shape": [140, 140, 81, 103],
  "dcmmeta_slice_dim": 2,
  "dcmmeta_version": 0.6,
  "global": {
    "const": {
      "AccessionNumber": "A003804",
      "AcquisitionMatrix": [140, 0, 0, 140],
      "AngioFlag": "N",
      "BitsAllocated": 16,
      "BitsStored": 16,
      "BodyPartExamined": "BRAIN",
      "Columns": 1260,
      "EchoNumbers": 1,
      "EchoTime": 88.4,
      "EchoTrainLength": 105,
      "FlipAngle": 90.0,
      "HighBit": 15,
      "ImageOrientationPatient": [0.9994976651808, -0.0035321132944, -0.0314951023782, 0.01011811372561, 0.97732708746579, 0.2114932336513],
      "ImagePositionPatient": [-1097.1568263429, -1065.6068428982, -239.34933487191],
      "ImageType": [
        "ORIGINAL",
        "PRIMARY",
        "DIFFUSION",
        "NONE",
        "MB",
        "ND",
        "MOSAIC"
],
      "ImagedNucleus": "1H",
      "ImagingFrequency": 123.252192,
      "InPlanePhaseEncodingDirection": "COL",
      "MRAcquisitionType": "2D",
      "MagneticFieldStrength": 3.0,
      "Manufacturer": "SIEMENS",
      "ManufacturerModelName": "Prisma",
      "Modality": "MR",
      "NumberOfAverages": 1.0,
      "NumberOfPhaseEncodingSteps": 105,
      "PercentPhaseFieldOfView": 100.0,
      "PercentSampling": 100.0,
      "PerformedProcedureStepStartTime": "162057.384000",
      "PhotometricInterpretation": "MONOCHROME2",
      "PixelBandwidth": 1700.0,
      "PixelRepresentation": 0,
      "PixelSpacing": [1.7142857313156, 1.7142857313156],
      "ProtocolName": "dwi_acq-96dir-6b0-mb",
      "RepetitionTime": 4110.0,
      "Rows": 1260,
      "SAR": 0.20339870949141,
      "SamplesPerPixel": 1,
      "ScanOptions": [
        "PFP",
        "FS"
],
      "ScanningSequence": "EP",
      "SequenceVariant": [
        "SK",
        "SS"
],
      "SeriesDescription": "dwi_acq-96dir-6b0-mb",
      "SeriesNumber": 8,
      "SeriesTime": "163835.053000",
      "SliceLocation": -41.170636902725,
      "SliceThickness": 1.7000000476837,
      "SmallestImagePixelValue": 0,
      "SoftwareVersions": "syngo MR E11",
      "SpacingBetweenSlices": 1.6999999552332,
      "SpecificCharacterSet": "ISO_IR 100",
      "StudyID": "1",
      "StudyTime": "162057.265000",
      "TransmitCoilName": "Body",
      "VariableFlipAngleFlag": "N",
      "WindowCenterWidthExplanation": "Algo1",
      "dBdt": 0.0},
    "slices": {}
  },
  "time": {
    "samples": {
      "AcquisitionNumber": [1, 2, 3, 4, 5, 6, 7, 8, 9, 10, 11, 12, 13, 14, 15, 16, 17, 18, 19, 20, 21, 22, 23, 24, 25, 26, 27, 28, 29, 30, 31, 32, 33, 34, 35, 36, 37, 38, 39, 40, 41, 42, 43, 44, 45, 46, 47, 48, 49, 50, 51, 52, 53, 54, 55, 56, 57, 58, 59, 60, 61, 62, 63, 64, 65, 66, 67, 68, 69, 70, 71, 72, 73, 74, 75, 76, 77, 78, 79, 80, 81, 82, 83, 84, 85, 86, 87, 88, 89, 90, 91, 92, 93, 94, 95, 96, 97, 98, 99, 100, 101, 102, 103],
      "AcquisitionTime": ["163709.127500", "163713.237500", "163717.347500", "163721.457500", "163725.567500", "163729.677500", "163733.787500", "163737.897500", "163742.007500", "163746.117500", "163750.227500", "163754.337500", "163758.447500", "163802.557500", "163806.667500", "163810.777500", "163814.887500", "163818.997500", "163823.107500", "163827.217500", "163831.327500", "163835.437500", "163839.547500", "163843.657500", "163847.767500", "163851.877500", "163855.987500", "163900.097500", "163904.207500", "163908.317500", "163912.427500", "163916.537500", "163920.647500", "163924.757500", "163928.867500", "163932.977500", "163937.087500", "163941.197500", "163945.307500", "163949.417500", "163953.527500", "163957.637500", "164001.747500", "164005.857500", "164009.967500", "164014.077500", "164018.187500", "164022.297500", "164026.407500", "164030.517500", "164034.627500", "164038.737500", "164042.847500", "164046.957500", "164051.067500", "164055.177500", "164059.287500", "164103.397500", "164107.507500", "164111.617500", "164115.727500", "164119.837500", "164123.947500", "164128.057500", "164132.167500", "164136.277500", "164140.387500", "164144.497500", "164148.607500", "164152.717500", "164156.827500", "164200.937500", "164205.047500", "164209.157500", "164213.267500", "164217.377500", "164221.487500", "164225.597500", "164229.707500", "164233.817500", "164237.927500", "164242.037500", "164246.147500", "164250.257500", "164254.367500", "164258.477500", "164302.587500", "164306.697500", "164310.807500", "164314.917500", "164319.027500", "164323.137500", "164327.247500", "164331.357500", "164335.467500", "164339.577500", "164343.687500", "164347.797500", "164351.907500", "164356.017500", "164400.127500", "164404.237500", "164408.347500"],
      "ContentTime": ["163835.057000", "163835.061000", "163835.064000", "163835.068000", "163835.071000", "163835.075000", "163835.078000", "163835.081000", "163835.084000", "163835.088000", "163835.091000", "163835.099000", "163835.102000", "163835.105000", "163835.114000", "163835.117000", "163835.121000", "163835.124000", "163835.127000", "163835.131000", "163955.052000", "163955.056000", "163955.059000", "163955.063000", "163955.066000", "163955.076000", "163955.080000", "163955.083000", "163955.086000", "163955.090000", "163955.093000", "163955.096000", "163955.100000", "163955.103000", "163955.106000", "163955.110000", "163955.113000", "163955.116000", "163955.119000", "163955.123000", "164015.052000", "164015.056000", "164015.059000", "164015.063000", "164015.066000", "164155.052000", "164155.056000", "164155.059000", "164155.062000", "164155.066000", "164155.069000", "164155.072000", "164155.076000", "164155.079000", "164155.082000", "164155.086000", "164155.089000", "164155.092000", "164155.096000", "164155.099000", "164155.102000", "164155.113000", "164155.116000", "164155.120000", "164155.123000", "164155.127000", "164155.130000", "164155.133000", "164155.136000", "164335.052000", "164335.056000", "164335.059000", "164335.062000", "164335.066000", "164335.069000", "164335.072000", "164335.076000", "164335.079000", "164335.082000", "164335.086000", "164335.089000", "164335.092000", "164335.096000", "164335.099000", "164335.102000", "164335.106000", "164335.109000", "164335.112000", "164335.115000", "164335.119000", "164335.122000", "164335.125000", "164335.129000", "164413.037000", "164413.043000", "164413.046000", "164413.050000", "164413.054000", "164413.058000", "164413.062000", "164413.066000", "164413.070000", "164413.074000"],
      "InstanceCreationTime": ["163835.057000", "163835.061000", "163835.064000", "163835.068000", "163835.071000", "163835.075000", "163835.078000", "163835.081000", "163835.084000", "163835.088000", "163835.091000", "163835.099000", "163835.102000", "163835.105000", "163835.114000", "163835.117000", "163835.121000", "163835.124000", "163835.127000", "163835.131000", "163955.052000", "163955.056000", "163955.059000", "163955.063000", "163955.066000", "163955.076000", "163955.080000", "163955.083000", "163955.086000", "163955.090000", "163955.093000", "163955.096000", "163955.100000", "163955.103000", "163955.106000", "163955.110000", "163955.113000", "163955.116000", "163955.119000", "163955.123000", "164015.052000", "164015.056000", "164015.059000", "164015.063000", "164015.066000", "164155.052000", "164155.056000", "164155.059000", "164155.062000", "164155.066000", "164155.069000", "164155.072000", "164155.076000", "164155.079000", "164155.082000", "164155.086000", "164155.089000", "164155.092000", "164155.096000", "164155.099000", "164155.102000", "164155.113000", "164155.116000", "164155.120000", "164155.123000", "164155.127000", "164155.130000", "164155.133000", "164155.136000", "164335.052000", "164335.056000", "164335.059000", "164335.062000", "164335.066000", "164335.069000", "164335.072000", "164335.076000", "164335.079000", "164335.082000", "164335.086000", "164335.089000", "164335.092000", "164335.096000", "164335.099000", "164335.102000", "164335.106000", "164335.109000", "164335.112000", "164335.115000", "164335.119000", "164335.122000", "164335.125000", "164335.129000", "164413.037000", "164413.043000", "164413.046000", "164413.050000", "164413.054000", "164413.058000", "164413.062000", "164413.066000", "164413.070000", "164413.074000"],
      "InstanceNumber": [1, 2, 3, 4, 5, 6, 7, 8, 9, 10, 11, 12, 13, 14, 15, 16, 17, 18, 19, 20, 21, 22, 23, 24, 25, 26, 27, 28, 29, 30, 31, 32, 33, 34, 35, 36, 37, 38, 39, 40, 41, 42, 43, 44, 45, 46, 47, 48, 49, 50, 51, 52, 53, 54, 55, 56, 57, 58, 59, 60, 61, 62, 63, 64, 65, 66, 67, 68, 69, 70, 71, 72, 73, 74, 75, 76, 77, 78, 79, 80, 81, 82, 83, 84, 85, 86, 87, 88, 89, 90, 91, 92, 93, 94, 95, 96, 97, 98, 99, 100, 101, 102, 103],
      "LargestImagePixelValue": [65535, 65535, 65535, 65535, 65535, 65535, 65535, 65535, 65535, 45958, 60713, 56255, 54201, 60472, 49844, 54586, 52500, 56209, 53524, 52487, 49378, 52834, 53917, 57246, 65535, 20779, 26518, 33320, 28334, 28964, 35117, 25862, 32324, 23323, 31503, 25444, 25340, 28489, 32504, 28319, 65535, 13192, 17711, 17837, 20938, 12334, 14858, 16267, 15635, 13519, 19870, 16745, 14507, 14605, 17188, 13308, 13382, 14977, 20027, 19870, 15772, 18232, 15853, 15286, 16304, 18627, 12793, 14116, 18151, 13015, 17015, 16490, 18750, 65535, 21245, 16262, 15956, 13647, 19550, 14962, 13584, 20001, 14242, 14829, 13189, 12978, 18538, 18598, 17628, 20451, 14761, 17507, 16507, 14500, 15654, 15730, 15684, 13019, 16535, 13736, 12190, 16225, 65535],
      "SequenceName": [
 "ep_b5#1",
 "ep_b5#1",
 "ep_b500#2",
 "ep_b500#3",
 "ep_b500#4",
 "ep_b505#5",
 "ep_b495#6",
 "ep_b500#7",
 "ep_b5#8",
 "ep_b1000#9",
 "ep_b1005#10",
 "ep_b995#11",
 "ep_b1005#12",
 "ep_b995#13",
 "ep_b995#14",
 "ep_b1005#15",
 "ep_b1000#16",
 "ep_b1000#17",
 "ep_b995#18",
 "ep_b1000#19",
 "ep_b995#20",
 "ep_b1000#21",
 "ep_b1005#22",
 "ep_b1005#23",
 "ep_b5#24",
 "ep_b2000#25",
 "ep_b1995#26",
 "ep_b1995#27",
 "ep_b1995#28",
 "ep_b2005#29",
 "ep_b2010#30",
 "ep_b2005#31",
 "ep_b2005#32",
 "ep_b1995#33",
 "ep_b1990#34",
 "ep_b1995#35",
 "ep_b2005#36",
 "ep_b2000#37",
 "ep_b2010#38",
 "ep_b2000#39",
 "ep_b5#40",
 "ep_b3000#41",
 "ep_b3005#42",
 "ep_b3010#43",
 "ep_b3010#44",
 "ep_b3000#45",
 "ep_b2995#46",
 "ep_b2990#47",
 "ep_b3005#48",
 "ep_b3000#49",
 "ep_b2990#50",
 "ep_b2990#51",
 "ep_b2995#52",
 "ep_b2995#53",
 "ep_b3010#54",
 "ep_b3000#55",
 "ep_b2995#56",
 "ep_b3000#57",
 "ep_b2990#58",
 "ep_b2990#59",
 "ep_b3000#60",
 "ep_b2990#61",
 "ep_b2990#62",
 "ep_b2995#63",
 "ep_b3005#64",
 "ep_b3010#65",
 "ep_b3000#66",
 "ep_b3005#67",
 "ep_b3010#68",
 "ep_b3005#69",
 "ep_b3005#70",
 "ep_b3010#71",
 "ep_b2990#72",
 "ep_b5#73",
 "ep_b3010#74",
 "ep_b3000#75",
 "ep_b3005#76",
 "ep_b3005#77",
 "ep_b2995#78",
 "ep_b3005#79",
 "ep_b3000#80",
 "ep_b3010#81",
 "ep_b3010#82",
 "ep_b3005#83",
 "ep_b3000#84",
 "ep_b3005#85",
 "ep_b3010#86",
 "ep_b3010#87",
 "ep_b2990#88",
 "ep_b3010#89",
 "ep_b2995#90",
 "ep_b2995#91",
 "ep_b2995#92",
 "ep_b2995#93",
 "ep_b3005#94",
 "ep_b3005#95",
 "ep_b2995#96",
 "ep_b3000#97",
 "ep_b2990#98",
 "ep_b3000#99",
 "ep_b2995#100",
 "ep_b2995#101",
 "ep_b5#102"
],
      "WindowCenter": [10789.0, 10798.0, 7715.0, 7735.0, 7706.0, 7657.0, 7758.0, 7735.0, 10796.0, 5840.0, 5930.0, 5918.0, 5886.0, 5971.0, 5864.0, 5885.0, 5947.0, 5952.0, 5931.0, 5880.0, 5906.0, 5909.0, 5876.0, 5942.0, 10801.0, 3698.0, 3707.0, 3762.0, 3829.0, 3736.0, 3793.0, 3730.0, 3752.0, 3721.0, 3804.0, 3721.0, 3688.0, 3719.0, 3800.0, 3732.0, 10799.0, 2606.0, 2604.0, 2645.0, 2677.0, 2560.0, 2624.0, 2661.0, 2585.0, 2577.0, 2632.0, 2606.0, 2612.0, 2618.0, 2645.0, 2572.0, 2594.0, 2566.0, 2705.0, 2663.0, 2620.0, 2638.0, 2686.0, 2654.0, 2650.0, 2680.0, 2530.0, 2590.0, 2668.0, 2582.0, 2663.0, 2680.0, 2693.0, 10842.0, 2687.0, 2644.0, 2573.0, 2583.0, 2639.0, 2560.0, 2545.0, 2648.0, 2623.0, 2585.0, 2591.0, 2580.0, 2619.0, 2620.0, 2627.0, 2662.0, 2630.0, 2615.0, 2583.0, 2626.0, 2578.0, 2610.0, 2695.0, 2524.0, 2648.0, 2552.0, 2554.0, 2684.0, 10777.0],
      "WindowWidth": [24589.0, 24632.0, 16405.0, 16434.0, 16368.0, 16331.0, 16484.0, 16443.0, 24620.0, 12533.0, 12700.0, 12634.0, 12610.0, 12740.0, 12592.0, 12613.0, 12693.0, 12715.0, 12676.0, 12564.0, 12659.0, 12616.0, 12618.0, 12660.0, 24629.0, 8359.0, 8344.0, 8431.0, 8540.0, 8408.0, 8506.0, 8378.0, 8439.0, 8380.0, 8514.0, 8398.0, 8327.0, 8340.0, 8500.0, 8363.0, 24627.0, 6220.0, 6155.0, 6262.0, 6302.0, 6122.0, 6210.0, 6289.0, 6136.0, 6160.0, 6200.0, 6179.0, 6217.0, 6240.0, 6262.0, 6142.0, 6200.0, 6082.0, 6351.0, 6270.0, 6192.0, 6226.0, 6343.0, 6276.0, 6254.0, 6317.0, 6054.0, 6156.0, 6292.0, 6181.0, 6304.0, 6319.0, 6336.0, 24833.0, 6309.0, 6230.0, 6113.0, 6152.0, 6200.0, 6092.0, 6086.0, 6245.0, 6231.0, 6163.0, 6191.0, 6174.0, 6188.0, 6190.0, 6210.0, 6268.0, 6257.0, 6165.0, 6120.0, 6243.0, 6136.0, 6209.0, 6351.0, 6029.0, 6262.0, 6088.0, 6121.0, 6333.0, 24522.0]
    },
    "slices": {}
  }
}