{
  "AcquisitionMatrixPE": 82,
  "AcquisitionNumber": 1,
  "AcquisitionTime": "19:34:9.017500",
  "BandwidthPerPixelPhaseEncode": 24.888,
  "BaseResolution": 82,
  "BodyPartExamined": "BRAIN",
  "ConsistencyInfo": "N4_VE11E_LATEST_20181129",
  "ConversionSoftware": "dcm2niix",
  "ConversionSoftwareVersion": "v1.0.20201102",
  "DerivedVendorReportedEchoSpacing": 0.00049,
  "DeviceSerialNumber": "66112",
  "DwellTime": 2e-06,
  "EchoTime": 0.0272,
  "EchoTrainLength": 82,
  "EffectiveEchoSpacing": 0.00049,
  "FlipAngle": 44,
  "ImageComments": "Unaliased MB8/PE3",
  "ImageOrientationPatientDICOM": [0.999813, 0.0137756, -0.013538, -0.0125647, 0.996234, 0.085785],
  "ImageType": [
    "ORIGINAL",
    "PRIMARY",
    "M",
    "MB",
    "ND",
    "NORM",
    "MOSAIC"
],
  "ImagingFrequency": 123.259,
  "InPlanePhaseEncodingDirectionDICOM": "COL",
  "InstitutionAddress": "Maynard 3,Hanover,NH,US,03755",
  "InstitutionName": "Dartmouth College - PBS",
  "InstitutionalDepartmentName": "Department",
  "MRAcquisitionType": "2D",
  "MagneticFieldStrength": 3,
  "Manufacturer": "Siemens",
  "ManufacturersModelName": "Prisma",
  "Modality": "MR",
  "MultibandAccelerationFactor": 8,
  "PartialFourier": 1,
  "PatientPosition": "HFS",
  "PercentPhaseFOV": 100,
  "PercentSampling": 100,
  "PhaseEncodingDirection": "j-",
  "PhaseEncodingSteps": 82,
  "PhaseResolution": 1,
  "PixelBandwidth": 3050,
  "ProcedureStepDescription": "Wager_Wager^1076_spacetop",
  "ProtocolName": "func_run-01_task-faces_acq-ap-mb8",
  "PulseSequenceDetails": "%CustomerSeq%\\cmrr_mbep2d_bold",
  "ReceiveCoilActiveElements": "HEA;HEP",
  "ReceiveCoilName": "Head_32",
  "ReconMatrixPE": 82,
  "RepetitionTime": 0.46,
  "SAR": 0.131584,
  "ScanOptions": "FS",
  "ScanningSequence": "EP",
  "SequenceName": "epfid2d1_82",
  "SequenceVariant": "SK\\SS",
  "SeriesDescription": "func_run-01_task-faces_acq-ap-mb8",
  "SeriesNumber": 16,
  "ShimSetting": [4212, -7816, -7193, 32, -110, -149, -8, 103],
  "SliceThickness": 2.7,
  "SliceTiming": [0, 0.25, 0.0625, 0.315, 0.125, 0.3775, 0.1875, 0, 0.25, 0.0625, 0.315, 0.125, 0.3775, 0.1875, 0, 0.25, 0.0625, 0.315, 0.125, 0.3775, 0.1875, 0, 0.25, 0.0625, 0.315, 0.125, 0.3775, 0.1875, 0, 0.25, 0.0625, 0.315, 0.125, 0.3775, 0.1875, 0, 0.25, 0.0625, 0.315, 0.125, 0.3775, 0.1875, 0, 0.25, 0.0625, 0.315, 0.125, 0.3775, 0.1875, 0, 0.25, 0.0625, 0.315, 0.125, 0.3775, 0.1875],
  "SoftwareVersions": "syngo MR E11",
  "SpacingBetweenSlices": 2.7,
  "StationName": "AWP66112",
  "TaskName": "faces",
  "TotalReadoutTime": 0.03969,
  "TxRefAmp": 318.233,
  "WipMemBlock": "4cd5b7d3-b436-45df-ba8f-e666b7b19ef5||Sequence: R016 ve11e/master r/434b28f1; Aug  7 2019 18:53:46 by eja",
  "dcmmeta_affine": [
    [-2.6824264526367188, -0.03371009603142738, -0.03960561752319336, 114.61611938476562],
    [-0.03695881366729736, 2.6728241443634033, 0.23111708462238312, -86.14006042480469],
    [-0.03632143512368202, -0.23015493154525757, 2.689798593521118, -52.72270202636719],
    [0.0, 0.0, 0.0, 1.0]
],
  "dcmmeta_reorient_transform": [
    [0.0, -1.0, 0.0, 81.0],
    [1.0, 0.0, 0.0, 0.0],
    [0.0, 0.0, 1.0, 0.0],
    [0.0, 0.0, 0.0, 1.0]
],
  "dcmmeta_shape": [82, 82, 56, 914],
  "dcmmeta_slice_dim": 2,
  "dcmmeta_version": 0.6,
  "global": {
    "const": {
      "AccessionNumber": "A004835",
      "AcquisitionMatrix": [82, 0, 0, 82],
      "AngioFlag": "N",
      "BitsAllocated": 16,
      "BitsStored": 16,
      "BodyPartExamined": "BRAIN",
      "Columns": 656,
      "EchoNumbers": 1,
      "EchoTime": 27.2,
      "EchoTrainLength": 82,
      "FlipAngle": 44.0,
      "HighBit": 15,
      "ImageOrientationPatient": [0.99981346103072, 0.01377555803244, -0.0135379888706, -0.0125646724869, 0.99623443989715, 0.08578502065113],
      "ImagePositionPatient": [-872.06718552784, -908.0664125238, -126.99546885886],
      "ImageType": [
        "ORIGINAL",
        "PRIMARY",
        "M",
        "MB",
        "ND",
        "NORM",
        "MOSAIC"
],
      "ImagedNucleus": "1H",
      "ImagingFrequency": 123.25901,
      "InPlanePhaseEncodingDirection": "COL",
      "MRAcquisitionType": "2D",
      "MagneticFieldStrength": 3.0,
      "Manufacturer": "SIEMENS",
      "ManufacturerModelName": "Prisma",
      "Modality": "MR",
      "NumberOfAverages": 1.0,
      "NumberOfPhaseEncodingSteps": 82,
      "PercentPhaseFieldOfView": 100.0,
      "PercentSampling": 100.0,
      "PerformedProcedureStepStartTime": "184058.782000",
      "PhotometricInterpretation": "MONOCHROME2",
      "PixelBandwidth": 3050.0,
      "PixelRepresentation": 0,
      "PixelSpacing": [2.6829268932343, 2.6829268932343],
      "ProtocolName": "func_run-01_task-faces_acq-ap-mb8",
      "RepetitionTime": 460.0,
      "Rows": 656,
      "SAR": 0.13158357324487,
      "SamplesPerPixel": 1,
      "ScanOptions": "FS",
      "ScanningSequence": "EP",
      "SequenceName": "epfid2d1_82",
      "SequenceVariant": [
        "SK",
        "SS"
],
      "SeriesDescription": "func_run-01_task-faces_acq-ap-mb8",
      "SeriesNumber": 16,
      "SeriesTime": "193419.853000",
      "SliceLocation": -61.578271222569,
      "SliceThickness": 2.7000000476837,
      "SmallestImagePixelValue": 0,
      "SoftwareVersions": "syngo MR E11",
      "SpacingBetweenSlices": 2.700000037818,
      "SpecificCharacterSet": "ISO_IR 100",
      "StudyID": "2",
      "StudyTime": "184058.725000",
      "TransmitCoilName": "Body",
      "VariableFlipAngleFlag": "N",
      "WindowCenterWidthExplanation": "Algo1"
    },
    "slices": {}
  },
  "time": {
    "samples": {
      "AcquisitionNumber": [1, 2, 3, 4, 5, 6, 7, 8, 9, 10, 11, 12, 13, 14, 15, 16, 17, 18, 19, 20, 21, 22, 23, 24, 25, 26, 27, 28, 29, 30, 31, 32, 33, 34, 35, 36, 37, 38, 39, 40, 41, 42, 43, 44, 45, 46, 47, 48, 49, 50, 51, 52, 53, 54, 55, 56, 57, 58, 59, 60, 61, 62, 63, 64, 65, 66, 67, 68, 69, 70, 71, 72, 73, 74, 75, 76, 77, 78, 79, 80, 81, 82, 83, 84, 85, 86, 87, 88, 89, 90, 91, 92, 93, 94, 95, 96, 97, 98, 99, 100, 101, 102, 103, 104, 105, 106, 107, 108, 109, 110, 111, 112, 113, 114, 115, 116, 117, 118, 119, 120, 121, 122, 123, 124, 125, 126, 127, 128, 129, 130, 131, 132, 133, 134, 135, 136, 137, 138, 139, 140, 141, 142, 143, 144, 145, 146, 147, 148, 149, 150, 151, 152, 153, 154, 155, 156, 157, 158, 159, 160, 161, 162, 163, 164, 165, 166, 167, 168, 169, 170, 171, 172, 173, 174, 175, 176, 177, 178, 179, 180, 181, 182, 183, 184, 185, 186, 187, 188, 189, 190, 191, 192, 193, 194, 195, 196, 197, 198, 199, 200, 201, 202, 203, 204, 205, 206, 207, 208, 209, 210, 211, 212, 213, 214, 215, 216, 217, 218, 219, 220, 221, 222, 223, 224, 225, 226, 227, 228, 229, 230, 231, 232, 233, 234, 235, 236, 237, 238, 239, 240, 241, 242, 243, 244, 245, 246, 247, 248, 249, 250, 251, 252, 253, 254, 255, 256, 257, 258, 259, 260, 261, 262, 263, 264, 265, 266, 267, 268, 269, 270, 271, 272, 273, 274, 275, 276, 277, 278, 279, 280, 281, 282, 283, 284, 285, 286, 287, 288, 289, 290, 291, 292, 293, 294, 295, 296, 297, 298, 299, 300, 301, 302, 303, 304, 305, 306, 307, 308, 309, 310, 311, 312, 313, 314, 315, 316, 317, 318, 319, 320, 321, 322, 323, 324, 325, 326, 327, 328, 329, 330, 331, 332, 333, 334, 335, 336, 337, 338, 339, 340, 341, 342, 343, 344, 345, 346, 347, 348, 349, 350, 351, 352, 353, 354, 355, 356, 357, 358, 359, 360, 361, 362, 363, 364, 365, 366, 367, 368, 369, 370, 371, 372, 373, 374, 375, 376, 377, 378, 379, 380, 381, 382, 383, 384, 385, 386, 387, 388, 389, 390, 391, 392, 393, 394, 395, 396, 397, 398, 399, 400, 401, 402, 403, 404, 405, 406, 407, 408, 409, 410, 411, 412, 413, 414, 415, 416, 417, 418, 419, 420, 421, 422, 423, 424, 425, 426, 427, 428, 429, 430, 431, 432, 433, 434, 435, 436, 437, 438, 439, 440, 441, 442, 443, 444, 445, 446, 447, 448, 449, 450, 451, 452, 453, 454, 455, 456, 457, 458, 459, 460, 461, 462, 463, 464, 465, 466, 467, 468, 469, 470, 471, 472, 473, 474, 475, 476, 477, 478, 479, 480, 481, 482, 483, 484, 485, 486, 487, 488, 489, 490, 491, 492, 493, 494, 495, 496, 497, 498, 499, 500, 501, 502, 503, 504, 505, 506, 507, 508, 509, 510, 511, 512, 513, 514, 515, 516, 517, 518, 519, 520, 521, 522, 523, 524, 525, 526, 527, 528, 529, 530, 531, 532, 533, 534, 535, 536, 537, 538, 539, 540, 541, 542, 543, 544, 545, 546, 547, 548, 549, 550, 551, 552, 553, 554, 555, 556, 557, 558, 559, 560, 561, 562, 563, 564, 565, 566, 567, 568, 569, 570, 571, 572, 573, 574, 575, 576, 577, 578, 579, 580, 581, 582, 583, 584, 585, 586, 587, 588, 589, 590, 591, 592, 593, 594, 595, 596, 597, 598, 599, 600, 601, 602, 603, 604, 605, 606, 607, 608, 609, 610, 611, 612, 613, 614, 615, 616, 617, 618, 619, 620, 621, 622, 623, 624, 625, 626, 627, 628, 629, 630, 631, 632, 633, 634, 635, 636, 637, 638, 639, 640, 641, 642, 643, 644, 645, 646, 647, 648, 649, 650, 651, 652, 653, 654, 655, 656, 657, 658, 659, 660, 661, 662, 663, 664, 665, 666, 667, 668, 669, 670, 671, 672, 673, 674, 675, 676, 677, 678, 679, 680, 681, 682, 683, 684, 685, 686, 687, 688, 689, 690, 691, 692, 693, 694, 695, 696, 697, 698, 699, 700, 701, 702, 703, 704, 705, 706, 707, 708, 709, 710, 711, 712, 713, 714, 715, 716, 717, 718, 719, 720, 721, 722, 723, 724, 725, 726, 727, 728, 729, 730, 731, 732, 733, 734, 735, 736, 737, 738, 739, 740, 741, 742, 743, 744, 745, 746, 747, 748, 749, 750, 751, 752, 753, 754, 755, 756, 757, 758, 759, 760, 761, 762, 763, 764, 765, 766, 767, 768, 769, 770, 771, 772, 773, 774, 775, 776, 777, 778, 779, 780, 781, 782, 783, 784, 785, 786, 787, 788, 789, 790, 791, 792, 793, 794, 795, 796, 797, 798, 799, 800, 801, 802, 803, 804, 805, 806, 807, 808, 809, 810, 811, 812, 813, 814, 815, 816, 817, 818, 819, 820, 821, 822, 823, 824, 825, 826, 827, 828, 829, 830, 831, 832, 833, 834, 835, 836, 837, 838, 839, 840, 841, 842, 843, 844, 845, 846, 847, 848, 849, 850, 851, 852, 853, 854, 855, 856, 857, 858, 859, 860, 861, 862, 863, 864, 865, 866, 867, 868, 869, 870, 871, 872, 873, 874, 875, 876, 877, 878, 879, 880, 881, 882, 883, 884, 885, 886, 887, 888, 889, 890, 891, 892, 893, 894, 895, 896, 897, 898, 899, 900, 901, 902, 903, 904, 905, 906, 907, 908, 909, 910, 911, 912, 913, 914],
      "AcquisitionTime": ["193409.017500", "193409.477500", "193409.937500", "193410.397500", "193410.857500", "193411.317500", "193411.777500", "193412.237500", "193412.697500", "193413.157500", "193413.617500", "193414.077500", "193414.537500", "193414.997500", "193415.457500", "193415.917500", "193416.377500", "193416.837500", "193417.297500", "193417.757500", "193418.217500", "193418.677500", "193419.137500", "193419.597500", "193420.057500", "193420.517500", "193420.977500", "193421.437500", "193421.897500", "193422.357500", "193422.817500", "193423.277500", "193423.737500", "193424.197500", "193424.657500", "193425.117500", "193425.577500", "193426.037500", "193426.497500", "193426.957500", "193427.417500", "193427.877500", "193428.337500", "193428.797500", "193429.257500", "193429.717500", "193430.177500", "193430.637500", "193431.097500", "193431.557500", "193432.017500", "193432.477500", "193432.937500", "193433.397500", "193433.857500", "193434.317500", "193434.777500", "193435.237500", "193435.697500", "193436.157500", "193436.617500", "193437.077500", "193437.537500", "193437.997500", "193438.457500", "193438.917500", "193439.377500", "193439.837500", "193440.297500", "193440.757500", "193441.217500", "193441.677500", "193442.137500", "193442.597500", "193443.057500", "193443.517500", "193443.977500", "193444.437500", "193444.897500", "193445.357500", "193445.817500", "193446.277500", "193446.737500", "193447.197500", "193447.657500", "193448.117500", "193448.577500", "193449.037500", "193449.497500", "193449.957500", "193450.417500", "193450.877500", "193451.337500", "193451.797500", "193452.257500", "193452.717500", "193453.177500", "193453.637500", "193454.097500", "193454.557500", "193455.017500", "193455.477500", "193455.937500", "193456.397500", "193456.857500", "193457.317500", "193457.777500", "193458.237500", "193458.697500", "193459.157500", "193459.617500", "193500.077500", "193500.537500", "193500.997500", "193501.457500", "193501.917500", "193502.377500", "193502.837500", "193503.297500", "193503.757500", "193504.217500", "193504.677500", "193505.137500", "193505.597500", "193506.057500", "193506.517500", "193506.977500", "193507.437500", "193507.897500", "193508.357500", "193508.817500", "193509.277500", "193509.737500", "193510.197500", "193510.657500", "193511.117500", "193511.577500", "193512.037500", "193512.497500", "193512.957500", "193513.417500", "193513.877500", "193514.337500", "193514.797500", "193515.257500", "193515.717500", "193516.177500", "193516.637500", "193517.097500", "193517.557500", "193518.017500", "193518.477500", "193518.937500", "193519.397500", "193519.857500", "193520.317500", "193520.777500", "193521.237500", "193521.697500", "193522.157500", "193522.617500", "193523.077500", "193523.537500", "193523.997500", "193524.457500", "193524.917500", "193525.377500", "193525.837500", "193526.297500", "193526.757500", "193527.217500", "193527.677500", "193528.137500", "193528.597500", "193529.057500", "193529.517500", "193529.977500", "193530.437500", "193530.897500", "193531.357500", "193531.817500", "193532.277500", "193532.737500", "193533.197500", "193533.657500", "193534.117500", "193534.577500", "193535.037500", "193535.497500", "193535.957500", "193536.417500", "193536.877500", "193537.337500", "193537.797500", "193538.257500", "193538.717500", "193539.177500", "193539.637500", "193540.097500", "193540.557500", "193541.017500", "193541.477500", "193541.937500", "193542.397500", "193542.857500", "193543.317500", "193543.777500", "193544.237500", "193544.697500", "193545.157500", "193545.617500", "193546.077500", "193546.537500", "193546.997500", "193547.457500", "193547.917500", "193548.377500", "193548.837500", "193549.297500", "193549.757500", "193550.217500", "193550.677500", "193551.137500", "193551.597500", "193552.057500", "193552.517500", "193552.977500", "193553.437500", "193553.897500", "193554.357500", "193554.817500", "193555.277500", "193555.737500", "193556.197500", "193556.657500", "193557.117500", "193557.577500", "193558.037500", "193558.497500", "193558.957500", "193559.417500", "193559.877500", "193600.337500", "193600.797500", "193601.257500", "193601.717500", "193602.177500", "193602.637500", "193603.097500", "193603.557500", "193604.017500", "193604.477500", "193604.937500", "193605.397500", "193605.857500", "193606.317500", "193606.777500", "193607.237500", "193607.697500", "193608.157500", "193608.617500", "193609.077500", "193609.537500", "193609.997500", "193610.457500", "193610.917500", "193611.377500", "193611.837500", "193612.297500", "193612.757500", "193613.217500", "193613.677500", "193614.137500", "193614.597500", "193615.057500", "193615.517500", "193615.977500", "193616.437500", "193616.897500", "193617.357500", "193617.817500", "193618.277500", "193618.737500", "193619.197500", "193619.657500", "193620.117500", "193620.577500", "193621.037500", "193621.497500", "193621.957500", "193622.417500", "193622.877500", "193623.337500", "193623.797500", "193624.257500", "193624.717500", "193625.177500", "193625.637500", "193626.097500", "193626.557500", "193627.017500", "193627.477500", "193627.937500", "193628.397500", "193628.857500", "193629.317500", "193629.777500", "193630.237500", "193630.697500", "193631.157500", "193631.617500", "193632.077500", "193632.537500", "193632.997500", "193633.457500", "193633.917500", "193634.377500", "193634.837500", "193635.297500", "193635.757500", "193636.217500", "193636.677500", "193637.137500", "193637.597500", "193638.057500", "193638.517500", "193638.977500", "193639.437500", "193639.897500", "193640.357500", "193640.817500", "193641.277500", "193641.737500", "193642.197500", "193642.657500", "193643.117500", "193643.577500", "193644.037500", "193644.497500", "193644.957500", "193645.417500", "193645.877500", "193646.337500", "193646.797500", "193647.257500", "193647.717500", "193648.177500", "193648.637500", "193649.097500", "193649.557500", "193650.017500", "193650.477500", "193650.937500", "193651.397500", "193651.857500", "193652.317500", "193652.777500", "193653.237500", "193653.697500", "193654.157500", "193654.617500", "193655.077500", "193655.537500", "193655.997500", "193656.457500", "193656.917500", "193657.377500", "193657.837500", "193658.297500", "193658.757500", "193659.217500", "193659.677500", "193700.137500", "193700.597500", "193701.057500", "193701.517500", "193701.977500", "193702.437500", "193702.897500", "193703.357500", "193703.817500", "193704.277500", "193704.737500", "193705.197500", "193705.657500", "193706.117500", "193706.577500", "193707.037500", "193707.497500", "193707.957500", "193708.417500", "193708.877500", "193709.337500", "193709.797500", "193710.257500", "193710.717500", "193711.177500", "193711.637500", "193712.097500", "193712.557500", "193713.017500", "193713.477500", "193713.937500", "193714.397500", "193714.857500", "193715.317500", "193715.777500", "193716.237500", "193716.697500", "193717.157500", "193717.617500", "193718.077500", "193718.537500", "193718.997500", "193719.457500", "193719.917500", "193720.377500", "193720.837500", "193721.297500", "193721.757500", "193722.217500", "193722.677500", "193723.137500", "193723.597500", "193724.057500", "193724.517500", "193724.977500", "193725.437500", "193725.897500", "193726.357500", "193726.817500", "193727.277500", "193727.737500", "193728.197500", "193728.657500", "193729.117500", "193729.577500", "193730.037500", "193730.497500", "193730.957500", "193731.417500", "193731.877500", "193732.337500", "193732.797500", "193733.257500", "193733.717500", "193734.177500", "193734.637500", "193735.097500", "193735.557500", "193736.017500", "193736.477500", "193736.937500", "193737.397500", "193737.857500", "193738.317500", "193738.777500", "193739.237500", "193739.697500", "193740.157500", "193740.617500", "193741.077500", "193741.537500", "193741.997500", "193742.457500", "193742.917500", "193743.377500", "193743.837500", "193744.297500", "193744.757500", "193745.217500", "193745.677500", "193746.137500", "193746.597500", "193747.057500", "193747.517500", "193747.977500", "193748.437500", "193748.897500", "193749.357500", "193749.817500", "193750.277500", "193750.737500", "193751.197500", "193751.657500", "193752.117500", "193752.577500", "193753.037500", "193753.497500", "193753.957500", "193754.417500", "193754.877500", "193755.337500", "193755.797500", "193756.257500", "193756.717500", "193757.177500", "193757.637500", "193758.097500", "193758.557500", "193759.017500", "193759.477500", "193759.937500", "193800.397500", "193800.857500", "193801.317500", "193801.777500", "193802.237500", "193802.697500", "193803.157500", "193803.617500", "193804.077500", "193804.537500", "193804.997500", "193805.457500", "193805.917500", "193806.377500", "193806.837500", "193807.297500", "193807.757500", "193808.217500", "193808.677500", "193809.137500", "193809.597500", "193810.057500", "193810.517500", "193810.977500", "193811.437500", "193811.897500", "193812.357500", "193812.817500", "193813.277500", "193813.737500", "193814.197500", "193814.657500", "193815.117500", "193815.577500", "193816.037500", "193816.497500", "193816.957500", "193817.417500", "193817.877500", "193818.337500", "193818.797500", "193819.257500", "193819.717500", "193820.177500", "193820.637500", "193821.097500", "193821.557500", "193822.017500", "193822.477500", "193822.937500", "193823.397500", "193823.857500", "193824.317500", "193824.777500", "193825.237500", "193825.697500", "193826.157500", "193826.617500", "193827.077500", "193827.537500", "193827.997500", "193828.457500", "193828.917500", "193829.377500", "193829.837500", "193830.297500", "193830.757500", "193831.217500", "193831.677500", "193832.137500", "193832.597500", "193833.057500", "193833.517500", "193833.977500", "193834.437500", "193834.897500", "193835.357500", "193835.817500", "193836.277500", "193836.737500", "193837.197500", "193837.657500", "193838.117500", "193838.577500", "193839.037500", "193839.497500", "193839.957500", "193840.417500", "193840.877500", "193841.337500", "193841.797500", "193842.257500", "193842.717500", "193843.177500", "193843.637500", "193844.097500", "193844.557500", "193845.017500", "193845.477500", "193845.937500", "193846.397500", "193846.857500", "193847.317500", "193847.777500", "193848.237500", "193848.697500", "193849.157500", "193849.617500", "193850.077500", "193850.537500", "193850.997500", "193851.457500", "193851.917500", "193852.377500", "193852.837500", "193853.297500", "193853.757500", "193854.217500", "193854.677500", "193855.137500", "193855.597500", "193856.057500", "193856.517500", "193856.977500", "193857.437500", "193857.897500", "193858.357500", "193858.817500", "193859.277500", "193859.737500", "193900.197500", "193900.657500", "193901.117500", "193901.577500", "193902.037500", "193902.497500", "193902.957500", "193903.417500", "193903.877500", "193904.337500", "193904.797500", "193905.257500", "193905.717500", "193906.177500", "193906.637500", "193907.097500", "193907.557500", "193908.017500", "193908.477500", "193908.937500", "193909.397500", "193909.857500", "193910.317500", "193910.777500", "193911.237500", "193911.697500", "193912.157500", "193912.617500", "193913.077500", "193913.537500", "193913.997500", "193914.457500", "193914.917500", "193915.377500", "193915.837500", "193916.297500", "193916.757500", "193917.217500", "193917.677500", "193918.137500", "193918.597500", "193919.057500", "193919.517500", "193919.977500", "193920.437500", "193920.897500", "193921.357500", "193921.817500", "193922.277500", "193922.737500", "193923.197500", "193923.657500", "193924.117500", "193924.577500", "193925.037500", "193925.497500", "193925.957500", "193926.417500", "193926.877500", "193927.337500", "193927.797500", "193928.257500", "193928.717500", "193929.177500", "193929.637500", "193930.097500", "193930.557500", "193931.017500", "193931.477500", "193931.937500", "193932.397500", "193932.857500", "193933.317500", "193933.777500", "193934.237500", "193934.697500", "193935.157500", "193935.617500", "193936.077500", "193936.537500", "193936.997500", "193937.457500", "193937.917500", "193938.377500", "193938.837500", "193939.297500", "193939.757500", "193940.217500", "193940.677500", "193941.137500", "193941.597500", "193942.057500", "193942.517500", "193942.977500", "193943.437500", "193943.897500", "193944.357500", "193944.817500", "193945.277500", "193945.737500", "193946.197500", "193946.657500", "193947.117500", "193947.577500", "193948.037500", "193948.497500", "193948.957500", "193949.417500", "193949.877500", "193950.337500", "193950.797500", "193951.257500", "193951.717500", "193952.177500", "193952.637500", "193953.097500", "193953.557500", "193954.017500", "193954.477500", "193954.937500", "193955.397500", "193955.857500", "193956.317500", "193956.777500", "193957.237500", "193957.697500", "193958.157500", "193958.617500", "193959.077500", "193959.537500", "193959.997500", "194000.457500", "194000.917500", "194001.377500", "194001.837500", "194002.297500", "194002.757500", "194003.217500", "194003.677500", "194004.137500", "194004.597500", "194005.057500", "194005.517500", "194005.977500", "194006.437500", "194006.897500", "194007.357500", "194007.817500", "194008.277500", "194008.737500", "194009.197500", "194009.657500", "194010.117500", "194010.577500", "194011.037500", "194011.497500", "194011.957500", "194012.417500", "194012.877500", "194013.337500", "194013.797500", "194014.257500", "194014.717500", "194015.177500", "194015.637500", "194016.097500", "194016.557500", "194017.017500", "194017.477500", "194017.937500", "194018.397500", "194018.857500", "194019.317500", "194019.777500", "194020.237500", "194020.697500", "194021.157500", "194021.617500", "194022.077500", "194022.537500", "194022.997500", "194023.457500", "194023.917500", "194024.377500", "194024.837500", "194025.297500", "194025.757500", "194026.217500", "194026.677500", "194027.137500", "194027.597500", "194028.057500", "194028.517500", "194028.977500", "194029.437500", "194029.897500", "194030.357500", "194030.817500", "194031.277500", "194031.737500", "194032.197500", "194032.657500", "194033.117500", "194033.577500", "194034.037500", "194034.497500", "194034.957500", "194035.417500", "194035.877500", "194036.337500", "194036.797500", "194037.257500", "194037.717500", "194038.177500", "194038.637500", "194039.097500", "194039.557500", "194040.017500", "194040.477500", "194040.937500", "194041.397500", "194041.857500", "194042.317500", "194042.777500", "194043.237500", "194043.697500", "194044.157500", "194044.617500", "194045.077500", "194045.537500", "194045.997500", "194046.457500", "194046.917500", "194047.377500", "194047.837500", "194048.297500", "194048.757500", "194049.217500", "194049.677500", "194050.137500", "194050.597500", "194051.057500", "194051.517500", "194051.977500", "194052.437500", "194052.897500", "194053.357500", "194053.817500", "194054.277500", "194054.737500", "194055.197500", "194055.657500", "194056.117500", "194056.577500", "194057.037500", "194057.497500", "194057.957500", "194058.417500", "194058.877500", "194059.337500", "194059.797500", "194100.257500", "194100.717500", "194101.177500", "194101.637500", "194102.097500", "194102.557500", "194103.017500", "194103.477500", "194103.937500", "194104.397500", "194104.857500", "194105.317500", "194105.777500", "194106.237500", "194106.697500", "194107.157500", "194107.617500", "194108.077500", "194108.537500", "194108.997500"],
