{
  "AcquisitionMatrixPE": 82,
  "AcquisitionNumber": 1,
  "AcquisitionTime": "18:55:45.767500",
  "BandwidthPerPixelPhaseEncode": 24.888,
  "BaseResolution": 82,
  "BodyPartExamined": "BRAIN",
  "ConsistencyInfo": "N4_VE11E_LATEST_20181129",
  "ConversionSoftware": "dcm2niix",
  "ConversionSoftwareVersion": "v1.0.20201102",
  "DerivedVendorReportedEchoSpacing": 0.00049,
  "DeviceSerialNumber": "66112",
  "DwellTime": 2e-06,
  "EchoTime": 0.0272,
  "EchoTrainLength": 82,
  "EffectiveEchoSpacing": 0.00049,
  "FlipAngle": 44,
  "ImageComments": "Unaliased MB8/PE3",
  "ImageOrientationPatientDICOM": [0.999813, 0.0137756, -0.013538, -0.0125647, 0.996234, 0.085785],
  "ImageType": [
    "ORIGINAL",
    "PRIMARY",
    "M",
    "MB",
    "ND",
    "NORM",
    "MOSAIC"
],
  "ImagingFrequency": 123.259,
  "InPlanePhaseEncodingDirectionDICOM": "COL",
  "InstitutionAddress": "Maynard 3,Hanover,NH,US,03755",
  "InstitutionName": "Dartmouth College - PBS",
  "InstitutionalDepartmentName": "Department",
  "MRAcquisitionType": "2D",
  "MagneticFieldStrength": 3,
  "Manufacturer": "Siemens",
  "ManufacturersModelName": "Prisma",
  "Modality": "MR",
  "MultibandAccelerationFactor": 8,
  "PartialFourier": 1,
  "PatientPosition": "HFS",
  "PercentPhaseFOV": 100,
  "PercentSampling": 100,
  "PhaseEncodingDirection": "j-",
  "PhaseEncodingSteps": 82,
  "PhaseResolution": 1,
  "PixelBandwidth": 3050,
  "ProcedureStepDescription": "Wager_Wager^1076_spacetop",
  "ProtocolName": "func_run-01_task-narratives_acq-ap-mb8",
  "PulseSequenceDetails": "%CustomerSeq%\\cmrr_mbep2d_bold",
  "ReceiveCoilActiveElements": "HEA;HEP",
  "ReceiveCoilName": "Head_32",
  "ReconMatrixPE": 82,
  "RepetitionTime": 0.46,
  "SAR": 0.131626,
  "ScanOptions": "FS",
  "ScanningSequence": "EP",
  "SequenceName": "epfid2d1_82",
  "SequenceVariant": "SK\\SS",
  "SeriesDescription": "func_run-01_task-narratives_acq-ap-mb8",
  "SeriesNumber": 8,
  "ShimSetting": [4212, -7816, -7193, 32, -110, -149, -8, 103],
  "SliceThickness": 2.7,
  "SliceTiming": [0, 0.2525, 0.0625, 0.315, 0.125, 0.3775, 0.1875, 0, 0.2525, 0.0625, 0.315, 0.125, 0.3775, 0.1875, 0, 0.2525, 0.0625, 0.315, 0.125, 0.3775, 0.1875, 0, 0.2525, 0.0625, 0.315, 0.125, 0.3775, 0.1875, 0, 0.2525, 0.0625, 0.315, 0.125, 0.3775, 0.1875, 0, 0.2525, 0.0625, 0.315, 0.125, 0.3775, 0.1875, 0, 0.2525, 0.0625, 0.315, 0.125, 0.3775, 0.1875, 0, 0.2525, 0.0625, 0.315, 0.125, 0.3775, 0.1875],
  "SoftwareVersions": "syngo MR E11",
  "SpacingBetweenSlices": 2.7,
  "StationName": "AWP66112",
  "TaskName": "narratives",
  "TotalReadoutTime": 0.03969,
  "TxRefAmp": 318.233,
  "WipMemBlock": "fa6176b0-a4a0-4dfb-86c6-e3a7d78a19f3||Sequence: R016 ve11e/master r/434b28f1; Aug  7 2019 18:53:46 by eja",
  "dcmmeta_affine": [
    [-2.6824264526367188, -0.03371009603142738, -0.03960561752319336, 114.61611938476562],
    [-0.03695881366729736, 2.6728241443634033, 0.23111708462238312, -86.14006042480469],
    [-0.03632143512368202, -0.23015493154525757, 2.689798593521118, -52.72270202636719],
    [0.0, 0.0, 0.0, 1.0]
],
  "dcmmeta_reorient_transform": [
    [0.0, -1.0, 0.0, 81.0],
    [1.0, 0.0, 0.0, 0.0],
    [0.0, 0.0, 1.0, 0.0],
    [0.0, 0.0, 0.0, 1.0]
],
  "dcmmeta_shape": [82, 82, 56, 967],
  "dcmmeta_slice_dim": 2,
  "dcmmeta_version": 0.6,
  "global": {
    "const": {
      "AccessionNumber": "A004835",
      "AcquisitionMatrix": [82, 0, 0, 82],
      "AngioFlag": "N",
      "BitsAllocated": 16,
      "BitsStored": 16,
      "BodyPartExamined": "BRAIN",
      "Columns": 656,
      "EchoNumbers": 1,
      "EchoTime": 27.2,
      "EchoTrainLength": 82,
      "FlipAngle": 44.0,
      "HighBit": 15,
      "ImageOrientationPatient": [0.99981346103072, 0.01377555803244, -0.0135379888706, -0.0125646724869, 0.99623443989715, 0.08578502065113],
      "ImagePositionPatient": [-872.06718552784, -908.0664125238, -126.99546885886],
      "ImageType": [
        "ORIGINAL",
        "PRIMARY",
        "M",
        "MB",
        "ND",
        "NORM",
        "MOSAIC"
],
      "ImagedNucleus": "1H",
      "ImagingFrequency": 123.258998,
      "InPlanePhaseEncodingDirection": "COL",
      "MRAcquisitionType": "2D",
      "MagneticFieldStrength": 3.0,
      "Manufacturer": "SIEMENS",
      "ManufacturerModelName": "Prisma",
      "Modality": "MR",
      "NumberOfAverages": 1.0,
      "NumberOfPhaseEncodingSteps": 82,
      "PercentPhaseFieldOfView": 100.0,
      "PercentSampling": 100.0,
      "PerformedProcedureStepStartTime": "184058.782000",
      "PhotometricInterpretation": "MONOCHROME2",
      "PixelBandwidth": 3050.0,
      "PixelRepresentation": 0,
      "PixelSpacing": [2.6829268932343, 2.6829268932343],
      "ProtocolName": "func_run-01_task-narratives_acq-ap-mb8",
      "RepetitionTime": 460.0,
      "Rows": 656,
      "SAR": 0.13162636033866,
      "SamplesPerPixel": 1,
      "ScanOptions": "FS",
      "ScanningSequence": "EP",
      "SequenceName": "epfid2d1_82",
      "SequenceVariant": [
        "SK",
        "SS"
],
      "SeriesDescription": "func_run-01_task-narratives_acq-ap-mb8",
      "SeriesNumber": 8,
      "SeriesTime": "185559.797000",
      "SliceLocation": -61.578271222569,
      "SliceThickness": 2.7000000476837,
      "SmallestImagePixelValue": 0,
      "SoftwareVersions": "syngo MR E11",
      "SpacingBetweenSlices": 2.700000037818,
      "SpecificCharacterSet": "ISO_IR 100",
      "StudyID": "2",
      "StudyTime": "184058.725000",
      "TransmitCoilName": "Body",
      "VariableFlipAngleFlag": "N",
      "WindowCenterWidthExplanation": "Algo1"
    },
    "slices": {}
  },
  "time": {
    "samples": {
      "AcquisitionNumber": [1, 2, 3, 4, 5, 6, 7, 8, 9, 10, 11, 12, 13, 14, 15, 16, 17, 18, 19, 20, 21, 22, 23, 24, 25, 26, 27, 28, 29, 30, 31, 32, 33, 34, 35, 36, 37, 38, 39, 40, 41, 42, 43, 44, 45, 46, 47, 48, 49, 50, 51, 52, 53, 54, 55, 56, 57, 58, 59, 60, 61, 62, 63, 64, 65, 66, 67, 68, 69, 70, 71, 72, 73, 74, 75, 76, 77, 78, 79, 80, 81, 82, 83, 84, 85, 86, 87, 88, 89, 90, 91, 92, 93, 94, 95, 96, 97, 98, 99, 100, 101, 102, 103, 104, 105, 106, 107, 108, 109, 110, 111, 112, 113, 114, 115, 116, 117, 118, 119, 120, 121, 122, 123, 124, 125, 126, 127, 128, 129, 130, 131, 132, 133, 134, 135, 136, 137, 138, 139, 140, 141, 142, 143, 144, 145, 146, 147, 148, 149, 150, 151, 152, 153, 154, 155, 156, 157, 158, 159, 160, 161, 162, 163, 164, 165, 166, 167, 168, 169, 170, 171, 172, 173, 174, 175, 176, 177, 178, 179, 180, 181, 182, 183, 184, 185, 186, 187, 188, 189, 190, 191, 192, 193, 194, 195, 196, 197, 198, 199, 200, 201, 202, 203, 204, 205, 206, 207, 208, 209, 210, 211, 212, 213, 214, 215, 216, 217, 218, 219, 220, 221, 222, 223, 224, 225, 226, 227, 228, 229, 230, 231, 232, 233, 234, 235, 236, 237, 238, 239, 240, 241, 242, 243, 244, 245, 246, 247, 248, 249, 250, 251, 252, 253, 254, 255, 256, 257, 258, 259, 260, 261, 262, 263, 264, 265, 266, 267, 268, 269, 270, 271, 272, 273, 274, 275, 276, 277, 278, 279, 280, 281, 282, 283, 284, 285, 286, 287, 288, 289, 290, 291, 292, 293, 294, 295, 296, 297, 298, 299, 300, 301, 302, 303, 304, 305, 306, 307, 308, 309, 310, 311, 312, 313, 314, 315, 316, 317, 318, 319, 320, 321, 322, 323, 324, 325, 326, 327, 328, 329, 330, 331, 332, 333, 334, 335, 336, 337, 338, 339, 340, 341, 342, 343, 344, 345, 346, 347, 348, 349, 350, 351, 352, 353, 354, 355, 356, 357, 358, 359, 360, 361, 362, 363, 364, 365, 366, 367, 368, 369, 370, 371, 372, 373, 374, 375, 376, 377, 378, 379, 380, 381, 382, 383, 384, 385, 386, 387, 388, 389, 390, 391, 392, 393, 394, 395, 396, 397, 398, 399, 400, 401, 402, 403, 404, 405, 406, 407, 408, 409, 410, 411, 412, 413, 414, 415, 416, 417, 418, 419, 420, 421, 422, 423, 424, 425, 426, 427, 428, 429, 430, 431, 432, 433, 434, 435, 436, 437, 438, 439, 440, 441, 442, 443, 444, 445, 446, 447, 448, 449, 450, 451, 452, 453, 454, 455, 456, 457, 458, 459, 460, 461, 462, 463, 464, 465, 466, 467, 468, 469, 470, 471, 472, 473, 474, 475, 476, 477, 478, 479, 480, 481, 482, 483, 484, 485, 486, 487, 488, 489, 490, 491, 492, 493, 494, 495, 496, 497, 498, 499, 500, 501, 502, 503, 504, 505, 506, 507, 508, 509, 510, 511, 512, 513, 514, 515, 516, 517, 518, 519, 520, 521, 522, 523, 524, 525, 526, 527, 528, 529, 530, 531, 532, 533, 534, 535, 536, 537, 538, 539, 540, 541, 542, 543, 544, 545, 546, 547, 548, 549, 550, 551, 552, 553, 554, 555, 556, 557, 558, 559, 560, 561, 562, 563, 564, 565, 566, 567, 568, 569, 570, 571, 572, 573, 574, 575, 576, 577, 578, 579, 580, 581, 582, 583, 584, 585, 586, 587, 588, 589, 590, 591, 592, 593, 594, 595, 596, 597, 598, 599, 600, 601, 602, 603, 604, 605, 606, 607, 608, 609, 610, 611, 612, 613, 614, 615, 616, 617, 618, 619, 620, 621, 622, 623, 624, 625, 626, 627, 628, 629, 630, 631, 632, 633, 634, 635, 636, 637, 638, 639, 640, 641, 642, 643, 644, 645, 646, 647, 648, 649, 650, 651, 652, 653, 654, 655, 656, 657, 658, 659, 660, 661, 662, 663, 664, 665, 666, 667, 668, 669, 670, 671, 672, 673, 674, 675, 676, 677, 678, 679, 680, 681, 682, 683, 684, 685, 686, 687, 688, 689, 690, 691, 692, 693, 694, 695, 696, 697, 698, 699, 700, 701, 702, 703, 704, 705, 706, 707, 708, 709, 710, 711, 712, 713, 714, 715, 716, 717, 718, 719, 720, 721, 722, 723, 724, 725, 726, 727, 728, 729, 730, 731, 732, 733, 734, 735, 736, 737, 738, 739, 740, 741, 742, 743, 744, 745, 746, 747, 748, 749, 750, 751, 752, 753, 754, 755, 756, 757, 758, 759, 760, 761, 762, 763, 764, 765, 766, 767, 768, 769, 770, 771, 772, 773, 774, 775, 776, 777, 778, 779, 780, 781, 782, 783, 784, 785, 786, 787, 788, 789, 790, 791, 792, 793, 794, 795, 796, 797, 798, 799, 800, 801, 802, 803, 804, 805, 806, 807, 808, 809, 810, 811, 812, 813, 814, 815, 816, 817, 818, 819, 820, 821, 822, 823, 824, 825, 826, 827, 828, 829, 830, 831, 832, 833, 834, 835, 836, 837, 838, 839, 840, 841, 842, 843, 844, 845, 846, 847, 848, 849, 850, 851, 852, 853, 854, 855, 856, 857, 858, 859, 860, 861, 862, 863, 864, 865, 866, 867, 868, 869, 870, 871, 872, 873, 874, 875, 876, 877, 878, 879, 880, 881, 882, 883, 884, 885, 886, 887, 888, 889, 890, 891, 892, 893, 894, 895, 896, 897, 898, 899, 900, 901, 902, 903, 904, 905, 906, 907, 908, 909, 910, 911, 912, 913, 914, 915, 916, 917, 918, 919, 920, 921, 922, 923, 924, 925, 926, 927, 928, 929, 930, 931, 932, 933, 934, 935, 936, 937, 938, 939, 940, 941, 942, 943, 944, 945, 946, 947, 948, 949, 950, 951, 952, 953, 954, 955, 956, 957, 958, 959, 960, 961, 962, 963, 964, 965, 966, 967],
      "AcquisitionTime": ["185545.767500", "185546.227500", "185546.687500", "185547.147500", "185547.607500", "185548.067500", "185548.527500", "185548.987500", "185549.447500", "185549.907500", "185550.367500", "185550.827500", "185551.287500", "185551.747500", "185552.207500", "185552.667500", "185553.127500", "185553.587500", "185554.047500", "185554.507500", "185554.967500", "185555.427500", "185555.887500", "185556.347500", "185556.807500", "185557.267500", "185557.727500", "185558.187500", "185558.647500", "185559.107500", "185559.567500", "185600.027500", "185600.487500", "185600.947500", "185601.407500", "185601.867500", "185602.327500", "185602.787500", "185603.247500", "185603.707500", "185604.167500", "185604.627500", "185605.087500", "185605.547500", "185606.007500", "185606.467500", "185606.927500", "185607.387500", "185607.847500", "185608.307500", "185608.767500", "185609.227500", "185609.687500", "185610.147500", "185610.607500", "185611.067500", "185611.527500", "185611.987500", "185612.447500", "185612.907500", "185613.367500", "185613.827500", "185614.287500", "185614.747500", "185615.207500", "185615.667500", "185616.127500", "185616.587500", "185617.047500", "185617.507500", "185617.967500", "185618.427500", "185618.887500", "185619.347500", "185619.807500", "185620.267500", "185620.727500", "185621.187500", "185621.647500", "185622.107500", "185622.567500", "185623.027500", "185623.487500", "185623.947500", "185624.407500", "185624.867500", "185625.327500", "185625.787500", "185626.247500", "185626.707500", "185627.167500", "185627.627500", "185628.087500", "185628.547500", "185629.007500", "185629.467500", "185629.927500", "185630.387500", "185630.847500", "185631.307500", "185631.767500", "185632.227500", "185632.687500", "185633.147500", "185633.607500", "185634.067500", "185634.527500", "185634.987500", "185635.447500", "185635.907500", "185636.367500", "185636.827500", "185637.287500", "185637.747500", "185638.207500", "185638.667500", "185639.127500", "185639.587500", "185640.047500", "185640.507500", "185640.967500", "185641.427500", "185641.887500", "185642.347500", "185642.807500", "185643.267500", "185643.727500", "185644.187500", "185644.647500", "185645.107500", "185645.567500", "185646.027500", "185646.487500", "185646.947500", "185647.407500", "185647.867500", "185648.327500", "185648.787500", "185649.247500", "185649.707500", "185650.167500", "185650.627500", "185651.087500", "185651.547500", "185652.007500", "185652.467500", "185652.927500", "185653.387500", "185653.847500", "185654.307500", "185654.767500", "185655.227500", "185655.687500", "185656.147500", "185656.607500", "185657.067500", "185657.527500", "185657.987500", "185658.447500", "185658.907500", "185659.367500", "185659.827500", "185700.287500", "185700.747500", "185701.207500", "185701.667500", "185702.127500", "185702.587500", "185703.047500", "185703.507500", "185703.967500", "185704.427500", "185704.887500", "185705.347500", "185705.807500", "185706.267500", "185706.727500", "185707.187500", "185707.647500", "185708.107500", "185708.567500", "185709.027500", "185709.487500", "185709.947500", "185710.407500", "185710.867500", "185711.327500", "185711.787500", "185712.247500", "185712.707500", "185713.167500", "185713.627500", "185714.087500", "185714.547500", "185715.007500", "185715.467500", "185715.927500", "185716.387500", "185716.847500", "185717.307500", "185717.767500", "185718.227500", "185718.687500", "185719.147500", "185719.607500", "185720.067500", "185720.527500", "185720.987500", "185721.447500", "185721.907500", "185722.367500", "185722.827500", "185723.287500", "185723.747500", "185724.207500", "185724.667500", "185725.127500", "185725.587500", "185726.047500", "185726.507500", "185726.967500", "185727.427500", "185727.887500", "185728.347500", "185728.807500", "185729.267500", "185729.727500", "185730.187500", "185730.647500", "185731.107500", "185731.567500", "185732.027500", "185732.487500", "185732.947500", "185733.407500", "185733.867500", "185734.327500", "185734.787500", "185735.247500", "185735.707500", "185736.167500", "185736.627500", "185737.087500", "185737.547500", "185738.007500", "185738.467500", "185738.927500", "185739.387500", "185739.847500", "185740.307500", "185740.767500", "185741.227500", "185741.687500", "185742.147500", "185742.607500", "185743.067500", "185743.527500", "185743.987500", "185744.447500", "185744.907500", "185745.367500", "185745.827500", "185746.287500", "185746.747500", "185747.207500", "185747.667500", "185748.127500", "185748.587500", "185749.047500", "185749.507500", "185749.967500", "185750.427500", "185750.887500", "185751.347500", "185751.807500", "185752.267500", "185752.727500", "185753.187500", "185753.647500", "185754.107500", "185754.567500", "185755.027500", "185755.487500", "185755.947500", "185756.407500", "185756.867500", "185757.327500", "185757.787500", "185758.247500", "185758.707500", "185759.167500", "185759.627500", "185800.087500", "185800.547500", "185801.007500", "185801.467500", "185801.927500", "185802.387500", "185802.847500", "185803.307500", "185803.767500", "185804.227500", "185804.687500", "185805.147500", "185805.607500", "185806.067500", "185806.527500", "185806.987500", "185807.447500", "185807.907500", "185808.367500", "185808.827500", "185809.287500", "185809.747500", "185810.207500", "185810.667500", "185811.127500", "185811.587500", "185812.047500", "185812.507500", "185812.967500", "185813.427500", "185813.887500", "185814.347500", "185814.807500", "185815.267500", "185815.727500", "185816.187500", "185816.647500", "185817.107500", "185817.567500", "185818.027500", "185818.487500", "185818.947500", "185819.407500", "185819.867500", "185820.327500", "185820.787500", "185821.247500", "185821.707500", "185822.167500", "185822.627500", "185823.087500", "185823.547500", "185824.007500", "185824.467500", "185824.927500", "185825.387500", "185825.847500", "185826.307500", "185826.767500", "185827.227500", "185827.687500", "185828.147500", "185828.607500", "185829.067500", "185829.527500", "185829.987500", "185830.447500", "185830.907500", "185831.367500", "185831.827500", "185832.287500", "185832.747500", "185833.207500", "185833.667500", "185834.127500", "185834.587500", "185835.047500", "185835.507500", "185835.967500", "185836.427500", "185836.887500", "185837.347500", "185837.807500", "185838.267500", "185838.727500", "185839.187500", "185839.647500", "185840.107500", "185840.567500", "185841.027500", "185841.487500", "185841.947500", "185842.407500", "185842.867500", "185843.327500", "185843.787500", "185844.247500", "185844.707500", "185845.167500", "185845.627500", "185846.087500", "185846.547500", "185847.007500", "185847.467500", "185847.927500", "185848.387500", "185848.847500", "185849.307500", "185849.767500", "185850.227500", "185850.687500", "185851.147500", "185851.607500", "185852.067500", "185852.527500", "185852.987500", "185853.447500", "185853.907500", "185854.367500", "185854.827500", "185855.287500", "185855.747500", "185856.207500", "185856.667500", "185857.127500", "185857.587500", "185858.047500", "185858.507500", "185858.967500", "185859.427500", "185859.887500", "185900.347500", "185900.807500", "185901.267500", "185901.727500", "185902.187500", "185902.647500", "185903.107500", "185903.567500", "185904.027500", "185904.487500", "185904.947500", "185905.407500", "185905.867500", "185906.327500", "185906.787500", "185907.247500", "185907.707500", "185908.167500", "185908.627500", "185909.087500", "185909.547500", "185910.007500", "185910.467500", "185910.927500", "185911.387500", "185911.847500", "185912.307500", "185912.767500", "185913.227500", "185913.687500", "185914.147500", "185914.607500", "185915.067500", "185915.527500", "185915.987500", "185916.447500", "185916.907500", "185917.367500", "185917.827500", "185918.287500", "185918.747500", "185919.207500", "185919.667500", "185920.127500", "185920.587500", "185921.047500", "185921.507500", "185921.967500", "185922.427500", "185922.887500", "185923.347500", "185923.807500", "185924.267500", "185924.727500", "185925.187500", "185925.647500", "185926.107500", "185926.567500", "185927.027500", "185927.487500", "185927.947500", "185928.407500", "185928.867500", "185929.327500", "185929.787500", "185930.247500", "185930.707500", "185931.167500", "185931.627500", "185932.087500", "185932.547500", "185933.007500", "185933.467500", "185933.927500", "185934.387500", "185934.847500", "185935.307500", "185935.767500", "185936.227500", "185936.687500", "185937.147500", "185937.607500", "185938.067500", "185938.527500", "185938.987500", "185939.447500", "185939.907500", "185940.367500", "185940.827500", "185941.287500", "185941.747500", "185942.207500", "185942.667500", "185943.127500", "185943.587500", "185944.047500", "185944.507500", "185944.967500", "185945.427500", "185945.887500", "185946.347500", "185946.807500", "185947.267500", "185947.727500", "185948.187500", "185948.647500", "185949.107500", "185949.567500", "185950.027500", "185950.487500", "185950.947500", "185951.407500", "185951.867500", "185952.327500", "185952.787500", "185953.247500", "185953.707500", "185954.167500", "185954.627500", "185955.087500", "185955.547500", "185956.007500", "185956.467500", "185956.927500", "185957.387500", "185957.847500", "185958.307500", "185958.767500", "185959.227500", "185959.687500", "190000.147500", "190000.607500", "190001.067500", "190001.527500", "190001.987500", "190002.447500", "190002.907500", "190003.367500", "190003.827500", "190004.287500", "190004.747500", "190005.207500", "190005.667500", "190006.127500", "190006.587500", "190007.047500", "190007.507500", "190007.967500", "190008.427500", "190008.887500", "190009.347500", "190009.807500", "190010.267500", "190010.727500", "190011.187500", "190011.647500", "190012.107500", "190012.567500", "190013.027500", "190013.487500", "190013.947500", "190014.407500", "190014.867500", "190015.327500", "190015.787500", "190016.247500", "190016.707500", "190017.167500", "190017.627500", "190018.087500", "190018.547500", "190019.007500", "190019.467500", "190019.927500", "190020.387500", "190020.847500", "190021.307500", "190021.767500", "190022.227500", "190022.687500", "190023.147500", "190023.607500", "190024.067500", "190024.527500", "190024.987500", "190025.447500", "190025.907500", "190026.367500", "190026.827500", "190027.287500", "190027.747500", "190028.207500", "190028.667500", "190029.127500", "190029.587500", "190030.047500", "190030.507500", "190030.967500", "190031.427500", "190031.887500", "190032.347500", "190032.807500", "190033.267500", "190033.727500", "190034.187500", "190034.647500", "190035.107500", "190035.567500", "190036.027500", "190036.487500", "190036.947500", "190037.407500", "190037.867500", "190038.327500", "190038.787500", "190039.247500", "190039.707500", "190040.167500", "190040.627500", "190041.087500", "190041.547500", "190042.007500", "190042.467500", "190042.927500", "190043.387500", "190043.847500", "190044.307500", "190044.767500", "190045.227500", "190045.687500", "190046.147500", "190046.607500", "190047.067500", "190047.527500", "190047.987500", "190048.447500", "190048.907500", "190049.367500", "190049.827500", "190050.287500", "190050.747500", "190051.207500", "190051.667500", "190052.127500", "190052.587500", "190053.047500", "190053.507500", "190053.967500", "190054.427500", "190054.887500", "190055.347500", "190055.807500", "190056.267500", "190056.727500", "190057.187500", "190057.647500", "190058.107500", "190058.567500", "190059.027500", "190059.487500", "190059.947500", "190100.407500", "190100.867500", "190101.327500", "190101.787500", "190102.247500", "190102.707500", "190103.167500", "190103.627500", "190104.087500", "190104.547500", "190105.007500", "190105.467500", "190105.927500", "190106.387500", "190106.847500", "190107.307500", "190107.767500", "190108.227500", "190108.687500", "190109.147500", "190109.607500", "190110.067500", "190110.527500", "190110.987500", "190111.447500", "190111.907500", "190112.367500", "190112.827500", "190113.287500", "190113.747500", "190114.207500", "190114.667500", "190115.127500", "190115.587500", "190116.047500", "190116.507500", "190116.967500", "190117.427500", "190117.887500", "190118.347500", "190118.807500", "190119.267500", "190119.727500", "190120.187500", "190120.647500", "190121.107500", "190121.567500", "190122.027500", "190122.487500", "190122.947500", "190123.407500", "190123.867500", "190124.327500", "190124.787500", "190125.247500", "190125.707500", "190126.167500", "190126.627500", "190127.087500", "190127.547500", "190128.007500", "190128.467500", "190128.927500", "190129.387500", "190129.847500", "190130.307500", "190130.767500", "190131.227500", "190131.687500", "190132.147500", "190132.607500", "190133.067500", "190133.527500", "190133.987500", "190134.447500", "190134.907500", "190135.367500", "190135.827500", "190136.287500", "190136.747500", "190137.207500", "190137.667500", "190138.127500", "190138.587500", "190139.047500", "190139.507500", "190139.967500", "190140.427500", "190140.887500", "190141.347500", "190141.807500", "190142.267500", "190142.727500", "190143.187500", "190143.647500", "190144.107500", "190144.567500", "190145.027500", "190145.487500", "190145.947500", "190146.407500", "190146.867500", "190147.327500", "190147.787500", "190148.247500", "190148.707500", "190149.167500", "190149.627500", "190150.087500", "190150.547500", "190151.007500", "190151.467500", "190151.927500", "190152.387500", "190152.847500", "190153.307500", "190153.767500", "190154.227500", "190154.687500", "190155.147500", "190155.607500", "190156.067500", "190156.527500", "190156.987500", "190157.447500", "190157.907500", "190158.367500", "190158.827500", "190159.287500", "190159.747500", "190200.207500", "190200.667500", "190201.127500", "190201.587500", "190202.047500", "190202.507500", "190202.967500", "190203.427500", "190203.887500", "190204.347500", "190204.807500", "190205.267500", "190205.727500", "190206.187500", "190206.647500", "190207.107500", "190207.567500", "190208.027500", "190208.487500", "190208.947500", "190209.407500", "190209.867500", "190210.327500", "190210.787500", "190211.247500", "190211.707500", "190212.167500", "190212.627500", "190213.087500", "190213.547500", "190214.007500", "190214.467500", "190214.927500", "190215.387500", "190215.847500", "190216.307500", "190216.767500", "190217.227500", "190217.687500", "190218.147500", "190218.607500", "190219.067500", "190219.527500", "190219.987500", "190220.447500", "190220.907500", "190221.367500", "190221.827500", "190222.287500", "190222.747500", "190223.207500", "190223.667500", "190224.127500", "190224.587500", "190225.047500", "190225.507500", "190225.967500", "190226.427500", "190226.887500", "190227.347500", "190227.807500", "190228.267500", "190228.727500", "190229.187500", "190229.647500", "190230.107500", "190230.567500", "190231.027500", "190231.487500", "190231.947500", "190232.407500", "190232.867500", "190233.327500", "190233.787500", "190234.247500", "190234.707500", "190235.167500", "190235.627500", "190236.087500", "190236.547500", "190237.007500", "190237.467500", "190237.927500", "190238.387500", "190238.847500", "190239.307500", "190239.767500", "190240.227500", "190240.687500", "190241.147500", "190241.607500", "190242.067500", "190242.527500", "190242.987500", "190243.447500", "190243.907500", "190244.367500", "190244.827500", "190245.287500", "190245.747500", "190246.207500", "190246.667500", "190247.127500", "190247.587500", "190248.047500", "190248.507500", "190248.967500", "190249.427500", "190249.887500", "190250.347500", "190250.807500", "190251.267500", "190251.727500", "190252.187500", "190252.647500", "190253.107500", "190253.567500", "190254.027500", "190254.487500", "190254.947500", "190255.407500", "190255.867500", "190256.327500", "190256.787500", "190257.247500", "190257.707500", "190258.167500", "190258.627500", "190259.087500", "190259.547500", "190300.007500", "190300.467500", "190300.927500", "190301.387500", "190301.847500", "190302.307500", "190302.767500", "190303.227500", "190303.687500", "190304.147500", "190304.607500", "190305.067500", "190305.527500", "190305.987500", "190306.447500", "190306.907500", "190307.367500", "190307.827500", "190308.287500", "190308.747500", "190309.207500", "190309.667500", "190310.127500"],
