{
  "AcquisitionMatrixPE": 82,
  "AcquisitionNumber": 1,
  "AcquisitionTime": "19:03:38.252500",
  "BandwidthPerPixelPhaseEncode": 24.888,
  "BaseResolution": 82,
  "BodyPartExamined": "BRAIN",
  "ConsistencyInfo": "N4_VE11E_LATEST_20181129",
  "ConversionSoftware": "dcm2niix",
  "ConversionSoftwareVersion": "v1.0.20201102",
  "DerivedVendorReportedEchoSpacing": 0.00049,
  "DeviceSerialNumber": "66112",
  "DwellTime": 2e-06,
  "EchoTime": 0.0272,
  "EchoTrainLength": 82,
  "EffectiveEchoSpacing": 0.00049,
  "FlipAngle": 44,
  "ImageComments": "Unaliased MB8/PE3",
  "ImageOrientationPatientDICOM": [0.999813, 0.0137756, -0.013538, -0.0125647, 0.996234, 0.085785],
  "ImageType": [
    "ORIGINAL",
    "PRIMARY",
    "M",
    "MB",
    "ND",
    "NORM",
    "MOSAIC"
],
  "ImagingFrequency": 123.259,
  "InPlanePhaseEncodingDirectionDICOM": "COL",
  "InstitutionAddress": "Maynard 3,Hanover,NH,US,03755",
  "InstitutionName": "Dartmouth College - PBS",
  "InstitutionalDepartmentName": "Department",
  "MRAcquisitionType": "2D",
  "MagneticFieldStrength": 3,
  "Manufacturer": "Siemens",
  "ManufacturersModelName": "Prisma",
  "Modality": "MR",
  "MultibandAccelerationFactor": 8,
  "PartialFourier": 1,
  "PatientPosition": "HFS",
  "PercentPhaseFOV": 100,
  "PercentSampling": 100,
  "PhaseEncodingDirection": "j-",
  "PhaseEncodingSteps": 82,
  "PhaseResolution": 1,
  "PixelBandwidth": 3050,
  "ProcedureStepDescription": "Wager_Wager^1076_spacetop",
  "ProtocolName": "func_run-02_task-narratives_acq-ap-mb8",
  "PulseSequenceDetails": "%CustomerSeq%\\cmrr_mbep2d_bold",
  "ReceiveCoilActiveElements": "HEA;HEP",
  "ReceiveCoilName": "Head_32",
  "ReconMatrixPE": 82,
  "RepetitionTime": 0.46,
  "SAR": 0.131715,
  "ScanOptions": "FS",
  "ScanningSequence": "EP",
  "SequenceName": "epfid2d1_82",
  "SequenceVariant": "SK\\SS",
  "SeriesDescription": "func_run-02_task-narratives_acq-ap-mb8",
  "SeriesNumber": 10,
  "ShimSetting": [4212, -7816, -7193, 32, -110, -149, -8, 103],
  "SliceThickness": 2.7,
  "SliceTiming": [0, 0.2525, 0.0625, 0.315, 0.125, 0.3775, 0.1875, 0, 0.2525, 0.0625, 0.315, 0.125, 0.3775, 0.1875, 0, 0.2525, 0.0625, 0.315, 0.125, 0.3775, 0.1875, 0, 0.2525, 0.0625, 0.315, 0.125, 0.3775, 0.1875, 0, 0.2525, 0.0625, 0.315, 0.125, 0.3775, 0.1875, 0, 0.2525, 0.0625, 0.315, 0.125, 0.3775, 0.1875, 0, 0.2525, 0.0625, 0.315, 0.125, 0.3775, 0.1875, 0, 0.2525, 0.0625, 0.315, 0.125, 0.3775, 0.1875],
  "SoftwareVersions": "syngo MR E11",
  "SpacingBetweenSlices": 2.7,
  "StationName": "AWP66112",
  "TaskName": "narratives",
  "TotalReadoutTime": 0.03969,
  "TxRefAmp": 318.233,
  "WipMemBlock": "ba9f71df-b387-49f9-812a-bf5900ccefda||Sequence: R016 ve11e/master r/434b28f1; Aug  7 2019 18:53:46 by eja",
  "dcmmeta_affine": [
    [-2.6824264526367188, -0.03371009603142738, -0.03960561752319336, 114.61611938476562],
    [-0.03695881366729736, 2.6728241443634033, 0.23111708462238312, -86.14006042480469],
    [-0.03632143512368202, -0.23015493154525757, 2.689798593521118, -52.72270202636719],
    [0.0, 0.0, 0.0, 1.0]
],
  "dcmmeta_reorient_transform": [
    [0.0, -1.0, 0.0, 81.0],
    [1.0, 0.0, 0.0, 0.0],
    [0.0, 0.0, 1.0, 0.0],
    [0.0, 0.0, 0.0, 1.0]
],
  "dcmmeta_shape": [82, 82, 56, 1098],
  "dcmmeta_slice_dim": 2,
  "dcmmeta_version": 0.6,
  "global": {
    "const": {
      "AccessionNumber": "A004835",
      "AcquisitionMatrix": [82, 0, 0, 82],
      "AngioFlag": "N",
      "BitsAllocated": 16,
      "BitsStored": 16,
      "BodyPartExamined": "BRAIN",
      "Columns": 656,
      "EchoNumbers": 1,
      "EchoTime": 27.2,
      "EchoTrainLength": 82,
      "FlipAngle": 44.0,
      "HighBit": 15,
      "ImageOrientationPatient": [0.99981346103072, 0.01377555803244, -0.0135379888706, -0.0125646724869, 0.99623443989715, 0.08578502065113],
      "ImagePositionPatient": [-872.06718552784, -908.0664125238, -126.99546885886],
      "ImageType": [
        "ORIGINAL",
        "PRIMARY",
        "M",
        "MB",
        "ND",
        "NORM",
        "MOSAIC"
],
      "ImagedNucleus": "1H",
      "ImagingFrequency": 123.259003,
      "InPlanePhaseEncodingDirection": "COL",
      "MRAcquisitionType": "2D",
      "MagneticFieldStrength": 3.0,
      "Manufacturer": "SIEMENS",
      "ManufacturerModelName": "Prisma",
      "Modality": "MR",
      "NumberOfAverages": 1.0,
      "NumberOfPhaseEncodingSteps": 82,
      "PercentPhaseFieldOfView": 100.0,
      "PercentSampling": 100.0,
      "PerformedProcedureStepStartTime": "184058.782000",
      "PhotometricInterpretation": "MONOCHROME2",
      "PixelBandwidth": 3050.0,
      "PixelRepresentation": 0,
      "PixelSpacing": [2.6829268932343, 2.6829268932343],
      "ProtocolName": "func_run-02_task-narratives_acq-ap-mb8",
      "RepetitionTime": 460.0,
      "Rows": 656,
      "SAR": 0.13171463562073,
      "SamplesPerPixel": 1,
      "ScanOptions": "FS",
      "ScanningSequence": "EP",
      "SequenceName": "epfid2d1_82",
      "SequenceVariant": [
        "SK",
        "SS"
],
      "SeriesDescription": "func_run-02_task-narratives_acq-ap-mb8",
      "SeriesNumber": 10,
      "SeriesTime": "190359.841000",
      "SliceLocation": -61.578271222569,
      "SliceThickness": 2.7000000476837,
      "SmallestImagePixelValue": 0,
      "SoftwareVersions": "syngo MR E11",
      "SpacingBetweenSlices": 2.700000037818,
      "SpecificCharacterSet": "ISO_IR 100",
      "StudyID": "2",
      "StudyTime": "184058.725000",
      "TransmitCoilName": "Body",
      "VariableFlipAngleFlag": "N",
      "WindowCenterWidthExplanation": "Algo1"
    },
    "slices": {}
  },
  "time": {
    "samples": {
      "AcquisitionNumber": [1, 2, 3, 4, 5, 6, 7, 8, 9, 10, 11, 12, 13, 14, 15, 16, 17, 18, 19, 20, 21, 22, 23, 24, 25, 26, 27, 28, 29, 30, 31, 32, 33, 34, 35, 36, 37, 38, 39, 40, 41, 42, 43, 44, 45, 46, 47, 48, 49, 50, 51, 52, 53, 54, 55, 56, 57, 58, 59, 60, 61, 62, 63, 64, 65, 66, 67, 68, 69, 70, 71, 72, 73, 74, 75, 76, 77, 78, 79, 80, 81, 82, 83, 84, 85, 86, 87, 88, 89, 90, 91, 92, 93, 94, 95, 96, 97, 98, 99, 100, 101, 102, 103, 104, 105, 106, 107, 108, 109, 110, 111, 112, 113, 114, 115, 116, 117, 118, 119, 120, 121, 122, 123, 124, 125, 126, 127, 128, 129, 130, 131, 132, 133, 134, 135, 136, 137, 138, 139, 140, 141, 142, 143, 144, 145, 146, 147, 148, 149, 150, 151, 152, 153, 154, 155, 156, 157, 158, 159, 160, 161, 162, 163, 164, 165, 166, 167, 168, 169, 170, 171, 172, 173, 174, 175, 176, 177, 178, 179, 180, 181, 182, 183, 184, 185, 186, 187, 188, 189, 190, 191, 192, 193, 194, 195, 196, 197, 198, 199, 200, 201, 202, 203, 204, 205, 206, 207, 208, 209, 210, 211, 212, 213, 214, 215, 216, 217, 218, 219, 220, 221, 222, 223, 224, 225, 226, 227, 228, 229, 230, 231, 232, 233, 234, 235, 236, 237, 238, 239, 240, 241, 242, 243, 244, 245, 246, 247, 248, 249, 250, 251, 252, 253, 254, 255, 256, 257, 258, 259, 260, 261, 262, 263, 264, 265, 266, 267, 268, 269, 270, 271, 272, 273, 274, 275, 276, 277, 278, 279, 280, 281, 282, 283, 284, 285, 286, 287, 288, 289, 290, 291, 292, 293, 294, 295, 296, 297, 298, 299, 300, 301, 302, 303, 304, 305, 306, 307, 308, 309, 310, 311, 312, 313, 314, 315, 316, 317, 318, 319, 320, 321, 322, 323, 324, 325, 326, 327, 328, 329, 330, 331, 332, 333, 334, 335, 336, 337, 338, 339, 340, 341, 342, 343, 344, 345, 346, 347, 348, 349, 350, 351, 352, 353, 354, 355, 356, 357, 358, 359, 360, 361, 362, 363, 364, 365, 366, 367, 368, 369, 370, 371, 372, 373, 374, 375, 376, 377, 378, 379, 380, 381, 382, 383, 384, 385, 386, 387, 388, 389, 390, 391, 392, 393, 394, 395, 396, 397, 398, 399, 400, 401, 402, 403, 404, 405, 406, 407, 408, 409, 410, 411, 412, 413, 414, 415, 416, 417, 418, 419, 420, 421, 422, 423, 424, 425, 426, 427, 428, 429, 430, 431, 432, 433, 434, 435, 436, 437, 438, 439, 440, 441, 442, 443, 444, 445, 446, 447, 448, 449, 450, 451, 452, 453, 454, 455, 456, 457, 458, 459, 460, 461, 462, 463, 464, 465, 466, 467, 468, 469, 470, 471, 472, 473, 474, 475, 476, 477, 478, 479, 480, 481, 482, 483, 484, 485, 486, 487, 488, 489, 490, 491, 492, 493, 494, 495, 496, 497, 498, 499, 500, 501, 502, 503, 504, 505, 506, 507, 508, 509, 510, 511, 512, 513, 514, 515, 516, 517, 518, 519, 520, 521, 522, 523, 524, 525, 526, 527, 528, 529, 530, 531, 532, 533, 534, 535, 536, 537, 538, 539, 540, 541, 542, 543, 544, 545, 546, 547, 548, 549, 550, 551, 552, 553, 554, 555, 556, 557, 558, 559, 560, 561, 562, 563, 564, 565, 566, 567, 568, 569, 570, 571, 572, 573, 574, 575, 576, 577, 578, 579, 580, 581, 582, 583, 584, 585, 586, 587, 588, 589, 590, 591, 592, 593, 594, 595, 596, 597, 598, 599, 600, 601, 602, 603, 604, 605, 606, 607, 608, 609, 610, 611, 612, 613, 614, 615, 616, 617, 618, 619, 620, 621, 622, 623, 624, 625, 626, 627, 628, 629, 630, 631, 632, 633, 634, 635, 636, 637, 638, 639, 640, 641, 642, 643, 644, 645, 646, 647, 648, 649, 650, 651, 652, 653, 654, 655, 656, 657, 658, 659, 660, 661, 662, 663, 664, 665, 666, 667, 668, 669, 670, 671, 672, 673, 674, 675, 676, 677, 678, 679, 680, 681, 682, 683, 684, 685, 686, 687, 688, 689, 690, 691, 692, 693, 694, 695, 696, 697, 698, 699, 700, 701, 702, 703, 704, 705, 706, 707, 708, 709, 710, 711, 712, 713, 714, 715, 716, 717, 718, 719, 720, 721, 722, 723, 724, 725, 726, 727, 728, 729, 730, 731, 732, 733, 734, 735, 736, 737, 738, 739, 740, 741, 742, 743, 744, 745, 746, 747, 748, 749, 750, 751, 752, 753, 754, 755, 756, 757, 758, 759, 760, 761, 762, 763, 764, 765, 766, 767, 768, 769, 770, 771, 772, 773, 774, 775, 776, 777, 778, 779, 780, 781, 782, 783, 784, 785, 786, 787, 788, 789, 790, 791, 792, 793, 794, 795, 796, 797, 798, 799, 800, 801, 802, 803, 804, 805, 806, 807, 808, 809, 810, 811, 812, 813, 814, 815, 816, 817, 818, 819, 820, 821, 822, 823, 824, 825, 826, 827, 828, 829, 830, 831, 832, 833, 834, 835, 836, 837, 838, 839, 840, 841, 842, 843, 844, 845, 846, 847, 848, 849, 850, 851, 852, 853, 854, 855, 856, 857, 858, 859, 860, 861, 862, 863, 864, 865, 866, 867, 868, 869, 870, 871, 872, 873, 874, 875, 876, 877, 878, 879, 880, 881, 882, 883, 884, 885, 886, 887, 888, 889, 890, 891, 892, 893, 894, 895, 896, 897, 898, 899, 900, 901, 902, 903, 904, 905, 906, 907, 908, 909, 910, 911, 912, 913, 914, 915, 916, 917, 918, 919, 920, 921, 922, 923, 924, 925, 926, 927, 928, 929, 930, 931, 932, 933, 934, 935, 936, 937, 938, 939, 940, 941, 942, 943, 944, 945, 946, 947, 948, 949, 950, 951, 952, 953, 954, 955, 956, 957, 958, 959, 960, 961, 962, 963, 964, 965, 966, 967, 968, 969, 970, 971, 972, 973, 974, 975, 976, 977, 978, 979, 980, 981, 982, 983, 984, 985, 986, 987, 988, 989, 990, 991, 992, 993, 994, 995, 996, 997, 998, 999, 1000, 1001, 1002, 1003, 1004, 1005, 1006, 1007, 1008, 1009, 1010, 1011, 1012, 1013, 1014, 1015, 1016, 1017, 1018, 1019, 1020, 1021, 1022, 1023, 1024, 1025, 1026, 1027, 1028, 1029, 1030, 1031, 1032, 1033, 1034, 1035, 1036, 1037, 1038, 1039, 1040, 1041, 1042, 1043, 1044, 1045, 1046, 1047, 1048, 1049, 1050, 1051, 1052, 1053, 1054, 1055, 1056, 1057, 1058, 1059, 1060, 1061, 1062, 1063, 1064, 1065, 1066, 1067, 1068, 1069, 1070, 1071, 1072, 1073, 1074, 1075, 1076, 1077, 1078, 1079, 1080, 1081, 1082, 1083, 1084, 1085, 1086, 1087, 1088, 1089, 1090, 1091, 1092, 1093, 1094, 1095, 1096, 1097, 1098],
      "AcquisitionTime": ["190338.252500", "190338.712500", "190339.172500", "190339.632500", "190340.092500", "190340.552500", "190341.012500", "190341.472500", "190341.932500", "190342.392500", "190342.852500", "190343.312500", "190343.772500", "190344.232500", "190344.692500", "190345.152500", "190345.612500", "190346.072500", "190346.532500", "190346.992500", "190347.452500", "190347.912500", "190348.372500", "190348.832500", "190349.292500", "190349.752500", "190350.212500", "190350.672500", "190351.132500", "190351.592500", "190352.052500", "190352.512500", "190352.972500", "190353.432500", "190353.892500", "190354.352500", "190354.812500", "190355.272500", "190355.732500", "190356.192500", "190356.652500", "190357.112500", "190357.572500", "190358.032500", "190358.492500", "190358.952500", "190359.412500", "190359.872500", "190400.332500", "190400.792500", "190401.252500", "190401.712500", "190402.172500", "190402.632500", "190403.092500", "190403.552500", "190404.012500", "190404.472500", "190404.932500", "190405.392500", "190405.852500", "190406.312500", "190406.772500", "190407.232500", "190407.692500", "190408.152500", "190408.612500", "190409.072500", "190409.532500", "190409.992500", "190410.452500", "190410.912500", "190411.372500", "190411.832500", "190412.292500", "190412.752500", "190413.212500", "190413.672500", "190414.132500", "190414.592500", "190415.052500", "190415.512500", "190415.972500", "190416.432500", "190416.892500", "190417.352500", "190417.812500", "190418.272500", "190418.732500", "190419.192500", "190419.652500", "190420.112500", "190420.572500", "190421.032500", "190421.492500", "190421.952500", "190422.412500", "190422.872500", "190423.332500", "190423.792500", "190424.252500", "190424.712500", "190425.172500", "190425.632500", "190426.092500", "190426.552500", "190427.012500", "190427.472500", "190427.932500", "190428.392500", "190428.852500", "190429.312500", "190429.772500", "190430.232500", "190430.692500", "190431.152500", "190431.612500", "190432.072500", "190432.532500", "190432.992500", "190433.452500", "190433.912500", "190434.372500", "190434.832500", "190435.292500", "190435.752500", "190436.212500", "190436.672500", "190437.132500", "190437.592500", "190438.052500", "190438.512500", "190438.972500", "190439.432500", "190439.892500", "190440.352500", "190440.812500", "190441.272500", "190441.732500", "190442.192500", "190442.652500", "190443.112500", "190443.572500", "190444.032500", "190444.492500", "190444.952500", "190445.412500", "190445.872500", "190446.332500", "190446.792500", "190447.252500", "190447.712500", "190448.172500", "190448.632500", "190449.092500", "190449.552500", "190450.012500", "190450.472500", "190450.932500", "190451.392500", "190451.852500", "190452.312500", "190452.772500", "190453.232500", "190453.692500", "190454.152500", "190454.612500", "190455.072500", "190455.532500", "190455.992500", "190456.452500", "190456.912500", "190457.372500", "190457.832500", "190458.292500", "190458.752500", "190459.212500", "190459.672500", "190500.132500", "190500.592500", "190501.052500", "190501.512500", "190501.972500", "190502.432500", "190502.892500", "190503.352500", "190503.812500", "190504.272500", "190504.732500", "190505.192500", "190505.652500", "190506.112500", "190506.572500", "190507.032500", "190507.492500", "190507.952500", "190508.412500", "190508.872500", "190509.332500", "190509.792500", "190510.252500", "190510.712500", "190511.172500", "190511.632500", "190512.092500", "190512.552500", "190513.012500", "190513.472500", "190513.932500", "190514.392500", "190514.852500", "190515.312500", "190515.772500", "190516.232500", "190516.692500", "190517.152500", "190517.612500", "190518.072500", "190518.532500", "190518.992500", "190519.452500", "190519.912500", "190520.372500", "190520.832500", "190521.292500", "190521.752500", "190522.212500", "190522.672500", "190523.132500", "190523.592500", "190524.052500", "190524.512500", "190524.972500", "190525.432500", "190525.892500", "190526.352500", "190526.812500", "190527.272500", "190527.732500", "190528.192500", "190528.652500", "190529.112500", "190529.572500", "190530.032500", "190530.492500", "190530.952500", "190531.412500", "190531.872500", "190532.332500", "190532.792500", "190533.252500", "190533.712500", "190534.172500", "190534.632500", "190535.092500", "190535.552500", "190536.012500", "190536.472500", "190536.932500", "190537.392500", "190537.852500", "190538.312500", "190538.772500", "190539.232500", "190539.692500", "190540.152500", "190540.612500", "190541.072500", "190541.532500", "190541.992500", "190542.452500", "190542.912500", "190543.372500", "190543.832500", "190544.292500", "190544.752500", "190545.212500", "190545.672500", "190546.132500", "190546.592500", "190547.052500", "190547.512500", "190547.972500", "190548.432500", "190548.892500", "190549.352500", "190549.812500", "190550.272500", "190550.732500", "190551.192500", "190551.652500", "190552.112500", "190552.572500", "190553.032500", "190553.492500", "190553.952500", "190554.412500", "190554.872500", "190555.332500", "190555.792500", "190556.252500", "190556.712500", "190557.172500", "190557.632500", "190558.092500", "190558.552500", "190559.012500", "190559.472500", "190559.932500", "190600.392500", "190600.852500", "190601.312500", "190601.772500", "190602.232500", "190602.692500", "190603.152500", "190603.612500", "190604.072500", "190604.532500", "190604.992500", "190605.452500", "190605.912500", "190606.372500", "190606.832500", "190607.292500", "190607.752500", "190608.212500", "190608.672500", "190609.132500", "190609.592500", "190610.052500", "190610.512500", "190610.972500", "190611.432500", "190611.892500", "190612.352500", "190612.812500", "190613.272500", "190613.732500", "190614.192500", "190614.652500", "190615.112500", "190615.572500", "190616.032500", "190616.492500", "190616.952500", "190617.412500", "190617.872500", "190618.332500", "190618.792500", "190619.252500", "190619.712500", "190620.172500", "190620.632500", "190621.092500", "190621.552500", "190622.012500", "190622.472500", "190622.932500", "190623.392500", "190623.852500", "190624.312500", "190624.772500", "190625.232500", "190625.692500", "190626.152500", "190626.612500", "190627.072500", "190627.532500", "190627.992500", "190628.452500", "190628.912500", "190629.372500", "190629.832500", "190630.292500", "190630.752500", "190631.212500", "190631.672500", "190632.132500", "190632.592500", "190633.052500", "190633.512500", "190633.972500", "190634.432500", "190634.892500", "190635.352500", "190635.812500", "190636.272500", "190636.732500", "190637.192500", "190637.652500", "190638.112500", "190638.572500", "190639.032500", "190639.492500", "190639.952500", "190640.412500", "190640.872500", "190641.332500", "190641.792500", "190642.252500", "190642.712500", "190643.172500", "190643.632500", "190644.092500", "190644.552500", "190645.012500", "190645.472500", "190645.932500", "190646.392500", "190646.852500", "190647.312500", "190647.772500", "190648.232500", "190648.692500", "190649.152500", "190649.612500", "190650.072500", "190650.532500", "190650.992500", "190651.452500", "190651.912500", "190652.372500", "190652.832500", "190653.292500", "190653.752500", "190654.212500", "190654.672500", "190655.132500", "190655.592500", "190656.052500", "190656.512500", "190656.972500", "190657.432500", "190657.892500", "190658.352500", "190658.812500", "190659.272500", "190659.732500", "190700.192500", "190700.652500", "190701.112500", "190701.572500", "190702.032500", "190702.492500", "190702.952500", "190703.412500", "190703.872500", "190704.332500", "190704.792500", "190705.252500", "190705.712500", "190706.172500", "190706.632500", "190707.092500", "190707.552500", "190708.012500", "190708.472500", "190708.932500", "190709.392500", "190709.852500", "190710.312500", "190710.772500", "190711.232500", "190711.692500", "190712.152500", "190712.612500", "190713.072500", "190713.532500", "190713.992500", "190714.452500", "190714.912500", "190715.372500", "190715.832500", "190716.292500", "190716.752500", "190717.212500", "190717.672500", "190718.132500", "190718.592500", "190719.052500", "190719.512500", "190719.972500", "190720.432500", "190720.892500", "190721.352500", "190721.812500", "190722.272500", "190722.732500", "190723.192500", "190723.652500", "190724.112500", "190724.572500", "190725.032500", "190725.492500", "190725.952500", "190726.412500", "190726.872500", "190727.332500", "190727.792500", "190728.252500", "190728.712500", "190729.172500", "190729.632500", "190730.092500", "190730.552500", "190731.012500", "190731.472500", "190731.932500", "190732.392500", "190732.852500", "190733.312500", "190733.772500", "190734.232500", "190734.692500", "190735.152500", "190735.612500", "190736.072500", "190736.532500", "190736.992500", "190737.452500", "190737.912500", "190738.372500", "190738.832500", "190739.292500", "190739.752500", "190740.212500", "190740.672500", "190741.132500", "190741.592500", "190742.052500", "190742.512500", "190742.972500", "190743.432500", "190743.892500", "190744.352500", "190744.812500", "190745.272500", "190745.732500", "190746.192500", "190746.652500", "190747.112500", "190747.572500", "190748.032500", "190748.492500", "190748.952500", "190749.412500", "190749.872500", "190750.332500", "190750.792500", "190751.252500", "190751.712500", "190752.172500", "190752.632500", "190753.092500", "190753.552500", "190754.012500", "190754.472500", "190754.932500", "190755.392500", "190755.852500", "190756.312500", "190756.772500", "190757.232500", "190757.692500", "190758.152500", "190758.612500", "190759.072500", "190759.532500", "190759.992500", "190800.452500", "190800.912500", "190801.372500", "190801.832500", "190802.292500", "190802.752500", "190803.212500", "190803.672500", "190804.132500", "190804.592500", "190805.052500", "190805.512500", "190805.972500", "190806.432500", "190806.892500", "190807.352500", "190807.812500", "190808.272500", "190808.732500", "190809.192500", "190809.652500", "190810.112500", "190810.572500", "190811.032500", "190811.492500", "190811.952500", "190812.412500", "190812.872500", "190813.332500", "190813.792500", "190814.252500", "190814.712500", "190815.172500", "190815.632500", "190816.092500", "190816.552500", "190817.012500", "190817.472500", "190817.932500", "190818.392500", "190818.852500", "190819.312500", "190819.772500", "190820.232500", "190820.692500", "190821.152500", "190821.612500", "190822.072500", "190822.532500", "190822.992500", "190823.452500", "190823.912500", "190824.372500", "190824.832500", "190825.292500", "190825.752500", "190826.212500", "190826.672500", "190827.132500", "190827.592500", "190828.052500", "190828.512500", "190828.972500", "190829.432500", "190829.892500", "190830.352500", "190830.812500", "190831.272500", "190831.732500", "190832.192500", "190832.652500", "190833.112500", "190833.572500", "190834.032500", "190834.492500", "190834.952500", "190835.412500", "190835.872500", "190836.332500", "190836.792500", "190837.252500", "190837.712500", "190838.172500", "190838.632500", "190839.092500", "190839.552500", "190840.012500", "190840.472500", "190840.932500", "190841.392500", "190841.852500", "190842.312500", "190842.772500", "190843.232500", "190843.692500", "190844.152500", "190844.612500", "190845.072500", "190845.532500", "190845.992500", "190846.452500", "190846.912500", "190847.372500", "190847.832500", "190848.292500", "190848.752500", "190849.212500", "190849.672500", "190850.132500", "190850.592500", "190851.052500", "190851.512500", "190851.972500", "190852.432500", "190852.892500", "190853.352500", "190853.812500", "190854.272500", "190854.732500", "190855.192500", "190855.652500", "190856.112500", "190856.572500", "190857.032500", "190857.492500", "190857.952500", "190858.412500", "190858.872500", "190859.332500", "190859.792500", "190900.252500", "190900.712500", "190901.172500", "190901.632500", "190902.092500", "190902.552500", "190903.012500", "190903.472500", "190903.932500", "190904.392500", "190904.852500", "190905.312500", "190905.772500", "190906.232500", "190906.692500", "190907.152500", "190907.612500", "190908.072500", "190908.532500", "190908.992500", "190909.452500", "190909.912500", "190910.372500", "190910.832500", "190911.292500", "190911.752500", "190912.212500", "190912.672500", "190913.132500", "190913.592500", "190914.052500", "190914.512500", "190914.972500", "190915.432500", "190915.892500", "190916.352500", "190916.812500", "190917.272500", "190917.732500", "190918.192500", "190918.652500", "190919.112500", "190919.572500", "190920.032500", "190920.492500", "190920.952500", "190921.412500", "190921.872500", "190922.332500", "190922.792500", "190923.252500", "190923.712500", "190924.172500", "190924.632500", "190925.092500", "190925.552500", "190926.012500", "190926.472500", "190926.932500", "190927.392500", "190927.852500", "190928.312500", "190928.772500", "190929.232500", "190929.692500", "190930.152500", "190930.612500", "190931.072500", "190931.532500", "190931.992500", "190932.452500", "190932.912500", "190933.372500", "190933.832500", "190934.292500", "190934.752500", "190935.212500", "190935.672500", "190936.132500", "190936.592500", "190937.052500", "190937.512500", "190937.972500", "190938.432500", "190938.892500", "190939.352500", "190939.812500", "190940.272500", "190940.732500", "190941.192500", "190941.652500", "190942.112500", "190942.572500", "190943.032500", "190943.492500", "190943.952500", "190944.412500", "190944.872500", "190945.332500", "190945.792500", "190946.252500", "190946.712500", "190947.172500", "190947.632500", "190948.092500", "190948.552500", "190949.012500", "190949.472500", "190949.932500", "190950.392500", "190950.852500", "190951.312500", "190951.772500", "190952.232500", "190952.692500", "190953.152500", "190953.612500", "190954.072500", "190954.532500", "190954.992500", "190955.452500", "190955.912500", "190956.372500", "190956.832500", "190957.292500", "190957.752500", "190958.212500", "190958.672500", "190959.132500", "190959.592500", "191000.052500", "191000.512500", "191000.972500", "191001.432500", "191001.892500", "191002.352500", "191002.812500", "191003.272500", "191003.732500", "191004.192500", "191004.652500", "191005.112500", "191005.572500", "191006.032500", "191006.492500", "191006.952500", "191007.412500", "191007.872500", "191008.332500", "191008.792500", "191009.252500", "191009.712500", "191010.172500", "191010.632500", "191011.092500", "191011.552500", "191012.012500", "191012.472500", "191012.932500", "191013.392500", "191013.852500", "191014.312500", "191014.772500", "191015.232500", "191015.692500", "191016.152500", "191016.612500", "191017.072500", "191017.532500", "191017.992500", "191018.452500", "191018.912500", "191019.372500", "191019.832500", "191020.292500", "191020.752500", "191021.212500", "191021.672500", "191022.132500", "191022.592500", "191023.052500", "191023.512500", "191023.972500", "191024.432500", "191024.892500", "191025.352500", "191025.812500", "191026.272500", "191026.732500", "191027.192500", "191027.652500", "191028.112500", "191028.572500", "191029.032500", "191029.492500", "191029.952500", "191030.412500", "191030.872500", "191031.332500", "191031.792500", "191032.252500", "191032.712500", "191033.172500", "191033.632500", "191034.092500", "191034.552500", "191035.012500", "191035.472500", "191035.932500", "191036.392500", "191036.852500", "191037.312500", "191037.772500", "191038.232500", "191038.692500", "191039.152500", "191039.612500", "191040.072500", "191040.532500", "191040.992500", "191041.452500", "191041.912500", "191042.372500", "191042.832500", "191043.292500", "191043.752500", "191044.212500", "191044.672500", "191045.132500", "191045.592500", "191046.052500", "191046.512500", "191046.972500", "191047.432500", "191047.892500", "191048.352500", "191048.812500", "191049.272500", "191049.732500", "191050.192500", "191050.652500", "191051.112500", "191051.572500", "191052.032500", "191052.492500", "191052.952500", "191053.412500", "191053.872500", "191054.332500", "191054.792500", "191055.252500", "191055.712500", "191056.172500", "191056.632500", "191057.092500", "191057.552500", "191058.012500", "191058.472500", "191058.932500", "191059.392500", "191059.852500", "191100.312500", "191100.772500", "191101.232500", "191101.692500", "191102.152500", "191102.612500", "191103.072500", "191103.532500", "191103.992500", "191104.452500", "191104.912500", "191105.372500", "191105.832500", "191106.292500", "191106.752500", "191107.212500", "191107.672500", "191108.132500", "191108.592500", "191109.052500", "191109.512500", "191109.972500", "191110.432500", "191110.892500", "191111.352500", "191111.812500", "191112.272500", "191112.732500", "191113.192500", "191113.652500", "191114.112500", "191114.572500", "191115.032500", "191115.492500", "191115.952500", "191116.412500", "191116.872500", "191117.332500", "191117.792500", "191118.252500", "191118.712500", "191119.172500", "191119.632500", "191120.092500", "191120.552500", "191121.012500", "191121.472500", "191121.932500", "191122.392500", "191122.852500", "191123.312500", "191123.772500", "191124.232500", "191124.692500", "191125.152500", "191125.612500", "191126.072500", "191126.532500", "191126.992500", "191127.452500", "191127.912500", "191128.372500", "191128.832500", "191129.292500", "191129.752500", "191130.212500", "191130.672500", "191131.132500", "191131.592500", "191132.052500", "191132.512500", "191132.972500", "191133.432500", "191133.892500", "191134.352500", "191134.812500", "191135.272500", "191135.732500", "191136.192500", "191136.652500", "191137.112500", "191137.572500", "191138.032500", "191138.492500", "191138.952500", "191139.412500", "191139.872500", "191140.332500", "191140.792500", "191141.252500", "191141.712500", "191142.172500", "191142.632500", "191143.092500", "191143.552500", "191144.012500", "191144.472500", "191144.932500", "191145.392500", "191145.852500", "191146.312500", "191146.772500", "191147.232500", "191147.692500", "191148.152500", "191148.612500", "191149.072500", "191149.532500", "191149.992500", "191150.452500", "191150.912500", "191151.372500", "191151.832500", "191152.292500", "191152.752500", "191153.212500", "191153.672500", "191154.132500", "191154.592500", "191155.052500", "191155.512500", "191155.972500", "191156.432500", "191156.892500", "191157.352500", "191157.812500", "191158.272500", "191158.732500", "191159.192500", "191159.652500", "191200.112500", "191200.572500", "191201.032500", "191201.492500", "191201.952500", "191202.412500", "191202.872500"],
