{
  "AcquisitionMatrixPE": 82,
  "AcquisitionNumber": 1,
  "AcquisitionTime": "19:41:37.652500",
  "BandwidthPerPixelPhaseEncode": 24.888,
  "BaseResolution": 82,
  "BodyPartExamined": "BRAIN",
  "ConsistencyInfo": "N4_VE11E_LATEST_20181129",
  "ConversionSoftware": "dcm2niix",
  "ConversionSoftwareVersion": "v1.0.20201102",
  "DerivedVendorReportedEchoSpacing": 0.00049,
  "DeviceSerialNumber": "66112",
  "DwellTime": 2e-06,
  "EchoTime": 0.0272,
  "EchoTrainLength": 82,
  "EffectiveEchoSpacing": 0.00049,
  "FlipAngle": 44,
  "ImageComments": "Unaliased MB8/PE3",
  "ImageOrientationPatientDICOM": [0.999813, 0.0137756, -0.013538, -0.0125647, 0.996234, 0.085785],
  "ImageType": [
    "ORIGINAL",
    "PRIMARY",
    "M",
    "MB",
    "ND",
    "NORM",
    "MOSAIC"
],
  "ImagingFrequency": 123.259,
  "InPlanePhaseEncodingDirectionDICOM": "COL",
  "InstitutionAddress": "Maynard 3,Hanover,NH,US,03755",
  "InstitutionName": "Dartmouth College - PBS",
  "InstitutionalDepartmentName": "Department",
  "MRAcquisitionType": "2D",
  "MagneticFieldStrength": 3,
  "Manufacturer": "Siemens",
  "ManufacturersModelName": "Prisma",
  "Modality": "MR",
  "MultibandAccelerationFactor": 8,
  "PartialFourier": 1,
  "PatientPosition": "HFS",
  "PercentPhaseFOV": 100,
  "PercentSampling": 100,
  "PhaseEncodingDirection": "j-",
  "PhaseEncodingSteps": 82,
  "PhaseResolution": 1,
  "PixelBandwidth": 3050,
  "ProcedureStepDescription": "Wager_Wager^1076_spacetop",
  "ProtocolName": "func_run-02_task-faces_acq-ap-mb8",
  "PulseSequenceDetails": "%CustomerSeq%\\cmrr_mbep2d_bold",
  "ReceiveCoilActiveElements": "HEA;HEP",
  "ReceiveCoilName": "Head_32",
  "ReconMatrixPE": 82,
  "RepetitionTime": 0.46,
  "SAR": 0.131584,
  "ScanOptions": "FS",
  "ScanningSequence": "EP",
  "SequenceName": "epfid2d1_82",
  "SequenceVariant": "SK\\SS",
  "SeriesDescription": "func_run-02_task-faces_acq-ap-mb8",
  "SeriesNumber": 18,
  "ShimSetting": [4212, -7816, -7193, 32, -110, -149, -8, 103],
  "SliceThickness": 2.7,
  "SliceTiming": [0, 0.25, 0.0625, 0.315, 0.125, 0.3775, 0.1875, 0, 0.25, 0.0625, 0.315, 0.125, 0.3775, 0.1875, 0, 0.25, 0.0625, 0.315, 0.125, 0.3775, 0.1875, 0, 0.25, 0.0625, 0.315, 0.125, 0.3775, 0.1875, 0, 0.25, 0.0625, 0.315, 0.125, 0.3775, 0.1875, 0, 0.25, 0.0625, 0.315, 0.125, 0.3775, 0.1875, 0, 0.25, 0.0625, 0.315, 0.125, 0.3775, 0.1875, 0, 0.25, 0.0625, 0.315, 0.125, 0.3775, 0.1875],
  "SoftwareVersions": "syngo MR E11",
  "SpacingBetweenSlices": 2.7,
  "StationName": "AWP66112",
  "TaskName": "faces",
  "TotalReadoutTime": 0.03969,
  "TxRefAmp": 318.233,
  "WipMemBlock": "8d578c4f-1e26-479b-a1e3-a5c076136f1d||Sequence: R016 ve11e/master r/434b28f1; Aug  7 2019 18:53:46 by eja",
  "dcmmeta_affine": [
    [-2.6824264526367188, -0.03371009603142738, -0.03960561752319336, 114.61611938476562],
    [-0.03695881366729736, 2.6728241443634033, 0.23111708462238312, -86.14006042480469],
    [-0.03632143512368202, -0.23015493154525757, 2.689798593521118, -52.72270202636719],
    [0.0, 0.0, 0.0, 1.0]
],
  "dcmmeta_reorient_transform": [
    [0.0, -1.0, 0.0, 81.0],
    [1.0, 0.0, 0.0, 0.0],
    [0.0, 0.0, 1.0, 0.0],
    [0.0, 0.0, 0.0, 1.0]
],
  "dcmmeta_shape": [82, 82, 56, 914],
  "dcmmeta_slice_dim": 2,
  "dcmmeta_version": 0.6,
  "global": {
    "const": {
      "AccessionNumber": "A004835",
      "AcquisitionMatrix": [82, 0, 0, 82],
      "AngioFlag": "N",
      "BitsAllocated": 16,
      "BitsStored": 16,
      "BodyPartExamined": "BRAIN",
      "Columns": 656,
      "EchoNumbers": 1,
      "EchoTime": 27.2,
      "EchoTrainLength": 82,
      "FlipAngle": 44.0,
      "HighBit": 15,
      "ImageOrientationPatient": [0.99981346103072, 0.01377555803244, -0.0135379888706, -0.0125646724869, 0.99623443989715, 0.08578502065113],
      "ImagePositionPatient": [-872.06718552784, -908.0664125238, -126.99546885886],
      "ImageType": [
        "ORIGINAL",
        "PRIMARY",
        "M",
        "MB",
        "ND",
        "NORM",
        "MOSAIC"
],
      "ImagedNucleus": "1H",
      "ImagingFrequency": 123.259014,
      "InPlanePhaseEncodingDirection": "COL",
      "MRAcquisitionType": "2D",
      "MagneticFieldStrength": 3.0,
      "Manufacturer": "SIEMENS",
      "ManufacturerModelName": "Prisma",
      "Modality": "MR",
      "NumberOfAverages": 1.0,
      "NumberOfPhaseEncodingSteps": 82,
      "PercentPhaseFieldOfView": 100.0,
      "PercentSampling": 100.0,
      "PerformedProcedureStepStartTime": "184058.782000",
      "PhotometricInterpretation": "MONOCHROME2",
      "PixelBandwidth": 3050.0,
      "PixelRepresentation": 0,
      "PixelSpacing": [2.6829268932343, 2.6829268932343],
      "ProtocolName": "func_run-02_task-faces_acq-ap-mb8",
      "RepetitionTime": 460.0,
      "Rows": 656,
      "SAR": 0.13158357324487,
      "SamplesPerPixel": 1,
      "ScanOptions": "FS",
      "ScanningSequence": "EP",
      "SequenceName": "epfid2d1_82",
      "SequenceVariant": [
        "SK",
        "SS"
],
      "SeriesDescription": "func_run-02_task-faces_acq-ap-mb8",
      "SeriesNumber": 18,
      "SeriesTime": "194159.939000",
      "SliceLocation": -61.578271222569,
      "SliceThickness": 2.7000000476837,
      "SmallestImagePixelValue": 0,
      "SoftwareVersions": "syngo MR E11",
      "SpacingBetweenSlices": 2.700000037818,
      "SpecificCharacterSet": "ISO_IR 100",
      "StudyID": "2",
      "StudyTime": "184058.725000",
      "TransmitCoilName": "Body",
      "VariableFlipAngleFlag": "N",
      "WindowCenterWidthExplanation": "Algo1"
    },
    "slices": {}
  },
  "time": {
    "samples": {
      "AcquisitionNumber": [1, 2, 3, 4, 5, 6, 7, 8, 9, 10, 11, 12, 13, 14, 15, 16, 17, 18, 19, 20, 21, 22, 23, 24, 25, 26, 27, 28, 29, 30, 31, 32, 33, 34, 35, 36, 37, 38, 39, 40, 41, 42, 43, 44, 45, 46, 47, 48, 49, 50, 51, 52, 53, 54, 55, 56, 57, 58, 59, 60, 61, 62, 63, 64, 65, 66, 67, 68, 69, 70, 71, 72, 73, 74, 75, 76, 77, 78, 79, 80, 81, 82, 83, 84, 85, 86, 87, 88, 89, 90, 91, 92, 93, 94, 95, 96, 97, 98, 99, 100, 101, 102, 103, 104, 105, 106, 107, 108, 109, 110, 111, 112, 113, 114, 115, 116, 117, 118, 119, 120, 121, 122, 123, 124, 125, 126, 127, 128, 129, 130, 131, 132, 133, 134, 135, 136, 137, 138, 139, 140, 141, 142, 143, 144, 145, 146, 147, 148, 149, 150, 151, 152, 153, 154, 155, 156, 157, 158, 159, 160, 161, 162, 163, 164, 165, 166, 167, 168, 169, 170, 171, 172, 173, 174, 175, 176, 177, 178, 179, 180, 181, 182, 183, 184, 185, 186, 187, 188, 189, 190, 191, 192, 193, 194, 195, 196, 197, 198, 199, 200, 201, 202, 203, 204, 205, 206, 207, 208, 209, 210, 211, 212, 213, 214, 215, 216, 217, 218, 219, 220, 221, 222, 223, 224, 225, 226, 227, 228, 229, 230, 231, 232, 233, 234, 235, 236, 237, 238, 239, 240, 241, 242, 243, 244, 245, 246, 247, 248, 249, 250, 251, 252, 253, 254, 255, 256, 257, 258, 259, 260, 261, 262, 263, 264, 265, 266, 267, 268, 269, 270, 271, 272, 273, 274, 275, 276, 277, 278, 279, 280, 281, 282, 283, 284, 285, 286, 287, 288, 289, 290, 291, 292, 293, 294, 295, 296, 297, 298, 299, 300, 301, 302, 303, 304, 305, 306, 307, 308, 309, 310, 311, 312, 313, 314, 315, 316, 317, 318, 319, 320, 321, 322, 323, 324, 325, 326, 327, 328, 329, 330, 331, 332, 333, 334, 335, 336, 337, 338, 339, 340, 341, 342, 343, 344, 345, 346, 347, 348, 349, 350, 351, 352, 353, 354, 355, 356, 357, 358, 359, 360, 361, 362, 363, 364, 365, 366, 367, 368, 369, 370, 371, 372, 373, 374, 375, 376, 377, 378, 379, 380, 381, 382, 383, 384, 385, 386, 387, 388, 389, 390, 391, 392, 393, 394, 395, 396, 397, 398, 399, 400, 401, 402, 403, 404, 405, 406, 407, 408, 409, 410, 411, 412, 413, 414, 415, 416, 417, 418, 419, 420, 421, 422, 423, 424, 425, 426, 427, 428, 429, 430, 431, 432, 433, 434, 435, 436, 437, 438, 439, 440, 441, 442, 443, 444, 445, 446, 447, 448, 449, 450, 451, 452, 453, 454, 455, 456, 457, 458, 459, 460, 461, 462, 463, 464, 465, 466, 467, 468, 469, 470, 471, 472, 473, 474, 475, 476, 477, 478, 479, 480, 481, 482, 483, 484, 485, 486, 487, 488, 489, 490, 491, 492, 493, 494, 495, 496, 497, 498, 499, 500, 501, 502, 503, 504, 505, 506, 507, 508, 509, 510, 511, 512, 513, 514, 515, 516, 517, 518, 519, 520, 521, 522, 523, 524, 525, 526, 527, 528, 529, 530, 531, 532, 533, 534, 535, 536, 537, 538, 539, 540, 541, 542, 543, 544, 545, 546, 547, 548, 549, 550, 551, 552, 553, 554, 555, 556, 557, 558, 559, 560, 561, 562, 563, 564, 565, 566, 567, 568, 569, 570, 571, 572, 573, 574, 575, 576, 577, 578, 579, 580, 581, 582, 583, 584, 585, 586, 587, 588, 589, 590, 591, 592, 593, 594, 595, 596, 597, 598, 599, 600, 601, 602, 603, 604, 605, 606, 607, 608, 609, 610, 611, 612, 613, 614, 615, 616, 617, 618, 619, 620, 621, 622, 623, 624, 625, 626, 627, 628, 629, 630, 631, 632, 633, 634, 635, 636, 637, 638, 639, 640, 641, 642, 643, 644, 645, 646, 647, 648, 649, 650, 651, 652, 653, 654, 655, 656, 657, 658, 659, 660, 661, 662, 663, 664, 665, 666, 667, 668, 669, 670, 671, 672, 673, 674, 675, 676, 677, 678, 679, 680, 681, 682, 683, 684, 685, 686, 687, 688, 689, 690, 691, 692, 693, 694, 695, 696, 697, 698, 699, 700, 701, 702, 703, 704, 705, 706, 707, 708, 709, 710, 711, 712, 713, 714, 715, 716, 717, 718, 719, 720, 721, 722, 723, 724, 725, 726, 727, 728, 729, 730, 731, 732, 733, 734, 735, 736, 737, 738, 739, 740, 741, 742, 743, 744, 745, 746, 747, 748, 749, 750, 751, 752, 753, 754, 755, 756, 757, 758, 759, 760, 761, 762, 763, 764, 765, 766, 767, 768, 769, 770, 771, 772, 773, 774, 775, 776, 777, 778, 779, 780, 781, 782, 783, 784, 785, 786, 787, 788, 789, 790, 791, 792, 793, 794, 795, 796, 797, 798, 799, 800, 801, 802, 803, 804, 805, 806, 807, 808, 809, 810, 811, 812, 813, 814, 815, 816, 817, 818, 819, 820, 821, 822, 823, 824, 825, 826, 827, 828, 829, 830, 831, 832, 833, 834, 835, 836, 837, 838, 839, 840, 841, 842, 843, 844, 845, 846, 847, 848, 849, 850, 851, 852, 853, 854, 855, 856, 857, 858, 859, 860, 861, 862, 863, 864, 865, 866, 867, 868, 869, 870, 871, 872, 873, 874, 875, 876, 877, 878, 879, 880, 881, 882, 883, 884, 885, 886, 887, 888, 889, 890, 891, 892, 893, 894, 895, 896, 897, 898, 899, 900, 901, 902, 903, 904, 905, 906, 907, 908, 909, 910, 911, 912, 913, 914],
      "AcquisitionTime": ["194137.652500", "194138.112500", "194138.572500", "194139.032500", "194139.492500", "194139.952500", "194140.412500", "194140.872500", "194141.332500", "194141.792500", "194142.252500", "194142.712500", "194143.172500", "194143.632500", "194144.092500", "194144.552500", "194145.012500", "194145.472500", "194145.932500", "194146.392500", "194146.852500", "194147.312500", "194147.772500", "194148.232500", "194148.692500", "194149.152500", "194149.612500", "194150.072500", "194150.532500", "194150.992500", "194151.452500", "194151.912500", "194152.372500", "194152.832500", "194153.292500", "194153.752500", "194154.212500", "194154.672500", "194155.132500", "194155.592500", "194156.052500", "194156.512500", "194156.972500", "194157.432500", "194157.892500", "194158.352500", "194158.812500", "194159.272500", "194159.732500", "194200.192500", "194200.652500", "194201.112500", "194201.572500", "194202.032500", "194202.492500", "194202.952500", "194203.412500", "194203.872500", "194204.332500", "194204.792500", "194205.252500", "194205.712500", "194206.172500", "194206.632500", "194207.092500", "194207.552500", "194208.012500", "194208.472500", "194208.932500", "194209.392500", "194209.852500", "194210.312500", "194210.772500", "194211.232500", "194211.692500", "194212.152500", "194212.612500", "194213.072500", "194213.532500", "194213.992500", "194214.452500", "194214.912500", "194215.372500", "194215.832500", "194216.292500", "194216.752500", "194217.212500", "194217.672500", "194218.132500", "194218.592500", "194219.052500", "194219.512500", "194219.972500", "194220.432500", "194220.892500", "194221.352500", "194221.812500", "194222.272500", "194222.732500", "194223.192500", "194223.652500", "194224.112500", "194224.572500", "194225.032500", "194225.492500", "194225.952500", "194226.412500", "194226.872500", "194227.332500", "194227.792500", "194228.252500", "194228.712500", "194229.172500", "194229.632500", "194230.092500", "194230.552500", "194231.012500", "194231.472500", "194231.932500", "194232.392500", "194232.852500", "194233.312500", "194233.772500", "194234.232500", "194234.692500", "194235.152500", "194235.612500", "194236.072500", "194236.532500", "194236.992500", "194237.452500", "194237.912500", "194238.372500", "194238.832500", "194239.292500", "194239.752500", "194240.212500", "194240.672500", "194241.132500", "194241.592500", "194242.052500", "194242.512500", "194242.972500", "194243.432500", "194243.892500", "194244.352500", "194244.812500", "194245.272500", "194245.732500", "194246.192500", "194246.652500", "194247.112500", "194247.572500", "194248.032500", "194248.492500", "194248.952500", "194249.412500", "194249.872500", "194250.332500", "194250.792500", "194251.252500", "194251.712500", "194252.172500", "194252.632500", "194253.092500", "194253.552500", "194254.012500", "194254.472500", "194254.932500", "194255.392500", "194255.852500", "194256.312500", "194256.772500", "194257.232500", "194257.692500", "194258.152500", "194258.612500", "194259.072500", "194259.532500", "194259.992500", "194300.452500", "194300.912500", "194301.372500", "194301.832500", "194302.292500", "194302.752500", "194303.212500", "194303.672500", "194304.132500", "194304.592500", "194305.052500", "194305.512500", "194305.972500", "194306.432500", "194306.892500", "194307.352500", "194307.812500", "194308.272500", "194308.732500", "194309.192500", "194309.652500", "194310.112500", "194310.572500", "194311.032500", "194311.492500", "194311.952500", "194312.412500", "194312.872500", "194313.332500", "194313.792500", "194314.252500", "194314.712500", "194315.172500", "194315.632500", "194316.092500", "194316.552500", "194317.012500", "194317.472500", "194317.932500", "194318.392500", "194318.852500", "194319.312500", "194319.772500", "194320.232500", "194320.692500", "194321.152500", "194321.612500", "194322.072500", "194322.532500", "194322.992500", "194323.452500", "194323.912500", "194324.372500", "194324.832500", "194325.292500", "194325.752500", "194326.212500", "194326.672500", "194327.132500", "194327.592500", "194328.052500", "194328.512500", "194328.972500", "194329.432500", "194329.892500", "194330.352500", "194330.812500", "194331.272500", "194331.732500", "194332.192500", "194332.652500", "194333.112500", "194333.572500", "194334.032500", "194334.492500", "194334.952500", "194335.412500", "194335.872500", "194336.332500", "194336.792500", "194337.252500", "194337.712500", "194338.172500", "194338.632500", "194339.092500", "194339.552500", "194340.012500", "194340.472500", "194340.932500", "194341.392500", "194341.852500", "194342.312500", "194342.772500", "194343.232500", "194343.692500", "194344.152500", "194344.612500", "194345.072500", "194345.532500", "194345.992500", "194346.452500", "194346.912500", "194347.372500", "194347.832500", "194348.292500", "194348.752500", "194349.212500", "194349.672500", "194350.132500", "194350.592500", "194351.052500", "194351.512500", "194351.972500", "194352.432500", "194352.892500", "194353.352500", "194353.812500", "194354.272500", "194354.732500", "194355.192500", "194355.652500", "194356.112500", "194356.572500", "194357.032500", "194357.492500", "194357.952500", "194358.412500", "194358.872500", "194359.332500", "194359.792500", "194400.252500", "194400.712500", "194401.172500", "194401.632500", "194402.092500", "194402.552500", "194403.012500", "194403.472500", "194403.932500", "194404.392500", "194404.852500", "194405.312500", "194405.772500", "194406.232500", "194406.692500", "194407.152500", "194407.612500", "194408.072500", "194408.532500", "194408.992500", "194409.452500", "194409.912500", "194410.372500", "194410.832500", "194411.292500", "194411.752500", "194412.212500", "194412.672500", "194413.132500", "194413.592500", "194414.052500", "194414.512500", "194414.972500", "194415.432500", "194415.892500", "194416.352500", "194416.812500", "194417.272500", "194417.732500", "194418.192500", "194418.652500", "194419.112500", "194419.572500", "194420.032500", "194420.492500", "194420.952500", "194421.412500", "194421.872500", "194422.332500", "194422.792500", "194423.252500", "194423.712500", "194424.172500", "194424.632500", "194425.092500", "194425.552500", "194426.012500", "194426.472500", "194426.932500", "194427.392500", "194427.852500", "194428.312500", "194428.772500", "194429.232500", "194429.692500", "194430.152500", "194430.612500", "194431.072500", "194431.532500", "194431.992500", "194432.452500", "194432.912500", "194433.372500", "194433.832500", "194434.292500", "194434.752500", "194435.212500", "194435.672500", "194436.132500", "194436.592500", "194437.052500", "194437.512500", "194437.972500", "194438.432500", "194438.892500", "194439.352500", "194439.812500", "194440.272500", "194440.732500", "194441.192500", "194441.652500", "194442.112500", "194442.572500", "194443.032500", "194443.492500", "194443.952500", "194444.412500", "194444.872500", "194445.332500", "194445.792500", "194446.252500", "194446.712500", "194447.172500", "194447.632500", "194448.092500", "194448.552500", "194449.012500", "194449.472500", "194449.932500", "194450.392500", "194450.852500", "194451.312500", "194451.772500", "194452.232500", "194452.692500", "194453.152500", "194453.612500", "194454.072500", "194454.532500", "194454.992500", "194455.452500", "194455.912500", "194456.372500", "194456.832500", "194457.292500", "194457.752500", "194458.212500", "194458.672500", "194459.132500", "194459.592500", "194500.052500", "194500.512500", "194500.972500", "194501.432500", "194501.892500", "194502.352500", "194502.812500", "194503.272500", "194503.732500", "194504.192500", "194504.652500", "194505.112500", "194505.572500", "194506.032500", "194506.492500", "194506.952500", "194507.412500", "194507.872500", "194508.332500", "194508.792500", "194509.252500", "194509.712500", "194510.172500", "194510.632500", "194511.092500", "194511.552500", "194512.012500", "194512.472500", "194512.932500", "194513.392500", "194513.852500", "194514.312500", "194514.772500", "194515.232500", "194515.692500", "194516.152500", "194516.612500", "194517.072500", "194517.532500", "194517.992500", "194518.452500", "194518.912500", "194519.372500", "194519.832500", "194520.292500", "194520.752500", "194521.212500", "194521.672500", "194522.132500", "194522.592500", "194523.052500", "194523.512500", "194523.972500", "194524.432500", "194524.892500", "194525.352500", "194525.812500", "194526.272500", "194526.732500", "194527.192500", "194527.652500", "194528.112500", "194528.572500", "194529.032500", "194529.492500", "194529.952500", "194530.412500", "194530.872500", "194531.332500", "194531.792500", "194532.252500", "194532.712500", "194533.172500", "194533.632500", "194534.092500", "194534.552500", "194535.012500", "194535.472500", "194535.932500", "194536.392500", "194536.852500", "194537.312500", "194537.772500", "194538.232500", "194538.692500", "194539.152500", "194539.612500", "194540.072500", "194540.532500", "194540.992500", "194541.452500", "194541.912500", "194542.372500", "194542.832500", "194543.292500", "194543.752500", "194544.212500", "194544.672500", "194545.132500", "194545.592500", "194546.052500", "194546.512500", "194546.972500", "194547.432500", "194547.892500", "194548.352500", "194548.812500", "194549.272500", "194549.732500", "194550.192500", "194550.652500", "194551.112500", "194551.572500", "194552.032500", "194552.492500", "194552.952500", "194553.412500", "194553.872500", "194554.332500", "194554.792500", "194555.252500", "194555.712500", "194556.172500", "194556.632500", "194557.092500", "194557.552500", "194558.012500", "194558.472500", "194558.932500", "194559.392500", "194559.852500", "194600.312500", "194600.772500", "194601.232500", "194601.692500", "194602.152500", "194602.612500", "194603.072500", "194603.532500", "194603.992500", "194604.452500", "194604.912500", "194605.372500", "194605.832500", "194606.292500", "194606.752500", "194607.212500", "194607.672500", "194608.132500", "194608.592500", "194609.052500", "194609.512500", "194609.972500", "194610.432500", "194610.892500", "194611.352500", "194611.812500", "194612.272500", "194612.732500", "194613.192500", "194613.652500", "194614.112500", "194614.572500", "194615.032500", "194615.492500", "194615.952500", "194616.412500", "194616.872500", "194617.332500", "194617.792500", "194618.252500", "194618.712500", "194619.172500", "194619.632500", "194620.092500", "194620.552500", "194621.012500", "194621.472500", "194621.932500", "194622.392500", "194622.852500", "194623.312500", "194623.772500", "194624.232500", "194624.692500", "194625.152500", "194625.612500", "194626.072500", "194626.532500", "194626.992500", "194627.452500", "194627.912500", "194628.372500", "194628.832500", "194629.292500", "194629.752500", "194630.212500", "194630.672500", "194631.132500", "194631.592500", "194632.052500", "194632.512500", "194632.972500", "194633.432500", "194633.892500", "194634.352500", "194634.812500", "194635.272500", "194635.732500", "194636.192500", "194636.652500", "194637.112500", "194637.572500", "194638.032500", "194638.492500", "194638.952500", "194639.412500", "194639.872500", "194640.332500", "194640.792500", "194641.252500", "194641.712500", "194642.172500", "194642.632500", "194643.092500", "194643.552500", "194644.012500", "194644.472500", "194644.932500", "194645.392500", "194645.852500", "194646.312500", "194646.772500", "194647.232500", "194647.692500", "194648.152500", "194648.612500", "194649.072500", "194649.532500", "194649.992500", "194650.452500", "194650.912500", "194651.372500", "194651.832500", "194652.292500", "194652.752500", "194653.212500", "194653.672500", "194654.132500", "194654.592500", "194655.052500", "194655.512500", "194655.972500", "194656.432500", "194656.892500", "194657.352500", "194657.812500", "194658.272500", "194658.732500", "194659.192500", "194659.652500", "194700.112500", "194700.572500", "194701.032500", "194701.492500", "194701.952500", "194702.412500", "194702.872500", "194703.332500", "194703.792500", "194704.252500", "194704.712500", "194705.172500", "194705.632500", "194706.092500", "194706.552500", "194707.012500", "194707.472500", "194707.932500", "194708.392500", "194708.852500", "194709.312500", "194709.772500", "194710.232500", "194710.692500", "194711.152500", "194711.612500", "194712.072500", "194712.532500", "194712.992500", "194713.452500", "194713.912500", "194714.372500", "194714.832500", "194715.292500", "194715.752500", "194716.212500", "194716.672500", "194717.132500", "194717.592500", "194718.052500", "194718.512500", "194718.972500", "194719.432500", "194719.892500", "194720.352500", "194720.812500", "194721.272500", "194721.732500", "194722.192500", "194722.652500", "194723.112500", "194723.572500", "194724.032500", "194724.492500", "194724.952500", "194725.412500", "194725.872500", "194726.332500", "194726.792500", "194727.252500", "194727.712500", "194728.172500", "194728.632500", "194729.092500", "194729.552500", "194730.012500", "194730.472500", "194730.932500", "194731.392500", "194731.852500", "194732.312500", "194732.772500", "194733.232500", "194733.692500", "194734.152500", "194734.612500", "194735.072500", "194735.532500", "194735.992500", "194736.452500", "194736.912500", "194737.372500", "194737.832500", "194738.292500", "194738.752500", "194739.212500", "194739.672500", "194740.132500", "194740.592500", "194741.052500", "194741.512500", "194741.972500", "194742.432500", "194742.892500", "194743.352500", "194743.812500", "194744.272500", "194744.732500", "194745.192500", "194745.652500", "194746.112500", "194746.572500", "194747.032500", "194747.492500", "194747.952500", "194748.412500", "194748.872500", "194749.332500", "194749.792500", "194750.252500", "194750.712500", "194751.172500", "194751.632500", "194752.092500", "194752.552500", "194753.012500", "194753.472500", "194753.932500", "194754.392500", "194754.852500", "194755.312500", "194755.772500", "194756.232500", "194756.692500", "194757.152500", "194757.612500", "194758.072500", "194758.532500", "194758.992500", "194759.452500", "194759.912500", "194800.372500", "194800.832500", "194801.292500", "194801.752500", "194802.212500", "194802.672500", "194803.132500", "194803.592500", "194804.052500", "194804.512500", "194804.972500", "194805.432500", "194805.892500", "194806.352500", "194806.812500", "194807.272500", "194807.732500", "194808.192500", "194808.652500", "194809.112500", "194809.572500", "194810.032500", "194810.492500", "194810.952500", "194811.412500", "194811.872500", "194812.332500", "194812.792500", "194813.252500", "194813.712500", "194814.172500", "194814.632500", "194815.092500", "194815.552500", "194816.012500", "194816.472500", "194816.932500", "194817.392500", "194817.852500", "194818.312500", "194818.772500", "194819.232500", "194819.692500", "194820.152500", "194820.612500", "194821.072500", "194821.532500", "194821.992500", "194822.452500", "194822.912500", "194823.372500", "194823.832500", "194824.292500", "194824.752500", "194825.212500", "194825.672500", "194826.132500", "194826.592500", "194827.052500", "194827.512500", "194827.972500", "194828.432500", "194828.892500", "194829.352500", "194829.812500", "194830.272500", "194830.732500", "194831.192500", "194831.652500", "194832.112500", "194832.572500", "194833.032500", "194833.492500", "194833.952500", "194834.412500", "194834.872500", "194835.332500", "194835.792500", "194836.252500", "194836.712500", "194837.172500", "194837.632500"],
