{
  "AcquisitionMatrixPE": 140,
  "AcquisitionNumber": 1,
  "AcquisitionTime": "17:58:7.992500",
  "BandwidthPerPixelPhaseEncode": 10.352,
  "BaseResolution": 140,
  "BodyPartExamined": "BRAIN",
  "ConsistencyInfo": "N4_VE11E_LATEST_20181129",
  "ConversionSoftware": "dcm2niix",
  "ConversionSoftwareVersion": "v1.0.20201102",
  "DerivedVendorReportedEchoSpacing": 0.000689998,
  "DeviceSerialNumber": "66112",
  "DiffusionScheme": "Monopolar",
  "DwellTime": 2.1e-06,
  "EchoTime": 0.088,
  "EchoTrainLength": 105,
  "EffectiveEchoSpacing": 0.000689998,
  "FlipAngle": 90,
  "ImageComments": "Unaliased MB3/PE3",
  "ImageOrientationPatientDICOM": [0.995709, -0.0166274, 0.0910335, 0.0196401, 0.999285, -0.0322993],
  "ImageType": [
    "ORIGINAL",
    "PRIMARY",
    "DIFFUSION",
    "NONE",
    "MB",
    "ND"
],
  "ImagingFrequency": 123.252,
  "InPlanePhaseEncodingDirectionDICOM": "COL",
  "InstitutionAddress": "Maynard 3,Hanover,NH,US,03755",
  "InstitutionName": "Dartmouth College - PBS",
  "InstitutionalDepartmentName": "Department",
  "IntendedFor": [
    "ses-01/dwi/sub-0030_ses-01_acq-96dirX6b0Xmb_dwi.nii.gz"
],
  "MRAcquisitionType": "2D",
  "MagneticFieldStrength": 3,
  "Manufacturer": "Siemens",
  "ManufacturersModelName": "Prisma",
  "Modality": "MR",
  "MultibandAccelerationFactor": 3,
  "PartialFourier": 0.75,
  "PatientPosition": "HFS",
  "PercentPhaseFOV": 100,
  "PercentSampling": 100,
  "PhaseEncodingDirection": "j-",
  "PhaseEncodingSteps": 105,
  "PhaseResolution": 1,
  "PixelBandwidth": 1700,
  "ProcedureStepDescription": "Wager_Wager^1076_spacetop",
  "ProtocolName": "dwi_acq-discorr-AP",
  "PulseSequenceDetails": "%CustomerSeq%\\cmrr_mbep2d_diff",
  "ReceiveCoilActiveElements": "HEA;HEP",
  "ReceiveCoilName": "Head_32",
  "ReconMatrixPE": 140,
  "RepetitionTime": 4.1,
  "SAR": 0.166827,
  "ScanOptions": "PFP\\FS",
  "ScanningSequence": "EP",
  "SequenceName": "ep_b0",
  "SequenceVariant": "SK\\SS",
  "SeriesDescription": "dwi_acq-discorr-AP",
  "SeriesNumber": 7,
  "ShimSetting": [4173, -7681, -7252, 368, -173, -487, -61, 99],
  "SliceThickness": 1.7,
  "SliceTiming": [0, 2.10938, 0.14062, 2.25, 0.29688, 2.40625, 0.4375, 2.5625, 0.59375, 2.71875, 0.75, 2.85938, 0.89062, 3.01562, 1.04688, 3.17188, 1.20312, 3.3125, 1.35938, 3.46875, 1.5, 3.625, 1.65625, 3.76562, 1.8125, 3.92188, 1.95312, 0, 2.10938, 0.14062, 2.25, 0.29688, 2.40625, 0.4375, 2.5625, 0.59375, 2.71875, 0.75, 2.85938, 0.89062, 3.01562, 1.04688, 3.17188, 1.20312, 3.3125, 1.35938, 3.46875, 1.5, 3.625, 1.65625, 3.76562, 1.8125, 3.92188, 1.95312, 0, 2.10938, 0.14062, 2.25, 0.29688, 2.40625, 0.4375, 2.5625, 0.59375, 2.71875, 0.75, 2.85938, 0.89062, 3.01562, 1.04688, 3.17188, 1.20312, 3.3125, 1.35938, 3.46875, 1.5, 3.625, 1.65625, 3.76562, 1.8125, 3.92188, 1.95312],
  "SoftwareVersions": "syngo MR E11",
  "SpacingBetweenSlices": 1.7,
  "StationName": "AWP66112",
  "TotalReadoutTime": 0.0959097,
  "TxRefAmp": 255.309,
  "WipMemBlock": "9217fa27-5665-4078-8cd6-7aaaa27592cc||Sequence: R016 ve11e/master r/434b28f1; Aug  7 2019 19:06:17 by eja",
  "dcmmeta_affine": [
    [-1.7069298028945923, 0.03366880118846893, 0.1537332534790039, 112.7447738647461],
    [0.028504161164164543, 1.7130604982376099, -0.057712554931640625, -93.36253356933594],
    [0.1560574471950531, 0.05537014827132225, 1.6920509338378906, -128.43096923828125],
    [0.0, 0.0, 0.0, 1.0]
],
  "dcmmeta_reorient_transform": [
    [0.0, -1.0, 0.0, 139.0],
    [1.0, 0.0, 0.0, 0.0],
    [0.0, 0.0, -1.0, 80.0],
    [0.0, 0.0, 0.0, 1.0]
],
  "dcmmeta_shape": [140, 140, 81],
  "dcmmeta_slice_dim": 2,
  "dcmmeta_version": 0.6,
  "global": {
    "const": {
      "AccessionNumber": "A003887",
      "AcquisitionMatrix": [140, 0, 0, 140],
      "AcquisitionNumber": 1,
      "AngioFlag": "N",
      "BitsAllocated": 16,
      "BitsStored": 16,
      "BodyPartExamined": "BRAIN",
      "Columns": 140,
      "EchoNumbers": 1,
      "EchoTime": 88.0,
      "EchoTrainLength": 105,
      "FlipAngle": 90.0,
      "HighBit": 15,
      "ImageOrientationPatient": [0.99570900790967, -0.0166274272046, 0.09103351158828, 0.01964013299947, 0.99928525626272, -0.0322992537331],
      "ImageType": [
        "ORIGINAL",
        "PRIMARY",
        "DIFFUSION",
        "NONE",
        "MB",
        "ND"
],
      "ImagedNucleus": "1H",
      "ImagingFrequency": 123.25222,
      "InPlanePhaseEncodingDirection": "COL",
      "MRAcquisitionType": "2D",
      "MagneticFieldStrength": 3.0,
      "Manufacturer": "SIEMENS",
      "ManufacturerModelName": "Prisma",
      "Modality": "MR",
      "NumberOfAverages": 1.0,
      "NumberOfPhaseEncodingSteps": 105,
      "PercentPhaseFieldOfView": 100.0,
      "PercentSampling": 100.0,
      "PerformedProcedureStepStartTime": "174248.157000",
      "PhotometricInterpretation": "MONOCHROME2",
      "PixelBandwidth": 1700.0,
      "PixelRepresentation": 0,
      "PixelSpacing": [1.7142857313156, 1.7142857313156],
      "ProtocolName": "dwi_acq-discorr-AP",
      "RepetitionTime": 4100.0,
      "Rows": 140,
      "SAR": 0.16682718682347,
      "SamplesPerPixel": 1,
      "ScanOptions": [
        "PFP",
        "FS"
],
      "ScanningSequence": "EP",
      "SequenceName": "ep_b0",
      "SequenceVariant": [
        "SK",
        "SS"
],
      "SeriesDescription": "dwi_acq-discorr-AP",
      "SeriesNumber": 7,
      "SeriesTime": "175813.023000",
      "SliceThickness": 1.7000000476837,
      "SmallestImagePixelValue": 0,
      "SoftwareVersions": "syngo MR E11",
      "SpacingBetweenSlices": 1.7,
      "SpecificCharacterSet": "ISO_IR 100",
      "StudyID": "1",
      "StudyTime": "174248.032000",
      "TransmitCoilName": "Body",
      "VariableFlipAngleFlag": "N",
      "WindowCenterWidthExplanation": "Algo1"
    },
    "slices": {
      "AcquisitionTime": ["175807.992500", "175810.107500", "175808.142500", "175810.257500", "175808.295000", "175810.410000", "175808.445000", "175810.560000", "175808.595000", "175810.712500", "175808.747500", "175810.862500", "175808.897500", "175811.012500", "175809.050000", "175811.165000", "175809.200000", "175811.315000", "175809.352500", "175811.467500", "175809.502500", "175811.617500", "175809.652500", "175811.770000", "175809.805000", "175811.920000", "175809.955000", "175807.992500", "175810.107500", "175808.142500", "175810.257500", "175808.295000", "175810.410000", "175808.445000", "175810.560000", "175808.595000", "175810.712500", "175808.747500", "175810.862500", "175808.897500", "175811.012500", "175809.050000", "175811.165000", "175809.200000", "175811.315000", "175809.352500", "175811.467500", "175809.502500", "175811.617500", "175809.652500", "175811.770000", "175809.805000", "175811.920000", "175809.955000", "175807.992500", "175810.107500", "175808.142500", "175810.257500", "175808.295000", "175810.410000", "175808.445000", "175810.560000", "175808.595000", "175810.712500", "175808.747500", "175810.862500", "175808.897500", "175811.012500", "175809.050000", "175811.165000", "175809.200000", "175811.315000", "175809.352500", "175811.467500", "175809.502500", "175811.617500", "175809.652500", "175811.770000", "175809.805000", "175811.920000", "175809.955000"],
      "ContentTime": ["175813.025000", "175813.111000", "175813.032000", "175813.116000", "175813.038000", "175813.122000", "175813.044000", "175813.130000", "175813.050000", "175813.137000", "175813.056000", "175813.143000", "175813.062000", "175813.150000", "175813.070000", "175813.157000", "175813.076000", "175813.163000", "175813.081000", "175813.169000", "175813.087000", "175813.175000", "175813.093000", "175813.182000", "175813.099000", "175813.188000", "175813.105000", "175813.028000", "175813.113000", "175813.034000", "175813.118000", "175813.040000", "175813.124000", "175813.046000", "175813.132000", "175813.052000", "175813.139000", "175813.058000", "175813.145000", "175813.064000", "175813.153000", "175813.072000", "175813.159000", "175813.077000", "175813.165000", "175813.083000", "175813.171000", "175813.089000", "175813.177000", "175813.095000", "175813.184000", "175813.101000", "175813.190000", "175813.107000", "175813.030000", "175813.114000", "175813.036000", "175813.120000", "175813.042000", "175813.127000", "175813.048000", "175813.135000", "175813.054000", "175813.141000", "175813.060000", "175813.148000", "175813.068000", "175813.155000", "175813.074000", "175813.161000", "175813.079000", "175813.167000", "175813.085000", "175813.173000", "175813.091000", "175813.180000", "175813.097000", "175813.186000", "175813.103000", "175813.192000", "175813.109000"],
      "CsaImage.GSWDDataType": [
        "predicted",
        "predicted",
        "predicted",
        "predicted",
        "predicted",
        "predicted",
        "predicted",
        "predicted",
        "predicted",
        "predicted",
        "predicted",
        "predicted",
        "predicted",
        "predicted",
        "predicted",
        "predicted",
        "predicted",
        "predicted",
        "predicted",
        "predicted",
        "predicted",
        "predicted",
        "predicted",
        "measured",
        "predicted",
        "measured",
        "predicted",
        "predicted",
        "predicted",
        "predicted",
        "predicted",
        "predicted",
        "predicted",
        "predicted",
        "predicted",
        "predicted",
        "predicted",
        "predicted",
        "predicted",
        "predicted",
        "predicted",
        "predicted",
        "predicted",
        "predicted",
        "predicted",
        "predicted",
        "predicted",
        "predicted",
        "predicted",
        "predicted",
        "measured",
        "predicted",
        "measured",
        "predicted",
        "predicted",
        "predicted",
        "predicted",
        "predicted",
        "predicted",
        "predicted",
        "predicted",
        "predicted",
        "predicted",
        "predicted",
        "predicted",
        "predicted",
        "predicted",
        "predicted",
        "predicted",
        "predicted",
        "predicted",
        "predicted",
        "predicted",
        "predicted",
        "predicted",
        "predicted",
        "predicted",
        "measured",
        "predicted",
        "measured",
        "predicted"
],
      "CsaImage.ICE_Dims": [
        "X_1_1_1_1_1_1_1_1_1_1_1_140",
        "X_1_1_1_1_1_1_42_1_1_2_1_140",
        "X_1_1_1_1_1_1_2_1_1_3_1_140",
        "X_1_1_1_1_1_1_43_1_1_4_1_140",
        "X_1_1_1_1_1_1_3_1_1_5_1_140",
        "X_1_1_1_1_1_1_44_1_1_6_1_140",
        "X_1_1_1_1_1_1_4_1_1_7_1_140",
        "X_1_1_1_1_1_1_45_1_1_8_1_140",
        "X_1_1_1_1_1_1_5_1_1_9_1_140",
        "X_1_1_1_1_1_1_46_1_1_10_1_140",
        "X_1_1_1_1_1_1_6_1_1_11_1_140",
        "X_1_1_1_1_1_1_47_1_1_12_1_140",
        "X_1_1_1_1_1_1_7_1_1_13_1_140",
        "X_1_1_1_1_1_1_48_1_1_14_1_140",
        "X_1_1_1_1_1_1_8_1_1_15_1_140",
        "X_1_1_1_1_1_1_49_1_1_16_1_140",
        "X_1_1_1_1_1_1_9_1_1_17_1_140",
        "X_1_1_1_1_1_1_50_1_1_18_1_140",
        "X_1_1_1_1_1_1_10_1_1_19_1_140",
        "X_1_1_1_1_1_1_51_1_1_20_1_140",
        "X_1_1_1_1_1_1_11_1_1_21_1_140",
        "X_1_1_1_1_1_1_52_1_1_22_1_140",
        "X_1_1_1_1_1_1_12_1_1_23_1_140",
        "X_1_1_1_1_1_1_53_1_1_24_1_140",
        "X_1_1_1_1_1_1_13_1_1_25_1_140",
        "X_1_1_1_1_1_1_54_1_1_26_1_140",
        "X_1_1_1_1_1_1_14_1_1_27_1_140",
        "X_1_1_1_1_1_1_55_1_1_28_1_140",
        "X_1_1_1_1_1_1_15_1_1_29_1_140",
        "X_1_1_1_1_1_1_56_1_1_30_1_140",
        "X_1_1_1_1_1_1_16_1_1_31_1_140",
        "X_1_1_1_1_1_1_57_1_1_32_1_140",
        "X_1_1_1_1_1_1_17_1_1_33_1_140",
        "X_1_1_1_1_1_1_58_1_1_34_1_140",
        "X_1_1_1_1_1_1_18_1_1_35_1_140",
        "X_1_1_1_1_1_1_59_1_1_36_1_140",
        "X_1_1_1_1_1_1_19_1_1_37_1_140",
        "X_1_1_1_1_1_1_60_1_1_38_1_140",
        "X_1_1_1_1_1_1_20_1_1_39_1_140",
        "X_1_1_1_1_1_1_61_1_1_40_1_140",
        "X_1_1_1_1_1_1_21_1_1_41_1_140",
        "X_1_1_1_1_1_1_62_1_1_42_1_140",
        "X_1_1_1_1_1_1_22_1_1_43_1_140",
        "X_1_1_1_1_1_1_63_1_1_44_1_140",
        "X_1_1_1_1_1_1_23_1_1_45_1_140",
        "X_1_1_1_1_1_1_64_1_1_46_1_140",
        "X_1_1_1_1_1_1_24_1_1_47_1_140",
        "X_1_1_1_1_1_1_65_1_1_48_1_140",
        "X_1_1_1_1_1_1_25_1_1_49_1_140",
        "X_1_1_1_1_1_1_66_1_1_50_1_140",
        "X_1_1_1_1_1_1_26_1_1_51_1_140",
        "X_1_1_1_1_1_1_67_1_1_52_1_140",
        "X_1_1_1_1_1_1_27_1_1_53_1_140",
        "X_1_1_1_1_1_1_68_1_1_54_1_140",
        "X_1_1_1_1_1_1_28_1_1_55_1_140",
        "X_1_1_1_1_1_1_69_1_1_56_1_140",
        "X_1_1_1_1_1_1_29_1_1_57_1_140",
        "X_1_1_1_1_1_1_70_1_1_58_1_140",
        "X_1_1_1_1_1_1_30_1_1_59_1_140",
        "X_1_1_1_1_1_1_71_1_1_60_1_140",
        "X_1_1_1_1_1_1_31_1_1_61_1_140",
        "X_1_1_1_1_1_1_72_1_1_62_1_140",
        "X_1_1_1_1_1_1_32_1_1_63_1_140",
        "X_1_1_1_1_1_1_73_1_1_64_1_140",
        "X_1_1_1_1_1_1_33_1_1_65_1_140",
        "X_1_1_1_1_1_1_74_1_1_66_1_140",
        "X_1_1_1_1_1_1_34_1_1_67_1_140",
        "X_1_1_1_1_1_1_75_1_1_68_1_140",
        "X_1_1_1_1_1_1_35_1_1_69_1_140",
        "X_1_1_1_1_1_1_76_1_1_70_1_140",
        "X_1_1_1_1_1_1_36_1_1_71_1_140",
        "X_1_1_1_1_1_1_77_1_1_72_1_140",
        "X_1_1_1_1_1_1_37_1_1_73_1_140",
        "X_1_1_1_1_1_1_78_1_1_74_1_140",
        "X_1_1_1_1_1_1_38_1_1_75_1_140",
        "X_1_1_1_1_1_1_79_1_1_76_1_140",
        "X_1_1_1_1_1_1_39_1_1_77_1_140",
        "X_1_1_1_1_1_1_80_1_1_78_1_140",
        "X_1_1_1_1_1_1_40_1_1_79_1_140",
        "X_1_1_1_1_1_1_81_1_1_80_1_140",
        "X_1_1_1_1_1_1_41_1_1_81_1_140"
],
      "CsaImage.ProtocolSliceNumber": [0, 1, 2, 3, 4, 5, 6, 7, 8, 9, 10, 11, 12, 13, 14, 15, 16, 17, 18, 19, 20, 21, 22, 23, 24, 25, 26, 27, 28, 29, 30, 31, 32, 33, 34, 35, 36, 37, 38, 39, 40, 41, 42, 43, 44, 45, 46, 47, 48, 49, 50, 51, 52, 53, 54, 55, 56, 57, 58, 59, 60, 61, 62, 63, 64, 65, 66, 67, 68, 69, 70, 71, 72, 73, 74, 75, 76, 77, 78, 79, 80],
      "CsaImage.RFSWDDataType": [
        "predicted",
        "predicted",
        "predicted",
        "predicted",
        "predicted",
        "predicted",
        "predicted",
        "predicted",
        "predicted",
        "predicted",
        "predicted",
        "predicted",
        "predicted",
        "predicted",
        "predicted",
        "predicted",
        "predicted",
        "predicted",
        "predicted",
        "predicted",
        "predicted",
        "predicted",
        "predicted",
        "measured",
        "predicted",
        "measured",
        "predicted",
        "predicted",
        "predicted",
        "predicted",
        "predicted",
        "predicted",
        "predicted",
        "predicted",
        "predicted",
        "predicted",
        "predicted",
        "predicted",
        "predicted",
        "predicted",
        "predicted",
        "predicted",
        "predicted",
        "predicted",
        "predicted",
        "predicted",
        "predicted",
        "predicted",
        "predicted",
        "predicted",
        "measured",
        "predicted",
        "measured",
        "predicted",
        "predicted",
        "predicted",
        "predicted",
        "predicted",
        "predicted",
        "predicted",
        "predicted",
        "predicted",
        "predicted",
        "predicted",
        "predicted",
        "predicted",
        "predicted",
        "predicted",
        "predicted",
        "predicted",
        "predicted",
        "predicted",
        "predicted",
        "predicted",
        "predicted",
        "predicted",
        "predicted",
        "measured",
        "predicted",
        "measured",
        "predicted"
],
      "CsaImage.SlicePosition_PCS": [
        [-117.42472473, -144.75287163, -120.73449712],
        [-117.57845799, -144.69515907, -119.04245],
        [-117.73219124, -144.63744652, -117.35040288],
        [-117.88592473, -144.57973396, -115.65834813],
        [-118.03965799, -144.52202141, -113.96630102],
        [-118.19339148, -144.46430885, -112.27424627],
        [-118.34712473, -144.4065963, -110.58219915],
        [-118.50085822, -144.34888374, -108.8901444],
        [-118.65459148, -144.29117119, -107.19809728],
        [-118.80832497, -144.23345863, -105.50604253],
        [-118.96205822, -144.17574608, -103.81399541],
        [-119.11579171, -144.11803352, -102.12194066],
        [-119.26952497, -144.06032097, -100.42989354],
        [-119.42325846, -144.00260841, -98.73784643],
        [-119.57699171, -143.94489586, -97.04579168],
        [-119.7307252, -143.8871833, -95.35374456],
        [-119.88445846, -143.82947075, -93.66168981],
        [-120.03819183, -143.77175819, -91.96964269],
        [-120.1919252, -143.71404564, -90.27758794],
        [-120.34565858, -143.65633308, -88.58554082],
        [-120.49939195, -143.59862053, -86.89348607],
        [-120.65312532, -143.54090797, -85.20143895],
        [-120.80685869, -143.48319542, -83.50938421],
        [-120.96059207, -143.42548286, -81.81733709],
        [-121.11432538, -143.36777031, -80.12528234],
        [-121.26805875, -143.31005775, -78.43323522],
        [-121.42179216, -143.2523452, -76.7411881],
        [-121.5755255, -143.19463264, -75.04913335],
        [-121.72925888, -143.13692009, -73.35708623],
        [-121.88299225, -143.07920753, -71.66503148],
        [-122.03672562, -143.02149498, -69.97298055],
        [-122.19045899, -142.96378242, -68.28093343],
        [-122.34419236, -142.90606987, -66.5888825],
        [-122.49792573, -142.84835731, -64.89683156],
        [-122.65165911, -142.79064476, -63.20478063],
        [-122.80539248, -142.73293221, -61.5127297],
        [-122.95912579, -142.67521965, -59.82067876],
        [-123.11285917, -142.6175071, -58.12862783],
        [-123.26659254, -142.55979454, -56.43657689],
        [-123.42032591, -142.50208199, -54.74452596],
        [-123.57405928, -142.44436943, -53.05247503],
        [-123.72779266, -142.38665688, -51.36042409],
        [-123.88152591, -142.32894432, -49.66837316],
        [-124.0352594, -142.27123177, -47.97632222],
        [-124.18899266, -142.21351921, -46.28427511],
        [-124.34272615, -142.15580666, -44.59222417],
        [-124.4964594, -142.0980941, -42.90017324],
        [-124.65019289, -142.04038155, -41.2081223],
        [-124.80392615, -141.98266899, -39.51607137],
        [-124.95765964, -141.92495644, -37.82402044],
        [-125.11139289, -141.86724388, -36.1319695],
        [-125.26512638, -141.80953133, -34.43991857],
        [-125.41885964, -141.75181877, -32.74786763],
        [-125.57259313, -141.69410622, -31.05581861],
        [-125.72632638, -141.63639366, -29.36376767],
        [-125.88005987, -141.57868111, -27.67171674],
        [-126.03379313, -141.52096855, -25.97966581],
        [-126.18752638, -141.463256, -24.28761487],
        [-126.34126011, -141.40554344, -22.59556489],
        [-126.49499336, -141.34783089, -20.90351396],
        [-126.64872662, -141.29011833, -19.21146398],
        [-126.80245987, -141.23240578, -17.51941305],
        [-126.9561936, -141.17469322, -15.82736211],
        [-127.10992686, -141.11698067, -14.13531165],
        [-127.26366011, -141.05926811, -12.4432612],
        [-127.41739336, -141.00155556, -10.7512105],
        [-127.57112662, -140.943843, -9.05915981],
        [-127.72486035, -140.88613045, -7.36710914],
        [-127.8785936, -140.82841789, -5.67505853],
        [-128.03232685, -140.77070534, -3.98300796],
        [-128.18606011, -140.71299278, -2.2909575],
        [-128.33979384, -140.65528023, -0.59890657],
        [-128.49352709, -140.59756767, 1.09314437],
        [-128.64726034, -140.53985512, 2.78519435],
        [-128.8009936, -140.48214256, 4.47724528],
        [-128.95472733, -140.42443001, 6.16929621],
        [-129.10846058, -140.36671745, 7.86134619],
        [-129.26219383, -140.3090049, 9.55339617],
        [-129.41592709, -140.25129234, 11.24544711],
        [-129.56966082, -140.19357979, 12.93749804],
        [-129.72339407, -140.13586723, 14.62954898]
],
      "CsaImage.TimeAfterStart": [16.4, 18.5175, 16.5525, 18.6675, 16.7025, 18.82, 16.855, 18.97, 17.005, 19.12, 17.1575, 19.2725, 17.3075, 19.4225, 17.46, 19.575, 17.61, 19.725, 17.76, 19.8775, 17.9125, 20.0275, 18.0625, 20.18, 18.215, 20.33, 18.365, 16.4, 18.5175, 16.5525, 18.6675, 16.7025, 18.82, 16.855, 18.97, 17.005, 19.12, 17.1575, 19.2725, 17.3075, 19.4225, 17.46, 19.575, 17.61, 19.725, 17.76, 19.8775, 17.9125, 20.0275, 18.0625, 20.18, 18.215, 20.33, 18.365, 16.4, 18.5175, 16.5525, 18.6675, 16.7025, 18.82, 16.855, 18.97, 17.005, 19.12, 17.1575, 19.2725, 17.3075, 19.4225, 17.46, 19.575, 17.61, 19.725, 17.76, 19.8775, 17.9125, 20.0275, 18.0625, 20.18, 18.215, 20.33, 18.365],
      "ImagePositionPatient": [
        [-117.42472473387, -144.75287162764, -120.73449712103],
        [-117.57845798735, -144.6951590727, -119.04245000189],
        [-117.73219124083, -144.63744651777, -117.35040288275],
        [-117.88592473272, -144.57973396284, -115.65834813422],
        [-118.0396579862, -144.52202140791, -113.96630101508],
        [-118.1933914781, -144.46430885298, -112.27424626654],
        [-118.34712473158, -144.40659629805, -110.5821991474],
        [-118.50085822348, -144.34888374311, -108.89014439887],
        [-118.65459147696, -144.29117118818, -107.19809727973],
        [-118.80832496885, -144.23345863325, -105.50604253119],
        [-118.96205822233, -144.17574607832, -103.81399541205],
        [-119.11579171423, -144.11803352339, -102.12194066351],
        [-119.26952496771, -144.06032096846, -100.42989354437],
        [-119.42325845961, -144.00260841352, -98.737846425233],
        [-119.57699171308, -143.94489585859, -97.045791676698],
        [-119.73072520498, -143.88718330366, -95.353744557558],
        [-119.88445845846, -143.82947074873, -93.661689809022],
        [-120.03819183115, -143.7717581938, -91.969642689882],
        [-120.19192520384, -143.71404563887, -90.277587941347],
        [-120.34565857653, -143.65633308393, -88.585540822206],
        [-120.49939194921, -143.598620529, -86.893486073671],
        [-120.6531253219, -143.54090797407, -85.20143895453],
        [-120.80685869459, -143.48319541914, -83.509384205995],
        [-120.96059206728, -143.42548286421, -81.817337086854],
        [-121.11432538036, -143.36777030928, -80.125282338319],
        [-121.26805875305, -143.31005775434, -78.433235219179],
        [-121.42179215554, -143.25234519941, -76.741188100038],
        [-121.57552549843, -143.19463264448, -75.049133351503],
        [-121.72925887857, -143.13692008955, -73.357086232362],
        [-121.88299224753, -143.07920753462, -71.665031483827],
        [-122.03672561649, -143.02149497969, -69.972980549989],
        [-122.19045898918, -142.96378242475, -68.280933430849],
        [-122.34419236187, -142.90606986982, -66.588882497011],
        [-122.49792573456, -142.84835731489, -64.896831563173],
        [-122.65165910725, -142.79064475996, -63.204780629335],
        [-122.80539247993, -142.73293220503, -61.512729695497],
        [-122.95912579302, -142.6752196501, -59.820678761659],
        [-123.11285916571, -142.61750709516, -58.128627827821],
        [-123.26659253839, -142.55979454023, -56.436576893983],
        [-123.42032591108, -142.5020819853, -54.744525960145],
        [-123.57405928377, -142.44436943037, -53.052475026308],
        [-123.72779265646, -142.38665687544, -51.36042409247],
        [-123.88152590994, -142.32894432051, -49.668373158632],
        [-124.03525940184, -142.27123176557, -47.976322224794],
        [-124.18899265532, -142.21351921064, -46.284275105653],
        [-124.34272614721, -142.15580665571, -44.592224171815],
        [-124.49645940069, -142.09809410078, -42.900173237977],
        [-124.65019289259, -142.04038154585, -41.20812230414],
        [-124.80392614607, -141.98266899092, -39.516071370302],
        [-124.95765963797, -141.92495643598, -37.824020436464],
        [-125.11139289144, -141.86724388105, -36.131969502626],
        [-125.26512638334, -141.80953132612, -34.439918568788],
        [-125.41885963682, -141.75181877119, -32.74786763495],
        [-125.57259312872, -141.69410621626, -31.055818608461],
        [-125.7263263822, -141.63639366133, -29.363767674623],
        [-125.8800598741, -141.5786811064, -27.671716740785],
        [-126.03379312757, -141.52096855146, -25.979665806947],
        [-126.18752638105, -141.46325599653, -24.287614873109],
        [-126.34126011137, -141.4055434416, -22.595564892946],
        [-126.49499336485, -141.34783088667, -20.903513959108],
        [-126.64872661833, -141.29011833174, -19.211463978944],
        [-126.80245987181, -141.23240577681, -17.519413045106],
        [-126.95619360212, -141.17469322187, -15.827362111268],
        [-127.1099268556, -141.11698066694, -14.135311654268],
        [-127.26366010908, -141.05926811201, -12.443261197267],
        [-127.41739336256, -141.00155555708, -10.751210501848],
        [-127.57112661604, -140.94384300215, -9.0591598064284],
        [-127.72486034636, -140.88613044722, -7.3671091408114],
        [-127.87859359983, -140.82841789228, -5.675058534799],
        [-128.03232685331, -140.77070533735, -3.983007958589],
        [-128.18606010679, -140.71299278242, -2.2909575015883],
        [-128.33979383711, -140.65528022749, -0.5989065677504],
        [-128.49352709059, -140.59756767256, 1.0931443660875],
        [-128.64726034407, -140.53985511763, 2.7851943462511],
        [-128.80099359755, -140.48214256269, 4.477245280089],
        [-128.95472732786, -140.42443000776, 6.1692962139268],
        [-129.10846058134, -140.36671745283, 7.8613461940904],
        [-129.26219383482, -140.3090048979, 9.553396174254],
        [-129.4159270883, -140.25129234297, 11.245447108092],
        [-129.56966081861, -140.19357978804, 12.93749804193],
        [-129.72339407209, -140.1358672331, 14.629548975768]
],
      "InstanceCreationTime": ["175813.025000", "175813.111000", "175813.032000", "175813.116000", "175813.038000", "175813.122000", "175813.044000", "175813.130000", "175813.050000", "175813.137000", "175813.056000", "175813.143000", "175813.062000", "175813.150000", "175813.070000", "175813.157000", "175813.076000", "175813.163000", "175813.081000", "175813.169000", "175813.087000", "175813.175000", "175813.093000", "175813.182000", "175813.099000", "175813.188000", "175813.105000", "175813.028000", "175813.113000", "175813.034000", "175813.118000", "175813.040000", "175813.124000", "175813.046000", "175813.132000", "175813.052000", "175813.139000", "175813.058000", "175813.145000", "175813.064000", "175813.153000", "175813.072000", "175813.159000", "175813.077000", "175813.165000", "175813.083000", "175813.171000", "175813.089000", "175813.177000", "175813.095000", "175813.184000", "175813.101000", "175813.190000", "175813.107000", "175813.030000", "175813.114000", "175813.036000", "175813.120000", "175813.042000", "175813.127000", "175813.048000", "175813.135000", "175813.054000", "175813.141000", "175813.060000", "175813.148000", "175813.068000", "175813.155000", "175813.074000", "175813.161000", "175813.079000", "175813.167000", "175813.085000", "175813.173000", "175813.091000", "175813.180000", "175813.097000", "175813.186000", "175813.103000", "175813.192000", "175813.109000"],
      "InstanceNumber": [1, 2, 3, 4, 5, 6, 7, 8, 9, 10, 11, 12, 13, 14, 15, 16, 17, 18, 19, 20, 21, 22, 23, 24, 25, 26, 27, 28, 29, 30, 31, 32, 33, 34, 35, 36, 37, 38, 39, 40, 41, 42, 43, 44, 45, 46, 47, 48, 49, 50, 51, 52, 53, 54, 55, 56, 57, 58, 59, 60, 61, 62, 63, 64, 65, 66, 67, 68, 69, 70, 71, 72, 73, 74, 75, 76, 77, 78, 79, 80, 81],
      "LargestImagePixelValue": [25954, 36912, 48107, 47322, 41046, 37082, 40415, 26744, 21555, 15354, 17368, 16206, 12671, 14879, 26040, 22319, 22578, 21320, 37064, 34363, 24648, 18719, 15846, 24259, 22385, 24737, 24310, 31080, 26672, 26435, 26498, 30686, 34703, 20933, 23979, 21402, 26639, 33187, 31819, 27970, 23571, 23570, 22994, 20017, 31361, 29773, 25191, 47912, 63466, 59856, 43824, 30096, 34086, 37456, 35625, 35004, 25813, 23469, 21714, 25091, 28700, 23290, 24787, 30906, 30906, 33750, 46429, 45283, 55771, 55754, 45106, 37805, 42744, 38469, 39502, 44928, 42761, 47647, 44484, 45938, 52895],
      "SliceLocation": [-114.46520141984, -112.76520491819, -111.06520841654, -109.36520429961, -107.66520779797, -105.96520368104, -104.26520717939, -102.56520306247, -100.86520656082, -99.165202443892, -97.465205942244, -95.765201825317, -94.06520532367, -92.365208800462, -90.665204705095, -88.965208181887, -87.265204086521, -85.565207574093, -83.865203467947, -82.165206955519, -80.465202849372, -78.765206336944, -77.065202230798, -75.36520571837, -73.665201617614, -71.965205105186, -70.265208590063, -68.565204486611, -66.86520797351, -65.1652038677, -63.46520355875, -61.765207046322, -60.065206737035, -58.365206427748, -56.665206118461, -54.965205809173, -53.265205505276, -51.565205195989, -49.865204886702, -48.165204577415, -46.465204268128, -44.76520395884, -43.065203660333, -41.365203340266, -39.665206838618, -37.965206518551, -36.265206220044, -34.565205899977, -32.86520560147, -31.165205281402, -29.465204982895, -27.765204662828, -26.065204364321, -24.365205942683, -22.665205644176, -20.965205324109, -19.265205025602, -17.565204727095, -15.865205334682, -14.165205036175, -12.465205686883, -10.765205388376, -9.0652050467478, -7.3652052228483, -5.6652053989488, -3.9652053377456, -2.2652052765424, -0.5652052018811, 1.1347947703333, 2.8347947128846, 4.5347945367841, 6.2347948784121, 7.934795176919, 9.6347945262111, 11.334794824718, 13.034795166346, 14.734794515638, 16.43479386493, 18.134794163437, 19.834794505065, 21.534794803572],
