{
  "AcquisitionMatrixPE": 82,
  "AcquisitionNumber": 1,
  "AcquisitionTime": "15:42:43.092500",
  "BandwidthPerPixelPhaseEncode": 24.888,
  "BaseResolution": 82,
  "BodyPartExamined": "BRAIN",
  "ConsistencyInfo": "N4_VE11C_LATEST_20160120",
  "ConversionSoftware": "dcm2niix",
  "ConversionSoftwareVersion": "v1.0.20201102",
  "DerivedVendorReportedEchoSpacing": 0.00049,
  "DeviceSerialNumber": "66112",
  "DwellTime": 2e-06,
  "EchoTime": 0.0272,
  "EchoTrainLength": 82,
  "EffectiveEchoSpacing": 0.00049,
  "FlipAngle": 44,
  "ImageComments": "Unaliased MB8/PE3",
  "ImageOrientationPatientDICOM": [0.998249, 0.0134953, 0.0575929, -0.00470418, 0.988655, -0.150128],
  "ImageType": [
    "ORIGINAL",
    "PRIMARY",
    "M",
    "MB",
    "ND",
    "NORM",
    "MOSAIC"
],
  "ImagingFrequency": 123.252,
  "InPlanePhaseEncodingDirectionDICOM": "COL",
  "InstitutionAddress": "Maynard 3,Hanover,NH,US,03755",
  "InstitutionName": "dartmouth_brain_imaging_center",
  "InstitutionalDepartmentName": "Department",
  "MRAcquisitionType": "2D",
  "MagneticFieldStrength": 3,
  "Manufacturer": "Siemens",
  "ManufacturersModelName": "Prisma",
  "Modality": "MR",
  "MultibandAccelerationFactor": 8,
  "PartialFourier": 1,
  "PatientPosition": "HFS",
  "PercentPhaseFOV": 100,
  "PercentSampling": 100,
  "PhaseEncodingDirection": "j-",
  "PhaseEncodingSteps": 82,
  "PhaseResolution": 1,
  "PixelBandwidth": 3050,
  "ProcedureStepDescription": "Wager_Wager^1076_spacetop",
  "ProtocolName": "func_run-02_task-social_acq-ap-mb8",
  "PulseSequenceDetails": "%CustomerSeq%\\cmrr_mbep2d_bold",
  "ReceiveCoilActiveElements": "HEA;HEP",
  "ReceiveCoilName": "Head_32",
  "ReconMatrixPE": 82,
  "RepetitionTime": 0.46,
  "SAR": 0.107149,
  "ScanOptions": "FS",
  "ScanningSequence": "EP",
  "SequenceName": "epfid2d1_82",
  "SequenceVariant": "SK\\SS",
  "SeriesDescription": "func_run-02_task-social_acq-ap-mb8",
  "SeriesNumber": 14,
  "ShimSetting": [4155, -7724, -7249, 368, -85, -7, 18, 55],
  "SliceThickness": 2.7,
  "SliceTiming": [0, 0.25, 0.0625, 0.3125, 0.125, 0.3775, 0.1875, 0, 0.25, 0.0625, 0.3125, 0.125, 0.3775, 0.1875, 0, 0.25, 0.0625, 0.3125, 0.125, 0.3775, 0.1875, 0, 0.25, 0.0625, 0.3125, 0.125, 0.3775, 0.1875, 0, 0.25, 0.0625, 0.3125, 0.125, 0.3775, 0.1875, 0, 0.25, 0.0625, 0.3125, 0.125, 0.3775, 0.1875, 0, 0.25, 0.0625, 0.3125, 0.125, 0.3775, 0.1875, 0, 0.25, 0.0625, 0.3125, 0.125, 0.3775, 0.1875],
  "SoftwareVersions": "syngo MR E11",
  "SpacingBetweenSlices": 2.7,
  "StationName": "AWP66112",
  "TaskName": "social",
  "TotalReadoutTime": 0.03969,
  "TxRefAmp": 262.462,
  "WipMemBlock": "593344aa-3557-4f1c-b05f-f965ff4b8764||Sequence: R016 ve11c/master r/e634e98; Dec 19 2017 11:00:25 by eja",
  "dcmmeta_affine": [
    [-2.6782288551330566, -0.012620976194739342, 0.15920695662498474, 110.52030944824219],
    [-0.03620697185397148, 2.6524901390075684, -0.4039033055305481, -72.58659362792969],
    [0.1545175015926361, 0.4027814567089081, 2.6648669242858887, -74.20563507080078],
    [0.0, 0.0, 0.0, 1.0]
],
  "dcmmeta_reorient_transform": [
    [0.0, -1.0, 0.0, 81.0],
    [1.0, 0.0, 0.0, 0.0],
    [0.0, 0.0, 1.0, 0.0],
    [0.0, 0.0, 0.0, 1.0]
],
  "dcmmeta_shape": [82, 82, 56, 872],
  "dcmmeta_slice_dim": 2,
  "dcmmeta_version": 0.6,
  "global": {
    "const": {
      "AccessionNumber": "A003499",
      "AcquisitionMatrix": [82, 0, 0, 82],
      "AngioFlag": "N",
      "BitsAllocated": 16,
      "BitsStored": 16,
      "BodyPartExamined": "BRAIN",
      "Columns": 656,
      "EchoNumbers": 1,
      "EchoTime": 27.2,
      "EchoTrainLength": 82,
      "FlipAngle": 44.0,
      "HighBit": 15,
      "ImageOrientationPatient": [0.99824893477177, 0.0134953262384, 0.05759288494894, -0.0047041818341, 0.98865543365318, -0.1501276263095],
      "ImagePositionPatient": [-874.52748860992, -913.9212236661, 29.671415250575],
      "ImageType": [
        "ORIGINAL",
        "PRIMARY",
        "M",
        "MB",
        "ND",
        "NORM",
        "MOSAIC"
],
      "ImagedNucleus": "1H",
      "ImagingFrequency": 123.252125,
      "InPlanePhaseEncodingDirection": "COL",
      "MRAcquisitionType": "2D",
      "MagneticFieldStrength": 3.0,
      "Manufacturer": "SIEMENS",
      "ManufacturerModelName": "Prisma",
      "Modality": "MR",
      "NumberOfAverages": 1.0,
      "NumberOfPhaseEncodingSteps": 82,
      "PercentPhaseFieldOfView": 100.0,
      "PercentSampling": 100.0,
      "PerformedProcedureStepStartTime": "145934.524000",
      "PhotometricInterpretation": "MONOCHROME2",
      "PixelBandwidth": 3050.0,
      "PixelRepresentation": 0,
      "PixelSpacing": [2.6829268932343, 2.6829268932343],
      "ProtocolName": "func_run-02_task-social_acq-ap-mb8",
      "RepetitionTime": 460.0,
      "Rows": 656,
      "SAR": 0.10714945242962,
      "SamplesPerPixel": 1,
      "ScanOptions": "FS",
      "ScanningSequence": "EP",
      "SequenceName": "epfid2d1_82",
      "SequenceVariant": [
        "SK",
        "SS"
],
      "SeriesDescription": "func_run-02_task-social_acq-ap-mb8",
      "SeriesNumber": 14,
      "SeriesTime": "154302.962000",
      "SliceLocation": -55.864655058224,
      "SliceThickness": 2.7000000476837,
      "SmallestImagePixelValue": 0,
      "SoftwareVersions": "syngo MR E11",
      "SpacingBetweenSlices": 2.7000000052066,
      "SpecificCharacterSet": "ISO_IR 100",
      "StudyID": "1",
      "StudyTime": "145934.456000",
      "TransmitCoilName": "Body",
      "VariableFlipAngleFlag": "N",
      "WindowCenterWidthExplanation": "Algo1",
      "dBdt": 0.0},
    "slices": {}
  },
  "time": {
    "samples": {
      "AcquisitionNumber": [1, 2, 3, 4, 5, 6, 7, 8, 9, 10, 11, 12, 13, 14, 15, 16, 17, 18, 19, 20, 21, 22, 23, 24, 25, 26, 27, 28, 29, 30, 31, 32, 33, 34, 35, 36, 37, 38, 39, 40, 41, 42, 43, 44, 45, 46, 47, 48, 49, 50, 51, 52, 53, 54, 55, 56, 57, 58, 59, 60, 61, 62, 63, 64, 65, 66, 67, 68, 69, 70, 71, 72, 73, 74, 75, 76, 77, 78, 79, 80, 81, 82, 83, 84, 85, 86, 87, 88, 89, 90, 91, 92, 93, 94, 95, 96, 97, 98, 99, 100, 101, 102, 103, 104, 105, 106, 107, 108, 109, 110, 111, 112, 113, 114, 115, 116, 117, 118, 119, 120, 121, 122, 123, 124, 125, 126, 127, 128, 129, 130, 131, 132, 133, 134, 135, 136, 137, 138, 139, 140, 141, 142, 143, 144, 145, 146, 147, 148, 149, 150, 151, 152, 153, 154, 155, 156, 157, 158, 159, 160, 161, 162, 163, 164, 165, 166, 167, 168, 169, 170, 171, 172, 173, 174, 175, 176, 177, 178, 179, 180, 181, 182, 183, 184, 185, 186, 187, 188, 189, 190, 191, 192, 193, 194, 195, 196, 197, 198, 199, 200, 201, 202, 203, 204, 205, 206, 207, 208, 209, 210, 211, 212, 213, 214, 215, 216, 217, 218, 219, 220, 221, 222, 223, 224, 225, 226, 227, 228, 229, 230, 231, 232, 233, 234, 235, 236, 237, 238, 239, 240, 241, 242, 243, 244, 245, 246, 247, 248, 249, 250, 251, 252, 253, 254, 255, 256, 257, 258, 259, 260, 261, 262, 263, 264, 265, 266, 267, 268, 269, 270, 271, 272, 273, 274, 275, 276, 277, 278, 279, 280, 281, 282, 283, 284, 285, 286, 287, 288, 289, 290, 291, 292, 293, 294, 295, 296, 297, 298, 299, 300, 301, 302, 303, 304, 305, 306, 307, 308, 309, 310, 311, 312, 313, 314, 315, 316, 317, 318, 319, 320, 321, 322, 323, 324, 325, 326, 327, 328, 329, 330, 331, 332, 333, 334, 335, 336, 337, 338, 339, 340, 341, 342, 343, 344, 345, 346, 347, 348, 349, 350, 351, 352, 353, 354, 355, 356, 357, 358, 359, 360, 361, 362, 363, 364, 365, 366, 367, 368, 369, 370, 371, 372, 373, 374, 375, 376, 377, 378, 379, 380, 381, 382, 383, 384, 385, 386, 387, 388, 389, 390, 391, 392, 393, 394, 395, 396, 397, 398, 399, 400, 401, 402, 403, 404, 405, 406, 407, 408, 409, 410, 411, 412, 413, 414, 415, 416, 417, 418, 419, 420, 421, 422, 423, 424, 425, 426, 427, 428, 429, 430, 431, 432, 433, 434, 435, 436, 437, 438, 439, 440, 441, 442, 443, 444, 445, 446, 447, 448, 449, 450, 451, 452, 453, 454, 455, 456, 457, 458, 459, 460, 461, 462, 463, 464, 465, 466, 467, 468, 469, 470, 471, 472, 473, 474, 475, 476, 477, 478, 479, 480, 481, 482, 483, 484, 485, 486, 487, 488, 489, 490, 491, 492, 493, 494, 495, 496, 497, 498, 499, 500, 501, 502, 503, 504, 505, 506, 507, 508, 509, 510, 511, 512, 513, 514, 515, 516, 517, 518, 519, 520, 521, 522, 523, 524, 525, 526, 527, 528, 529, 530, 531, 532, 533, 534, 535, 536, 537, 538, 539, 540, 541, 542, 543, 544, 545, 546, 547, 548, 549, 550, 551, 552, 553, 554, 555, 556, 557, 558, 559, 560, 561, 562, 563, 564, 565, 566, 567, 568, 569, 570, 571, 572, 573, 574, 575, 576, 577, 578, 579, 580, 581, 582, 583, 584, 585, 586, 587, 588, 589, 590, 591, 592, 593, 594, 595, 596, 597, 598, 599, 600, 601, 602, 603, 604, 605, 606, 607, 608, 609, 610, 611, 612, 613, 614, 615, 616, 617, 618, 619, 620, 621, 622, 623, 624, 625, 626, 627, 628, 629, 630, 631, 632, 633, 634, 635, 636, 637, 638, 639, 640, 641, 642, 643, 644, 645, 646, 647, 648, 649, 650, 651, 652, 653, 654, 655, 656, 657, 658, 659, 660, 661, 662, 663, 664, 665, 666, 667, 668, 669, 670, 671, 672, 673, 674, 675, 676, 677, 678, 679, 680, 681, 682, 683, 684, 685, 686, 687, 688, 689, 690, 691, 692, 693, 694, 695, 696, 697, 698, 699, 700, 701, 702, 703, 704, 705, 706, 707, 708, 709, 710, 711, 712, 713, 714, 715, 716, 717, 718, 719, 720, 721, 722, 723, 724, 725, 726, 727, 728, 729, 730, 731, 732, 733, 734, 735, 736, 737, 738, 739, 740, 741, 742, 743, 744, 745, 746, 747, 748, 749, 750, 751, 752, 753, 754, 755, 756, 757, 758, 759, 760, 761, 762, 763, 764, 765, 766, 767, 768, 769, 770, 771, 772, 773, 774, 775, 776, 777, 778, 779, 780, 781, 782, 783, 784, 785, 786, 787, 788, 789, 790, 791, 792, 793, 794, 795, 796, 797, 798, 799, 800, 801, 802, 803, 804, 805, 806, 807, 808, 809, 810, 811, 812, 813, 814, 815, 816, 817, 818, 819, 820, 821, 822, 823, 824, 825, 826, 827, 828, 829, 830, 831, 832, 833, 834, 835, 836, 837, 838, 839, 840, 841, 842, 843, 844, 845, 846, 847, 848, 849, 850, 851, 852, 853, 854, 855, 856, 857, 858, 859, 860, 861, 862, 863, 864, 865, 866, 867, 868, 869, 870, 871, 872],
      "AcquisitionTime": ["154243.092500", "154243.552500", "154244.012500", "154244.472500", "154244.932500", "154245.392500", "154245.852500", "154246.312500", "154246.772500", "154247.232500", "154247.692500", "154248.152500", "154248.612500", "154249.072500", "154249.532500", "154249.992500", "154250.452500", "154250.912500", "154251.372500", "154251.832500", "154252.292500", "154252.752500", "154253.212500", "154253.672500", "154254.132500", "154254.592500", "154255.052500", "154255.512500", "154255.972500", "154256.432500", "154256.892500", "154257.352500", "154257.812500", "154258.272500", "154258.732500", "154259.192500", "154259.652500", "154300.112500", "154300.572500", "154301.032500", "154301.492500", "154301.952500", "154302.412500", "154302.872500", "154303.332500", "154303.792500", "154304.252500", "154304.712500", "154305.172500", "154305.632500", "154306.092500", "154306.552500", "154307.012500", "154307.472500", "154307.932500", "154308.392500", "154308.852500", "154309.312500", "154309.772500", "154310.232500", "154310.692500", "154311.152500", "154311.612500", "154312.072500", "154312.532500", "154312.992500", "154313.452500", "154313.912500", "154314.372500", "154314.832500", "154315.292500", "154315.752500", "154316.212500", "154316.672500", "154317.132500", "154317.592500", "154318.052500", "154318.512500", "154318.972500", "154319.432500", "154319.892500", "154320.352500", "154320.812500", "154321.272500", "154321.732500", "154322.192500", "154322.652500", "154323.112500", "154323.572500", "154324.032500", "154324.492500", "154324.952500", "154325.412500", "154325.872500", "154326.332500", "154326.792500", "154327.252500", "154327.712500", "154328.172500", "154328.632500", "154329.092500", "154329.552500", "154330.012500", "154330.472500", "154330.932500", "154331.392500", "154331.852500", "154332.312500", "154332.772500", "154333.232500", "154333.692500", "154334.152500", "154334.612500", "154335.072500", "154335.532500", "154335.992500", "154336.452500", "154336.912500", "154337.372500", "154337.832500", "154338.292500", "154338.752500", "154339.212500", "154339.672500", "154340.132500", "154340.592500", "154341.052500", "154341.512500", "154341.972500", "154342.432500", "154342.892500", "154343.352500", "154343.812500", "154344.272500", "154344.732500", "154345.192500", "154345.652500", "154346.112500", "154346.572500", "154347.032500", "154347.492500", "154347.952500", "154348.412500", "154348.872500", "154349.332500", "154349.792500", "154350.252500", "154350.712500", "154351.172500", "154351.632500", "154352.092500", "154352.552500", "154353.012500", "154353.472500", "154353.932500", "154354.392500", "154354.852500", "154355.312500", "154355.772500", "154356.232500", "154356.692500", "154357.152500", "154357.612500", "154358.072500", "154358.532500", "154358.992500", "154359.452500", "154359.912500", "154400.372500", "154400.832500", "154401.292500", "154401.752500", "154402.212500", "154402.672500", "154403.132500", "154403.592500", "154404.052500", "154404.512500", "154404.972500", "154405.432500", "154405.892500", "154406.352500", "154406.812500", "154407.272500", "154407.732500", "154408.192500", "154408.652500", "154409.112500", "154409.572500", "154410.032500", "154410.492500", "154410.952500", "154411.412500", "154411.872500", "154412.332500", "154412.792500", "154413.252500", "154413.712500", "154414.172500", "154414.632500", "154415.092500", "154415.552500", "154416.012500", "154416.472500", "154416.932500", "154417.392500", "154417.852500", "154418.312500", "154418.772500", "154419.232500", "154419.692500", "154420.152500", "154420.612500", "154421.072500", "154421.532500", "154421.992500", "154422.452500", "154422.912500", "154423.372500", "154423.832500", "154424.292500", "154424.752500", "154425.212500", "154425.672500", "154426.132500", "154426.592500", "154427.052500", "154427.512500", "154427.972500", "154428.432500", "154428.892500", "154429.352500", "154429.812500", "154430.272500", "154430.732500", "154431.192500", "154431.652500", "154432.112500", "154432.572500", "154433.032500", "154433.492500", "154433.952500", "154434.412500", "154434.872500", "154435.332500", "154435.792500", "154436.252500", "154436.712500", "154437.172500", "154437.632500", "154438.092500", "154438.552500", "154439.012500", "154439.472500", "154439.932500", "154440.392500", "154440.852500", "154441.312500", "154441.772500", "154442.232500", "154442.692500", "154443.152500", "154443.612500", "154444.072500", "154444.532500", "154444.992500", "154445.452500", "154445.912500", "154446.372500", "154446.832500", "154447.292500", "154447.752500", "154448.212500", "154448.672500", "154449.132500", "154449.592500", "154450.052500", "154450.512500", "154450.972500", "154451.432500", "154451.892500", "154452.352500", "154452.812500", "154453.272500", "154453.732500", "154454.192500", "154454.652500", "154455.112500", "154455.572500", "154456.032500", "154456.492500", "154456.952500", "154457.412500", "154457.872500", "154458.332500", "154458.792500", "154459.252500", "154459.712500", "154500.172500", "154500.632500", "154501.092500", "154501.552500", "154502.012500", "154502.472500", "154502.932500", "154503.392500", "154503.852500", "154504.312500", "154504.772500", "154505.232500", "154505.692500", "154506.152500", "154506.612500", "154507.072500", "154507.532500", "154507.992500", "154508.452500", "154508.912500", "154509.372500", "154509.832500", "154510.292500", "154510.752500", "154511.212500", "154511.672500", "154512.132500", "154512.592500", "154513.052500", "154513.512500", "154513.972500", "154514.432500", "154514.892500", "154515.352500", "154515.812500", "154516.272500", "154516.732500", "154517.192500", "154517.652500", "154518.112500", "154518.572500", "154519.032500", "154519.492500", "154519.952500", "154520.412500", "154520.872500", "154521.332500", "154521.792500", "154522.252500", "154522.712500", "154523.172500", "154523.632500", "154524.092500", "154524.552500", "154525.012500", "154525.472500", "154525.932500", "154526.392500", "154526.852500", "154527.312500", "154527.772500", "154528.232500", "154528.692500", "154529.152500", "154529.612500", "154530.072500", "154530.532500", "154530.992500", "154531.452500", "154531.912500", "154532.372500", "154532.832500", "154533.292500", "154533.752500", "154534.212500", "154534.672500", "154535.132500", "154535.592500", "154536.052500", "154536.512500", "154536.972500", "154537.432500", "154537.892500", "154538.352500", "154538.812500", "154539.272500", "154539.732500", "154540.192500", "154540.652500", "154541.112500", "154541.572500", "154542.032500", "154542.492500", "154542.952500", "154543.412500", "154543.872500", "154544.332500", "154544.792500", "154545.252500", "154545.712500", "154546.172500", "154546.632500", "154547.092500", "154547.552500", "154548.012500", "154548.472500", "154548.932500", "154549.392500", "154549.852500", "154550.312500", "154550.772500", "154551.232500", "154551.692500", "154552.152500", "154552.612500", "154553.072500", "154553.532500", "154553.992500", "154554.452500", "154554.912500", "154555.372500", "154555.832500", "154556.292500", "154556.752500", "154557.212500", "154557.672500", "154558.132500", "154558.592500", "154559.052500", "154559.512500", "154559.972500", "154600.432500", "154600.892500", "154601.352500", "154601.812500", "154602.272500", "154602.732500", "154603.192500", "154603.652500", "154604.112500", "154604.572500", "154605.032500", "154605.492500", "154605.952500", "154606.412500", "154606.872500", "154607.332500", "154607.792500", "154608.252500", "154608.712500", "154609.172500", "154609.632500", "154610.092500", "154610.552500", "154611.012500", "154611.472500", "154611.932500", "154612.392500", "154612.852500", "154613.312500", "154613.772500", "154614.232500", "154614.692500", "154615.152500", "154615.612500", "154616.072500", "154616.532500", "154616.992500", "154617.452500", "154617.912500", "154618.372500", "154618.832500", "154619.292500", "154619.752500", "154620.212500", "154620.672500", "154621.132500", "154621.592500", "154622.052500", "154622.512500", "154622.972500", "154623.432500", "154623.892500", "154624.352500", "154624.812500", "154625.272500", "154625.732500", "154626.192500", "154626.652500", "154627.112500", "154627.572500", "154628.032500", "154628.492500", "154628.952500", "154629.412500", "154629.872500", "154630.332500", "154630.792500", "154631.252500", "154631.712500", "154632.172500", "154632.632500", "154633.092500", "154633.552500", "154634.012500", "154634.472500", "154634.932500", "154635.392500", "154635.852500", "154636.312500", "154636.772500", "154637.232500", "154637.692500", "154638.152500", "154638.612500", "154639.072500", "154639.532500", "154639.992500", "154640.452500", "154640.912500", "154641.372500", "154641.832500", "154642.292500", "154642.752500", "154643.212500", "154643.672500", "154644.132500", "154644.592500", "154645.052500", "154645.512500", "154645.972500", "154646.432500", "154646.892500", "154647.352500", "154647.812500", "154648.272500", "154648.732500", "154649.192500", "154649.652500", "154650.112500", "154650.572500", "154651.032500", "154651.492500", "154651.952500", "154652.412500", "154652.872500", "154653.332500", "154653.792500", "154654.252500", "154654.712500", "154655.172500", "154655.632500", "154656.092500", "154656.552500", "154657.012500", "154657.472500", "154657.932500", "154658.392500", "154658.852500", "154659.312500", "154659.772500", "154700.232500", "154700.692500", "154701.152500", "154701.612500", "154702.072500", "154702.532500", "154702.992500", "154703.452500", "154703.912500", "154704.372500", "154704.832500", "154705.292500", "154705.752500", "154706.212500", "154706.672500", "154707.132500", "154707.592500", "154708.052500", "154708.512500", "154708.972500", "154709.432500", "154709.892500", "154710.352500", "154710.812500", "154711.272500", "154711.732500", "154712.192500", "154712.652500", "154713.112500", "154713.572500", "154714.032500", "154714.492500", "154714.952500", "154715.412500", "154715.872500", "154716.332500", "154716.792500", "154717.252500", "154717.712500", "154718.172500", "154718.632500", "154719.092500", "154719.552500", "154720.012500", "154720.472500", "154720.932500", "154721.392500", "154721.852500", "154722.312500", "154722.772500", "154723.232500", "154723.692500", "154724.152500", "154724.612500", "154725.072500", "154725.532500", "154725.992500", "154726.452500", "154726.912500", "154727.372500", "154727.832500", "154728.292500", "154728.752500", "154729.212500", "154729.672500", "154730.132500", "154730.592500", "154731.052500", "154731.512500", "154731.972500", "154732.432500", "154732.892500", "154733.352500", "154733.812500", "154734.272500", "154734.732500", "154735.192500", "154735.652500", "154736.112500", "154736.572500", "154737.032500", "154737.492500", "154737.952500", "154738.412500", "154738.872500", "154739.332500", "154739.792500", "154740.252500", "154740.712500", "154741.172500", "154741.632500", "154742.092500", "154742.552500", "154743.012500", "154743.472500", "154743.932500", "154744.392500", "154744.852500", "154745.312500", "154745.772500", "154746.232500", "154746.692500", "154747.152500", "154747.612500", "154748.072500", "154748.532500", "154748.992500", "154749.452500", "154749.912500", "154750.372500", "154750.832500", "154751.292500", "154751.752500", "154752.212500", "154752.672500", "154753.132500", "154753.592500", "154754.052500", "154754.512500", "154754.972500", "154755.432500", "154755.892500", "154756.352500", "154756.812500", "154757.272500", "154757.732500", "154758.192500", "154758.652500", "154759.112500", "154759.572500", "154800.032500", "154800.492500", "154800.952500", "154801.412500", "154801.872500", "154802.332500", "154802.792500", "154803.252500", "154803.712500", "154804.172500", "154804.632500", "154805.092500", "154805.552500", "154806.012500", "154806.472500", "154806.932500", "154807.392500", "154807.852500", "154808.312500", "154808.772500", "154809.232500", "154809.692500", "154810.152500", "154810.612500", "154811.072500", "154811.532500", "154811.992500", "154812.452500", "154812.912500", "154813.372500", "154813.832500", "154814.292500", "154814.752500", "154815.212500", "154815.672500", "154816.132500", "154816.592500", "154817.052500", "154817.512500", "154817.972500", "154818.432500", "154818.892500", "154819.352500", "154819.812500", "154820.272500", "154820.732500", "154821.192500", "154821.652500", "154822.112500", "154822.572500", "154823.032500", "154823.492500", "154823.952500", "154824.412500", "154824.872500", "154825.332500", "154825.792500", "154826.252500", "154826.712500", "154827.172500", "154827.632500", "154828.092500", "154828.552500", "154829.012500", "154829.472500", "154829.932500", "154830.392500", "154830.852500", "154831.312500", "154831.772500", "154832.232500", "154832.692500", "154833.152500", "154833.612500", "154834.072500", "154834.532500", "154834.992500", "154835.452500", "154835.912500", "154836.372500", "154836.832500", "154837.292500", "154837.752500", "154838.212500", "154838.672500", "154839.132500", "154839.592500", "154840.052500", "154840.512500", "154840.972500", "154841.432500", "154841.892500", "154842.352500", "154842.812500", "154843.272500", "154843.732500", "154844.192500", "154844.652500", "154845.112500", "154845.572500", "154846.032500", "154846.492500", "154846.952500", "154847.412500", "154847.872500", "154848.332500", "154848.792500", "154849.252500", "154849.712500", "154850.172500", "154850.632500", "154851.092500", "154851.552500", "154852.012500", "154852.472500", "154852.932500", "154853.392500", "154853.852500", "154854.312500", "154854.772500", "154855.232500", "154855.692500", "154856.152500", "154856.612500", "154857.072500", "154857.532500", "154857.992500", "154858.452500", "154858.912500", "154859.372500", "154859.832500", "154900.292500", "154900.752500", "154901.212500", "154901.672500", "154902.132500", "154902.592500", "154903.052500", "154903.512500", "154903.972500", "154904.432500", "154904.892500", "154905.352500", "154905.812500", "154906.272500", "154906.732500", "154907.192500", "154907.652500", "154908.112500", "154908.572500", "154909.032500", "154909.492500", "154909.952500", "154910.412500", "154910.872500", "154911.332500", "154911.792500", "154912.252500", "154912.712500", "154913.172500", "154913.632500", "154914.092500", "154914.552500", "154915.012500", "154915.472500", "154915.932500", "154916.392500", "154916.852500", "154917.312500", "154917.772500", "154918.232500", "154918.692500", "154919.152500", "154919.612500", "154920.072500", "154920.532500", "154920.992500", "154921.452500", "154921.912500", "154922.372500", "154922.832500", "154923.292500", "154923.752500"],
