{
  "AcquisitionMatrixPE": 82,
  "AcquisitionNumber": 1,
  "AcquisitionTime": "15:35:46.300000",
  "BandwidthPerPixelPhaseEncode": 24.888,
  "BaseResolution": 82,
  "BodyPartExamined": "BRAIN",
  "ConsistencyInfo": "N4_VE11C_LATEST_20160120",
  "ConversionSoftware": "dcm2niix",
  "ConversionSoftwareVersion": "v1.0.20201102",
  "DerivedVendorReportedEchoSpacing": 0.00049,
  "DeviceSerialNumber": "66112",
  "DwellTime": 2e-06,
  "EchoTime": 0.0272,
  "EchoTrainLength": 82,
  "EffectiveEchoSpacing": 0.00049,
  "FlipAngle": 44,
  "ImageComments": "Unaliased MB8/PE3",
  "ImageOrientationPatientDICOM": [0.998249, 0.0134953, 0.0575929, -0.00470418, 0.988655, -0.150128],
  "ImageType": [
    "ORIGINAL",
    "PRIMARY",
    "M",
    "MB",
    "ND",
    "NORM",
    "MOSAIC"
],
  "ImagingFrequency": 123.252,
  "InPlanePhaseEncodingDirectionDICOM": "COL",
  "InstitutionAddress": "Maynard 3,Hanover,NH,US,03755",
  "InstitutionName": "dartmouth_brain_imaging_center",
  "InstitutionalDepartmentName": "Department",
  "MRAcquisitionType": "2D",
  "MagneticFieldStrength": 3,
  "Manufacturer": "Siemens",
  "ManufacturersModelName": "Prisma",
  "Modality": "MR",
  "MultibandAccelerationFactor": 8,
  "PartialFourier": 1,
  "PatientPosition": "HFS",
  "PercentPhaseFOV": 100,
  "PercentSampling": 100,
  "PhaseEncodingDirection": "j-",
  "PhaseEncodingSteps": 82,
  "PhaseResolution": 1,
  "PixelBandwidth": 3050,
  "ProcedureStepDescription": "Wager_Wager^1076_spacetop",
  "ProtocolName": "func_run-01_task-social_acq-ap-mb8",
  "PulseSequenceDetails": "%CustomerSeq%\\cmrr_mbep2d_bold",
  "ReceiveCoilActiveElements": "HEA;HEP",
  "ReceiveCoilName": "Head_32",
  "ReconMatrixPE": 82,
  "RepetitionTime": 0.46,
  "SAR": 0.107149,
  "ScanOptions": "FS",
  "ScanningSequence": "EP",
  "SequenceName": "epfid2d1_82",
  "SequenceVariant": "SK\\SS",
  "SeriesDescription": "func_run-01_task-social_acq-ap-mb8",
  "SeriesNumber": 12,
  "ShimSetting": [4155, -7724, -7249, 368, -85, -7, 18, 55],
  "SliceThickness": 2.7,
  "SliceTiming": [0, 0.2525, 0.065, 0.315, 0.1275, 0.3775, 0.19, 0, 0.2525, 0.065, 0.315, 0.1275, 0.3775, 0.19, 0, 0.2525, 0.065, 0.315, 0.1275, 0.3775, 0.19, 0, 0.2525, 0.065, 0.315, 0.1275, 0.3775, 0.19, 0, 0.2525, 0.065, 0.315, 0.1275, 0.3775, 0.19, 0, 0.2525, 0.065, 0.315, 0.1275, 0.3775, 0.19, 0, 0.2525, 0.065, 0.315, 0.1275, 0.3775, 0.19, 0, 0.2525, 0.065, 0.315, 0.1275, 0.3775, 0.19],
  "SoftwareVersions": "syngo MR E11",
  "SpacingBetweenSlices": 2.7,
  "StationName": "AWP66112",
  "TaskName": "social",
  "TotalReadoutTime": 0.03969,
  "TxRefAmp": 262.462,
  "WipMemBlock": "f151bf4f-d938-4d96-9e85-50fc4e2554c2||Sequence: R016 ve11c/master r/e634e98; Dec 19 2017 11:00:25 by eja",
  "dcmmeta_affine": [
    [-2.6782288551330566, -0.012620976194739342, 0.15920695662498474, 110.52030944824219],
    [-0.03620697185397148, 2.6524901390075684, -0.4039033055305481, -72.58659362792969],
    [0.1545175015926361, 0.4027814567089081, 2.6648669242858887, -74.20563507080078],
    [0.0, 0.0, 0.0, 1.0]
],
  "dcmmeta_reorient_transform": [
    [0.0, -1.0, 0.0, 81.0],
    [1.0, 0.0, 0.0, 0.0],
    [0.0, 0.0, 1.0, 0.0],
    [0.0, 0.0, 0.0, 1.0]
],
  "dcmmeta_shape": [82, 82, 56, 872],
  "dcmmeta_slice_dim": 2,
  "dcmmeta_version": 0.6,
  "global": {
    "const": {
      "AccessionNumber": "A003499",
      "AcquisitionMatrix": [82, 0, 0, 82],
      "AngioFlag": "N",
      "BitsAllocated": 16,
      "BitsStored": 16,
      "BodyPartExamined": "BRAIN",
      "Columns": 656,
      "EchoNumbers": 1,
      "EchoTime": 27.2,
      "EchoTrainLength": 82,
      "FlipAngle": 44.0,
      "HighBit": 15,
      "ImageOrientationPatient": [0.99824893477177, 0.0134953262384, 0.05759288494894, -0.0047041818341, 0.98865543365318, -0.1501276263095],
      "ImagePositionPatient": [-874.52748860992, -913.9212236661, 29.671415250575],
      "ImageType": [
        "ORIGINAL",
        "PRIMARY",
        "M",
        "MB",
        "ND",
        "NORM",
        "MOSAIC"
],
      "ImagedNucleus": "1H",
      "ImagingFrequency": 123.25212,
      "InPlanePhaseEncodingDirection": "COL",
      "MRAcquisitionType": "2D",
      "MagneticFieldStrength": 3.0,
      "Manufacturer": "SIEMENS",
      "ManufacturerModelName": "Prisma",
      "Modality": "MR",
      "NumberOfAverages": 1.0,
      "NumberOfPhaseEncodingSteps": 82,
      "PercentPhaseFieldOfView": 100.0,
      "PercentSampling": 100.0,
      "PerformedProcedureStepStartTime": "145934.524000",
      "PhotometricInterpretation": "MONOCHROME2",
      "PixelBandwidth": 3050.0,
      "PixelRepresentation": 0,
      "PixelSpacing": [2.6829268932343, 2.6829268932343],
      "ProtocolName": "func_run-01_task-social_acq-ap-mb8",
      "RepetitionTime": 460.0,
      "Rows": 656,
      "SAR": 0.10714945242962,
      "SamplesPerPixel": 1,
      "ScanOptions": "FS",
      "ScanningSequence": "EP",
      "SequenceName": "epfid2d1_82",
      "SequenceVariant": [
        "SK",
        "SS"
],
      "SeriesDescription": "func_run-01_task-social_acq-ap-mb8",
      "SeriesNumber": 12,
      "SeriesTime": "153602.885000",
      "SliceLocation": -55.864655058224,
      "SliceThickness": 2.7000000476837,
      "SmallestImagePixelValue": 0,
      "SoftwareVersions": "syngo MR E11",
      "SpacingBetweenSlices": 2.7000000052066,
      "SpecificCharacterSet": "ISO_IR 100",
      "StudyID": "1",
      "StudyTime": "145934.456000",
      "TransmitCoilName": "Body",
      "VariableFlipAngleFlag": "N",
      "WindowCenterWidthExplanation": "Algo1",
      "dBdt": 0.0},
    "slices": {}
  },
  "time": {
    "samples": {
      "AcquisitionNumber": [1, 2, 3, 4, 5, 6, 7, 8, 9, 10, 11, 12, 13, 14, 15, 16, 17, 18, 19, 20, 21, 22, 23, 24, 25, 26, 27, 28, 29, 30, 31, 32, 33, 34, 35, 36, 37, 38, 39, 40, 41, 42, 43, 44, 45, 46, 47, 48, 49, 50, 51, 52, 53, 54, 55, 56, 57, 58, 59, 60, 61, 62, 63, 64, 65, 66, 67, 68, 69, 70, 71, 72, 73, 74, 75, 76, 77, 78, 79, 80, 81, 82, 83, 84, 85, 86, 87, 88, 89, 90, 91, 92, 93, 94, 95, 96, 97, 98, 99, 100, 101, 102, 103, 104, 105, 106, 107, 108, 109, 110, 111, 112, 113, 114, 115, 116, 117, 118, 119, 120, 121, 122, 123, 124, 125, 126, 127, 128, 129, 130, 131, 132, 133, 134, 135, 136, 137, 138, 139, 140, 141, 142, 143, 144, 145, 146, 147, 148, 149, 150, 151, 152, 153, 154, 155, 156, 157, 158, 159, 160, 161, 162, 163, 164, 165, 166, 167, 168, 169, 170, 171, 172, 173, 174, 175, 176, 177, 178, 179, 180, 181, 182, 183, 184, 185, 186, 187, 188, 189, 190, 191, 192, 193, 194, 195, 196, 197, 198, 199, 200, 201, 202, 203, 204, 205, 206, 207, 208, 209, 210, 211, 212, 213, 214, 215, 216, 217, 218, 219, 220, 221, 222, 223, 224, 225, 226, 227, 228, 229, 230, 231, 232, 233, 234, 235, 236, 237, 238, 239, 240, 241, 242, 243, 244, 245, 246, 247, 248, 249, 250, 251, 252, 253, 254, 255, 256, 257, 258, 259, 260, 261, 262, 263, 264, 265, 266, 267, 268, 269, 270, 271, 272, 273, 274, 275, 276, 277, 278, 279, 280, 281, 282, 283, 284, 285, 286, 287, 288, 289, 290, 291, 292, 293, 294, 295, 296, 297, 298, 299, 300, 301, 302, 303, 304, 305, 306, 307, 308, 309, 310, 311, 312, 313, 314, 315, 316, 317, 318, 319, 320, 321, 322, 323, 324, 325, 326, 327, 328, 329, 330, 331, 332, 333, 334, 335, 336, 337, 338, 339, 340, 341, 342, 343, 344, 345, 346, 347, 348, 349, 350, 351, 352, 353, 354, 355, 356, 357, 358, 359, 360, 361, 362, 363, 364, 365, 366, 367, 368, 369, 370, 371, 372, 373, 374, 375, 376, 377, 378, 379, 380, 381, 382, 383, 384, 385, 386, 387, 388, 389, 390, 391, 392, 393, 394, 395, 396, 397, 398, 399, 400, 401, 402, 403, 404, 405, 406, 407, 408, 409, 410, 411, 412, 413, 414, 415, 416, 417, 418, 419, 420, 421, 422, 423, 424, 425, 426, 427, 428, 429, 430, 431, 432, 433, 434, 435, 436, 437, 438, 439, 440, 441, 442, 443, 444, 445, 446, 447, 448, 449, 450, 451, 452, 453, 454, 455, 456, 457, 458, 459, 460, 461, 462, 463, 464, 465, 466, 467, 468, 469, 470, 471, 472, 473, 474, 475, 476, 477, 478, 479, 480, 481, 482, 483, 484, 485, 486, 487, 488, 489, 490, 491, 492, 493, 494, 495, 496, 497, 498, 499, 500, 501, 502, 503, 504, 505, 506, 507, 508, 509, 510, 511, 512, 513, 514, 515, 516, 517, 518, 519, 520, 521, 522, 523, 524, 525, 526, 527, 528, 529, 530, 531, 532, 533, 534, 535, 536, 537, 538, 539, 540, 541, 542, 543, 544, 545, 546, 547, 548, 549, 550, 551, 552, 553, 554, 555, 556, 557, 558, 559, 560, 561, 562, 563, 564, 565, 566, 567, 568, 569, 570, 571, 572, 573, 574, 575, 576, 577, 578, 579, 580, 581, 582, 583, 584, 585, 586, 587, 588, 589, 590, 591, 592, 593, 594, 595, 596, 597, 598, 599, 600, 601, 602, 603, 604, 605, 606, 607, 608, 609, 610, 611, 612, 613, 614, 615, 616, 617, 618, 619, 620, 621, 622, 623, 624, 625, 626, 627, 628, 629, 630, 631, 632, 633, 634, 635, 636, 637, 638, 639, 640, 641, 642, 643, 644, 645, 646, 647, 648, 649, 650, 651, 652, 653, 654, 655, 656, 657, 658, 659, 660, 661, 662, 663, 664, 665, 666, 667, 668, 669, 670, 671, 672, 673, 674, 675, 676, 677, 678, 679, 680, 681, 682, 683, 684, 685, 686, 687, 688, 689, 690, 691, 692, 693, 694, 695, 696, 697, 698, 699, 700, 701, 702, 703, 704, 705, 706, 707, 708, 709, 710, 711, 712, 713, 714, 715, 716, 717, 718, 719, 720, 721, 722, 723, 724, 725, 726, 727, 728, 729, 730, 731, 732, 733, 734, 735, 736, 737, 738, 739, 740, 741, 742, 743, 744, 745, 746, 747, 748, 749, 750, 751, 752, 753, 754, 755, 756, 757, 758, 759, 760, 761, 762, 763, 764, 765, 766, 767, 768, 769, 770, 771, 772, 773, 774, 775, 776, 777, 778, 779, 780, 781, 782, 783, 784, 785, 786, 787, 788, 789, 790, 791, 792, 793, 794, 795, 796, 797, 798, 799, 800, 801, 802, 803, 804, 805, 806, 807, 808, 809, 810, 811, 812, 813, 814, 815, 816, 817, 818, 819, 820, 821, 822, 823, 824, 825, 826, 827, 828, 829, 830, 831, 832, 833, 834, 835, 836, 837, 838, 839, 840, 841, 842, 843, 844, 845, 846, 847, 848, 849, 850, 851, 852, 853, 854, 855, 856, 857, 858, 859, 860, 861, 862, 863, 864, 865, 866, 867, 868, 869, 870, 871, 872],
      "AcquisitionTime": ["153546.300000", "153546.760000", "153547.220000", "153547.680000", "153548.140000", "153548.600000", "153549.060000", "153549.520000", "153549.980000", "153550.440000", "153550.900000", "153551.360000", "153551.820000", "153552.280000", "153552.740000", "153553.200000", "153553.660000", "153554.120000", "153554.580000", "153555.040000", "153555.500000", "153555.960000", "153556.420000", "153556.880000", "153557.340000", "153557.800000", "153558.260000", "153558.720000", "153559.180000", "153559.640000", "153600.100000", "153600.560000", "153601.020000", "153601.480000", "153601.940000", "153602.400000", "153602.860000", "153603.320000", "153603.780000", "153604.240000", "153604.700000", "153605.160000", "153605.620000", "153606.080000", "153606.540000", "153607.000000", "153607.460000", "153607.920000", "153608.380000", "153608.840000", "153609.300000", "153609.760000", "153610.220000", "153610.680000", "153611.140000", "153611.600000", "153612.060000", "153612.520000", "153612.980000", "153613.440000", "153613.900000", "153614.360000", "153614.820000", "153615.280000", "153615.740000", "153616.200000", "153616.660000", "153617.120000", "153617.580000", "153618.040000", "153618.500000", "153618.960000", "153619.420000", "153619.880000", "153620.340000", "153620.800000", "153621.260000", "153621.720000", "153622.180000", "153622.640000", "153623.100000", "153623.560000", "153624.020000", "153624.480000", "153624.940000", "153625.400000", "153625.860000", "153626.320000", "153626.780000", "153627.240000", "153627.700000", "153628.160000", "153628.620000", "153629.080000", "153629.540000", "153630.000000", "153630.460000", "153630.920000", "153631.380000", "153631.840000", "153632.300000", "153632.760000", "153633.220000", "153633.680000", "153634.140000", "153634.600000", "153635.060000", "153635.520000", "153635.980000", "153636.440000", "153636.900000", "153637.360000", "153637.820000", "153638.280000", "153638.740000", "153639.200000", "153639.660000", "153640.120000", "153640.580000", "153641.040000", "153641.500000", "153641.960000", "153642.420000", "153642.880000", "153643.340000", "153643.800000", "153644.260000", "153644.720000", "153645.180000", "153645.640000", "153646.100000", "153646.560000", "153647.020000", "153647.480000", "153647.940000", "153648.400000", "153648.860000", "153649.320000", "153649.780000", "153650.240000", "153650.700000", "153651.160000", "153651.620000", "153652.080000", "153652.540000", "153653.000000", "153653.460000", "153653.920000", "153654.380000", "153654.840000", "153655.300000", "153655.760000", "153656.220000", "153656.680000", "153657.140000", "153657.600000", "153658.060000", "153658.520000", "153658.980000", "153659.440000", "153659.900000", "153700.360000", "153700.820000", "153701.280000", "153701.740000", "153702.200000", "153702.660000", "153703.120000", "153703.580000", "153704.040000", "153704.500000", "153704.960000", "153705.420000", "153705.880000", "153706.340000", "153706.800000", "153707.260000", "153707.720000", "153708.180000", "153708.640000", "153709.100000", "153709.560000", "153710.020000", "153710.480000", "153710.940000", "153711.400000", "153711.860000", "153712.320000", "153712.780000", "153713.240000", "153713.700000", "153714.160000", "153714.620000", "153715.080000", "153715.540000", "153716.000000", "153716.460000", "153716.920000", "153717.380000", "153717.840000", "153718.300000", "153718.760000", "153719.220000", "153719.680000", "153720.140000", "153720.600000", "153721.060000", "153721.520000", "153721.980000", "153722.440000", "153722.900000", "153723.360000", "153723.820000", "153724.280000", "153724.740000", "153725.200000", "153725.660000", "153726.120000", "153726.580000", "153727.040000", "153727.500000", "153727.960000", "153728.420000", "153728.880000", "153729.340000", "153729.800000", "153730.260000", "153730.720000", "153731.180000", "153731.640000", "153732.100000", "153732.560000", "153733.020000", "153733.480000", "153733.940000", "153734.400000", "153734.860000", "153735.320000", "153735.780000", "153736.240000", "153736.700000", "153737.160000", "153737.620000", "153738.080000", "153738.540000", "153739.000000", "153739.460000", "153739.920000", "153740.380000", "153740.840000", "153741.300000", "153741.760000", "153742.220000", "153742.680000", "153743.140000", "153743.600000", "153744.060000", "153744.520000", "153744.980000", "153745.440000", "153745.900000", "153746.360000", "153746.820000", "153747.280000", "153747.740000", "153748.200000", "153748.660000", "153749.120000", "153749.580000", "153750.040000", "153750.500000", "153750.960000", "153751.420000", "153751.880000", "153752.340000", "153752.800000", "153753.260000", "153753.720000", "153754.180000", "153754.640000", "153755.100000", "153755.560000", "153756.020000", "153756.480000", "153756.940000", "153757.400000", "153757.860000", "153758.320000", "153758.780000", "153759.240000", "153759.700000", "153800.160000", "153800.620000", "153801.080000", "153801.540000", "153802.000000", "153802.460000", "153802.920000", "153803.380000", "153803.840000", "153804.300000", "153804.760000", "153805.220000", "153805.680000", "153806.140000", "153806.600000", "153807.060000", "153807.520000", "153807.980000", "153808.440000", "153808.900000", "153809.360000", "153809.820000", "153810.280000", "153810.740000", "153811.200000", "153811.660000", "153812.120000", "153812.580000", "153813.040000", "153813.500000", "153813.960000", "153814.420000", "153814.880000", "153815.340000", "153815.800000", "153816.260000", "153816.720000", "153817.180000", "153817.640000", "153818.100000", "153818.560000", "153819.020000", "153819.480000", "153819.940000", "153820.400000", "153820.860000", "153821.320000", "153821.780000", "153822.240000", "153822.700000", "153823.160000", "153823.620000", "153824.080000", "153824.540000", "153825.000000", "153825.460000", "153825.920000", "153826.380000", "153826.840000", "153827.300000", "153827.760000", "153828.220000", "153828.680000", "153829.140000", "153829.600000", "153830.060000", "153830.520000", "153830.980000", "153831.440000", "153831.900000", "153832.360000", "153832.820000", "153833.280000", "153833.740000", "153834.200000", "153834.660000", "153835.120000", "153835.580000", "153836.040000", "153836.500000", "153836.960000", "153837.420000", "153837.880000", "153838.340000", "153838.800000", "153839.260000", "153839.720000", "153840.180000", "153840.640000", "153841.100000", "153841.560000", "153842.020000", "153842.480000", "153842.940000", "153843.400000", "153843.860000", "153844.320000", "153844.780000", "153845.240000", "153845.700000", "153846.160000", "153846.620000", "153847.080000", "153847.540000", "153848.000000", "153848.460000", "153848.920000", "153849.380000", "153849.840000", "153850.300000", "153850.760000", "153851.220000", "153851.680000", "153852.140000", "153852.600000", "153853.060000", "153853.520000", "153853.980000", "153854.440000", "153854.900000", "153855.360000", "153855.820000", "153856.280000", "153856.740000", "153857.200000", "153857.660000", "153858.120000", "153858.580000", "153859.040000", "153859.500000", "153859.960000", "153900.420000", "153900.880000", "153901.340000", "153901.800000", "153902.260000", "153902.720000", "153903.180000", "153903.640000", "153904.100000", "153904.560000", "153905.020000", "153905.480000", "153905.940000", "153906.400000", "153906.860000", "153907.320000", "153907.780000", "153908.240000", "153908.700000", "153909.160000", "153909.620000", "153910.080000", "153910.540000", "153911.000000", "153911.460000", "153911.920000", "153912.380000", "153912.840000", "153913.300000", "153913.760000", "153914.220000", "153914.680000", "153915.140000", "153915.600000", "153916.060000", "153916.520000", "153916.980000", "153917.440000", "153917.900000", "153918.360000", "153918.820000", "153919.280000", "153919.740000", "153920.200000", "153920.660000", "153921.120000", "153921.580000", "153922.040000", "153922.500000", "153922.960000", "153923.420000", "153923.880000", "153924.340000", "153924.800000", "153925.260000", "153925.720000", "153926.180000", "153926.640000", "153927.100000", "153927.560000", "153928.020000", "153928.480000", "153928.940000", "153929.400000", "153929.860000", "153930.320000", "153930.780000", "153931.240000", "153931.700000", "153932.160000", "153932.620000", "153933.080000", "153933.540000", "153934.000000", "153934.460000", "153934.920000", "153935.380000", "153935.840000", "153936.300000", "153936.760000", "153937.220000", "153937.680000", "153938.140000", "153938.600000", "153939.060000", "153939.520000", "153939.980000", "153940.440000", "153940.900000", "153941.360000", "153941.820000", "153942.280000", "153942.740000", "153943.200000", "153943.660000", "153944.120000", "153944.580000", "153945.040000", "153945.500000", "153945.960000", "153946.420000", "153946.880000", "153947.340000", "153947.800000", "153948.260000", "153948.720000", "153949.180000", "153949.640000", "153950.100000", "153950.560000", "153951.020000", "153951.480000", "153951.940000", "153952.400000", "153952.860000", "153953.320000", "153953.780000", "153954.240000", "153954.700000", "153955.160000", "153955.620000", "153956.080000", "153956.540000", "153957.000000", "153957.460000", "153957.920000", "153958.380000", "153958.840000", "153959.300000", "153959.760000", "154000.220000", "154000.680000", "154001.140000", "154001.600000", "154002.060000", "154002.520000", "154002.980000", "154003.440000", "154003.900000", "154004.360000", "154004.820000", "154005.280000", "154005.740000", "154006.200000", "154006.660000", "154007.120000", "154007.580000", "154008.040000", "154008.500000", "154008.960000", "154009.420000", "154009.880000", "154010.340000", "154010.800000", "154011.260000", "154011.720000", "154012.180000", "154012.640000", "154013.100000", "154013.560000", "154014.020000", "154014.480000", "154014.940000", "154015.400000", "154015.860000", "154016.320000", "154016.780000", "154017.240000", "154017.700000", "154018.160000", "154018.620000", "154019.080000", "154019.540000", "154020.000000", "154020.460000", "154020.920000", "154021.380000", "154021.840000", "154022.300000", "154022.760000", "154023.220000", "154023.680000", "154024.140000", "154024.600000", "154025.060000", "154025.520000", "154025.980000", "154026.440000", "154026.900000", "154027.360000", "154027.820000", "154028.280000", "154028.740000", "154029.200000", "154029.660000", "154030.120000", "154030.580000", "154031.040000", "154031.500000", "154031.960000", "154032.420000", "154032.880000", "154033.340000", "154033.800000", "154034.260000", "154034.720000", "154035.180000", "154035.640000", "154036.100000", "154036.560000", "154037.020000", "154037.480000", "154037.940000", "154038.400000", "154038.860000", "154039.320000", "154039.780000", "154040.240000", "154040.700000", "154041.160000", "154041.620000", "154042.080000", "154042.540000", "154043.000000", "154043.460000", "154043.920000", "154044.380000", "154044.840000", "154045.300000", "154045.760000", "154046.220000", "154046.680000", "154047.140000", "154047.600000", "154048.060000", "154048.520000", "154048.980000", "154049.440000", "154049.900000", "154050.360000", "154050.820000", "154051.280000", "154051.740000", "154052.200000", "154052.660000", "154053.120000", "154053.580000", "154054.040000", "154054.500000", "154054.960000", "154055.420000", "154055.880000", "154056.340000", "154056.800000", "154057.260000", "154057.720000", "154058.180000", "154058.640000", "154059.100000", "154059.560000", "154100.020000", "154100.480000", "154100.940000", "154101.400000", "154101.860000", "154102.320000", "154102.780000", "154103.240000", "154103.700000", "154104.160000", "154104.620000", "154105.080000", "154105.540000", "154106.000000", "154106.460000", "154106.920000", "154107.380000", "154107.840000", "154108.300000", "154108.760000", "154109.220000", "154109.680000", "154110.140000", "154110.600000", "154111.060000", "154111.520000", "154111.980000", "154112.440000", "154112.900000", "154113.360000", "154113.820000", "154114.280000", "154114.740000", "154115.200000", "154115.660000", "154116.120000", "154116.580000", "154117.040000", "154117.500000", "154117.960000", "154118.420000", "154118.880000", "154119.340000", "154119.800000", "154120.260000", "154120.720000", "154121.180000", "154121.640000", "154122.100000", "154122.560000", "154123.020000", "154123.480000", "154123.940000", "154124.400000", "154124.860000", "154125.320000", "154125.780000", "154126.240000", "154126.700000", "154127.160000", "154127.620000", "154128.080000", "154128.540000", "154129.000000", "154129.460000", "154129.920000", "154130.380000", "154130.840000", "154131.300000", "154131.760000", "154132.220000", "154132.680000", "154133.140000", "154133.600000", "154134.060000", "154134.520000", "154134.980000", "154135.440000", "154135.900000", "154136.360000", "154136.820000", "154137.280000", "154137.740000", "154138.200000", "154138.660000", "154139.120000", "154139.580000", "154140.040000", "154140.500000", "154140.960000", "154141.420000", "154141.880000", "154142.340000", "154142.800000", "154143.260000", "154143.720000", "154144.180000", "154144.640000", "154145.100000", "154145.560000", "154146.020000", "154146.480000", "154146.940000", "154147.400000", "154147.860000", "154148.320000", "154148.780000", "154149.240000", "154149.700000", "154150.160000", "154150.620000", "154151.080000", "154151.540000", "154152.000000", "154152.460000", "154152.920000", "154153.380000", "154153.840000", "154154.300000", "154154.760000", "154155.220000", "154155.680000", "154156.140000", "154156.600000", "154157.060000", "154157.520000", "154157.980000", "154158.440000", "154158.900000", "154159.360000", "154159.820000", "154200.280000", "154200.740000", "154201.200000", "154201.660000", "154202.120000", "154202.580000", "154203.040000", "154203.500000", "154203.960000", "154204.420000", "154204.880000", "154205.340000", "154205.800000", "154206.260000", "154206.720000", "154207.180000", "154207.640000", "154208.100000", "154208.560000", "154209.020000", "154209.480000", "154209.940000", "154210.400000", "154210.860000", "154211.320000", "154211.780000", "154212.240000", "154212.700000", "154213.160000", "154213.620000", "154214.080000", "154214.540000", "154215.000000", "154215.460000", "154215.920000", "154216.380000", "154216.840000", "154217.300000", "154217.760000", "154218.220000", "154218.680000", "154219.140000", "154219.600000", "154220.060000", "154220.520000", "154220.980000", "154221.440000", "154221.900000", "154222.360000", "154222.820000", "154223.280000", "154223.740000", "154224.200000", "154224.660000", "154225.120000", "154225.580000", "154226.040000", "154226.500000", "154226.960000"],
