{
  "AcquisitionMatrixPE": 82,
  "AcquisitionNumber": 1,
  "AcquisitionTime": "16:08:13.790000",
  "BandwidthPerPixelPhaseEncode": 24.888,
  "BaseResolution": 82,
  "BodyPartExamined": "BRAIN",
  "ConsistencyInfo": "N4_VE11C_LATEST_20160120",
  "ConversionSoftware": "dcm2niix",
  "ConversionSoftwareVersion": "v1.0.20201102",
  "DerivedVendorReportedEchoSpacing": 0.00049,
  "DeviceSerialNumber": "66112",
  "DwellTime": 2e-06,
  "EchoTime": 0.0272,
  "EchoTrainLength": 82,
  "EffectiveEchoSpacing": 0.00049,
  "FlipAngle": 44,
  "ImageComments": "Unaliased MB8/PE3",
  "ImageOrientationPatientDICOM": [0.999092, 0.0218391, 0.0365696, -0.0151717, 0.984706, -0.173562],
  "ImageType": [
    "ORIGINAL",
    "PRIMARY",
    "M",
    "MB",
    "ND",
    "NORM",
    "MOSAIC"
],
  "ImagingFrequency": 123.252,
  "InPlanePhaseEncodingDirectionDICOM": "COL",
  "InstitutionAddress": "Maynard 3,Hanover,NH,US,03755",
  "InstitutionName": "dartmouth_brain_imaging_center",
  "InstitutionalDepartmentName": "Department",
  "MRAcquisitionType": "2D",
  "MagneticFieldStrength": 3,
  "Manufacturer": "Siemens",
  "ManufacturersModelName": "Prisma",
  "Modality": "MR",
  "MultibandAccelerationFactor": 8,
  "PartialFourier": 1,
  "PatientPosition": "HFS",
  "PercentPhaseFOV": 100,
  "PercentSampling": 100,
  "PhaseEncodingDirection": "j-",
  "PhaseEncodingSteps": 82,
  "PhaseResolution": 1,
  "PixelBandwidth": 3050,
  "ProcedureStepDescription": "Wager_Wager^1076_spacetop",
  "ProtocolName": "func_run-01_task-alignvideo_acq-ap-mb8",
  "PulseSequenceDetails": "%CustomerSeq%\\cmrr_mbep2d_bold",
  "ReceiveCoilActiveElements": "HEA;HEP",
  "ReceiveCoilName": "Head_32",
  "ReconMatrixPE": 82,
  "RepetitionTime": 0.46,
  "SAR": 0.107274,
  "ScanOptions": "FS",
  "ScanningSequence": "EP",
  "SequenceName": "epfid2d1_82",
  "SequenceVariant": "SK\\SS",
  "SeriesDescription": "func_run-01_task-alignvideo_acq-ap-mb8",
  "SeriesNumber": 26,
  "ShimSetting": [4156, -7718, -7246, 379, -82, 11, 17, 59],
  "SliceThickness": 2.7,
  "SliceTiming": [0, 0.2525, 0.0625, 0.315, 0.125, 0.3775, 0.1875, 0, 0.2525, 0.0625, 0.315, 0.125, 0.3775, 0.1875, 0, 0.2525, 0.0625, 0.315, 0.125, 0.3775, 0.1875, 0, 0.2525, 0.0625, 0.315, 0.125, 0.3775, 0.1875, 0, 0.2525, 0.0625, 0.315, 0.125, 0.3775, 0.1875, 0, 0.2525, 0.0625, 0.315, 0.125, 0.3775, 0.1875, 0, 0.2525, 0.0625, 0.315, 0.125, 0.3775, 0.1875, 0, 0.2525, 0.0625, 0.315, 0.125, 0.3775, 0.1875],
  "SoftwareVersions": "syngo MR E11",
  "SpacingBetweenSlices": 2.7,
  "StationName": "AWP66112",
  "TaskName": "alignvideo",
  "TotalReadoutTime": 0.03969,
  "TxRefAmp": 262.462,
  "WipMemBlock": "a3ad32d8-5eff-474a-815e-72287792acd4||Sequence: R016 ve11c/master r/e634e98; Dec 19 2017 11:00:25 by eja",
  "dcmmeta_affine": [
    [-2.6804919242858887, -0.04070466756820679, 0.1074620857834816, 113.3653335571289],
    [-0.05859266594052315, 2.6418943405151367, -0.4666948616504669, -71.08614349365234],
    [0.09811363369226456, 0.4656549394130707, 2.6571879386901855, -69.59120178222656],
    [0.0, 0.0, 0.0, 1.0]
],
  "dcmmeta_reorient_transform": [
    [0.0, -1.0, 0.0, 81.0],
    [1.0, 0.0, 0.0, 0.0],
    [0.0, 0.0, 1.0, 0.0],
    [0.0, 0.0, 0.0, 1.0]
],
  "dcmmeta_shape": [82, 82, 56, 1073],
  "dcmmeta_slice_dim": 2,
  "dcmmeta_version": 0.6,
  "global": {
    "const": {
      "AccessionNumber": "A003499",
      "AcquisitionMatrix": [82, 0, 0, 82],
      "AngioFlag": "N",
      "BitsAllocated": 16,
      "BitsStored": 16,
      "BodyPartExamined": "BRAIN",
      "Columns": 656,
      "EchoNumbers": 1,
      "EchoTime": 27.2,
      "EchoTrainLength": 82,
      "FlipAngle": 44.0,
      "HighBit": 15,
      "ImageOrientationPatient": [0.99909244655458, 0.02183908467415, 0.03656962698985, -0.0151717392698, 0.98470602253399, -0.1735622871272],
      "ImagePositionPatient": [-867.6872185094, -917.94704379994, 73.611195314876],
      "ImageType": [
        "ORIGINAL",
        "PRIMARY",
        "M",
        "MB",
        "ND",
        "NORM",
        "MOSAIC"
],
      "ImagedNucleus": "1H",
      "ImagingFrequency": 123.252131,
      "InPlanePhaseEncodingDirection": "COL",
      "MRAcquisitionType": "2D",
      "MagneticFieldStrength": 3.0,
      "Manufacturer": "SIEMENS",
      "ManufacturerModelName": "Prisma",
      "Modality": "MR",
      "NumberOfAverages": 1.0,
      "NumberOfPhaseEncodingSteps": 82,
      "PercentPhaseFieldOfView": 100.0,
      "PercentSampling": 100.0,
      "PerformedProcedureStepStartTime": "145934.524000",
      "PhotometricInterpretation": "MONOCHROME2",
      "PixelBandwidth": 3050.0,
      "PixelRepresentation": 0,
      "PixelSpacing": [2.6829268932343, 2.6829268932343],
      "ProtocolName": "func_run-01_task-alignvideo_acq-ap-mb8",
      "RepetitionTime": 460.0,
      "Rows": 656,
      "SAR": 0.1072744152547,
      "SamplesPerPixel": 1,
      "ScanOptions": "FS",
      "ScanningSequence": "EP",
      "SequenceName": "epfid2d1_82",
      "SequenceVariant": [
        "SK",
        "SS"
],
      "SeriesDescription": "func_run-01_task-alignvideo_acq-ap-mb8",
      "SeriesNumber": 26,
      "SeriesTime": "160842.960000",
      "SliceLocation": -51.688480763546,
      "SliceThickness": 2.7000000476837,
      "SmallestImagePixelValue": 0,
      "SoftwareVersions": "syngo MR E11",
      "SpacingBetweenSlices": 2.69999997256,
      "SpecificCharacterSet": "ISO_IR 100",
      "StudyID": "1",
      "StudyTime": "145934.456000",
      "TransmitCoilName": "Body",
      "VariableFlipAngleFlag": "N",
      "WindowCenterWidthExplanation": "Algo1",
      "dBdt": 0.0},
    "slices": {}
  },
  "time": {
    "samples": {
      "AcquisitionNumber": [1, 2, 3, 4, 5, 6, 7, 8, 9, 10, 11, 12, 13, 14, 15, 16, 17, 18, 19, 20, 21, 22, 23, 24, 25, 26, 27, 28, 29, 30, 31, 32, 33, 34, 35, 36, 37, 38, 39, 40, 41, 42, 43, 44, 45, 46, 47, 48, 49, 50, 51, 52, 53, 54, 55, 56, 57, 58, 59, 60, 61, 62, 63, 64, 65, 66, 67, 68, 69, 70, 71, 72, 73, 74, 75, 76, 77, 78, 79, 80, 81, 82, 83, 84, 85, 86, 87, 88, 89, 90, 91, 92, 93, 94, 95, 96, 97, 98, 99, 100, 101, 102, 103, 104, 105, 106, 107, 108, 109, 110, 111, 112, 113, 114, 115, 116, 117, 118, 119, 120, 121, 122, 123, 124, 125, 126, 127, 128, 129, 130, 131, 132, 133, 134, 135, 136, 137, 138, 139, 140, 141, 142, 143, 144, 145, 146, 147, 148, 149, 150, 151, 152, 153, 154, 155, 156, 157, 158, 159, 160, 161, 162, 163, 164, 165, 166, 167, 168, 169, 170, 171, 172, 173, 174, 175, 176, 177, 178, 179, 180, 181, 182, 183, 184, 185, 186, 187, 188, 189, 190, 191, 192, 193, 194, 195, 196, 197, 198, 199, 200, 201, 202, 203, 204, 205, 206, 207, 208, 209, 210, 211, 212, 213, 214, 215, 216, 217, 218, 219, 220, 221, 222, 223, 224, 225, 226, 227, 228, 229, 230, 231, 232, 233, 234, 235, 236, 237, 238, 239, 240, 241, 242, 243, 244, 245, 246, 247, 248, 249, 250, 251, 252, 253, 254, 255, 256, 257, 258, 259, 260, 261, 262, 263, 264, 265, 266, 267, 268, 269, 270, 271, 272, 273, 274, 275, 276, 277, 278, 279, 280, 281, 282, 283, 284, 285, 286, 287, 288, 289, 290, 291, 292, 293, 294, 295, 296, 297, 298, 299, 300, 301, 302, 303, 304, 305, 306, 307, 308, 309, 310, 311, 312, 313, 314, 315, 316, 317, 318, 319, 320, 321, 322, 323, 324, 325, 326, 327, 328, 329, 330, 331, 332, 333, 334, 335, 336, 337, 338, 339, 340, 341, 342, 343, 344, 345, 346, 347, 348, 349, 350, 351, 352, 353, 354, 355, 356, 357, 358, 359, 360, 361, 362, 363, 364, 365, 366, 367, 368, 369, 370, 371, 372, 373, 374, 375, 376, 377, 378, 379, 380, 381, 382, 383, 384, 385, 386, 387, 388, 389, 390, 391, 392, 393, 394, 395, 396, 397, 398, 399, 400, 401, 402, 403, 404, 405, 406, 407, 408, 409, 410, 411, 412, 413, 414, 415, 416, 417, 418, 419, 420, 421, 422, 423, 424, 425, 426, 427, 428, 429, 430, 431, 432, 433, 434, 435, 436, 437, 438, 439, 440, 441, 442, 443, 444, 445, 446, 447, 448, 449, 450, 451, 452, 453, 454, 455, 456, 457, 458, 459, 460, 461, 462, 463, 464, 465, 466, 467, 468, 469, 470, 471, 472, 473, 474, 475, 476, 477, 478, 479, 480, 481, 482, 483, 484, 485, 486, 487, 488, 489, 490, 491, 492, 493, 494, 495, 496, 497, 498, 499, 500, 501, 502, 503, 504, 505, 506, 507, 508, 509, 510, 511, 512, 513, 514, 515, 516, 517, 518, 519, 520, 521, 522, 523, 524, 525, 526, 527, 528, 529, 530, 531, 532, 533, 534, 535, 536, 537, 538, 539, 540, 541, 542, 543, 544, 545, 546, 547, 548, 549, 550, 551, 552, 553, 554, 555, 556, 557, 558, 559, 560, 561, 562, 563, 564, 565, 566, 567, 568, 569, 570, 571, 572, 573, 574, 575, 576, 577, 578, 579, 580, 581, 582, 583, 584, 585, 586, 587, 588, 589, 590, 591, 592, 593, 594, 595, 596, 597, 598, 599, 600, 601, 602, 603, 604, 605, 606, 607, 608, 609, 610, 611, 612, 613, 614, 615, 616, 617, 618, 619, 620, 621, 622, 623, 624, 625, 626, 627, 628, 629, 630, 631, 632, 633, 634, 635, 636, 637, 638, 639, 640, 641, 642, 643, 644, 645, 646, 647, 648, 649, 650, 651, 652, 653, 654, 655, 656, 657, 658, 659, 660, 661, 662, 663, 664, 665, 666, 667, 668, 669, 670, 671, 672, 673, 674, 675, 676, 677, 678, 679, 680, 681, 682, 683, 684, 685, 686, 687, 688, 689, 690, 691, 692, 693, 694, 695, 696, 697, 698, 699, 700, 701, 702, 703, 704, 705, 706, 707, 708, 709, 710, 711, 712, 713, 714, 715, 716, 717, 718, 719, 720, 721, 722, 723, 724, 725, 726, 727, 728, 729, 730, 731, 732, 733, 734, 735, 736, 737, 738, 739, 740, 741, 742, 743, 744, 745, 746, 747, 748, 749, 750, 751, 752, 753, 754, 755, 756, 757, 758, 759, 760, 761, 762, 763, 764, 765, 766, 767, 768, 769, 770, 771, 772, 773, 774, 775, 776, 777, 778, 779, 780, 781, 782, 783, 784, 785, 786, 787, 788, 789, 790, 791, 792, 793, 794, 795, 796, 797, 798, 799, 800, 801, 802, 803, 804, 805, 806, 807, 808, 809, 810, 811, 812, 813, 814, 815, 816, 817, 818, 819, 820, 821, 822, 823, 824, 825, 826, 827, 828, 829, 830, 831, 832, 833, 834, 835, 836, 837, 838, 839, 840, 841, 842, 843, 844, 845, 846, 847, 848, 849, 850, 851, 852, 853, 854, 855, 856, 857, 858, 859, 860, 861, 862, 863, 864, 865, 866, 867, 868, 869, 870, 871, 872, 873, 874, 875, 876, 877, 878, 879, 880, 881, 882, 883, 884, 885, 886, 887, 888, 889, 890, 891, 892, 893, 894, 895, 896, 897, 898, 899, 900, 901, 902, 903, 904, 905, 906, 907, 908, 909, 910, 911, 912, 913, 914, 915, 916, 917, 918, 919, 920, 921, 922, 923, 924, 925, 926, 927, 928, 929, 930, 931, 932, 933, 934, 935, 936, 937, 938, 939, 940, 941, 942, 943, 944, 945, 946, 947, 948, 949, 950, 951, 952, 953, 954, 955, 956, 957, 958, 959, 960, 961, 962, 963, 964, 965, 966, 967, 968, 969, 970, 971, 972, 973, 974, 975, 976, 977, 978, 979, 980, 981, 982, 983, 984, 985, 986, 987, 988, 989, 990, 991, 992, 993, 994, 995, 996, 997, 998, 999, 1000, 1001, 1002, 1003, 1004, 1005, 1006, 1007, 1008, 1009, 1010, 1011, 1012, 1013, 1014, 1015, 1016, 1017, 1018, 1019, 1020, 1021, 1022, 1023, 1024, 1025, 1026, 1027, 1028, 1029, 1030, 1031, 1032, 1033, 1034, 1035, 1036, 1037, 1038, 1039, 1040, 1041, 1042, 1043, 1044, 1045, 1046, 1047, 1048, 1049, 1050, 1051, 1052, 1053, 1054, 1055, 1056, 1057, 1058, 1059, 1060, 1061, 1062, 1063, 1064, 1065, 1066, 1067, 1068, 1069, 1070, 1071, 1072, 1073],
      "AcquisitionTime": ["160813.790000", "160814.250000", "160814.710000", "160815.170000", "160815.630000", "160816.090000", "160816.550000", "160817.010000", "160817.470000", "160817.930000", "160818.390000", "160818.850000", "160819.310000", "160819.770000", "160820.230000", "160820.690000", "160821.150000", "160821.610000", "160822.070000", "160822.530000", "160822.990000", "160823.450000", "160823.910000", "160824.370000", "160824.830000", "160825.290000", "160825.750000", "160826.210000", "160826.670000", "160827.130000", "160827.590000", "160828.050000", "160828.510000", "160828.970000", "160829.430000", "160829.890000", "160830.350000", "160830.810000", "160831.270000", "160831.730000", "160832.190000", "160832.650000", "160833.110000", "160833.570000", "160834.030000", "160834.490000", "160834.950000", "160835.410000", "160835.870000", "160836.330000", "160836.790000", "160837.250000", "160837.710000", "160838.170000", "160838.630000", "160839.090000", "160839.550000", "160840.010000", "160840.470000", "160840.930000", "160841.390000", "160841.850000", "160842.310000", "160842.770000", "160843.230000", "160843.690000", "160844.150000", "160844.610000", "160845.070000", "160845.530000", "160845.990000", "160846.450000", "160846.910000", "160847.370000", "160847.830000", "160848.290000", "160848.750000", "160849.210000", "160849.670000", "160850.130000", "160850.590000", "160851.050000", "160851.510000", "160851.970000", "160852.430000", "160852.890000", "160853.350000", "160853.810000", "160854.270000", "160854.730000", "160855.190000", "160855.650000", "160856.110000", "160856.570000", "160857.030000", "160857.490000", "160857.950000", "160858.410000", "160858.870000", "160859.330000", "160859.790000", "160900.250000", "160900.710000", "160901.170000", "160901.630000", "160902.090000", "160902.550000", "160903.010000", "160903.470000", "160903.930000", "160904.390000", "160904.850000", "160905.310000", "160905.770000", "160906.230000", "160906.690000", "160907.150000", "160907.610000", "160908.070000", "160908.530000", "160908.990000", "160909.450000", "160909.910000", "160910.370000", "160910.830000", "160911.290000", "160911.750000", "160912.210000", "160912.670000", "160913.130000", "160913.590000", "160914.050000", "160914.510000", "160914.970000", "160915.430000", "160915.890000", "160916.350000", "160916.810000", "160917.270000", "160917.730000", "160918.190000", "160918.650000", "160919.110000", "160919.570000", "160920.030000", "160920.490000", "160920.950000", "160921.410000", "160921.870000", "160922.330000", "160922.790000", "160923.250000", "160923.710000", "160924.170000", "160924.630000", "160925.090000", "160925.550000", "160926.010000", "160926.470000", "160926.930000", "160927.390000", "160927.850000", "160928.310000", "160928.770000", "160929.230000", "160929.690000", "160930.150000", "160930.610000", "160931.070000", "160931.530000", "160931.990000", "160932.450000", "160932.910000", "160933.370000", "160933.830000", "160934.290000", "160934.750000", "160935.210000", "160935.670000", "160936.130000", "160936.590000", "160937.050000", "160937.510000", "160937.970000", "160938.430000", "160938.890000", "160939.350000", "160939.810000", "160940.270000", "160940.730000", "160941.190000", "160941.650000", "160942.110000", "160942.570000", "160943.030000", "160943.490000", "160943.950000", "160944.410000", "160944.870000", "160945.330000", "160945.790000", "160946.250000", "160946.710000", "160947.170000", "160947.630000", "160948.090000", "160948.550000", "160949.010000", "160949.470000", "160949.930000", "160950.390000", "160950.850000", "160951.310000", "160951.770000", "160952.230000", "160952.690000", "160953.150000", "160953.610000", "160954.070000", "160954.530000", "160954.990000", "160955.450000", "160955.910000", "160956.370000", "160956.830000", "160957.290000", "160957.750000", "160958.210000", "160958.670000", "160959.130000", "160959.590000", "161000.050000", "161000.510000", "161000.970000", "161001.430000", "161001.890000", "161002.350000", "161002.810000", "161003.270000", "161003.730000", "161004.190000", "161004.650000", "161005.110000", "161005.570000", "161006.030000", "161006.490000", "161006.950000", "161007.410000", "161007.870000", "161008.330000", "161008.790000", "161009.250000", "161009.710000", "161010.170000", "161010.630000", "161011.090000", "161011.550000", "161012.010000", "161012.470000", "161012.930000", "161013.390000", "161013.850000", "161014.310000", "161014.770000", "161015.230000", "161015.690000", "161016.150000", "161016.610000", "161017.070000", "161017.530000", "161017.990000", "161018.450000", "161018.910000", "161019.370000", "161019.830000", "161020.290000", "161020.750000", "161021.210000", "161021.670000", "161022.130000", "161022.590000", "161023.050000", "161023.510000", "161023.970000", "161024.430000", "161024.890000", "161025.350000", "161025.810000", "161026.270000", "161026.730000", "161027.190000", "161027.650000", "161028.110000", "161028.570000", "161029.030000", "161029.490000", "161029.950000", "161030.410000", "161030.870000", "161031.330000", "161031.790000", "161032.250000", "161032.710000", "161033.170000", "161033.630000", "161034.090000", "161034.550000", "161035.010000", "161035.470000", "161035.930000", "161036.390000", "161036.850000", "161037.310000", "161037.770000", "161038.230000", "161038.690000", "161039.150000", "161039.610000", "161040.070000", "161040.530000", "161040.990000", "161041.450000", "161041.910000", "161042.370000", "161042.830000", "161043.290000", "161043.750000", "161044.210000", "161044.670000", "161045.130000", "161045.590000", "161046.050000", "161046.510000", "161046.970000", "161047.430000", "161047.890000", "161048.350000", "161048.810000", "161049.270000", "161049.730000", "161050.190000", "161050.650000", "161051.110000", "161051.570000", "161052.030000", "161052.490000", "161052.950000", "161053.410000", "161053.870000", "161054.330000", "161054.790000", "161055.250000", "161055.710000", "161056.170000", "161056.630000", "161057.090000", "161057.550000", "161058.010000", "161058.470000", "161058.930000", "161059.390000", "161059.850000", "161100.310000", "161100.770000", "161101.230000", "161101.690000", "161102.150000", "161102.610000", "161103.070000", "161103.530000", "161103.990000", "161104.450000", "161104.910000", "161105.370000", "161105.830000", "161106.290000", "161106.750000", "161107.210000", "161107.670000", "161108.130000", "161108.590000", "161109.050000", "161109.510000", "161109.970000", "161110.430000", "161110.890000", "161111.350000", "161111.810000", "161112.270000", "161112.730000", "161113.190000", "161113.650000", "161114.110000", "161114.570000", "161115.030000", "161115.490000", "161115.950000", "161116.410000", "161116.870000", "161117.330000", "161117.790000", "161118.250000", "161118.710000", "161119.170000", "161119.630000", "161120.090000", "161120.550000", "161121.010000", "161121.470000", "161121.930000", "161122.390000", "161122.850000", "161123.310000", "161123.770000", "161124.230000", "161124.690000", "161125.150000", "161125.610000", "161126.070000", "161126.530000", "161126.990000", "161127.450000", "161127.910000", "161128.370000", "161128.830000", "161129.290000", "161129.750000", "161130.210000", "161130.670000", "161131.130000", "161131.590000", "161132.050000", "161132.510000", "161132.970000", "161133.430000", "161133.890000", "161134.350000", "161134.810000", "161135.270000", "161135.730000", "161136.190000", "161136.650000", "161137.110000", "161137.570000", "161138.030000", "161138.490000", "161138.950000", "161139.410000", "161139.870000", "161140.330000", "161140.790000", "161141.250000", "161141.710000", "161142.170000", "161142.630000", "161143.090000", "161143.550000", "161144.010000", "161144.470000", "161144.930000", "161145.390000", "161145.850000", "161146.310000", "161146.770000", "161147.230000", "161147.690000", "161148.150000", "161148.610000", "161149.070000", "161149.530000", "161149.990000", "161150.450000", "161150.910000", "161151.370000", "161151.830000", "161152.290000", "161152.750000", "161153.210000", "161153.670000", "161154.130000", "161154.590000", "161155.050000", "161155.510000", "161155.970000", "161156.430000", "161156.890000", "161157.350000", "161157.810000", "161158.270000", "161158.730000", "161159.190000", "161159.650000", "161200.110000", "161200.570000", "161201.030000", "161201.490000", "161201.950000", "161202.410000", "161202.870000", "161203.330000", "161203.790000", "161204.250000", "161204.710000", "161205.170000", "161205.630000", "161206.090000", "161206.550000", "161207.010000", "161207.470000", "161207.930000", "161208.390000", "161208.850000", "161209.310000", "161209.770000", "161210.230000", "161210.690000", "161211.150000", "161211.610000", "161212.070000", "161212.530000", "161212.990000", "161213.450000", "161213.910000", "161214.370000", "161214.830000", "161215.290000", "161215.750000", "161216.210000", "161216.670000", "161217.130000", "161217.590000", "161218.050000", "161218.510000", "161218.970000", "161219.430000", "161219.890000", "161220.350000", "161220.810000", "161221.270000", "161221.730000", "161222.190000", "161222.650000", "161223.110000", "161223.570000", "161224.030000", "161224.490000", "161224.950000", "161225.410000", "161225.870000", "161226.330000", "161226.790000", "161227.250000", "161227.710000", "161228.170000", "161228.630000", "161229.090000", "161229.550000", "161230.010000", "161230.470000", "161230.930000", "161231.390000", "161231.850000", "161232.310000", "161232.770000", "161233.230000", "161233.690000", "161234.150000", "161234.610000", "161235.070000", "161235.530000", "161235.990000", "161236.450000", "161236.910000", "161237.370000", "161237.830000", "161238.290000", "161238.750000", "161239.210000", "161239.670000", "161240.130000", "161240.590000", "161241.050000", "161241.510000", "161241.970000", "161242.430000", "161242.890000", "161243.350000", "161243.810000", "161244.270000", "161244.730000", "161245.190000", "161245.650000", "161246.110000", "161246.570000", "161247.030000", "161247.490000", "161247.950000", "161248.410000", "161248.870000", "161249.330000", "161249.790000", "161250.250000", "161250.710000", "161251.170000", "161251.630000", "161252.090000", "161252.550000", "161253.010000", "161253.470000", "161253.930000", "161254.390000", "161254.850000", "161255.310000", "161255.770000", "161256.230000", "161256.690000", "161257.150000", "161257.610000", "161258.070000", "161258.530000", "161258.990000", "161259.450000", "161259.910000", "161300.370000", "161300.830000", "161301.290000", "161301.750000", "161302.210000", "161302.670000", "161303.130000", "161303.590000", "161304.050000", "161304.510000", "161304.970000", "161305.430000", "161305.890000", "161306.350000", "161306.810000", "161307.270000", "161307.730000", "161308.190000", "161308.650000", "161309.110000", "161309.570000", "161310.030000", "161310.490000", "161310.950000", "161311.410000", "161311.870000", "161312.330000", "161312.790000", "161313.250000", "161313.710000", "161314.170000", "161314.630000", "161315.090000", "161315.550000", "161316.010000", "161316.470000", "161316.930000", "161317.390000", "161317.850000", "161318.310000", "161318.770000", "161319.230000", "161319.690000", "161320.150000", "161320.610000", "161321.070000", "161321.530000", "161321.990000", "161322.450000", "161322.910000", "161323.370000", "161323.830000", "161324.290000", "161324.750000", "161325.210000", "161325.670000", "161326.130000", "161326.590000", "161327.050000", "161327.510000", "161327.970000", "161328.430000", "161328.890000", "161329.350000", "161329.810000", "161330.270000", "161330.730000", "161331.190000", "161331.650000", "161332.110000", "161332.570000", "161333.030000", "161333.490000", "161333.950000", "161334.410000", "161334.870000", "161335.330000", "161335.790000", "161336.250000", "161336.710000", "161337.170000", "161337.630000", "161338.090000", "161338.550000", "161339.010000", "161339.470000", "161339.930000", "161340.390000", "161340.850000", "161341.310000", "161341.770000", "161342.230000", "161342.690000", "161343.150000", "161343.610000", "161344.070000", "161344.530000", "161344.990000", "161345.450000", "161345.910000", "161346.370000", "161346.830000", "161347.290000", "161347.750000", "161348.210000", "161348.670000", "161349.130000", "161349.590000", "161350.050000", "161350.510000", "161350.970000", "161351.430000", "161351.890000", "161352.350000", "161352.810000", "161353.270000", "161353.730000", "161354.190000", "161354.650000", "161355.110000", "161355.570000", "161356.030000", "161356.490000", "161356.950000", "161357.410000", "161357.870000", "161358.330000", "161358.790000", "161359.250000", "161359.710000", "161400.170000", "161400.630000", "161401.090000", "161401.550000", "161402.010000", "161402.470000", "161402.930000", "161403.390000", "161403.850000", "161404.310000", "161404.770000", "161405.230000", "161405.690000", "161406.150000", "161406.610000", "161407.070000", "161407.530000", "161407.990000", "161408.450000", "161408.910000", "161409.370000", "161409.830000", "161410.290000", "161410.750000", "161411.210000", "161411.670000", "161412.130000", "161412.590000", "161413.050000", "161413.510000", "161413.970000", "161414.430000", "161414.890000", "161415.350000", "161415.810000", "161416.270000", "161416.730000", "161417.190000", "161417.650000", "161418.110000", "161418.570000", "161419.030000", "161419.490000", "161419.950000", "161420.410000", "161420.870000", "161421.330000", "161421.790000", "161422.250000", "161422.710000", "161423.170000", "161423.630000", "161424.090000", "161424.550000", "161425.010000", "161425.470000", "161425.930000", "161426.390000", "161426.850000", "161427.310000", "161427.770000", "161428.230000", "161428.690000", "161429.150000", "161429.610000", "161430.070000", "161430.530000", "161430.990000", "161431.450000", "161431.910000", "161432.370000", "161432.830000", "161433.290000", "161433.750000", "161434.210000", "161434.670000", "161435.130000", "161435.590000", "161436.050000", "161436.510000", "161436.970000", "161437.430000", "161437.890000", "161438.350000", "161438.810000", "161439.270000", "161439.730000", "161440.190000", "161440.650000", "161441.110000", "161441.570000", "161442.030000", "161442.490000", "161442.950000", "161443.410000", "161443.870000", "161444.330000", "161444.790000", "161445.250000", "161445.710000", "161446.170000", "161446.630000", "161447.090000", "161447.550000", "161448.010000", "161448.470000", "161448.930000", "161449.390000", "161449.850000", "161450.310000", "161450.770000", "161451.230000", "161451.690000", "161452.150000", "161452.610000", "161453.070000", "161453.530000", "161453.990000", "161454.450000", "161454.910000", "161455.370000", "161455.830000", "161456.290000", "161456.750000", "161457.210000", "161457.670000", "161458.130000", "161458.590000", "161459.050000", "161459.510000", "161459.970000", "161500.430000", "161500.890000", "161501.350000", "161501.810000", "161502.270000", "161502.730000", "161503.190000", "161503.650000", "161504.110000", "161504.570000", "161505.030000", "161505.490000", "161505.950000", "161506.410000", "161506.870000", "161507.330000", "161507.790000", "161508.250000", "161508.710000", "161509.170000", "161509.630000", "161510.090000", "161510.550000", "161511.010000", "161511.470000", "161511.930000", "161512.390000", "161512.850000", "161513.310000", "161513.770000", "161514.230000", "161514.690000", "161515.150000", "161515.610000", "161516.070000", "161516.530000", "161516.990000", "161517.450000", "161517.910000", "161518.370000", "161518.830000", "161519.290000", "161519.750000", "161520.210000", "161520.670000", "161521.130000", "161521.590000", "161522.050000", "161522.510000", "161522.970000", "161523.430000", "161523.890000", "161524.350000", "161524.810000", "161525.270000", "161525.730000", "161526.190000", "161526.650000", "161527.110000", "161527.570000", "161528.030000", "161528.490000", "161528.950000", "161529.410000", "161529.870000", "161530.330000", "161530.790000", "161531.250000", "161531.710000", "161532.170000", "161532.630000", "161533.090000", "161533.550000", "161534.010000", "161534.470000", "161534.930000", "161535.390000", "161535.850000", "161536.310000", "161536.770000", "161537.230000", "161537.690000", "161538.150000", "161538.610000", "161539.070000", "161539.530000", "161539.990000", "161540.450000", "161540.910000", "161541.370000", "161541.830000", "161542.290000", "161542.750000", "161543.210000", "161543.670000", "161544.130000", "161544.590000", "161545.050000", "161545.510000", "161545.970000", "161546.430000", "161546.890000", "161547.350000", "161547.810000", "161548.270000", "161548.730000", "161549.190000", "161549.650000", "161550.110000", "161550.570000", "161551.030000", "161551.490000", "161551.950000", "161552.410000", "161552.870000", "161553.330000", "161553.790000", "161554.250000", "161554.710000", "161555.170000", "161555.630000", "161556.090000", "161556.550000", "161557.010000", "161557.470000", "161557.930000", "161558.390000", "161558.850000", "161559.310000", "161559.770000", "161600.230000", "161600.690000", "161601.150000", "161601.610000", "161602.070000", "161602.530000", "161602.990000", "161603.450000", "161603.910000", "161604.370000", "161604.830000", "161605.290000", "161605.750000", "161606.210000", "161606.670000", "161607.130000", "161607.590000", "161608.050000", "161608.510000", "161608.970000", "161609.430000", "161609.890000", "161610.350000", "161610.810000", "161611.270000", "161611.730000", "161612.190000", "161612.650000", "161613.110000", "161613.570000", "161614.030000", "161614.490000", "161614.950000", "161615.410000", "161615.870000", "161616.330000", "161616.790000", "161617.250000", "161617.710000", "161618.170000", "161618.630000", "161619.090000", "161619.550000", "161620.010000", "161620.470000", "161620.930000", "161621.390000", "161621.850000", "161622.310000", "161622.770000", "161623.230000", "161623.690000", "161624.150000", "161624.610000", "161625.070000", "161625.530000", "161625.990000", "161626.450000", "161626.910000"],
