{
  "AcquisitionMatrixPE": 82,
  "AcquisitionNumber": 1,
  "AcquisitionTime": "09:35:26.742500",
  "BandwidthPerPixelPhaseEncode": 24.888,
  "BaseResolution": 82,
  "BodyPartExamined": "BRAIN",
  "ConsistencyInfo": "N4_VE11C_LATEST_20160120",
  "ConversionSoftware": "dcm2niix",
  "ConversionSoftwareVersion": "v1.0.20201102",
  "DerivedVendorReportedEchoSpacing": 0.00049,
  "DeviceSerialNumber": "66112",
  "DwellTime": 2e-06,
  "EchoTime": 0.0272,
  "EchoTrainLength": 82,
  "EffectiveEchoSpacing": 0.00049,
  "FlipAngle": 44,
  "ImageComments": "Unaliased MB8/PE3",
  "ImageOrientationPatientDICOM": [0.995475, -0.0588087, 0.074643, 0.0544357, 0.996753, 0.0593271],
  "ImageType": [
    "ORIGINAL",
    "PRIMARY",
    "M",
    "MB",
    "ND",
    "NORM",
    "MOSAIC"
],
  "ImagingFrequency": 123.252,
  "InPlanePhaseEncodingDirectionDICOM": "COL",
  "InstitutionAddress": "Maynard 3,Hanover,NH,US,03755",
  "InstitutionName": "Dartmouth College - PBS",
  "InstitutionalDepartmentName": "Department",
  "MRAcquisitionType": "2D",
  "MagneticFieldStrength": 3,
  "Manufacturer": "Siemens",
  "ManufacturersModelName": "Prisma",
  "Modality": "MR",
  "MultibandAccelerationFactor": 8,
  "PartialFourier": 1,
  "PatientPosition": "HFS",
  "PercentPhaseFOV": 100,
  "PercentSampling": 100,
  "PhaseEncodingDirection": "j-",
  "PhaseEncodingSteps": 82,
  "PhaseResolution": 1,
  "PixelBandwidth": 3050,
  "ProcedureStepDescription": "Wager_Wager^1076_spacetop",
  "ProtocolName": "func_run-01_task-social_acq-ap-mb8",
  "PulseSequenceDetails": "%CustomerSeq%\\cmrr_mbep2d_bold",
  "ReceiveCoilActiveElements": "HEA;HEP",
  "ReceiveCoilName": "Head_32",
  "ReconMatrixPE": 82,
  "RepetitionTime": 0.46,
  "SAR": 0.100313,
  "ScanOptions": "FS",
  "ScanningSequence": "EP",
  "SequenceName": "epfid2d1_82",
  "SequenceVariant": "SK\\SS",
  "SeriesDescription": "func_run-01_task-social_acq-ap-mb8",
  "SeriesNumber": 12,
  "ShimSetting": [4165, -7742, -7236, 640, -67, -214, -22, 11],
  "SliceThickness": 2.7,
  "SliceTiming": [0, 0.2525, 0.065, 0.315, 0.1275, 0.3775, 0.19, 0, 0.2525, 0.065, 0.315, 0.1275, 0.3775, 0.19, 0, 0.2525, 0.065, 0.315, 0.1275, 0.3775, 0.19, 0, 0.2525, 0.065, 0.315, 0.1275, 0.3775, 0.19, 0, 0.2525, 0.065, 0.315, 0.1275, 0.3775, 0.19, 0, 0.2525, 0.065, 0.315, 0.1275, 0.3775, 0.19, 0, 0.2525, 0.065, 0.315, 0.1275, 0.3775, 0.19, 0, 0.2525, 0.065, 0.315, 0.1275, 0.3775, 0.19],
  "SoftwareVersions": "syngo MR E11",
  "SpacingBetweenSlices": 2.7,
  "StationName": "AWP66112",
  "TaskName": "social",
  "TotalReadoutTime": 0.03969,
  "TxRefAmp": 232.903,
  "WipMemBlock": "88ed409f-8f72-4170-878a-b407e272b04d||Sequence: R016 ve11c/master r/e634e98; Dec 19 2017 11:00:25 by eja",
  "dcmmeta_affine": [
    [-2.670785903930664, 0.14604713022708893, 0.21030192077159882, 99.62892150878906],
    [0.15777945518493652, 2.6742160320281982, 0.1484876573085785, -89.274658203125],
    [0.2002616971731186, -0.15917040407657623, 2.6876988410949707, -63.83384323120117],
    [0.0, 0.0, 0.0, 1.0]
],
  "dcmmeta_reorient_transform": [
    [0.0, -1.0, 0.0, 81.0],
    [1.0, 0.0, 0.0, 0.0],
    [0.0, 0.0, 1.0, 0.0],
    [0.0, 0.0, 0.0, 1.0]
],
  "dcmmeta_shape": [82, 82, 56, 872],
  "dcmmeta_slice_dim": 2,
  "dcmmeta_version": 0.6,
  "global": {
    "const": {
      "AccessionNumber": "A003662",
      "AcquisitionMatrix": [82, 0, 0, 82],
      "AngioFlag": "N",
      "BitsAllocated": 16,
      "BitsStored": 16,
      "BodyPartExamined": "BRAIN",
      "Columns": 656,
      "EchoNumbers": 1,
      "EchoTime": 27.2,
      "EchoTrainLength": 82,
      "FlipAngle": 44.0,
      "HighBit": 15,
      "ImageOrientationPatient": [0.99547474077789, -0.0588087030131, 0.07464299647731, 0.05443574556601, 0.9967532488731, 0.05932714779587],
      "ImagePositionPatient": [-919.88983597865, -849.55416101467, -179.88365897043],
      "ImageType": [
        "ORIGINAL",
        "PRIMARY",
        "M",
        "MB",
        "ND",
        "NORM",
        "MOSAIC"
],
      "ImagedNucleus": "1H",
      "ImagingFrequency": 123.252167,
      "InPlanePhaseEncodingDirection": "COL",
      "MRAcquisitionType": "2D",
      "MagneticFieldStrength": 3.0,
      "Manufacturer": "SIEMENS",
      "ManufacturerModelName": "Prisma",
      "Modality": "MR",
      "NumberOfAverages": 1.0,
      "NumberOfPhaseEncodingSteps": 82,
      "PercentPhaseFieldOfView": 100.0,
      "PercentSampling": 100.0,
      "PerformedProcedureStepStartTime": "085626.278000",
      "PhotometricInterpretation": "MONOCHROME2",
      "PixelBandwidth": 3050.0,
      "PixelRepresentation": 0,
      "PixelSpacing": [2.6829268932343, 2.6829268932343],
      "ProtocolName": "func_run-01_task-social_acq-ap-mb8",
      "RepetitionTime": 460.0,
      "Rows": 656,
      "SAR": 0.10031283017275,
      "SamplesPerPixel": 1,
      "ScanOptions": "FS",
      "ScanningSequence": "EP",
      "SequenceName": "epfid2d1_82",
      "SequenceVariant": [
        "SK",
        "SS"
],
      "SeriesDescription": "func_run-01_task-social_acq-ap-mb8",
      "SeriesNumber": 12,
      "SeriesTime": "093537.819000",
      "SliceLocation": -60.692655602314,
      "SliceThickness": 2.7000000476837,
      "SmallestImagePixelValue": 0,
      "SoftwareVersions": "syngo MR E11",
      "SpacingBetweenSlices": 2.7000000393525,
      "SpecificCharacterSet": "ISO_IR 100",
      "StudyID": "1",
      "StudyTime": "085626.189000",
      "TransmitCoilName": "Body",
      "VariableFlipAngleFlag": "N",
      "WindowCenterWidthExplanation": "Algo1",
      "dBdt": 0.0},
    "slices": {}
  },
  "time": {
    "samples": {
      "AcquisitionNumber": [1, 2, 3, 4, 5, 6, 7, 8, 9, 10, 11, 12, 13, 14, 15, 16, 17, 18, 19, 20, 21, 22, 23, 24, 25, 26, 27, 28, 29, 30, 31, 32, 33, 34, 35, 36, 37, 38, 39, 40, 41, 42, 43, 44, 45, 46, 47, 48, 49, 50, 51, 52, 53, 54, 55, 56, 57, 58, 59, 60, 61, 62, 63, 64, 65, 66, 67, 68, 69, 70, 71, 72, 73, 74, 75, 76, 77, 78, 79, 80, 81, 82, 83, 84, 85, 86, 87, 88, 89, 90, 91, 92, 93, 94, 95, 96, 97, 98, 99, 100, 101, 102, 103, 104, 105, 106, 107, 108, 109, 110, 111, 112, 113, 114, 115, 116, 117, 118, 119, 120, 121, 122, 123, 124, 125, 126, 127, 128, 129, 130, 131, 132, 133, 134, 135, 136, 137, 138, 139, 140, 141, 142, 143, 144, 145, 146, 147, 148, 149, 150, 151, 152, 153, 154, 155, 156, 157, 158, 159, 160, 161, 162, 163, 164, 165, 166, 167, 168, 169, 170, 171, 172, 173, 174, 175, 176, 177, 178, 179, 180, 181, 182, 183, 184, 185, 186, 187, 188, 189, 190, 191, 192, 193, 194, 195, 196, 197, 198, 199, 200, 201, 202, 203, 204, 205, 206, 207, 208, 209, 210, 211, 212, 213, 214, 215, 216, 217, 218, 219, 220, 221, 222, 223, 224, 225, 226, 227, 228, 229, 230, 231, 232, 233, 234, 235, 236, 237, 238, 239, 240, 241, 242, 243, 244, 245, 246, 247, 248, 249, 250, 251, 252, 253, 254, 255, 256, 257, 258, 259, 260, 261, 262, 263, 264, 265, 266, 267, 268, 269, 270, 271, 272, 273, 274, 275, 276, 277, 278, 279, 280, 281, 282, 283, 284, 285, 286, 287, 288, 289, 290, 291, 292, 293, 294, 295, 296, 297, 298, 299, 300, 301, 302, 303, 304, 305, 306, 307, 308, 309, 310, 311, 312, 313, 314, 315, 316, 317, 318, 319, 320, 321, 322, 323, 324, 325, 326, 327, 328, 329, 330, 331, 332, 333, 334, 335, 336, 337, 338, 339, 340, 341, 342, 343, 344, 345, 346, 347, 348, 349, 350, 351, 352, 353, 354, 355, 356, 357, 358, 359, 360, 361, 362, 363, 364, 365, 366, 367, 368, 369, 370, 371, 372, 373, 374, 375, 376, 377, 378, 379, 380, 381, 382, 383, 384, 385, 386, 387, 388, 389, 390, 391, 392, 393, 394, 395, 396, 397, 398, 399, 400, 401, 402, 403, 404, 405, 406, 407, 408, 409, 410, 411, 412, 413, 414, 415, 416, 417, 418, 419, 420, 421, 422, 423, 424, 425, 426, 427, 428, 429, 430, 431, 432, 433, 434, 435, 436, 437, 438, 439, 440, 441, 442, 443, 444, 445, 446, 447, 448, 449, 450, 451, 452, 453, 454, 455, 456, 457, 458, 459, 460, 461, 462, 463, 464, 465, 466, 467, 468, 469, 470, 471, 472, 473, 474, 475, 476, 477, 478, 479, 480, 481, 482, 483, 484, 485, 486, 487, 488, 489, 490, 491, 492, 493, 494, 495, 496, 497, 498, 499, 500, 501, 502, 503, 504, 505, 506, 507, 508, 509, 510, 511, 512, 513, 514, 515, 516, 517, 518, 519, 520, 521, 522, 523, 524, 525, 526, 527, 528, 529, 530, 531, 532, 533, 534, 535, 536, 537, 538, 539, 540, 541, 542, 543, 544, 545, 546, 547, 548, 549, 550, 551, 552, 553, 554, 555, 556, 557, 558, 559, 560, 561, 562, 563, 564, 565, 566, 567, 568, 569, 570, 571, 572, 573, 574, 575, 576, 577, 578, 579, 580, 581, 582, 583, 584, 585, 586, 587, 588, 589, 590, 591, 592, 593, 594, 595, 596, 597, 598, 599, 600, 601, 602, 603, 604, 605, 606, 607, 608, 609, 610, 611, 612, 613, 614, 615, 616, 617, 618, 619, 620, 621, 622, 623, 624, 625, 626, 627, 628, 629, 630, 631, 632, 633, 634, 635, 636, 637, 638, 639, 640, 641, 642, 643, 644, 645, 646, 647, 648, 649, 650, 651, 652, 653, 654, 655, 656, 657, 658, 659, 660, 661, 662, 663, 664, 665, 666, 667, 668, 669, 670, 671, 672, 673, 674, 675, 676, 677, 678, 679, 680, 681, 682, 683, 684, 685, 686, 687, 688, 689, 690, 691, 692, 693, 694, 695, 696, 697, 698, 699, 700, 701, 702, 703, 704, 705, 706, 707, 708, 709, 710, 711, 712, 713, 714, 715, 716, 717, 718, 719, 720, 721, 722, 723, 724, 725, 726, 727, 728, 729, 730, 731, 732, 733, 734, 735, 736, 737, 738, 739, 740, 741, 742, 743, 744, 745, 746, 747, 748, 749, 750, 751, 752, 753, 754, 755, 756, 757, 758, 759, 760, 761, 762, 763, 764, 765, 766, 767, 768, 769, 770, 771, 772, 773, 774, 775, 776, 777, 778, 779, 780, 781, 782, 783, 784, 785, 786, 787, 788, 789, 790, 791, 792, 793, 794, 795, 796, 797, 798, 799, 800, 801, 802, 803, 804, 805, 806, 807, 808, 809, 810, 811, 812, 813, 814, 815, 816, 817, 818, 819, 820, 821, 822, 823, 824, 825, 826, 827, 828, 829, 830, 831, 832, 833, 834, 835, 836, 837, 838, 839, 840, 841, 842, 843, 844, 845, 846, 847, 848, 849, 850, 851, 852, 853, 854, 855, 856, 857, 858, 859, 860, 861, 862, 863, 864, 865, 866, 867, 868, 869, 870, 871, 872],
      "AcquisitionTime": ["093526.742500", "093527.202500", "093527.662500", "093528.122500", "093528.582500", "093529.042500", "093529.502500", "093529.962500", "093530.422500", "093530.882500", "093531.342500", "093531.802500", "093532.262500", "093532.722500", "093533.182500", "093533.642500", "093534.102500", "093534.562500", "093535.022500", "093535.482500", "093535.942500", "093536.402500", "093536.862500", "093537.322500", "093537.782500", "093538.242500", "093538.702500", "093539.162500", "093539.622500", "093540.082500", "093540.542500", "093541.002500", "093541.462500", "093541.922500", "093542.382500", "093542.842500", "093543.302500", "093543.762500", "093544.222500", "093544.682500", "093545.142500", "093545.602500", "093546.062500", "093546.522500", "093546.982500", "093547.442500", "093547.902500", "093548.362500", "093548.822500", "093549.282500", "093549.742500", "093550.202500", "093550.662500", "093551.122500", "093551.582500", "093552.042500", "093552.502500", "093552.962500", "093553.422500", "093553.882500", "093554.342500", "093554.802500", "093555.262500", "093555.722500", "093556.182500", "093556.642500", "093557.102500", "093557.562500", "093558.022500", "093558.482500", "093558.942500", "093559.402500", "093559.862500", "093600.322500", "093600.782500", "093601.242500", "093601.702500", "093602.162500", "093602.622500", "093603.082500", "093603.542500", "093604.002500", "093604.462500", "093604.922500", "093605.382500", "093605.842500", "093606.302500", "093606.762500", "093607.222500", "093607.682500", "093608.142500", "093608.602500", "093609.062500", "093609.522500", "093609.982500", "093610.442500", "093610.902500", "093611.362500", "093611.822500", "093612.282500", "093612.742500", "093613.202500", "093613.662500", "093614.122500", "093614.582500", "093615.042500", "093615.502500", "093615.962500", "093616.422500", "093616.882500", "093617.342500", "093617.802500", "093618.262500", "093618.722500", "093619.182500", "093619.642500", "093620.102500", "093620.562500", "093621.022500", "093621.482500", "093621.942500", "093622.402500", "093622.862500", "093623.322500", "093623.782500", "093624.242500", "093624.702500", "093625.162500", "093625.622500", "093626.082500", "093626.542500", "093627.002500", "093627.462500", "093627.922500", "093628.382500", "093628.842500", "093629.302500", "093629.762500", "093630.222500", "093630.682500", "093631.142500", "093631.602500", "093632.062500", "093632.522500", "093632.982500", "093633.442500", "093633.902500", "093634.362500", "093634.822500", "093635.282500", "093635.742500", "093636.202500", "093636.662500", "093637.122500", "093637.582500", "093638.042500", "093638.502500", "093638.962500", "093639.422500", "093639.882500", "093640.342500", "093640.802500", "093641.262500", "093641.722500", "093642.182500", "093642.642500", "093643.102500", "093643.562500", "093644.022500", "093644.482500", "093644.942500", "093645.402500", "093645.862500", "093646.322500", "093646.782500", "093647.242500", "093647.702500", "093648.162500", "093648.622500", "093649.082500", "093649.542500", "093650.002500", "093650.462500", "093650.922500", "093651.382500", "093651.842500", "093652.302500", "093652.762500", "093653.222500", "093653.682500", "093654.142500", "093654.602500", "093655.062500", "093655.522500", "093655.982500", "093656.442500", "093656.902500", "093657.362500", "093657.822500", "093658.282500", "093658.742500", "093659.202500", "093659.662500", "093700.122500", "093700.582500", "093701.042500", "093701.502500", "093701.962500", "093702.422500", "093702.882500", "093703.342500", "093703.802500", "093704.262500", "093704.722500", "093705.182500", "093705.642500", "093706.102500", "093706.562500", "093707.022500", "093707.482500", "093707.942500", "093708.402500", "093708.862500", "093709.322500", "093709.782500", "093710.242500", "093710.702500", "093711.162500", "093711.622500", "093712.082500", "093712.542500", "093713.002500", "093713.462500", "093713.922500", "093714.382500", "093714.842500", "093715.302500", "093715.762500", "093716.222500", "093716.682500", "093717.142500", "093717.602500", "093718.062500", "093718.522500", "093718.982500", "093719.442500", "093719.902500", "093720.362500", "093720.822500", "093721.282500", "093721.742500", "093722.202500", "093722.662500", "093723.122500", "093723.582500", "093724.042500", "093724.502500", "093724.962500", "093725.422500", "093725.882500", "093726.342500", "093726.802500", "093727.262500", "093727.722500", "093728.182500", "093728.642500", "093729.102500", "093729.562500", "093730.022500", "093730.482500", "093730.942500", "093731.402500", "093731.862500", "093732.322500", "093732.782500", "093733.242500", "093733.702500", "093734.162500", "093734.622500", "093735.082500", "093735.542500", "093736.002500", "093736.462500", "093736.922500", "093737.382500", "093737.842500", "093738.302500", "093738.762500", "093739.222500", "093739.682500", "093740.142500", "093740.602500", "093741.062500", "093741.522500", "093741.982500", "093742.442500", "093742.902500", "093743.362500", "093743.822500", "093744.282500", "093744.742500", "093745.202500", "093745.662500", "093746.122500", "093746.582500", "093747.042500", "093747.502500", "093747.962500", "093748.422500", "093748.882500", "093749.342500", "093749.802500", "093750.262500", "093750.722500", "093751.182500", "093751.642500", "093752.102500", "093752.562500", "093753.022500", "093753.482500", "093753.942500", "093754.402500", "093754.862500", "093755.322500", "093755.782500", "093756.242500", "093756.702500", "093757.162500", "093757.622500", "093758.082500", "093758.542500", "093759.002500", "093759.462500", "093759.922500", "093800.382500", "093800.842500", "093801.302500", "093801.762500", "093802.222500", "093802.682500", "093803.142500", "093803.602500", "093804.062500", "093804.522500", "093804.982500", "093805.442500", "093805.902500", "093806.362500", "093806.822500", "093807.282500", "093807.742500", "093808.202500", "093808.662500", "093809.122500", "093809.582500", "093810.042500", "093810.502500", "093810.962500", "093811.422500", "093811.882500", "093812.342500", "093812.802500", "093813.262500", "093813.722500", "093814.182500", "093814.642500", "093815.102500", "093815.562500", "093816.022500", "093816.482500", "093816.942500", "093817.402500", "093817.862500", "093818.322500", "093818.782500", "093819.242500", "093819.702500", "093820.162500", "093820.622500", "093821.082500", "093821.542500", "093822.002500", "093822.462500", "093822.922500", "093823.382500", "093823.842500", "093824.302500", "093824.762500", "093825.222500", "093825.682500", "093826.142500", "093826.602500", "093827.062500", "093827.522500", "093827.982500", "093828.442500", "093828.902500", "093829.362500", "093829.822500", "093830.282500", "093830.742500", "093831.202500", "093831.662500", "093832.122500", "093832.582500", "093833.042500", "093833.502500", "093833.962500", "093834.422500", "093834.882500", "093835.342500", "093835.802500", "093836.262500", "093836.722500", "093837.182500", "093837.642500", "093838.102500", "093838.562500", "093839.022500", "093839.482500", "093839.942500", "093840.402500", "093840.862500", "093841.322500", "093841.782500", "093842.242500", "093842.702500", "093843.162500", "093843.622500", "093844.082500", "093844.542500", "093845.002500", "093845.462500", "093845.922500", "093846.382500", "093846.842500", "093847.302500", "093847.762500", "093848.222500", "093848.682500", "093849.142500", "093849.602500", "093850.062500", "093850.522500", "093850.982500", "093851.442500", "093851.902500", "093852.362500", "093852.822500", "093853.282500", "093853.742500", "093854.202500", "093854.662500", "093855.122500", "093855.582500", "093856.042500", "093856.502500", "093856.962500", "093857.422500", "093857.882500", "093858.342500", "093858.802500", "093859.262500", "093859.722500", "093900.182500", "093900.642500", "093901.102500", "093901.562500", "093902.022500", "093902.482500", "093902.942500", "093903.402500", "093903.862500", "093904.322500", "093904.782500", "093905.242500", "093905.702500", "093906.162500", "093906.622500", "093907.082500", "093907.542500", "093908.002500", "093908.462500", "093908.922500", "093909.382500", "093909.842500", "093910.302500", "093910.762500", "093911.222500", "093911.682500", "093912.142500", "093912.602500", "093913.062500", "093913.522500", "093913.982500", "093914.442500", "093914.902500", "093915.362500", "093915.822500", "093916.282500", "093916.742500", "093917.202500", "093917.662500", "093918.122500", "093918.582500", "093919.042500", "093919.502500", "093919.962500", "093920.422500", "093920.882500", "093921.342500", "093921.802500", "093922.262500", "093922.722500", "093923.182500", "093923.642500", "093924.102500", "093924.562500", "093925.022500", "093925.482500", "093925.942500", "093926.402500", "093926.862500", "093927.322500", "093927.782500", "093928.242500", "093928.702500", "093929.162500", "093929.622500", "093930.082500", "093930.542500", "093931.002500", "093931.462500", "093931.922500", "093932.382500", "093932.842500", "093933.302500", "093933.762500", "093934.222500", "093934.682500", "093935.142500", "093935.602500", "093936.062500", "093936.522500", "093936.982500", "093937.442500", "093937.902500", "093938.362500", "093938.822500", "093939.282500", "093939.742500", "093940.202500", "093940.662500", "093941.122500", "093941.582500", "093942.042500", "093942.502500", "093942.962500", "093943.422500", "093943.882500", "093944.342500", "093944.802500", "093945.262500", "093945.722500", "093946.182500", "093946.642500", "093947.102500", "093947.562500", "093948.022500", "093948.482500", "093948.942500", "093949.402500", "093949.862500", "093950.322500", "093950.782500", "093951.242500", "093951.702500", "093952.162500", "093952.622500", "093953.082500", "093953.542500", "093954.002500", "093954.462500", "093954.922500", "093955.382500", "093955.842500", "093956.302500", "093956.762500", "093957.222500", "093957.682500", "093958.142500", "093958.602500", "093959.062500", "093959.522500", "093959.982500", "094000.442500", "094000.902500", "094001.362500", "094001.822500", "094002.282500", "094002.742500", "094003.202500", "094003.662500", "094004.122500", "094004.582500", "094005.042500", "094005.502500", "094005.962500", "094006.422500", "094006.882500", "094007.342500", "094007.802500", "094008.262500", "094008.722500", "094009.182500", "094009.642500", "094010.102500", "094010.562500", "094011.022500", "094011.482500", "094011.942500", "094012.402500", "094012.862500", "094013.322500", "094013.782500", "094014.242500", "094014.702500", "094015.162500", "094015.622500", "094016.082500", "094016.542500", "094017.002500", "094017.462500", "094017.922500", "094018.382500", "094018.842500", "094019.302500", "094019.762500", "094020.222500", "094020.682500", "094021.142500", "094021.602500", "094022.062500", "094022.522500", "094022.982500", "094023.442500", "094023.902500", "094024.362500", "094024.822500", "094025.282500", "094025.742500", "094026.202500", "094026.662500", "094027.122500", "094027.582500", "094028.042500", "094028.502500", "094028.962500", "094029.422500", "094029.882500", "094030.342500", "094030.802500", "094031.262500", "094031.722500", "094032.182500", "094032.642500", "094033.102500", "094033.562500", "094034.022500", "094034.482500", "094034.942500", "094035.402500", "094035.862500", "094036.322500", "094036.782500", "094037.242500", "094037.702500", "094038.162500", "094038.622500", "094039.082500", "094039.542500", "094040.002500", "094040.462500", "094040.922500", "094041.382500", "094041.842500", "094042.302500", "094042.762500", "094043.222500", "094043.682500", "094044.142500", "094044.602500", "094045.062500", "094045.522500", "094045.982500", "094046.442500", "094046.902500", "094047.362500", "094047.822500", "094048.282500", "094048.742500", "094049.202500", "094049.662500", "094050.122500", "094050.582500", "094051.042500", "094051.502500", "094051.962500", "094052.422500", "094052.882500", "094053.342500", "094053.802500", "094054.262500", "094054.722500", "094055.182500", "094055.642500", "094056.102500", "094056.562500", "094057.022500", "094057.482500", "094057.942500", "094058.402500", "094058.862500", "094059.322500", "094059.782500", "094100.242500", "094100.702500", "094101.162500", "094101.622500", "094102.082500", "094102.542500", "094103.002500", "094103.462500", "094103.922500", "094104.382500", "094104.842500", "094105.302500", "094105.762500", "094106.222500", "094106.682500", "094107.142500", "094107.602500", "094108.062500", "094108.522500", "094108.982500", "094109.442500", "094109.902500", "094110.362500", "094110.822500", "094111.282500", "094111.742500", "094112.202500", "094112.662500", "094113.122500", "094113.582500", "094114.042500", "094114.502500", "094114.962500", "094115.422500", "094115.882500", "094116.342500", "094116.802500", "094117.262500", "094117.722500", "094118.182500", "094118.642500", "094119.102500", "094119.562500", "094120.022500", "094120.482500", "094120.942500", "094121.402500", "094121.862500", "094122.322500", "094122.782500", "094123.242500", "094123.702500", "094124.162500", "094124.622500", "094125.082500", "094125.542500", "094126.002500", "094126.462500", "094126.922500", "094127.382500", "094127.842500", "094128.302500", "094128.762500", "094129.222500", "094129.682500", "094130.142500", "094130.602500", "094131.062500", "094131.522500", "094131.982500", "094132.442500", "094132.902500", "094133.362500", "094133.822500", "094134.282500", "094134.742500", "094135.202500", "094135.662500", "094136.122500", "094136.582500", "094137.042500", "094137.502500", "094137.962500", "094138.422500", "094138.882500", "094139.342500", "094139.802500", "094140.262500", "094140.722500", "094141.182500", "094141.642500", "094142.102500", "094142.562500", "094143.022500", "094143.482500", "094143.942500", "094144.402500", "094144.862500", "094145.322500", "094145.782500", "094146.242500", "094146.702500", "094147.162500", "094147.622500", "094148.082500", "094148.542500", "094149.002500", "094149.462500", "094149.922500", "094150.382500", "094150.842500", "094151.302500", "094151.762500", "094152.222500", "094152.682500", "094153.142500", "094153.602500", "094154.062500", "094154.522500", "094154.982500", "094155.442500", "094155.902500", "094156.362500", "094156.822500", "094157.282500", "094157.742500", "094158.202500", "094158.662500", "094159.122500", "094159.582500", "094200.042500", "094200.502500", "094200.962500", "094201.422500", "094201.882500", "094202.342500", "094202.802500", "094203.262500", "094203.722500", "094204.182500", "094204.642500", "094205.102500", "094205.562500", "094206.022500", "094206.482500", "094206.942500", "094207.402500"],
