{
  "AcquisitionMatrixPE": 82,
  "AcquisitionNumber": 1,
  "AcquisitionTime": "09:51:43.387500",
  "BandwidthPerPixelPhaseEncode": 24.888,
  "BaseResolution": 82,
  "BodyPartExamined": "BRAIN",
  "ConsistencyInfo": "N4_VE11C_LATEST_20160120",
  "ConversionSoftware": "dcm2niix",
  "ConversionSoftwareVersion": "v1.0.20201102",
  "DerivedVendorReportedEchoSpacing": 0.00049,
  "DeviceSerialNumber": "66112",
  "DwellTime": 2e-06,
  "EchoTime": 0.0272,
  "EchoTrainLength": 82,
  "EffectiveEchoSpacing": 0.00049,
  "FlipAngle": 44,
  "ImageComments": "Unaliased MB8/PE3",
  "ImageOrientationPatientDICOM": [0.995475, -0.0588087, 0.074643, 0.0544357, 0.996753, 0.0593271],
  "ImageType": [
    "ORIGINAL",
    "PRIMARY",
    "M",
    "MB",
    "ND",
    "NORM",
    "MOSAIC"
],
  "ImagingFrequency": 123.252,
  "InPlanePhaseEncodingDirectionDICOM": "COL",
  "InstitutionAddress": "Maynard 3,Hanover,NH,US,03755",
  "InstitutionName": "Dartmouth College - PBS",
  "InstitutionalDepartmentName": "Department",
  "MRAcquisitionType": "2D",
  "MagneticFieldStrength": 3,
  "Manufacturer": "Siemens",
  "ManufacturersModelName": "Prisma",
  "Modality": "MR",
  "MultibandAccelerationFactor": 8,
  "PartialFourier": 1,
  "PatientPosition": "HFS",
  "PercentPhaseFOV": 100,
  "PercentSampling": 100,
  "PhaseEncodingDirection": "j-",
  "PhaseEncodingSteps": 82,
  "PhaseResolution": 1,
  "PixelBandwidth": 3050,
  "ProcedureStepDescription": "Wager_Wager^1076_spacetop",
  "ProtocolName": "func_run-03_task-social_acq-ap-mb8",
  "PulseSequenceDetails": "%CustomerSeq%\\cmrr_mbep2d_bold",
  "ReceiveCoilActiveElements": "HEA;HEP",
  "ReceiveCoilName": "Head_32",
  "ReconMatrixPE": 82,
  "RepetitionTime": 0.46,
  "SAR": 0.100313,
  "ScanOptions": "FS",
  "ScanningSequence": "EP",
  "SequenceName": "epfid2d1_82",
  "SequenceVariant": "SK\\SS",
  "SeriesDescription": "func_run-03_task-social_acq-ap-mb8",
  "SeriesNumber": 16,
  "ShimSetting": [4165, -7742, -7236, 640, -67, -214, -22, 11],
  "SliceThickness": 2.7,
  "SliceTiming": [0, 0.25, 0.0625, 0.3125, 0.125, 0.3775, 0.1875, 0, 0.25, 0.0625, 0.3125, 0.125, 0.3775, 0.1875, 0, 0.25, 0.0625, 0.3125, 0.125, 0.3775, 0.1875, 0, 0.25, 0.0625, 0.3125, 0.125, 0.3775, 0.1875, 0, 0.25, 0.0625, 0.3125, 0.125, 0.3775, 0.1875, 0, 0.25, 0.0625, 0.3125, 0.125, 0.3775, 0.1875, 0, 0.25, 0.0625, 0.3125, 0.125, 0.3775, 0.1875, 0, 0.25, 0.0625, 0.3125, 0.125, 0.3775, 0.1875],
  "SoftwareVersions": "syngo MR E11",
  "SpacingBetweenSlices": 2.7,
  "StationName": "AWP66112",
  "TaskName": "social",
  "TotalReadoutTime": 0.03969,
  "TxRefAmp": 232.903,
  "WipMemBlock": "26efcae4-dea8-405a-8dfe-3e4432d8b4ab||Sequence: R016 ve11c/master r/e634e98; Dec 19 2017 11:00:25 by eja",
  "dcmmeta_affine": [
    [-2.670785903930664, 0.14604713022708893, 0.21030192077159882, 99.62892150878906],
    [0.15777945518493652, 2.6742160320281982, 0.1484876573085785, -89.274658203125],
    [0.2002616971731186, -0.15917040407657623, 2.6876988410949707, -63.83384323120117],
    [0.0, 0.0, 0.0, 1.0]
],
  "dcmmeta_reorient_transform": [
    [0.0, -1.0, 0.0, 81.0],
    [1.0, 0.0, 0.0, 0.0],
    [0.0, 0.0, 1.0, 0.0],
    [0.0, 0.0, 0.0, 1.0]
],
  "dcmmeta_shape": [82, 82, 56, 872],
  "dcmmeta_slice_dim": 2,
  "dcmmeta_version": 0.6,
  "global": {
    "const": {
      "AccessionNumber": "A003662",
      "AcquisitionMatrix": [82, 0, 0, 82],
      "AngioFlag": "N",
      "BitsAllocated": 16,
      "BitsStored": 16,
      "BodyPartExamined": "BRAIN",
      "Columns": 656,
      "EchoNumbers": 1,
      "EchoTime": 27.2,
      "EchoTrainLength": 82,
      "FlipAngle": 44.0,
      "HighBit": 15,
      "ImageOrientationPatient": [0.99547474077789, -0.0588087030131, 0.07464299647731, 0.05443574556601, 0.9967532488731, 0.05932714779587],
      "ImagePositionPatient": [-919.88983597865, -849.55416101467, -179.88365897043],
      "ImageType": [
        "ORIGINAL",
        "PRIMARY",
        "M",
        "MB",
        "ND",
        "NORM",
        "MOSAIC"
],
      "ImagedNucleus": "1H",
      "ImagingFrequency": 123.252173,
      "InPlanePhaseEncodingDirection": "COL",
      "MRAcquisitionType": "2D",
      "MagneticFieldStrength": 3.0,
      "Manufacturer": "SIEMENS",
      "ManufacturerModelName": "Prisma",
      "Modality": "MR",
      "NumberOfAverages": 1.0,
      "NumberOfPhaseEncodingSteps": 82,
      "PercentPhaseFieldOfView": 100.0,
      "PercentSampling": 100.0,
      "PerformedProcedureStepStartTime": "085626.278000",
      "PhotometricInterpretation": "MONOCHROME2",
      "PixelBandwidth": 3050.0,
      "PixelRepresentation": 0,
      "PixelSpacing": [2.6829268932343, 2.6829268932343],
      "ProtocolName": "func_run-03_task-social_acq-ap-mb8",
      "RepetitionTime": 460.0,
      "Rows": 656,
      "SAR": 0.10031283017275,
      "SamplesPerPixel": 1,
      "ScanOptions": "FS",
      "ScanningSequence": "EP",
      "SequenceName": "epfid2d1_82",
      "SequenceVariant": [
        "SK",
        "SS"
],
      "SeriesDescription": "func_run-03_task-social_acq-ap-mb8",
      "SeriesNumber": 16,
      "SeriesTime": "095158.009000",
      "SliceLocation": -60.692655602314,
      "SliceThickness": 2.7000000476837,
      "SmallestImagePixelValue": 0,
      "SoftwareVersions": "syngo MR E11",
      "SpacingBetweenSlices": 2.7000000393525,
      "SpecificCharacterSet": "ISO_IR 100",
      "StudyID": "1",
      "StudyTime": "085626.189000",
      "TransmitCoilName": "Body",
      "VariableFlipAngleFlag": "N",
      "WindowCenterWidthExplanation": "Algo1",
      "dBdt": 0.0},
    "slices": {}
  },
  "time": {
    "samples": {
      "AcquisitionNumber": [1, 2, 3, 4, 5, 6, 7, 8, 9, 10, 11, 12, 13, 14, 15, 16, 17, 18, 19, 20, 21, 22, 23, 24, 25, 26, 27, 28, 29, 30, 31, 32, 33, 34, 35, 36, 37, 38, 39, 40, 41, 42, 43, 44, 45, 46, 47, 48, 49, 50, 51, 52, 53, 54, 55, 56, 57, 58, 59, 60, 61, 62, 63, 64, 65, 66, 67, 68, 69, 70, 71, 72, 73, 74, 75, 76, 77, 78, 79, 80, 81, 82, 83, 84, 85, 86, 87, 88, 89, 90, 91, 92, 93, 94, 95, 96, 97, 98, 99, 100, 101, 102, 103, 104, 105, 106, 107, 108, 109, 110, 111, 112, 113, 114, 115, 116, 117, 118, 119, 120, 121, 122, 123, 124, 125, 126, 127, 128, 129, 130, 131, 132, 133, 134, 135, 136, 137, 138, 139, 140, 141, 142, 143, 144, 145, 146, 147, 148, 149, 150, 151, 152, 153, 154, 155, 156, 157, 158, 159, 160, 161, 162, 163, 164, 165, 166, 167, 168, 169, 170, 171, 172, 173, 174, 175, 176, 177, 178, 179, 180, 181, 182, 183, 184, 185, 186, 187, 188, 189, 190, 191, 192, 193, 194, 195, 196, 197, 198, 199, 200, 201, 202, 203, 204, 205, 206, 207, 208, 209, 210, 211, 212, 213, 214, 215, 216, 217, 218, 219, 220, 221, 222, 223, 224, 225, 226, 227, 228, 229, 230, 231, 232, 233, 234, 235, 236, 237, 238, 239, 240, 241, 242, 243, 244, 245, 246, 247, 248, 249, 250, 251, 252, 253, 254, 255, 256, 257, 258, 259, 260, 261, 262, 263, 264, 265, 266, 267, 268, 269, 270, 271, 272, 273, 274, 275, 276, 277, 278, 279, 280, 281, 282, 283, 284, 285, 286, 287, 288, 289, 290, 291, 292, 293, 294, 295, 296, 297, 298, 299, 300, 301, 302, 303, 304, 305, 306, 307, 308, 309, 310, 311, 312, 313, 314, 315, 316, 317, 318, 319, 320, 321, 322, 323, 324, 325, 326, 327, 328, 329, 330, 331, 332, 333, 334, 335, 336, 337, 338, 339, 340, 341, 342, 343, 344, 345, 346, 347, 348, 349, 350, 351, 352, 353, 354, 355, 356, 357, 358, 359, 360, 361, 362, 363, 364, 365, 366, 367, 368, 369, 370, 371, 372, 373, 374, 375, 376, 377, 378, 379, 380, 381, 382, 383, 384, 385, 386, 387, 388, 389, 390, 391, 392, 393, 394, 395, 396, 397, 398, 399, 400, 401, 402, 403, 404, 405, 406, 407, 408, 409, 410, 411, 412, 413, 414, 415, 416, 417, 418, 419, 420, 421, 422, 423, 424, 425, 426, 427, 428, 429, 430, 431, 432, 433, 434, 435, 436, 437, 438, 439, 440, 441, 442, 443, 444, 445, 446, 447, 448, 449, 450, 451, 452, 453, 454, 455, 456, 457, 458, 459, 460, 461, 462, 463, 464, 465, 466, 467, 468, 469, 470, 471, 472, 473, 474, 475, 476, 477, 478, 479, 480, 481, 482, 483, 484, 485, 486, 487, 488, 489, 490, 491, 492, 493, 494, 495, 496, 497, 498, 499, 500, 501, 502, 503, 504, 505, 506, 507, 508, 509, 510, 511, 512, 513, 514, 515, 516, 517, 518, 519, 520, 521, 522, 523, 524, 525, 526, 527, 528, 529, 530, 531, 532, 533, 534, 535, 536, 537, 538, 539, 540, 541, 542, 543, 544, 545, 546, 547, 548, 549, 550, 551, 552, 553, 554, 555, 556, 557, 558, 559, 560, 561, 562, 563, 564, 565, 566, 567, 568, 569, 570, 571, 572, 573, 574, 575, 576, 577, 578, 579, 580, 581, 582, 583, 584, 585, 586, 587, 588, 589, 590, 591, 592, 593, 594, 595, 596, 597, 598, 599, 600, 601, 602, 603, 604, 605, 606, 607, 608, 609, 610, 611, 612, 613, 614, 615, 616, 617, 618, 619, 620, 621, 622, 623, 624, 625, 626, 627, 628, 629, 630, 631, 632, 633, 634, 635, 636, 637, 638, 639, 640, 641, 642, 643, 644, 645, 646, 647, 648, 649, 650, 651, 652, 653, 654, 655, 656, 657, 658, 659, 660, 661, 662, 663, 664, 665, 666, 667, 668, 669, 670, 671, 672, 673, 674, 675, 676, 677, 678, 679, 680, 681, 682, 683, 684, 685, 686, 687, 688, 689, 690, 691, 692, 693, 694, 695, 696, 697, 698, 699, 700, 701, 702, 703, 704, 705, 706, 707, 708, 709, 710, 711, 712, 713, 714, 715, 716, 717, 718, 719, 720, 721, 722, 723, 724, 725, 726, 727, 728, 729, 730, 731, 732, 733, 734, 735, 736, 737, 738, 739, 740, 741, 742, 743, 744, 745, 746, 747, 748, 749, 750, 751, 752, 753, 754, 755, 756, 757, 758, 759, 760, 761, 762, 763, 764, 765, 766, 767, 768, 769, 770, 771, 772, 773, 774, 775, 776, 777, 778, 779, 780, 781, 782, 783, 784, 785, 786, 787, 788, 789, 790, 791, 792, 793, 794, 795, 796, 797, 798, 799, 800, 801, 802, 803, 804, 805, 806, 807, 808, 809, 810, 811, 812, 813, 814, 815, 816, 817, 818, 819, 820, 821, 822, 823, 824, 825, 826, 827, 828, 829, 830, 831, 832, 833, 834, 835, 836, 837, 838, 839, 840, 841, 842, 843, 844, 845, 846, 847, 848, 849, 850, 851, 852, 853, 854, 855, 856, 857, 858, 859, 860, 861, 862, 863, 864, 865, 866, 867, 868, 869, 870, 871, 872],
      "AcquisitionTime": ["095143.387500", "095143.847500", "095144.307500", "095144.767500", "095145.227500", "095145.687500", "095146.147500", "095146.607500", "095147.067500", "095147.527500", "095147.987500", "095148.447500", "095148.907500", "095149.367500", "095149.827500", "095150.287500", "095150.747500", "095151.207500", "095151.667500", "095152.127500", "095152.587500", "095153.047500", "095153.507500", "095153.967500", "095154.427500", "095154.887500", "095155.347500", "095155.807500", "095156.267500", "095156.727500", "095157.187500", "095157.647500", "095158.107500", "095158.567500", "095159.027500", "095159.487500", "095159.947500", "095200.407500", "095200.867500", "095201.327500", "095201.787500", "095202.247500", "095202.707500", "095203.167500", "095203.627500", "095204.087500", "095204.547500", "095205.007500", "095205.467500", "095205.927500", "095206.387500", "095206.847500", "095207.307500", "095207.767500", "095208.227500", "095208.687500", "095209.147500", "095209.607500", "095210.067500", "095210.527500", "095210.987500", "095211.447500", "095211.907500", "095212.367500", "095212.827500", "095213.287500", "095213.747500", "095214.207500", "095214.667500", "095215.127500", "095215.587500", "095216.047500", "095216.507500", "095216.967500", "095217.427500", "095217.887500", "095218.347500", "095218.807500", "095219.267500", "095219.727500", "095220.187500", "095220.647500", "095221.107500", "095221.567500", "095222.027500", "095222.487500", "095222.947500", "095223.407500", "095223.867500", "095224.327500", "095224.787500", "095225.247500", "095225.707500", "095226.167500", "095226.627500", "095227.087500", "095227.547500", "095228.007500", "095228.467500", "095228.927500", "095229.387500", "095229.847500", "095230.307500", "095230.767500", "095231.227500", "095231.687500", "095232.147500", "095232.607500", "095233.067500", "095233.527500", "095233.987500", "095234.447500", "095234.907500", "095235.367500", "095235.827500", "095236.287500", "095236.747500", "095237.207500", "095237.667500", "095238.127500", "095238.587500", "095239.047500", "095239.507500", "095239.967500", "095240.427500", "095240.887500", "095241.347500", "095241.807500", "095242.267500", "095242.727500", "095243.187500", "095243.647500", "095244.107500", "095244.567500", "095245.027500", "095245.487500", "095245.947500", "095246.407500", "095246.867500", "095247.327500", "095247.787500", "095248.247500", "095248.707500", "095249.167500", "095249.627500", "095250.087500", "095250.547500", "095251.007500", "095251.467500", "095251.927500", "095252.387500", "095252.847500", "095253.307500", "095253.767500", "095254.227500", "095254.687500", "095255.147500", "095255.607500", "095256.067500", "095256.527500", "095256.987500", "095257.447500", "095257.907500", "095258.367500", "095258.827500", "095259.287500", "095259.747500", "095300.207500", "095300.667500", "095301.127500", "095301.587500", "095302.047500", "095302.507500", "095302.967500", "095303.427500", "095303.887500", "095304.347500", "095304.807500", "095305.267500", "095305.727500", "095306.187500", "095306.647500", "095307.107500", "095307.567500", "095308.027500", "095308.487500", "095308.947500", "095309.407500", "095309.867500", "095310.327500", "095310.787500", "095311.247500", "095311.707500", "095312.167500", "095312.627500", "095313.087500", "095313.547500", "095314.007500", "095314.467500", "095314.927500", "095315.387500", "095315.847500", "095316.307500", "095316.767500", "095317.227500", "095317.687500", "095318.147500", "095318.607500", "095319.067500", "095319.527500", "095319.987500", "095320.447500", "095320.907500", "095321.367500", "095321.827500", "095322.287500", "095322.747500", "095323.207500", "095323.667500", "095324.127500", "095324.587500", "095325.047500", "095325.507500", "095325.967500", "095326.427500", "095326.887500", "095327.347500", "095327.807500", "095328.267500", "095328.727500", "095329.187500", "095329.647500", "095330.107500", "095330.567500", "095331.027500", "095331.487500", "095331.947500", "095332.407500", "095332.867500", "095333.327500", "095333.787500", "095334.247500", "095334.707500", "095335.167500", "095335.627500", "095336.087500", "095336.547500", "095337.007500", "095337.467500", "095337.927500", "095338.387500", "095338.847500", "095339.307500", "095339.767500", "095340.227500", "095340.687500", "095341.147500", "095341.607500", "095342.067500", "095342.527500", "095342.987500", "095343.447500", "095343.907500", "095344.367500", "095344.827500", "095345.287500", "095345.747500", "095346.207500", "095346.667500", "095347.127500", "095347.587500", "095348.047500", "095348.507500", "095348.967500", "095349.427500", "095349.887500", "095350.347500", "095350.807500", "095351.267500", "095351.727500", "095352.187500", "095352.647500", "095353.107500", "095353.567500", "095354.027500", "095354.487500", "095354.947500", "095355.407500", "095355.867500", "095356.327500", "095356.787500", "095357.247500", "095357.707500", "095358.167500", "095358.627500", "095359.087500", "095359.547500", "095400.007500", "095400.467500", "095400.927500", "095401.387500", "095401.847500", "095402.307500", "095402.767500", "095403.227500", "095403.687500", "095404.147500", "095404.607500", "095405.067500", "095405.527500", "095405.987500", "095406.447500", "095406.907500", "095407.367500", "095407.827500", "095408.287500", "095408.747500", "095409.207500", "095409.667500", "095410.127500", "095410.587500", "095411.047500", "095411.507500", "095411.967500", "095412.427500", "095412.887500", "095413.347500", "095413.807500", "095414.267500", "095414.727500", "095415.187500", "095415.647500", "095416.107500", "095416.567500", "095417.027500", "095417.487500", "095417.947500", "095418.407500", "095418.867500", "095419.327500", "095419.787500", "095420.247500", "095420.707500", "095421.167500", "095421.627500", "095422.087500", "095422.547500", "095423.007500", "095423.467500", "095423.927500", "095424.387500", "095424.847500", "095425.307500", "095425.767500", "095426.227500", "095426.687500", "095427.147500", "095427.607500", "095428.067500", "095428.527500", "095428.987500", "095429.447500", "095429.907500", "095430.367500", "095430.827500", "095431.287500", "095431.747500", "095432.207500", "095432.667500", "095433.127500", "095433.587500", "095434.047500", "095434.507500", "095434.967500", "095435.427500", "095435.887500", "095436.347500", "095436.807500", "095437.267500", "095437.727500", "095438.187500", "095438.647500", "095439.107500", "095439.567500", "095440.027500", "095440.487500", "095440.947500", "095441.407500", "095441.867500", "095442.327500", "095442.787500", "095443.247500", "095443.707500", "095444.167500", "095444.627500", "095445.087500", "095445.547500", "095446.007500", "095446.467500", "095446.927500", "095447.387500", "095447.847500", "095448.307500", "095448.767500", "095449.227500", "095449.687500", "095450.147500", "095450.607500", "095451.067500", "095451.527500", "095451.987500", "095452.447500", "095452.907500", "095453.367500", "095453.827500", "095454.287500", "095454.747500", "095455.207500", "095455.667500", "095456.127500", "095456.587500", "095457.047500", "095457.507500", "095457.967500", "095458.427500", "095458.887500", "095459.347500", "095459.807500", "095500.267500", "095500.727500", "095501.187500", "095501.647500", "095502.107500", "095502.567500", "095503.027500", "095503.487500", "095503.947500", "095504.407500", "095504.867500", "095505.327500", "095505.787500", "095506.247500", "095506.707500", "095507.167500", "095507.627500", "095508.087500", "095508.547500", "095509.007500", "095509.467500", "095509.927500", "095510.387500", "095510.847500", "095511.307500", "095511.767500", "095512.227500", "095512.687500", "095513.147500", "095513.607500", "095514.067500", "095514.527500", "095514.987500", "095515.447500", "095515.907500", "095516.367500", "095516.827500", "095517.287500", "095517.747500", "095518.207500", "095518.667500", "095519.127500", "095519.587500", "095520.047500", "095520.507500", "095520.967500", "095521.427500", "095521.887500", "095522.347500", "095522.807500", "095523.267500", "095523.727500", "095524.187500", "095524.647500", "095525.107500", "095525.567500", "095526.027500", "095526.487500", "095526.947500", "095527.407500", "095527.867500", "095528.327500", "095528.787500", "095529.247500", "095529.707500", "095530.167500", "095530.627500", "095531.087500", "095531.547500", "095532.007500", "095532.467500", "095532.927500", "095533.387500", "095533.847500", "095534.307500", "095534.767500", "095535.227500", "095535.687500", "095536.147500", "095536.607500", "095537.067500", "095537.527500", "095537.987500", "095538.447500", "095538.907500", "095539.367500", "095539.827500", "095540.287500", "095540.747500", "095541.207500", "095541.667500", "095542.127500", "095542.587500", "095543.047500", "095543.507500", "095543.967500", "095544.427500", "095544.887500", "095545.347500", "095545.807500", "095546.267500", "095546.727500", "095547.187500", "095547.647500", "095548.107500", "095548.567500", "095549.027500", "095549.487500", "095549.947500", "095550.407500", "095550.867500", "095551.327500", "095551.787500", "095552.247500", "095552.707500", "095553.167500", "095553.627500", "095554.087500", "095554.547500", "095555.007500", "095555.467500", "095555.927500", "095556.387500", "095556.847500", "095557.307500", "095557.767500", "095558.227500", "095558.687500", "095559.147500", "095559.607500", "095600.067500", "095600.527500", "095600.987500", "095601.447500", "095601.907500", "095602.367500", "095602.827500", "095603.287500", "095603.747500", "095604.207500", "095604.667500", "095605.127500", "095605.587500", "095606.047500", "095606.507500", "095606.967500", "095607.427500", "095607.887500", "095608.347500", "095608.807500", "095609.267500", "095609.727500", "095610.187500", "095610.647500", "095611.107500", "095611.567500", "095612.027500", "095612.487500", "095612.947500", "095613.407500", "095613.867500", "095614.327500", "095614.787500", "095615.247500", "095615.707500", "095616.167500", "095616.627500", "095617.087500", "095617.547500", "095618.007500", "095618.467500", "095618.927500", "095619.387500", "095619.847500", "095620.307500", "095620.767500", "095621.227500", "095621.687500", "095622.147500", "095622.607500", "095623.067500", "095623.527500", "095623.987500", "095624.447500", "095624.907500", "095625.367500", "095625.827500", "095626.287500", "095626.747500", "095627.207500", "095627.667500", "095628.127500", "095628.587500", "095629.047500", "095629.507500", "095629.967500", "095630.427500", "095630.887500", "095631.347500", "095631.807500", "095632.267500", "095632.727500", "095633.187500", "095633.647500", "095634.107500", "095634.567500", "095635.027500", "095635.487500", "095635.947500", "095636.407500", "095636.867500", "095637.327500", "095637.787500", "095638.247500", "095638.707500", "095639.167500", "095639.627500", "095640.087500", "095640.547500", "095641.007500", "095641.467500", "095641.927500", "095642.387500", "095642.847500", "095643.307500", "095643.767500", "095644.227500", "095644.687500", "095645.147500", "095645.607500", "095646.067500", "095646.527500", "095646.987500", "095647.447500", "095647.907500", "095648.367500", "095648.827500", "095649.287500", "095649.747500", "095650.207500", "095650.667500", "095651.127500", "095651.587500", "095652.047500", "095652.507500", "095652.967500", "095653.427500", "095653.887500", "095654.347500", "095654.807500", "095655.267500", "095655.727500", "095656.187500", "095656.647500", "095657.107500", "095657.567500", "095658.027500", "095658.487500", "095658.947500", "095659.407500", "095659.867500", "095700.327500", "095700.787500", "095701.247500", "095701.707500", "095702.167500", "095702.627500", "095703.087500", "095703.547500", "095704.007500", "095704.467500", "095704.927500", "095705.387500", "095705.847500", "095706.307500", "095706.767500", "095707.227500", "095707.687500", "095708.147500", "095708.607500", "095709.067500", "095709.527500", "095709.987500", "095710.447500", "095710.907500", "095711.367500", "095711.827500", "095712.287500", "095712.747500", "095713.207500", "095713.667500", "095714.127500", "095714.587500", "095715.047500", "095715.507500", "095715.967500", "095716.427500", "095716.887500", "095717.347500", "095717.807500", "095718.267500", "095718.727500", "095719.187500", "095719.647500", "095720.107500", "095720.567500", "095721.027500", "095721.487500", "095721.947500", "095722.407500", "095722.867500", "095723.327500", "095723.787500", "095724.247500", "095724.707500", "095725.167500", "095725.627500", "095726.087500", "095726.547500", "095727.007500", "095727.467500", "095727.927500", "095728.387500", "095728.847500", "095729.307500", "095729.767500", "095730.227500", "095730.687500", "095731.147500", "095731.607500", "095732.067500", "095732.527500", "095732.987500", "095733.447500", "095733.907500", "095734.367500", "095734.827500", "095735.287500", "095735.747500", "095736.207500", "095736.667500", "095737.127500", "095737.587500", "095738.047500", "095738.507500", "095738.967500", "095739.427500", "095739.887500", "095740.347500", "095740.807500", "095741.267500", "095741.727500", "095742.187500", "095742.647500", "095743.107500", "095743.567500", "095744.027500", "095744.487500", "095744.947500", "095745.407500", "095745.867500", "095746.327500", "095746.787500", "095747.247500", "095747.707500", "095748.167500", "095748.627500", "095749.087500", "095749.547500", "095750.007500", "095750.467500", "095750.927500", "095751.387500", "095751.847500", "095752.307500", "095752.767500", "095753.227500", "095753.687500", "095754.147500", "095754.607500", "095755.067500", "095755.527500", "095755.987500", "095756.447500", "095756.907500", "095757.367500", "095757.827500", "095758.287500", "095758.747500", "095759.207500", "095759.667500", "095800.127500", "095800.587500", "095801.047500", "095801.507500", "095801.967500", "095802.427500", "095802.887500", "095803.347500", "095803.807500", "095804.267500", "095804.727500", "095805.187500", "095805.647500", "095806.107500", "095806.567500", "095807.027500", "095807.487500", "095807.947500", "095808.407500", "095808.867500", "095809.327500", "095809.787500", "095810.247500", "095810.707500", "095811.167500", "095811.627500", "095812.087500", "095812.547500", "095813.007500", "095813.467500", "095813.927500", "095814.387500", "095814.847500", "095815.307500", "095815.767500", "095816.227500", "095816.687500", "095817.147500", "095817.607500", "095818.067500", "095818.527500", "095818.987500", "095819.447500", "095819.907500", "095820.367500", "095820.827500", "095821.287500", "095821.747500", "095822.207500", "095822.667500", "095823.127500", "095823.587500", "095824.047500"],
