{
  "AcquisitionMatrixPE": 82,
  "AcquisitionNumber": 1,
  "AcquisitionTime": "12:48:34.270000",
  "BandwidthPerPixelPhaseEncode": 24.888,
  "BaseResolution": 82,
  "BodyPartExamined": "BRAIN",
  "ConsistencyInfo": "N4_VE11C_LATEST_20160120",
  "ConversionSoftware": "dcm2niix",
  "ConversionSoftwareVersion": "v1.0.20201102",
  "DerivedVendorReportedEchoSpacing": 0.00049,
  "DeviceSerialNumber": "66112",
  "DwellTime": 2e-06,
  "EchoTime": 0.0272,
  "EchoTrainLength": 82,
  "EffectiveEchoSpacing": 0.00049,
  "FlipAngle": 44,
  "ImageComments": "Unaliased MB8/PE3",
  "ImageOrientationPatientDICOM": [0.995725, -0.0654505, 0.0651747, 0.0617734, 0.996466, 0.0569214],
  "ImageType": [
    "ORIGINAL",
    "PRIMARY",
    "M",
    "MB",
    "ND",
    "NORM",
    "MOSAIC"
],
  "ImagingFrequency": 123.252,
  "InPlanePhaseEncodingDirectionDICOM": "COL",
  "InstitutionAddress": "Maynard 3,Hanover,NH,US,03755",
  "InstitutionName": "Dartmouth College - PBS",
  "InstitutionalDepartmentName": "Department",
  "MRAcquisitionType": "2D",
  "MagneticFieldStrength": 3,
  "Manufacturer": "Siemens",
  "ManufacturersModelName": "Prisma",
  "Modality": "MR",
  "MultibandAccelerationFactor": 8,
  "PartialFourier": 1,
  "PatientPosition": "HFS",
  "PercentPhaseFOV": 100,
  "PercentSampling": 100,
  "PhaseEncodingDirection": "j-",
  "PhaseEncodingSteps": 82,
  "PhaseResolution": 1,
  "PixelBandwidth": 3050,
  "ProcedureStepDescription": "Wager_Wager^1076_spacetop",
  "ProtocolName": "func_run-03_task-alignvideo_acq-ap-mb8",
  "PulseSequenceDetails": "%CustomerSeq%\\cmrr_mbep2d_bold",
  "ReceiveCoilActiveElements": "HEA;HEP",
  "ReceiveCoilName": "Head_32",
  "ReconMatrixPE": 82,
  "RepetitionTime": 0.46,
  "SAR": 0.0994257,
  "ScanOptions": "FS",
  "ScanningSequence": "EP",
  "SequenceName": "epfid2d1_82",
  "SequenceVariant": "SK\\SS",
  "SeriesDescription": "func_run-03_task-alignvideo_acq-ap-mb8",
  "SeriesNumber": 32,
  "ShimSetting": [4147, -7754, -7299, 602, -52, -183, -41, 69],
  "SliceThickness": 2.7,
  "SliceTiming": [0, 0.25, 0.0625, 0.3125, 0.125, 0.375, 0.1875, 0, 0.25, 0.0625, 0.3125, 0.125, 0.375, 0.1875, 0, 0.25, 0.0625, 0.3125, 0.125, 0.375, 0.1875, 0, 0.25, 0.0625, 0.3125, 0.125, 0.375, 0.1875, 0, 0.25, 0.0625, 0.3125, 0.125, 0.375, 0.1875, 0, 0.25, 0.0625, 0.3125, 0.125, 0.375, 0.1875, 0, 0.25, 0.0625, 0.3125, 0.125, 0.375, 0.1875, 0, 0.25, 0.0625, 0.3125, 0.125, 0.375, 0.1875],
  "SoftwareVersions": "syngo MR E11",
  "SpacingBetweenSlices": 2.7,
  "StationName": "AWP66112",
  "TaskName": "alignvideo",
  "TotalReadoutTime": 0.03969,
  "TxRefAmp": 243.614,
  "WipMemBlock": "8c51799c-43ef-4d32-a79b-6e8ff51772d8||Sequence: R016 ve11c/master r/e634e98; Dec 19 2017 11:00:25 by eja",
  "dcmmeta_affine": [
    [-2.6714577674865723, 0.1657334417104721, 0.18540862202644348, 103.97938537597656],
    [0.17559878528118134, 2.6734447479248047, 0.14216046035289764, -92.84070587158203],
    [0.17485888302326202, -0.1527159959077835, 2.6898725032806396, -72.40725708007812],
    [0.0, 0.0, 0.0, 1.0]
],
  "dcmmeta_reorient_transform": [
    [0.0, -1.0, 0.0, 81.0],
    [1.0, 0.0, 0.0, 0.0],
    [0.0, 0.0, 1.0, 0.0],
    [0.0, 0.0, 0.0, 1.0]
],
  "dcmmeta_shape": [82, 82, 56, 1065],
  "dcmmeta_slice_dim": 2,
  "dcmmeta_version": 0.6,
  "global": {
    "const": {
      "AccessionNumber": "A003768",
      "AcquisitionMatrix": [82, 0, 0, 82],
      "AngioFlag": "N",
      "BitsAllocated": 16,
      "BitsStored": 16,
      "BodyPartExamined": "BRAIN",
      "Columns": 656,
      "EchoNumbers": 1,
      "EchoTime": 27.2,
      "EchoTrainLength": 82,
      "FlipAngle": 44.0,
      "HighBit": 15,
      "ImageOrientationPatient": [0.99572511277985, -0.0654504527512, 0.06517467310403, 0.06177337454523, 0.99646575597773, 0.05692141390571],
      "ImagePositionPatient": [-931.67764835253, -840.59011913959, -178.79123881775],
      "ImageType": [
        "ORIGINAL",
        "PRIMARY",
        "M",
        "MB",
        "ND",
        "NORM",
        "MOSAIC"
],
      "ImagedNucleus": "1H",
      "ImagingFrequency": 123.252223,
      "InPlanePhaseEncodingDirection": "COL",
      "MRAcquisitionType": "2D",
      "MagneticFieldStrength": 3.0,
      "Manufacturer": "SIEMENS",
      "ManufacturerModelName": "Prisma",
      "Modality": "MR",
      "NumberOfAverages": 1.0,
      "NumberOfPhaseEncodingSteps": 82,
      "PercentPhaseFieldOfView": 100.0,
      "PercentSampling": 100.0,
      "PerformedProcedureStepStartTime": "111053.447000",
      "PhotometricInterpretation": "MONOCHROME2",
      "PixelBandwidth": 3050.0,
      "PixelRepresentation": 0,
      "PixelSpacing": [2.6829268932343, 2.6829268932343],
      "ProtocolName": "func_run-03_task-alignvideo_acq-ap-mb8",
      "RepetitionTime": 460.0,
      "Rows": 656,
      "SAR": 0.0994257259555,
      "SamplesPerPixel": 1,
      "ScanOptions": "FS",
      "ScanningSequence": "EP",
      "SequenceName": "epfid2d1_82",
      "SequenceVariant": [
        "SK",
        "SS"
],
      "SeriesDescription": "func_run-03_task-alignvideo_acq-ap-mb8",
      "SeriesNumber": 32,
      "SeriesTime": "124845.213000",
      "SliceLocation": -69.883660847727,
      "SliceThickness": 2.7000000476837,
      "SmallestImagePixelValue": 0,
      "SoftwareVersions": "syngo MR E11",
      "SpacingBetweenSlices": 2.6999999700102,
      "SpecificCharacterSet": "ISO_IR 100",
      "StudyID": "5",
      "StudyTime": "111053.397000",
      "TransmitCoilName": "Body",
      "VariableFlipAngleFlag": "N",
      "WindowCenterWidthExplanation": "Algo1",
      "dBdt": 0.0},
    "slices": {}
  },
  "time": {
    "samples": {
      "AcquisitionNumber": [1, 2, 3, 4, 5, 6, 7, 8, 9, 10, 11, 12, 13, 14, 15, 16, 17, 18, 19, 20, 21, 22, 23, 24, 25, 26, 27, 28, 29, 30, 31, 32, 33, 34, 35, 36, 37, 38, 39, 40, 41, 42, 43, 44, 45, 46, 47, 48, 49, 50, 51, 52, 53, 54, 55, 56, 57, 58, 59, 60, 61, 62, 63, 64, 65, 66, 67, 68, 69, 70, 71, 72, 73, 74, 75, 76, 77, 78, 79, 80, 81, 82, 83, 84, 85, 86, 87, 88, 89, 90, 91, 92, 93, 94, 95, 96, 97, 98, 99, 100, 101, 102, 103, 104, 105, 106, 107, 108, 109, 110, 111, 112, 113, 114, 115, 116, 117, 118, 119, 120, 121, 122, 123, 124, 125, 126, 127, 128, 129, 130, 131, 132, 133, 134, 135, 136, 137, 138, 139, 140, 141, 142, 143, 144, 145, 146, 147, 148, 149, 150, 151, 152, 153, 154, 155, 156, 157, 158, 159, 160, 161, 162, 163, 164, 165, 166, 167, 168, 169, 170, 171, 172, 173, 174, 175, 176, 177, 178, 179, 180, 181, 182, 183, 184, 185, 186, 187, 188, 189, 190, 191, 192, 193, 194, 195, 196, 197, 198, 199, 200, 201, 202, 203, 204, 205, 206, 207, 208, 209, 210, 211, 212, 213, 214, 215, 216, 217, 218, 219, 220, 221, 222, 223, 224, 225, 226, 227, 228, 229, 230, 231, 232, 233, 234, 235, 236, 237, 238, 239, 240, 241, 242, 243, 244, 245, 246, 247, 248, 249, 250, 251, 252, 253, 254, 255, 256, 257, 258, 259, 260, 261, 262, 263, 264, 265, 266, 267, 268, 269, 270, 271, 272, 273, 274, 275, 276, 277, 278, 279, 280, 281, 282, 283, 284, 285, 286, 287, 288, 289, 290, 291, 292, 293, 294, 295, 296, 297, 298, 299, 300, 301, 302, 303, 304, 305, 306, 307, 308, 309, 310, 311, 312, 313, 314, 315, 316, 317, 318, 319, 320, 321, 322, 323, 324, 325, 326, 327, 328, 329, 330, 331, 332, 333, 334, 335, 336, 337, 338, 339, 340, 341, 342, 343, 344, 345, 346, 347, 348, 349, 350, 351, 352, 353, 354, 355, 356, 357, 358, 359, 360, 361, 362, 363, 364, 365, 366, 367, 368, 369, 370, 371, 372, 373, 374, 375, 376, 377, 378, 379, 380, 381, 382, 383, 384, 385, 386, 387, 388, 389, 390, 391, 392, 393, 394, 395, 396, 397, 398, 399, 400, 401, 402, 403, 404, 405, 406, 407, 408, 409, 410, 411, 412, 413, 414, 415, 416, 417, 418, 419, 420, 421, 422, 423, 424, 425, 426, 427, 428, 429, 430, 431, 432, 433, 434, 435, 436, 437, 438, 439, 440, 441, 442, 443, 444, 445, 446, 447, 448, 449, 450, 451, 452, 453, 454, 455, 456, 457, 458, 459, 460, 461, 462, 463, 464, 465, 466, 467, 468, 469, 470, 471, 472, 473, 474, 475, 476, 477, 478, 479, 480, 481, 482, 483, 484, 485, 486, 487, 488, 489, 490, 491, 492, 493, 494, 495, 496, 497, 498, 499, 500, 501, 502, 503, 504, 505, 506, 507, 508, 509, 510, 511, 512, 513, 514, 515, 516, 517, 518, 519, 520, 521, 522, 523, 524, 525, 526, 527, 528, 529, 530, 531, 532, 533, 534, 535, 536, 537, 538, 539, 540, 541, 542, 543, 544, 545, 546, 547, 548, 549, 550, 551, 552, 553, 554, 555, 556, 557, 558, 559, 560, 561, 562, 563, 564, 565, 566, 567, 568, 569, 570, 571, 572, 573, 574, 575, 576, 577, 578, 579, 580, 581, 582, 583, 584, 585, 586, 587, 588, 589, 590, 591, 592, 593, 594, 595, 596, 597, 598, 599, 600, 601, 602, 603, 604, 605, 606, 607, 608, 609, 610, 611, 612, 613, 614, 615, 616, 617, 618, 619, 620, 621, 622, 623, 624, 625, 626, 627, 628, 629, 630, 631, 632, 633, 634, 635, 636, 637, 638, 639, 640, 641, 642, 643, 644, 645, 646, 647, 648, 649, 650, 651, 652, 653, 654, 655, 656, 657, 658, 659, 660, 661, 662, 663, 664, 665, 666, 667, 668, 669, 670, 671, 672, 673, 674, 675, 676, 677, 678, 679, 680, 681, 682, 683, 684, 685, 686, 687, 688, 689, 690, 691, 692, 693, 694, 695, 696, 697, 698, 699, 700, 701, 702, 703, 704, 705, 706, 707, 708, 709, 710, 711, 712, 713, 714, 715, 716, 717, 718, 719, 720, 721, 722, 723, 724, 725, 726, 727, 728, 729, 730, 731, 732, 733, 734, 735, 736, 737, 738, 739, 740, 741, 742, 743, 744, 745, 746, 747, 748, 749, 750, 751, 752, 753, 754, 755, 756, 757, 758, 759, 760, 761, 762, 763, 764, 765, 766, 767, 768, 769, 770, 771, 772, 773, 774, 775, 776, 777, 778, 779, 780, 781, 782, 783, 784, 785, 786, 787, 788, 789, 790, 791, 792, 793, 794, 795, 796, 797, 798, 799, 800, 801, 802, 803, 804, 805, 806, 807, 808, 809, 810, 811, 812, 813, 814, 815, 816, 817, 818, 819, 820, 821, 822, 823, 824, 825, 826, 827, 828, 829, 830, 831, 832, 833, 834, 835, 836, 837, 838, 839, 840, 841, 842, 843, 844, 845, 846, 847, 848, 849, 850, 851, 852, 853, 854, 855, 856, 857, 858, 859, 860, 861, 862, 863, 864, 865, 866, 867, 868, 869, 870, 871, 872, 873, 874, 875, 876, 877, 878, 879, 880, 881, 882, 883, 884, 885, 886, 887, 888, 889, 890, 891, 892, 893, 894, 895, 896, 897, 898, 899, 900, 901, 902, 903, 904, 905, 906, 907, 908, 909, 910, 911, 912, 913, 914, 915, 916, 917, 918, 919, 920, 921, 922, 923, 924, 925, 926, 927, 928, 929, 930, 931, 932, 933, 934, 935, 936, 937, 938, 939, 940, 941, 942, 943, 944, 945, 946, 947, 948, 949, 950, 951, 952, 953, 954, 955, 956, 957, 958, 959, 960, 961, 962, 963, 964, 965, 966, 967, 968, 969, 970, 971, 972, 973, 974, 975, 976, 977, 978, 979, 980, 981, 982, 983, 984, 985, 986, 987, 988, 989, 990, 991, 992, 993, 994, 995, 996, 997, 998, 999, 1000, 1001, 1002, 1003, 1004, 1005, 1006, 1007, 1008, 1009, 1010, 1011, 1012, 1013, 1014, 1015, 1016, 1017, 1018, 1019, 1020, 1021, 1022, 1023, 1024, 1025, 1026, 1027, 1028, 1029, 1030, 1031, 1032, 1033, 1034, 1035, 1036, 1037, 1038, 1039, 1040, 1041, 1042, 1043, 1044, 1045, 1046, 1047, 1048, 1049, 1050, 1051, 1052, 1053, 1054, 1055, 1056, 1057, 1058, 1059, 1060, 1061, 1062, 1063, 1064, 1065],
      "AcquisitionTime": ["124834.270000", "124834.730000", "124835.190000", "124835.650000", "124836.110000", "124836.570000", "124837.030000", "124837.490000", "124837.950000", "124838.410000", "124838.870000", "124839.330000", "124839.790000", "124840.250000", "124840.710000", "124841.170000", "124841.630000", "124842.090000", "124842.550000", "124843.010000", "124843.470000", "124843.930000", "124844.390000", "124844.850000", "124845.310000", "124845.770000", "124846.230000", "124846.690000", "124847.150000", "124847.610000", "124848.070000", "124848.530000", "124848.990000", "124849.450000", "124849.910000", "124850.370000", "124850.830000", "124851.290000", "124851.750000", "124852.210000", "124852.670000", "124853.130000", "124853.590000", "124854.050000", "124854.510000", "124854.970000", "124855.430000", "124855.890000", "124856.350000", "124856.810000", "124857.270000", "124857.730000", "124858.190000", "124858.650000", "124859.110000", "124859.570000", "124900.030000", "124900.490000", "124900.950000", "124901.410000", "124901.870000", "124902.330000", "124902.790000", "124903.250000", "124903.710000", "124904.170000", "124904.630000", "124905.090000", "124905.550000", "124906.010000", "124906.470000", "124906.930000", "124907.390000", "124907.850000", "124908.310000", "124908.770000", "124909.230000", "124909.690000", "124910.150000", "124910.610000", "124911.070000", "124911.530000", "124911.990000", "124912.450000", "124912.910000", "124913.370000", "124913.830000", "124914.290000", "124914.750000", "124915.210000", "124915.670000", "124916.130000", "124916.590000", "124917.050000", "124917.510000", "124917.970000", "124918.430000", "124918.890000", "124919.350000", "124919.810000", "124920.270000", "124920.730000", "124921.190000", "124921.650000", "124922.110000", "124922.570000", "124923.030000", "124923.490000", "124923.950000", "124924.410000", "124924.870000", "124925.330000", "124925.790000", "124926.250000", "124926.710000", "124927.170000", "124927.630000", "124928.090000", "124928.550000", "124929.010000", "124929.470000", "124929.930000", "124930.390000", "124930.850000", "124931.310000", "124931.770000", "124932.230000", "124932.690000", "124933.150000", "124933.610000", "124934.070000", "124934.530000", "124934.990000", "124935.450000", "124935.910000", "124936.370000", "124936.830000", "124937.290000", "124937.750000", "124938.210000", "124938.670000", "124939.130000", "124939.590000", "124940.050000", "124940.510000", "124940.970000", "124941.430000", "124941.890000", "124942.350000", "124942.810000", "124943.270000", "124943.730000", "124944.190000", "124944.650000", "124945.110000", "124945.570000", "124946.030000", "124946.490000", "124946.950000", "124947.410000", "124947.870000", "124948.330000", "124948.790000", "124949.250000", "124949.710000", "124950.170000", "124950.630000", "124951.090000", "124951.550000", "124952.010000", "124952.470000", "124952.930000", "124953.390000", "124953.850000", "124954.310000", "124954.770000", "124955.230000", "124955.690000", "124956.150000", "124956.610000", "124957.070000", "124957.530000", "124957.990000", "124958.450000", "124958.910000", "124959.370000", "124959.830000", "125000.290000", "125000.750000", "125001.210000", "125001.670000", "125002.130000", "125002.590000", "125003.050000", "125003.510000", "125003.970000", "125004.430000", "125004.890000", "125005.350000", "125005.810000", "125006.270000", "125006.730000", "125007.190000", "125007.650000", "125008.110000", "125008.570000", "125009.030000", "125009.490000", "125009.950000", "125010.410000", "125010.870000", "125011.330000", "125011.790000", "125012.250000", "125012.710000", "125013.170000", "125013.630000", "125014.090000", "125014.550000", "125015.010000", "125015.470000", "125015.930000", "125016.390000", "125016.850000", "125017.310000", "125017.770000", "125018.230000", "125018.690000", "125019.150000", "125019.610000", "125020.070000", "125020.530000", "125020.990000", "125021.450000", "125021.910000", "125022.370000", "125022.830000", "125023.290000", "125023.750000", "125024.210000", "125024.670000", "125025.130000", "125025.590000", "125026.050000", "125026.510000", "125026.970000", "125027.430000", "125027.890000", "125028.350000", "125028.810000", "125029.270000", "125029.730000", "125030.190000", "125030.650000", "125031.110000", "125031.570000", "125032.030000", "125032.490000", "125032.950000", "125033.410000", "125033.870000", "125034.330000", "125034.790000", "125035.250000", "125035.710000", "125036.170000", "125036.630000", "125037.090000", "125037.550000", "125038.010000", "125038.470000", "125038.930000", "125039.390000", "125039.850000", "125040.310000", "125040.770000", "125041.230000", "125041.690000", "125042.150000", "125042.610000", "125043.070000", "125043.530000", "125043.990000", "125044.450000", "125044.910000", "125045.370000", "125045.830000", "125046.290000", "125046.750000", "125047.210000", "125047.670000", "125048.130000", "125048.590000", "125049.050000", "125049.510000", "125049.970000", "125050.430000", "125050.890000", "125051.350000", "125051.810000", "125052.270000", "125052.730000", "125053.190000", "125053.650000", "125054.110000", "125054.570000", "125055.030000", "125055.490000", "125055.950000", "125056.410000", "125056.870000", "125057.330000", "125057.790000", "125058.250000", "125058.710000", "125059.170000", "125059.630000", "125100.090000", "125100.550000", "125101.010000", "125101.470000", "125101.930000", "125102.390000", "125102.850000", "125103.310000", "125103.770000", "125104.230000", "125104.690000", "125105.150000", "125105.610000", "125106.070000", "125106.530000", "125106.990000", "125107.450000", "125107.910000", "125108.370000", "125108.830000", "125109.290000", "125109.750000", "125110.210000", "125110.670000", "125111.130000", "125111.590000", "125112.050000", "125112.510000", "125112.970000", "125113.430000", "125113.890000", "125114.350000", "125114.810000", "125115.270000", "125115.730000", "125116.190000", "125116.650000", "125117.110000", "125117.570000", "125118.030000", "125118.490000", "125118.950000", "125119.410000", "125119.870000", "125120.330000", "125120.790000", "125121.250000", "125121.710000", "125122.170000", "125122.630000", "125123.090000", "125123.550000", "125124.010000", "125124.470000", "125124.930000", "125125.390000", "125125.850000", "125126.310000", "125126.770000", "125127.230000", "125127.690000", "125128.150000", "125128.610000", "125129.070000", "125129.530000", "125129.990000", "125130.450000", "125130.910000", "125131.370000", "125131.830000", "125132.290000", "125132.750000", "125133.210000", "125133.670000", "125134.130000", "125134.590000", "125135.050000", "125135.510000", "125135.970000", "125136.430000", "125136.890000", "125137.350000", "125137.810000", "125138.270000", "125138.730000", "125139.190000", "125139.650000", "125140.110000", "125140.570000", "125141.030000", "125141.490000", "125141.950000", "125142.410000", "125142.870000", "125143.330000", "125143.790000", "125144.250000", "125144.710000", "125145.170000", "125145.630000", "125146.090000", "125146.550000", "125147.010000", "125147.470000", "125147.930000", "125148.390000", "125148.850000", "125149.310000", "125149.770000", "125150.230000", "125150.690000", "125151.150000", "125151.610000", "125152.070000", "125152.530000", "125152.990000", "125153.450000", "125153.910000", "125154.370000", "125154.830000", "125155.290000", "125155.750000", "125156.210000", "125156.670000", "125157.130000", "125157.590000", "125158.050000", "125158.510000", "125158.970000", "125159.430000", "125159.890000", "125200.350000", "125200.810000", "125201.270000", "125201.730000", "125202.190000", "125202.650000", "125203.110000", "125203.570000", "125204.030000", "125204.490000", "125204.950000", "125205.410000", "125205.870000", "125206.330000", "125206.790000", "125207.250000", "125207.710000", "125208.170000", "125208.630000", "125209.090000", "125209.550000", "125210.010000", "125210.470000", "125210.930000", "125211.390000", "125211.850000", "125212.310000", "125212.770000", "125213.230000", "125213.690000", "125214.150000", "125214.610000", "125215.070000", "125215.530000", "125215.990000", "125216.450000", "125216.910000", "125217.370000", "125217.830000", "125218.290000", "125218.750000", "125219.210000", "125219.670000", "125220.130000", "125220.590000", "125221.050000", "125221.510000", "125221.970000", "125222.430000", "125222.890000", "125223.350000", "125223.810000", "125224.270000", "125224.730000", "125225.190000", "125225.650000", "125226.110000", "125226.570000", "125227.030000", "125227.490000", "125227.950000", "125228.410000", "125228.870000", "125229.330000", "125229.790000", "125230.250000", "125230.710000", "125231.170000", "125231.630000", "125232.090000", "125232.550000", "125233.010000", "125233.470000", "125233.930000", "125234.390000", "125234.850000", "125235.310000", "125235.770000", "125236.230000", "125236.690000", "125237.150000", "125237.610000", "125238.070000", "125238.530000", "125238.990000", "125239.450000", "125239.910000", "125240.370000", "125240.830000", "125241.290000", "125241.750000", "125242.210000", "125242.670000", "125243.130000", "125243.590000", "125244.050000", "125244.510000", "125244.970000", "125245.430000", "125245.890000", "125246.350000", "125246.810000", "125247.270000", "125247.730000", "125248.190000", "125248.650000", "125249.110000", "125249.570000", "125250.030000", "125250.490000", "125250.950000", "125251.410000", "125251.870000", "125252.330000", "125252.790000", "125253.250000", "125253.710000", "125254.170000", "125254.630000", "125255.090000", "125255.550000", "125256.010000", "125256.470000", "125256.930000", "125257.390000", "125257.850000", "125258.310000", "125258.770000", "125259.230000", "125259.690000", "125300.150000", "125300.610000", "125301.070000", "125301.530000", "125301.990000", "125302.450000", "125302.910000", "125303.370000", "125303.830000", "125304.290000", "125304.750000", "125305.210000", "125305.670000", "125306.130000", "125306.590000", "125307.050000", "125307.510000", "125307.970000", "125308.430000", "125308.890000", "125309.350000", "125309.810000", "125310.270000", "125310.730000", "125311.190000", "125311.650000", "125312.110000", "125312.570000", "125313.030000", "125313.490000", "125313.950000", "125314.410000", "125314.870000", "125315.330000", "125315.790000", "125316.250000", "125316.710000", "125317.170000", "125317.630000", "125318.090000", "125318.550000", "125319.010000", "125319.470000", "125319.930000", "125320.390000", "125320.850000", "125321.310000", "125321.770000", "125322.230000", "125322.690000", "125323.150000", "125323.610000", "125324.070000", "125324.530000", "125324.990000", "125325.450000", "125325.910000", "125326.370000", "125326.830000", "125327.290000", "125327.750000", "125328.210000", "125328.670000", "125329.130000", "125329.590000", "125330.050000", "125330.510000", "125330.970000", "125331.430000", "125331.890000", "125332.350000", "125332.810000", "125333.270000", "125333.730000", "125334.190000", "125334.650000", "125335.110000", "125335.570000", "125336.030000", "125336.490000", "125336.950000", "125337.410000", "125337.870000", "125338.330000", "125338.790000", "125339.250000", "125339.710000", "125340.170000", "125340.630000", "125341.090000", "125341.550000", "125342.010000", "125342.470000", "125342.930000", "125343.390000", "125343.850000", "125344.310000", "125344.770000", "125345.230000", "125345.690000", "125346.150000", "125346.610000", "125347.070000", "125347.530000", "125347.990000", "125348.450000", "125348.910000", "125349.370000", "125349.830000", "125350.290000", "125350.750000", "125351.210000", "125351.670000", "125352.130000", "125352.590000", "125353.050000", "125353.510000", "125353.970000", "125354.430000", "125354.890000", "125355.350000", "125355.810000", "125356.270000", "125356.730000", "125357.190000", "125357.650000", "125358.110000", "125358.570000", "125359.030000", "125359.490000", "125359.950000", "125400.410000", "125400.870000", "125401.330000", "125401.790000", "125402.250000", "125402.710000", "125403.170000", "125403.630000", "125404.090000", "125404.550000", "125405.010000", "125405.470000", "125405.930000", "125406.390000", "125406.850000", "125407.310000", "125407.770000", "125408.230000", "125408.690000", "125409.150000", "125409.610000", "125410.070000", "125410.530000", "125410.990000", "125411.450000", "125411.910000", "125412.370000", "125412.830000", "125413.290000", "125413.750000", "125414.210000", "125414.670000", "125415.130000", "125415.590000", "125416.050000", "125416.510000", "125416.970000", "125417.430000", "125417.890000", "125418.350000", "125418.810000", "125419.270000", "125419.730000", "125420.190000", "125420.650000", "125421.110000", "125421.570000", "125422.030000", "125422.490000", "125422.950000", "125423.410000", "125423.870000", "125424.330000", "125424.790000", "125425.250000", "125425.710000", "125426.170000", "125426.630000", "125427.090000", "125427.550000", "125428.010000", "125428.470000", "125428.930000", "125429.390000", "125429.850000", "125430.310000", "125430.770000", "125431.230000", "125431.690000", "125432.150000", "125432.610000", "125433.070000", "125433.530000", "125433.990000", "125434.450000", "125434.910000", "125435.370000", "125435.830000", "125436.290000", "125436.750000", "125437.210000", "125437.670000", "125438.130000", "125438.590000", "125439.050000", "125439.510000", "125439.970000", "125440.430000", "125440.890000", "125441.350000", "125441.810000", "125442.270000", "125442.730000", "125443.190000", "125443.650000", "125444.110000", "125444.570000", "125445.030000", "125445.490000", "125445.950000", "125446.410000", "125446.870000", "125447.330000", "125447.790000", "125448.250000", "125448.710000", "125449.170000", "125449.630000", "125450.090000", "125450.550000", "125451.010000", "125451.470000", "125451.930000", "125452.390000", "125452.850000", "125453.310000", "125453.770000", "125454.230000", "125454.690000", "125455.150000", "125455.610000", "125456.070000", "125456.530000", "125456.990000", "125457.450000", "125457.910000", "125458.370000", "125458.830000", "125459.290000", "125459.750000", "125500.210000", "125500.670000", "125501.130000", "125501.590000", "125502.050000", "125502.510000", "125502.970000", "125503.430000", "125503.890000", "125504.350000", "125504.810000", "125505.270000", "125505.730000", "125506.190000", "125506.650000", "125507.110000", "125507.570000", "125508.030000", "125508.490000", "125508.950000", "125509.410000", "125509.870000", "125510.330000", "125510.790000", "125511.250000", "125511.710000", "125512.170000", "125512.630000", "125513.090000", "125513.550000", "125514.010000", "125514.470000", "125514.930000", "125515.390000", "125515.850000", "125516.310000", "125516.770000", "125517.230000", "125517.690000", "125518.150000", "125518.610000", "125519.070000", "125519.530000", "125519.990000", "125520.450000", "125520.910000", "125521.370000", "125521.830000", "125522.290000", "125522.750000", "125523.210000", "125523.670000", "125524.130000", "125524.590000", "125525.050000", "125525.510000", "125525.970000", "125526.430000", "125526.890000", "125527.350000", "125527.810000", "125528.270000", "125528.730000", "125529.190000", "125529.650000", "125530.110000", "125530.570000", "125531.030000", "125531.490000", "125531.950000", "125532.410000", "125532.870000", "125533.330000", "125533.790000", "125534.250000", "125534.710000", "125535.170000", "125535.630000", "125536.090000", "125536.550000", "125537.010000", "125537.470000", "125537.930000", "125538.390000", "125538.850000", "125539.310000", "125539.770000", "125540.230000", "125540.690000", "125541.150000", "125541.610000", "125542.070000", "125542.530000", "125542.990000", "125543.450000", "125543.910000", "125544.370000", "125544.830000", "125545.290000", "125545.750000", "125546.210000", "125546.670000", "125547.130000", "125547.590000", "125548.050000", "125548.510000", "125548.970000", "125549.430000", "125549.890000", "125550.350000", "125550.810000", "125551.270000", "125551.730000", "125552.190000", "125552.650000", "125553.110000", "125553.570000", "125554.030000", "125554.490000", "125554.950000", "125555.410000", "125555.870000", "125556.330000", "125556.790000", "125557.250000", "125557.710000", "125558.170000", "125558.630000", "125559.090000", "125559.550000", "125600.010000", "125600.470000", "125600.930000", "125601.390000", "125601.850000", "125602.310000", "125602.770000", "125603.230000", "125603.690000", "125604.150000", "125604.610000", "125605.070000", "125605.530000", "125605.990000", "125606.450000", "125606.910000", "125607.370000", "125607.830000", "125608.290000", "125608.750000", "125609.210000", "125609.670000", "125610.130000", "125610.590000", "125611.050000", "125611.510000", "125611.970000", "125612.430000", "125612.890000", "125613.350000", "125613.810000", "125614.270000", "125614.730000", "125615.190000", "125615.650000", "125616.110000", "125616.570000", "125617.030000", "125617.490000", "125617.950000", "125618.410000", "125618.870000", "125619.330000", "125619.790000", "125620.250000", "125620.710000", "125621.170000", "125621.630000", "125622.090000", "125622.550000", "125623.010000", "125623.470000", "125623.930000", "125624.390000", "125624.850000", "125625.310000", "125625.770000", "125626.230000", "125626.690000", "125627.150000", "125627.610000", "125628.070000", "125628.530000", "125628.990000", "125629.450000", "125629.910000", "125630.370000", "125630.830000", "125631.290000", "125631.750000", "125632.210000", "125632.670000", "125633.130000", "125633.590000", "125634.050000", "125634.510000", "125634.970000", "125635.430000", "125635.890000", "125636.350000", "125636.810000", "125637.270000", "125637.730000", "125638.190000", "125638.650000", "125639.110000", "125639.570000", "125640.030000", "125640.490000", "125640.950000", "125641.410000", "125641.870000", "125642.330000", "125642.790000", "125643.250000", "125643.710000"],
