{
  "AcquisitionMatrixPE": 82,
  "AcquisitionNumber": 1,
  "AcquisitionTime": "14:10:19.970000",
  "BandwidthPerPixelPhaseEncode": 24.888,
  "BaseResolution": 82,
  "BodyPartExamined": "BRAIN",
  "ConsistencyInfo": "N4_VE11C_LATEST_20160120",
  "ConversionSoftware": "dcm2niix",
  "ConversionSoftwareVersion": "v1.0.20201102",
  "DerivedVendorReportedEchoSpacing": 0.00049,
  "DeviceSerialNumber": "66112",
  "DwellTime": 2e-06,
  "EchoTime": 0.0272,
  "EchoTrainLength": 82,
  "EffectiveEchoSpacing": 0.00049,
  "FlipAngle": 44,
  "ImageComments": "Unaliased MB8/PE3",
  "ImageOrientationPatientDICOM": [0.99709, -0.073896, -0.0187402, 0.0746216, 0.996346, 0.0415377],
  "ImageType": [
    "ORIGINAL",
    "PRIMARY",
    "M",
    "MB",
    "ND",
    "NORM",
    "MOSAIC"
],
  "ImagingFrequency": 123.252,
  "InPlanePhaseEncodingDirectionDICOM": "COL",
  "InstitutionAddress": "Maynard 3,Hanover,NH,US,03755",
  "InstitutionName": "Dartmouth College - PBS",
  "InstitutionalDepartmentName": "Department",
  "MRAcquisitionType": "2D",
  "MagneticFieldStrength": 3,
  "Manufacturer": "Siemens",
  "ManufacturersModelName": "Prisma",
  "Modality": "MR",
  "MultibandAccelerationFactor": 8,
  "PartialFourier": 1,
  "PatientPosition": "HFS",
  "PercentPhaseFOV": 100,
  "PercentSampling": 100,
  "PhaseEncodingDirection": "j-",
  "PhaseEncodingSteps": 82,
  "PhaseResolution": 1,
  "PixelBandwidth": 3050,
  "ProcedureStepDescription": "Wager_Wager^1076_spacetop",
  "ProtocolName": "func_run-02_task-faces_acq-ap-mb8",
  "PulseSequenceDetails": "%CustomerSeq%\\cmrr_mbep2d_bold",
  "ReceiveCoilActiveElements": "HEA;HEP",
  "ReceiveCoilName": "Head_32",
  "ReconMatrixPE": 82,
  "RepetitionTime": 0.46,
  "SAR": 0.0974969,
  "ScanOptions": "FS",
  "ScanningSequence": "EP",
  "SequenceName": "epfid2d1_82",
  "SequenceVariant": "SK\\SS",
  "SeriesDescription": "func_run-02_task-faces_acq-ap-mb8",
  "SeriesNumber": 18,
  "ShimSetting": [4145, -7775, -7252, 571, -16, -62, -20, 59],
  "SliceThickness": 2.7,
  "SliceTiming": [0, 0.25, 0.0625, 0.3125, 0.125, 0.3775, 0.1875, 0, 0.25, 0.0625, 0.3125, 0.125, 0.3775, 0.1875, 0, 0.25, 0.0625, 0.3125, 0.125, 0.3775, 0.1875, 0, 0.25, 0.0625, 0.3125, 0.125, 0.3775, 0.1875, 0, 0.25, 0.0625, 0.3125, 0.125, 0.3775, 0.1875, 0, 0.25, 0.0625, 0.3125, 0.125, 0.3775, 0.1875, 0, 0.25, 0.0625, 0.3125, 0.125, 0.3775, 0.1875, 0, 0.25, 0.0625, 0.3125, 0.125, 0.3775, 0.1875],
  "SoftwareVersions": "syngo MR E11",
  "SpacingBetweenSlices": 2.7,
  "StationName": "AWP66112",
  "TaskName": "faces",
  "TotalReadoutTime": 0.03969,
  "TxRefAmp": 241.491,
  "WipMemBlock": "0952dbd2-b4d1-430a-958f-7841b8c2df93||Sequence: R016 ve11c/master r/e634e98; Dec 19 2017 11:00:25 by eja",
  "dcmmeta_affine": [
    [-2.675119161605835, 0.20020417869091034, -0.042126040905714035, 103.12435913085938],
    [0.1982574462890625, 2.6731247901916504, 0.11560112982988358, -104.11991882324219],
    [-0.05027851462364197, -0.11144258826971054, 2.697195053100586, -53.94114303588867],
    [0.0, 0.0, 0.0, 1.0]
],
  "dcmmeta_reorient_transform": [
    [0.0, -1.0, 0.0, 81.0],
    [1.0, 0.0, 0.0, 0.0],
    [0.0, 0.0, 1.0, 0.0],
    [0.0, 0.0, 0.0, 1.0]
],
  "dcmmeta_shape": [82, 82, 56, 914],
  "dcmmeta_slice_dim": 2,
  "dcmmeta_version": 0.6,
  "global": {
    "const": {
      "AccessionNumber": "A003612",
      "AcquisitionMatrix": [82, 0, 0, 82],
      "AngioFlag": "N",
      "BitsAllocated": 16,
      "BitsStored": 16,
      "BodyPartExamined": "BRAIN",
      "Columns": 656,
      "EchoNumbers": 1,
      "EchoTime": 27.2,
      "EchoTrainLength": 82,
      "FlipAngle": 44.0,
      "HighBit": 15,
      "ImageOrientationPatient": [0.99708986231003, -0.0738959566437, -0.018740172632, 0.07462155641444, 0.99634644749536, 0.04153769230072],
      "ImagePositionPatient": [-944.55870768168, -822.69007366351, -80.522083900065],
      "ImageType": [
        "ORIGINAL",
        "PRIMARY",
        "M",
        "MB",
        "ND",
        "NORM",
        "MOSAIC"
],
      "ImagedNucleus": "1H",
      "ImagingFrequency": 123.252189,
      "InPlanePhaseEncodingDirection": "COL",
      "MRAcquisitionType": "2D",
      "MagneticFieldStrength": 3.0,
      "Manufacturer": "SIEMENS",
      "ManufacturerModelName": "Prisma",
      "Modality": "MR",
      "NumberOfAverages": 1.0,
      "NumberOfPhaseEncodingSteps": 82,
      "PercentPhaseFieldOfView": 100.0,
      "PercentSampling": 100.0,
      "PerformedProcedureStepStartTime": "130251.971000",
      "PhotometricInterpretation": "MONOCHROME2",
      "PixelBandwidth": 3050.0,
      "PixelRepresentation": 0,
      "PixelSpacing": [2.6829268932343, 2.6829268932343],
      "ProtocolName": "func_run-02_task-faces_acq-ap-mb8",
      "RepetitionTime": 460.0,
      "Rows": 656,
      "SAR": 0.09749687520162,
      "SamplesPerPixel": 1,
      "ScanOptions": "FS",
      "ScanningSequence": "EP",
      "SequenceName": "epfid2d1_82",
      "SequenceVariant": [
        "SK",
        "SS"
],
      "SeriesDescription": "func_run-02_task-faces_acq-ap-mb8",
      "SeriesNumber": 18,
      "SeriesTime": "141046.374000",
      "SliceLocation": -59.951997179374,
      "SliceThickness": 2.7000000476837,
      "SmallestImagePixelValue": 0,
      "SoftwareVersions": "syngo MR E11",
      "SpacingBetweenSlices": 2.6999999879531,
      "SpecificCharacterSet": "ISO_IR 100",
      "StudyID": "1",
      "StudyTime": "130251.915000",
      "TransmitCoilName": "Body",
      "VariableFlipAngleFlag": "N",
      "WindowCenterWidthExplanation": "Algo1",
      "dBdt": 0.0},
    "slices": {}
  },
  "time": {
    "samples": {
      "AcquisitionNumber": [1, 2, 3, 4, 5, 6, 7, 8, 9, 10, 11, 12, 13, 14, 15, 16, 17, 18, 19, 20, 21, 22, 23, 24, 25, 26, 27, 28, 29, 30, 31, 32, 33, 34, 35, 36, 37, 38, 39, 40, 41, 42, 43, 44, 45, 46, 47, 48, 49, 50, 51, 52, 53, 54, 55, 56, 57, 58, 59, 60, 61, 62, 63, 64, 65, 66, 67, 68, 69, 70, 71, 72, 73, 74, 75, 76, 77, 78, 79, 80, 81, 82, 83, 84, 85, 86, 87, 88, 89, 90, 91, 92, 93, 94, 95, 96, 97, 98, 99, 100, 101, 102, 103, 104, 105, 106, 107, 108, 109, 110, 111, 112, 113, 114, 115, 116, 117, 118, 119, 120, 121, 122, 123, 124, 125, 126, 127, 128, 129, 130, 131, 132, 133, 134, 135, 136, 137, 138, 139, 140, 141, 142, 143, 144, 145, 146, 147, 148, 149, 150, 151, 152, 153, 154, 155, 156, 157, 158, 159, 160, 161, 162, 163, 164, 165, 166, 167, 168, 169, 170, 171, 172, 173, 174, 175, 176, 177, 178, 179, 180, 181, 182, 183, 184, 185, 186, 187, 188, 189, 190, 191, 192, 193, 194, 195, 196, 197, 198, 199, 200, 201, 202, 203, 204, 205, 206, 207, 208, 209, 210, 211, 212, 213, 214, 215, 216, 217, 218, 219, 220, 221, 222, 223, 224, 225, 226, 227, 228, 229, 230, 231, 232, 233, 234, 235, 236, 237, 238, 239, 240, 241, 242, 243, 244, 245, 246, 247, 248, 249, 250, 251, 252, 253, 254, 255, 256, 257, 258, 259, 260, 261, 262, 263, 264, 265, 266, 267, 268, 269, 270, 271, 272, 273, 274, 275, 276, 277, 278, 279, 280, 281, 282, 283, 284, 285, 286, 287, 288, 289, 290, 291, 292, 293, 294, 295, 296, 297, 298, 299, 300, 301, 302, 303, 304, 305, 306, 307, 308, 309, 310, 311, 312, 313, 314, 315, 316, 317, 318, 319, 320, 321, 322, 323, 324, 325, 326, 327, 328, 329, 330, 331, 332, 333, 334, 335, 336, 337, 338, 339, 340, 341, 342, 343, 344, 345, 346, 347, 348, 349, 350, 351, 352, 353, 354, 355, 356, 357, 358, 359, 360, 361, 362, 363, 364, 365, 366, 367, 368, 369, 370, 371, 372, 373, 374, 375, 376, 377, 378, 379, 380, 381, 382, 383, 384, 385, 386, 387, 388, 389, 390, 391, 392, 393, 394, 395, 396, 397, 398, 399, 400, 401, 402, 403, 404, 405, 406, 407, 408, 409, 410, 411, 412, 413, 414, 415, 416, 417, 418, 419, 420, 421, 422, 423, 424, 425, 426, 427, 428, 429, 430, 431, 432, 433, 434, 435, 436, 437, 438, 439, 440, 441, 442, 443, 444, 445, 446, 447, 448, 449, 450, 451, 452, 453, 454, 455, 456, 457, 458, 459, 460, 461, 462, 463, 464, 465, 466, 467, 468, 469, 470, 471, 472, 473, 474, 475, 476, 477, 478, 479, 480, 481, 482, 483, 484, 485, 486, 487, 488, 489, 490, 491, 492, 493, 494, 495, 496, 497, 498, 499, 500, 501, 502, 503, 504, 505, 506, 507, 508, 509, 510, 511, 512, 513, 514, 515, 516, 517, 518, 519, 520, 521, 522, 523, 524, 525, 526, 527, 528, 529, 530, 531, 532, 533, 534, 535, 536, 537, 538, 539, 540, 541, 542, 543, 544, 545, 546, 547, 548, 549, 550, 551, 552, 553, 554, 555, 556, 557, 558, 559, 560, 561, 562, 563, 564, 565, 566, 567, 568, 569, 570, 571, 572, 573, 574, 575, 576, 577, 578, 579, 580, 581, 582, 583, 584, 585, 586, 587, 588, 589, 590, 591, 592, 593, 594, 595, 596, 597, 598, 599, 600, 601, 602, 603, 604, 605, 606, 607, 608, 609, 610, 611, 612, 613, 614, 615, 616, 617, 618, 619, 620, 621, 622, 623, 624, 625, 626, 627, 628, 629, 630, 631, 632, 633, 634, 635, 636, 637, 638, 639, 640, 641, 642, 643, 644, 645, 646, 647, 648, 649, 650, 651, 652, 653, 654, 655, 656, 657, 658, 659, 660, 661, 662, 663, 664, 665, 666, 667, 668, 669, 670, 671, 672, 673, 674, 675, 676, 677, 678, 679, 680, 681, 682, 683, 684, 685, 686, 687, 688, 689, 690, 691, 692, 693, 694, 695, 696, 697, 698, 699, 700, 701, 702, 703, 704, 705, 706, 707, 708, 709, 710, 711, 712, 713, 714, 715, 716, 717, 718, 719, 720, 721, 722, 723, 724, 725, 726, 727, 728, 729, 730, 731, 732, 733, 734, 735, 736, 737, 738, 739, 740, 741, 742, 743, 744, 745, 746, 747, 748, 749, 750, 751, 752, 753, 754, 755, 756, 757, 758, 759, 760, 761, 762, 763, 764, 765, 766, 767, 768, 769, 770, 771, 772, 773, 774, 775, 776, 777, 778, 779, 780, 781, 782, 783, 784, 785, 786, 787, 788, 789, 790, 791, 792, 793, 794, 795, 796, 797, 798, 799, 800, 801, 802, 803, 804, 805, 806, 807, 808, 809, 810, 811, 812, 813, 814, 815, 816, 817, 818, 819, 820, 821, 822, 823, 824, 825, 826, 827, 828, 829, 830, 831, 832, 833, 834, 835, 836, 837, 838, 839, 840, 841, 842, 843, 844, 845, 846, 847, 848, 849, 850, 851, 852, 853, 854, 855, 856, 857, 858, 859, 860, 861, 862, 863, 864, 865, 866, 867, 868, 869, 870, 871, 872, 873, 874, 875, 876, 877, 878, 879, 880, 881, 882, 883, 884, 885, 886, 887, 888, 889, 890, 891, 892, 893, 894, 895, 896, 897, 898, 899, 900, 901, 902, 903, 904, 905, 906, 907, 908, 909, 910, 911, 912, 913, 914],
      "AcquisitionTime": ["141019.970000", "141020.430000", "141020.890000", "141021.350000", "141021.810000", "141022.270000", "141022.730000", "141023.190000", "141023.650000", "141024.110000", "141024.570000", "141025.030000", "141025.490000", "141025.950000", "141026.410000", "141026.870000", "141027.330000", "141027.790000", "141028.250000", "141028.710000", "141029.170000", "141029.630000", "141030.090000", "141030.550000", "141031.010000", "141031.470000", "141031.930000", "141032.390000", "141032.850000", "141033.310000", "141033.770000", "141034.230000", "141034.690000", "141035.150000", "141035.610000", "141036.070000", "141036.530000", "141036.990000", "141037.450000", "141037.910000", "141038.370000", "141038.830000", "141039.290000", "141039.750000", "141040.210000", "141040.670000", "141041.130000", "141041.590000", "141042.050000", "141042.510000", "141042.970000", "141043.430000", "141043.890000", "141044.350000", "141044.810000", "141045.270000", "141045.730000", "141046.190000", "141046.650000", "141047.110000", "141047.570000", "141048.030000", "141048.490000", "141048.950000", "141049.410000", "141049.870000", "141050.330000", "141050.790000", "141051.250000", "141051.710000", "141052.170000", "141052.630000", "141053.090000", "141053.550000", "141054.010000", "141054.470000", "141054.930000", "141055.390000", "141055.850000", "141056.310000", "141056.770000", "141057.230000", "141057.690000", "141058.150000", "141058.610000", "141059.070000", "141059.530000", "141059.990000", "141100.450000", "141100.910000", "141101.370000", "141101.830000", "141102.290000", "141102.750000", "141103.210000", "141103.670000", "141104.130000", "141104.590000", "141105.050000", "141105.510000", "141105.970000", "141106.430000", "141106.890000", "141107.350000", "141107.810000", "141108.270000", "141108.730000", "141109.190000", "141109.650000", "141110.110000", "141110.570000", "141111.030000", "141111.490000", "141111.950000", "141112.410000", "141112.870000", "141113.330000", "141113.790000", "141114.250000", "141114.710000", "141115.170000", "141115.630000", "141116.090000", "141116.550000", "141117.010000", "141117.470000", "141117.930000", "141118.390000", "141118.850000", "141119.310000", "141119.770000", "141120.230000", "141120.690000", "141121.150000", "141121.610000", "141122.070000", "141122.530000", "141122.990000", "141123.450000", "141123.910000", "141124.370000", "141124.830000", "141125.290000", "141125.750000", "141126.210000", "141126.670000", "141127.130000", "141127.590000", "141128.050000", "141128.510000", "141128.970000", "141129.430000", "141129.890000", "141130.350000", "141130.810000", "141131.270000", "141131.730000", "141132.190000", "141132.650000", "141133.110000", "141133.570000", "141134.030000", "141134.490000", "141134.950000", "141135.410000", "141135.870000", "141136.330000", "141136.790000", "141137.250000", "141137.710000", "141138.170000", "141138.630000", "141139.090000", "141139.550000", "141140.010000", "141140.470000", "141140.930000", "141141.390000", "141141.850000", "141142.310000", "141142.770000", "141143.230000", "141143.690000", "141144.150000", "141144.610000", "141145.070000", "141145.530000", "141145.990000", "141146.450000", "141146.910000", "141147.370000", "141147.830000", "141148.290000", "141148.750000", "141149.210000", "141149.670000", "141150.130000", "141150.590000", "141151.050000", "141151.510000", "141151.970000", "141152.430000", "141152.890000", "141153.350000", "141153.810000", "141154.270000", "141154.730000", "141155.190000", "141155.650000", "141156.110000", "141156.570000", "141157.030000", "141157.490000", "141157.950000", "141158.410000", "141158.870000", "141159.330000", "141159.790000", "141200.250000", "141200.710000", "141201.170000", "141201.630000", "141202.090000", "141202.550000", "141203.010000", "141203.470000", "141203.930000", "141204.390000", "141204.850000", "141205.310000", "141205.770000", "141206.230000", "141206.690000", "141207.150000", "141207.610000", "141208.070000", "141208.530000", "141208.990000", "141209.450000", "141209.910000", "141210.370000", "141210.830000", "141211.290000", "141211.750000", "141212.210000", "141212.670000", "141213.130000", "141213.590000", "141214.050000", "141214.510000", "141214.970000", "141215.430000", "141215.890000", "141216.350000", "141216.810000", "141217.270000", "141217.730000", "141218.190000", "141218.650000", "141219.110000", "141219.570000", "141220.030000", "141220.490000", "141220.950000", "141221.410000", "141221.870000", "141222.330000", "141222.790000", "141223.250000", "141223.710000", "141224.170000", "141224.630000", "141225.090000", "141225.550000", "141226.010000", "141226.470000", "141226.930000", "141227.390000", "141227.850000", "141228.310000", "141228.770000", "141229.230000", "141229.690000", "141230.150000", "141230.610000", "141231.070000", "141231.530000", "141231.990000", "141232.450000", "141232.910000", "141233.370000", "141233.830000", "141234.290000", "141234.750000", "141235.210000", "141235.670000", "141236.130000", "141236.590000", "141237.050000", "141237.510000", "141237.970000", "141238.430000", "141238.890000", "141239.350000", "141239.810000", "141240.270000", "141240.730000", "141241.190000", "141241.650000", "141242.110000", "141242.570000", "141243.030000", "141243.490000", "141243.950000", "141244.410000", "141244.870000", "141245.330000", "141245.790000", "141246.250000", "141246.710000", "141247.170000", "141247.630000", "141248.090000", "141248.550000", "141249.010000", "141249.470000", "141249.930000", "141250.390000", "141250.850000", "141251.310000", "141251.770000", "141252.230000", "141252.690000", "141253.150000", "141253.610000", "141254.070000", "141254.530000", "141254.990000", "141255.450000", "141255.910000", "141256.370000", "141256.830000", "141257.290000", "141257.750000", "141258.210000", "141258.670000", "141259.130000", "141259.590000", "141300.050000", "141300.510000", "141300.970000", "141301.430000", "141301.890000", "141302.350000", "141302.810000", "141303.270000", "141303.730000", "141304.190000", "141304.650000", "141305.110000", "141305.570000", "141306.030000", "141306.490000", "141306.950000", "141307.410000", "141307.870000", "141308.330000", "141308.790000", "141309.250000", "141309.710000", "141310.170000", "141310.630000", "141311.090000", "141311.550000", "141312.010000", "141312.470000", "141312.930000", "141313.390000", "141313.850000", "141314.310000", "141314.770000", "141315.230000", "141315.690000", "141316.150000", "141316.610000", "141317.070000", "141317.530000", "141317.990000", "141318.450000", "141318.910000", "141319.370000", "141319.830000", "141320.290000", "141320.750000", "141321.210000", "141321.670000", "141322.130000", "141322.590000", "141323.050000", "141323.510000", "141323.970000", "141324.430000", "141324.890000", "141325.350000", "141325.810000", "141326.270000", "141326.730000", "141327.190000", "141327.650000", "141328.110000", "141328.570000", "141329.030000", "141329.490000", "141329.950000", "141330.410000", "141330.870000", "141331.330000", "141331.790000", "141332.250000", "141332.710000", "141333.170000", "141333.630000", "141334.090000", "141334.550000", "141335.010000", "141335.470000", "141335.930000", "141336.390000", "141336.850000", "141337.310000", "141337.770000", "141338.230000", "141338.690000", "141339.150000", "141339.610000", "141340.070000", "141340.530000", "141340.990000", "141341.450000", "141341.910000", "141342.370000", "141342.830000", "141343.290000", "141343.750000", "141344.210000", "141344.670000", "141345.130000", "141345.590000", "141346.050000", "141346.510000", "141346.970000", "141347.430000", "141347.890000", "141348.350000", "141348.810000", "141349.270000", "141349.730000", "141350.190000", "141350.650000", "141351.110000", "141351.570000", "141352.030000", "141352.490000", "141352.950000", "141353.410000", "141353.870000", "141354.330000", "141354.790000", "141355.250000", "141355.710000", "141356.170000", "141356.630000", "141357.090000", "141357.550000", "141358.010000", "141358.470000", "141358.930000", "141359.390000", "141359.850000", "141400.310000", "141400.770000", "141401.230000", "141401.690000", "141402.150000", "141402.610000", "141403.070000", "141403.530000", "141403.990000", "141404.450000", "141404.910000", "141405.370000", "141405.830000", "141406.290000", "141406.750000", "141407.210000", "141407.670000", "141408.130000", "141408.590000", "141409.050000", "141409.510000", "141409.970000", "141410.430000", "141410.890000", "141411.350000", "141411.810000", "141412.270000", "141412.730000", "141413.190000", "141413.650000", "141414.110000", "141414.570000", "141415.030000", "141415.490000", "141415.950000", "141416.410000", "141416.870000", "141417.330000", "141417.790000", "141418.250000", "141418.710000", "141419.170000", "141419.630000", "141420.090000", "141420.550000", "141421.010000", "141421.470000", "141421.930000", "141422.390000", "141422.850000", "141423.310000", "141423.770000", "141424.230000", "141424.690000", "141425.150000", "141425.610000", "141426.070000", "141426.530000", "141426.990000", "141427.450000", "141427.910000", "141428.370000", "141428.830000", "141429.290000", "141429.750000", "141430.210000", "141430.670000", "141431.130000", "141431.590000", "141432.050000", "141432.510000", "141432.970000", "141433.430000", "141433.890000", "141434.350000", "141434.810000", "141435.270000", "141435.730000", "141436.190000", "141436.650000", "141437.110000", "141437.570000", "141438.030000", "141438.490000", "141438.950000", "141439.410000", "141439.870000", "141440.330000", "141440.790000", "141441.250000", "141441.710000", "141442.170000", "141442.630000", "141443.090000", "141443.550000", "141444.010000", "141444.470000", "141444.930000", "141445.390000", "141445.850000", "141446.310000", "141446.770000", "141447.230000", "141447.690000", "141448.150000", "141448.610000", "141449.070000", "141449.530000", "141449.990000", "141450.450000", "141450.910000", "141451.370000", "141451.830000", "141452.290000", "141452.750000", "141453.210000", "141453.670000", "141454.130000", "141454.590000", "141455.050000", "141455.510000", "141455.970000", "141456.430000", "141456.890000", "141457.350000", "141457.810000", "141458.270000", "141458.730000", "141459.190000", "141459.650000", "141500.110000", "141500.570000", "141501.030000", "141501.490000", "141501.950000", "141502.410000", "141502.870000", "141503.330000", "141503.790000", "141504.250000", "141504.710000", "141505.170000", "141505.630000", "141506.090000", "141506.550000", "141507.010000", "141507.470000", "141507.930000", "141508.390000", "141508.850000", "141509.310000", "141509.770000", "141510.230000", "141510.690000", "141511.150000", "141511.610000", "141512.070000", "141512.530000", "141512.990000", "141513.450000", "141513.910000", "141514.370000", "141514.830000", "141515.290000", "141515.750000", "141516.210000", "141516.670000", "141517.130000", "141517.590000", "141518.050000", "141518.510000", "141518.970000", "141519.430000", "141519.890000", "141520.350000", "141520.810000", "141521.270000", "141521.730000", "141522.190000", "141522.650000", "141523.110000", "141523.570000", "141524.030000", "141524.490000", "141524.950000", "141525.410000", "141525.870000", "141526.330000", "141526.790000", "141527.250000", "141527.710000", "141528.170000", "141528.630000", "141529.090000", "141529.550000", "141530.010000", "141530.470000", "141530.930000", "141531.390000", "141531.850000", "141532.310000", "141532.770000", "141533.230000", "141533.690000", "141534.150000", "141534.610000", "141535.070000", "141535.530000", "141535.990000", "141536.450000", "141536.910000", "141537.370000", "141537.830000", "141538.290000", "141538.750000", "141539.210000", "141539.670000", "141540.130000", "141540.590000", "141541.050000", "141541.510000", "141541.970000", "141542.430000", "141542.890000", "141543.350000", "141543.810000", "141544.270000", "141544.730000", "141545.190000", "141545.650000", "141546.110000", "141546.570000", "141547.030000", "141547.490000", "141547.950000", "141548.410000", "141548.870000", "141549.330000", "141549.790000", "141550.250000", "141550.710000", "141551.170000", "141551.630000", "141552.090000", "141552.550000", "141553.010000", "141553.470000", "141553.930000", "141554.390000", "141554.850000", "141555.310000", "141555.770000", "141556.230000", "141556.690000", "141557.150000", "141557.610000", "141558.070000", "141558.530000", "141558.990000", "141559.450000", "141559.910000", "141600.370000", "141600.830000", "141601.290000", "141601.750000", "141602.210000", "141602.670000", "141603.130000", "141603.590000", "141604.050000", "141604.510000", "141604.970000", "141605.430000", "141605.890000", "141606.350000", "141606.810000", "141607.270000", "141607.730000", "141608.190000", "141608.650000", "141609.110000", "141609.570000", "141610.030000", "141610.490000", "141610.950000", "141611.410000", "141611.870000", "141612.330000", "141612.790000", "141613.250000", "141613.710000", "141614.170000", "141614.630000", "141615.090000", "141615.550000", "141616.010000", "141616.470000", "141616.930000", "141617.390000", "141617.850000", "141618.310000", "141618.770000", "141619.230000", "141619.690000", "141620.150000", "141620.610000", "141621.070000", "141621.530000", "141621.990000", "141622.450000", "141622.910000", "141623.370000", "141623.830000", "141624.290000", "141624.750000", "141625.210000", "141625.670000", "141626.130000", "141626.590000", "141627.050000", "141627.510000", "141627.970000", "141628.430000", "141628.890000", "141629.350000", "141629.810000", "141630.270000", "141630.730000", "141631.190000", "141631.650000", "141632.110000", "141632.570000", "141633.030000", "141633.490000", "141633.950000", "141634.410000", "141634.870000", "141635.330000", "141635.790000", "141636.250000", "141636.710000", "141637.170000", "141637.630000", "141638.090000", "141638.550000", "141639.010000", "141639.470000", "141639.930000", "141640.390000", "141640.850000", "141641.310000", "141641.770000", "141642.230000", "141642.690000", "141643.150000", "141643.610000", "141644.070000", "141644.530000", "141644.990000", "141645.450000", "141645.910000", "141646.370000", "141646.830000", "141647.290000", "141647.750000", "141648.210000", "141648.670000", "141649.130000", "141649.590000", "141650.050000", "141650.510000", "141650.970000", "141651.430000", "141651.890000", "141652.350000", "141652.810000", "141653.270000", "141653.730000", "141654.190000", "141654.650000", "141655.110000", "141655.570000", "141656.030000", "141656.490000", "141656.950000", "141657.410000", "141657.870000", "141658.330000", "141658.790000", "141659.250000", "141659.710000", "141700.170000", "141700.630000", "141701.090000", "141701.550000", "141702.010000", "141702.470000", "141702.930000", "141703.390000", "141703.850000", "141704.310000", "141704.770000", "141705.230000", "141705.690000", "141706.150000", "141706.610000", "141707.070000", "141707.530000", "141707.990000", "141708.450000", "141708.910000", "141709.370000", "141709.830000", "141710.290000", "141710.750000", "141711.210000", "141711.670000", "141712.130000", "141712.590000", "141713.050000", "141713.510000", "141713.970000", "141714.430000", "141714.890000", "141715.350000", "141715.810000", "141716.270000", "141716.730000", "141717.190000", "141717.650000", "141718.110000", "141718.570000", "141719.030000", "141719.490000", "141719.950000"],
