{
  "AcquisitionMatrixPE": 82,
  "AcquisitionNumber": 1,
  "AcquisitionTime": "14:58:18.142500",
  "BandwidthPerPixelPhaseEncode": 24.888,
  "BaseResolution": 82,
  "BodyPartExamined": "BRAIN",
  "ConsistencyInfo": "N4_VE11C_LATEST_20160120",
  "ConversionSoftware": "dcm2niix",
  "ConversionSoftwareVersion": "v1.0.20201102",
  "DerivedVendorReportedEchoSpacing": 0.00049,
  "DeviceSerialNumber": "66112",
  "DwellTime": 2e-06,
  "EchoTime": 0.0272,
  "EchoTrainLength": 82,
  "EffectiveEchoSpacing": 0.00049,
  "FlipAngle": 44,
  "ImageComments": "Unaliased MB8/PE3",
  "ImageOrientationPatientDICOM": [0.993139, -0.116638, 0.00837552, 0.116667, 0.983419, -0.138837],
  "ImageType": [
    "ORIGINAL",
    "PRIMARY",
    "M",
    "MB",
    "ND",
    "NORM",
    "MOSAIC"
],
  "ImagingFrequency": 123.252,
  "InPlanePhaseEncodingDirectionDICOM": "COL",
  "InstitutionAddress": "Maynard 3,Hanover,NH,US,03755",
  "InstitutionName": "Dartmouth College - PBS",
  "InstitutionalDepartmentName": "Department",
  "MRAcquisitionType": "2D",
  "MagneticFieldStrength": 3,
  "Manufacturer": "Siemens",
  "ManufacturersModelName": "Prisma",
  "Modality": "MR",
  "MultibandAccelerationFactor": 8,
  "PartialFourier": 1,
  "PatientPosition": "HFS",
  "PercentPhaseFOV": 100,
  "PercentSampling": 100,
  "PhaseEncodingDirection": "j-",
  "PhaseEncodingSteps": 82,
  "PhaseResolution": 1,
  "PixelBandwidth": 3050,
  "ProcedureStepDescription": "Wager_Wager^1076_spacetop",
  "ProtocolName": "func_run-04_task-alignvideo_acq-ap-mb8",
  "PulseSequenceDetails": "%CustomerSeq%\\cmrr_mbep2d_bold",
  "ReceiveCoilActiveElements": "HEA;HEP",
  "ReceiveCoilName": "Head_32",
  "ReconMatrixPE": 82,
  "RepetitionTime": 0.46,
  "SAR": 0.0974969,
  "ScanOptions": "FS",
  "ScanningSequence": "EP",
  "SequenceName": "epfid2d1_82",
  "SequenceVariant": "SK\\SS",
  "SeriesDescription": "func_run-04_task-alignvideo_acq-ap-mb8",
  "SeriesNumber": 34,
  "ShimSetting": [4145, -7776, -7241, 597, -20, -57, -27, 58],
  "SliceThickness": 2.7,
  "SliceTiming": [0, 0.25, 0.0625, 0.3125, 0.125, 0.3775, 0.1875, 0, 0.25, 0.0625, 0.3125, 0.125, 0.3775, 0.1875, 0, 0.25, 0.0625, 0.3125, 0.125, 0.3775, 0.1875, 0, 0.25, 0.0625, 0.3125, 0.125, 0.3775, 0.1875, 0, 0.25, 0.0625, 0.3125, 0.125, 0.3775, 0.1875, 0, 0.25, 0.0625, 0.3125, 0.125, 0.3775, 0.1875, 0, 0.25, 0.0625, 0.3125, 0.125, 0.3775, 0.1875, 0, 0.25, 0.0625, 0.3125, 0.125, 0.3775, 0.1875],
  "SoftwareVersions": "syngo MR E11",
  "SpacingBetweenSlices": 2.7,
  "StationName": "AWP66112",
  "TaskName": "alignvideo",
  "TotalReadoutTime": 0.03969,
  "TxRefAmp": 241.491,
  "WipMemBlock": "d1b3fac0-cf2f-4a66-9005-7bc5d57b5773||Sequence: R016 ve11c/master r/e634e98; Dec 19 2017 11:00:25 by eja",
  "dcmmeta_affine": [
    [-2.664519786834717, 0.3130091726779938, -0.021484017372131348, 98.19824981689453],
    [0.3129305839538574, 2.638441324234009, -0.3749276101589203, -92.32379150390625],
    [0.02247091569006443, 0.372490793466568, 2.673755407333374, -72.97573852539062],
    [0.0, 0.0, 0.0, 1.0]
],
  "dcmmeta_reorient_transform": [
    [0.0, -1.0, 0.0, 81.0],
    [1.0, 0.0, 0.0, 0.0],
    [0.0, 0.0, 1.0, 0.0],
    [0.0, 0.0, 0.0, 1.0]
],
  "dcmmeta_shape": [82, 82, 56, 914],
  "dcmmeta_slice_dim": 2,
  "dcmmeta_version": 0.6,
  "global": {
    "const": {
      "AccessionNumber": "A003612",
      "AcquisitionMatrix": [82, 0, 0, 82],
      "AngioFlag": "N",
      "BitsAllocated": 16,
      "BitsStored": 16,
      "BodyPartExamined": "BRAIN",
      "Columns": 656,
      "EchoNumbers": 1,
      "EchoTime": 27.2,
      "EchoTrainLength": 82,
      "FlipAngle": 44.0,
      "HighBit": 15,
      "ImageOrientationPatient": [0.99313920650152, -0.1166377602835, 0.00837552300377, 0.11666705605974, 0.98341901239021, -0.1388374736871],
      "ImagePositionPatient": [-978.10283968315, -788.81153401677, 57.6517189235],
      "ImageType": [
        "ORIGINAL",
        "PRIMARY",
        "M",
        "MB",
        "ND",
        "NORM",
        "MOSAIC"
],
      "ImagedNucleus": "1H",
      "ImagingFrequency": 123.252187,
      "InPlanePhaseEncodingDirection": "COL",
      "MRAcquisitionType": "2D",
      "MagneticFieldStrength": 3.0,
      "Manufacturer": "SIEMENS",
      "ManufacturerModelName": "Prisma",
      "Modality": "MR",
      "NumberOfAverages": 1.0,
      "NumberOfPhaseEncodingSteps": 82,
      "PercentPhaseFieldOfView": 100.0,
      "PercentSampling": 100.0,
      "PerformedProcedureStepStartTime": "130251.971000",
      "PhotometricInterpretation": "MONOCHROME2",
      "PixelBandwidth": 3050.0,
      "PixelRepresentation": 0,
      "PixelSpacing": [2.6829268932343, 2.6829268932343],
      "ProtocolName": "func_run-04_task-alignvideo_acq-ap-mb8",
      "RepetitionTime": 460.0,
      "Rows": 656,
      "SAR": 0.09749687520162,
      "SamplesPerPixel": 1,
      "ScanOptions": "FS",
      "ScanningSequence": "EP",
      "SequenceName": "epfid2d1_82",
      "SequenceVariant": [
        "SK",
        "SS"
],
      "SeriesDescription": "func_run-04_task-alignvideo_acq-ap-mb8",
      "SeriesNumber": 34,
      "SeriesTime": "145846.349000",
      "SliceLocation": -60.227491402254,
      "SliceThickness": 2.7000000476837,
      "SmallestImagePixelValue": 0,
      "SoftwareVersions": "syngo MR E11",
      "SpacingBetweenSlices": 2.6999999417783,
      "SpecificCharacterSet": "ISO_IR 100",
      "StudyID": "1",
      "StudyTime": "130251.915000",
      "TransmitCoilName": "Body",
      "VariableFlipAngleFlag": "N",
      "WindowCenterWidthExplanation": "Algo1",
      "dBdt": 0.0},
    "slices": {}
  },
  "time": {
    "samples": {
      "AcquisitionNumber": [1, 2, 3, 4, 5, 6, 7, 8, 9, 10, 11, 12, 13, 14, 15, 16, 17, 18, 19, 20, 21, 22, 23, 24, 25, 26, 27, 28, 29, 30, 31, 32, 33, 34, 35, 36, 37, 38, 39, 40, 41, 42, 43, 44, 45, 46, 47, 48, 49, 50, 51, 52, 53, 54, 55, 56, 57, 58, 59, 60, 61, 62, 63, 64, 65, 66, 67, 68, 69, 70, 71, 72, 73, 74, 75, 76, 77, 78, 79, 80, 81, 82, 83, 84, 85, 86, 87, 88, 89, 90, 91, 92, 93, 94, 95, 96, 97, 98, 99, 100, 101, 102, 103, 104, 105, 106, 107, 108, 109, 110, 111, 112, 113, 114, 115, 116, 117, 118, 119, 120, 121, 122, 123, 124, 125, 126, 127, 128, 129, 130, 131, 132, 133, 134, 135, 136, 137, 138, 139, 140, 141, 142, 143, 144, 145, 146, 147, 148, 149, 150, 151, 152, 153, 154, 155, 156, 157, 158, 159, 160, 161, 162, 163, 164, 165, 166, 167, 168, 169, 170, 171, 172, 173, 174, 175, 176, 177, 178, 179, 180, 181, 182, 183, 184, 185, 186, 187, 188, 189, 190, 191, 192, 193, 194, 195, 196, 197, 198, 199, 200, 201, 202, 203, 204, 205, 206, 207, 208, 209, 210, 211, 212, 213, 214, 215, 216, 217, 218, 219, 220, 221, 222, 223, 224, 225, 226, 227, 228, 229, 230, 231, 232, 233, 234, 235, 236, 237, 238, 239, 240, 241, 242, 243, 244, 245, 246, 247, 248, 249, 250, 251, 252, 253, 254, 255, 256, 257, 258, 259, 260, 261, 262, 263, 264, 265, 266, 267, 268, 269, 270, 271, 272, 273, 274, 275, 276, 277, 278, 279, 280, 281, 282, 283, 284, 285, 286, 287, 288, 289, 290, 291, 292, 293, 294, 295, 296, 297, 298, 299, 300, 301, 302, 303, 304, 305, 306, 307, 308, 309, 310, 311, 312, 313, 314, 315, 316, 317, 318, 319, 320, 321, 322, 323, 324, 325, 326, 327, 328, 329, 330, 331, 332, 333, 334, 335, 336, 337, 338, 339, 340, 341, 342, 343, 344, 345, 346, 347, 348, 349, 350, 351, 352, 353, 354, 355, 356, 357, 358, 359, 360, 361, 362, 363, 364, 365, 366, 367, 368, 369, 370, 371, 372, 373, 374, 375, 376, 377, 378, 379, 380, 381, 382, 383, 384, 385, 386, 387, 388, 389, 390, 391, 392, 393, 394, 395, 396, 397, 398, 399, 400, 401, 402, 403, 404, 405, 406, 407, 408, 409, 410, 411, 412, 413, 414, 415, 416, 417, 418, 419, 420, 421, 422, 423, 424, 425, 426, 427, 428, 429, 430, 431, 432, 433, 434, 435, 436, 437, 438, 439, 440, 441, 442, 443, 444, 445, 446, 447, 448, 449, 450, 451, 452, 453, 454, 455, 456, 457, 458, 459, 460, 461, 462, 463, 464, 465, 466, 467, 468, 469, 470, 471, 472, 473, 474, 475, 476, 477, 478, 479, 480, 481, 482, 483, 484, 485, 486, 487, 488, 489, 490, 491, 492, 493, 494, 495, 496, 497, 498, 499, 500, 501, 502, 503, 504, 505, 506, 507, 508, 509, 510, 511, 512, 513, 514, 515, 516, 517, 518, 519, 520, 521, 522, 523, 524, 525, 526, 527, 528, 529, 530, 531, 532, 533, 534, 535, 536, 537, 538, 539, 540, 541, 542, 543, 544, 545, 546, 547, 548, 549, 550, 551, 552, 553, 554, 555, 556, 557, 558, 559, 560, 561, 562, 563, 564, 565, 566, 567, 568, 569, 570, 571, 572, 573, 574, 575, 576, 577, 578, 579, 580, 581, 582, 583, 584, 585, 586, 587, 588, 589, 590, 591, 592, 593, 594, 595, 596, 597, 598, 599, 600, 601, 602, 603, 604, 605, 606, 607, 608, 609, 610, 611, 612, 613, 614, 615, 616, 617, 618, 619, 620, 621, 622, 623, 624, 625, 626, 627, 628, 629, 630, 631, 632, 633, 634, 635, 636, 637, 638, 639, 640, 641, 642, 643, 644, 645, 646, 647, 648, 649, 650, 651, 652, 653, 654, 655, 656, 657, 658, 659, 660, 661, 662, 663, 664, 665, 666, 667, 668, 669, 670, 671, 672, 673, 674, 675, 676, 677, 678, 679, 680, 681, 682, 683, 684, 685, 686, 687, 688, 689, 690, 691, 692, 693, 694, 695, 696, 697, 698, 699, 700, 701, 702, 703, 704, 705, 706, 707, 708, 709, 710, 711, 712, 713, 714, 715, 716, 717, 718, 719, 720, 721, 722, 723, 724, 725, 726, 727, 728, 729, 730, 731, 732, 733, 734, 735, 736, 737, 738, 739, 740, 741, 742, 743, 744, 745, 746, 747, 748, 749, 750, 751, 752, 753, 754, 755, 756, 757, 758, 759, 760, 761, 762, 763, 764, 765, 766, 767, 768, 769, 770, 771, 772, 773, 774, 775, 776, 777, 778, 779, 780, 781, 782, 783, 784, 785, 786, 787, 788, 789, 790, 791, 792, 793, 794, 795, 796, 797, 798, 799, 800, 801, 802, 803, 804, 805, 806, 807, 808, 809, 810, 811, 812, 813, 814, 815, 816, 817, 818, 819, 820, 821, 822, 823, 824, 825, 826, 827, 828, 829, 830, 831, 832, 833, 834, 835, 836, 837, 838, 839, 840, 841, 842, 843, 844, 845, 846, 847, 848, 849, 850, 851, 852, 853, 854, 855, 856, 857, 858, 859, 860, 861, 862, 863, 864, 865, 866, 867, 868, 869, 870, 871, 872, 873, 874, 875, 876, 877, 878, 879, 880, 881, 882, 883, 884, 885, 886, 887, 888, 889, 890, 891, 892, 893, 894, 895, 896, 897, 898, 899, 900, 901, 902, 903, 904, 905, 906, 907, 908, 909, 910, 911, 912, 913, 914],
      "AcquisitionTime": ["145818.142500", "145818.602500", "145819.062500", "145819.522500", "145819.982500", "145820.442500", "145820.902500", "145821.362500", "145821.822500", "145822.282500", "145822.742500", "145823.202500", "145823.662500", "145824.122500", "145824.582500", "145825.042500", "145825.502500", "145825.962500", "145826.422500", "145826.882500", "145827.342500", "145827.802500", "145828.262500", "145828.722500", "145829.182500", "145829.642500", "145830.102500", "145830.562500", "145831.022500", "145831.482500", "145831.942500", "145832.402500", "145832.862500", "145833.322500", "145833.782500", "145834.242500", "145834.702500", "145835.162500", "145835.622500", "145836.082500", "145836.542500", "145837.002500", "145837.462500", "145837.922500", "145838.382500", "145838.842500", "145839.302500", "145839.762500", "145840.222500", "145840.682500", "145841.142500", "145841.602500", "145842.062500", "145842.522500", "145842.982500", "145843.442500", "145843.902500", "145844.362500", "145844.822500", "145845.282500", "145845.742500", "145846.202500", "145846.662500", "145847.122500", "145847.582500", "145848.042500", "145848.502500", "145848.962500", "145849.422500", "145849.882500", "145850.342500", "145850.802500", "145851.262500", "145851.722500", "145852.182500", "145852.642500", "145853.102500", "145853.562500", "145854.022500", "145854.482500", "145854.942500", "145855.402500", "145855.862500", "145856.322500", "145856.782500", "145857.242500", "145857.702500", "145858.162500", "145858.622500", "145859.082500", "145859.542500", "145900.002500", "145900.462500", "145900.922500", "145901.382500", "145901.842500", "145902.302500", "145902.762500", "145903.222500", "145903.682500", "145904.142500", "145904.602500", "145905.062500", "145905.522500", "145905.982500", "145906.442500", "145906.902500", "145907.362500", "145907.822500", "145908.282500", "145908.742500", "145909.202500", "145909.662500", "145910.122500", "145910.582500", "145911.042500", "145911.502500", "145911.962500", "145912.422500", "145912.882500", "145913.342500", "145913.802500", "145914.262500", "145914.722500", "145915.182500", "145915.642500", "145916.102500", "145916.562500", "145917.022500", "145917.482500", "145917.942500", "145918.402500", "145918.862500", "145919.322500", "145919.782500", "145920.242500", "145920.702500", "145921.162500", "145921.622500", "145922.082500", "145922.542500", "145923.002500", "145923.462500", "145923.922500", "145924.382500", "145924.842500", "145925.302500", "145925.762500", "145926.222500", "145926.682500", "145927.142500", "145927.602500", "145928.062500", "145928.522500", "145928.982500", "145929.442500", "145929.902500", "145930.362500", "145930.822500", "145931.282500", "145931.742500", "145932.202500", "145932.662500", "145933.122500", "145933.582500", "145934.042500", "145934.502500", "145934.962500", "145935.422500", "145935.882500", "145936.342500", "145936.802500", "145937.262500", "145937.722500", "145938.182500", "145938.642500", "145939.102500", "145939.562500", "145940.022500", "145940.482500", "145940.942500", "145941.402500", "145941.862500", "145942.322500", "145942.782500", "145943.242500", "145943.702500", "145944.162500", "145944.622500", "145945.082500", "145945.542500", "145946.002500", "145946.462500", "145946.922500", "145947.382500", "145947.842500", "145948.302500", "145948.762500", "145949.222500", "145949.682500", "145950.142500", "145950.602500", "145951.062500", "145951.522500", "145951.982500", "145952.442500", "145952.902500", "145953.362500", "145953.822500", "145954.282500", "145954.742500", "145955.202500", "145955.662500", "145956.122500", "145956.582500", "145957.042500", "145957.502500", "145957.962500", "145958.422500", "145958.882500", "145959.342500", "145959.802500", "150000.262500", "150000.722500", "150001.182500", "150001.642500", "150002.102500", "150002.562500", "150003.022500", "150003.482500", "150003.942500", "150004.402500", "150004.862500", "150005.322500", "150005.782500", "150006.242500", "150006.702500", "150007.162500", "150007.622500", "150008.082500", "150008.542500", "150009.002500", "150009.462500", "150009.922500", "150010.382500", "150010.842500", "150011.302500", "150011.762500", "150012.222500", "150012.682500", "150013.142500", "150013.602500", "150014.062500", "150014.522500", "150014.982500", "150015.442500", "150015.902500", "150016.362500", "150016.822500", "150017.282500", "150017.742500", "150018.202500", "150018.662500", "150019.122500", "150019.582500", "150020.042500", "150020.502500", "150020.962500", "150021.422500", "150021.882500", "150022.342500", "150022.802500", "150023.262500", "150023.722500", "150024.182500", "150024.642500", "150025.102500", "150025.562500", "150026.022500", "150026.482500", "150026.942500", "150027.402500", "150027.862500", "150028.322500", "150028.782500", "150029.242500", "150029.702500", "150030.162500", "150030.622500", "150031.082500", "150031.542500", "150032.002500", "150032.462500", "150032.922500", "150033.382500", "150033.842500", "150034.302500", "150034.762500", "150035.222500", "150035.682500", "150036.142500", "150036.602500", "150037.062500", "150037.522500", "150037.982500", "150038.442500", "150038.902500", "150039.362500", "150039.822500", "150040.282500", "150040.742500", "150041.202500", "150041.662500", "150042.122500", "150042.582500", "150043.042500", "150043.502500", "150043.962500", "150044.422500", "150044.882500", "150045.342500", "150045.802500", "150046.262500", "150046.722500", "150047.182500", "150047.642500", "150048.102500", "150048.562500", "150049.022500", "150049.482500", "150049.942500", "150050.402500", "150050.862500", "150051.322500", "150051.782500", "150052.242500", "150052.702500", "150053.162500", "150053.622500", "150054.082500", "150054.542500", "150055.002500", "150055.462500", "150055.922500", "150056.382500", "150056.842500", "150057.302500", "150057.762500", "150058.222500", "150058.682500", "150059.142500", "150059.602500", "150100.062500", "150100.522500", "150100.982500", "150101.442500", "150101.902500", "150102.362500", "150102.822500", "150103.282500", "150103.742500", "150104.202500", "150104.662500", "150105.122500", "150105.582500", "150106.042500", "150106.502500", "150106.962500", "150107.422500", "150107.882500", "150108.342500", "150108.802500", "150109.262500", "150109.722500", "150110.182500", "150110.642500", "150111.102500", "150111.562500", "150112.022500", "150112.482500", "150112.942500", "150113.402500", "150113.862500", "150114.322500", "150114.782500", "150115.242500", "150115.702500", "150116.162500", "150116.622500", "150117.082500", "150117.542500", "150118.002500", "150118.462500", "150118.922500", "150119.382500", "150119.842500", "150120.302500", "150120.762500", "150121.222500", "150121.682500", "150122.142500", "150122.602500", "150123.062500", "150123.522500", "150123.982500", "150124.442500", "150124.902500", "150125.362500", "150125.822500", "150126.282500", "150126.742500", "150127.202500", "150127.662500", "150128.122500", "150128.582500", "150129.042500", "150129.502500", "150129.962500", "150130.422500", "150130.882500", "150131.342500", "150131.802500", "150132.262500", "150132.722500", "150133.182500", "150133.642500", "150134.102500", "150134.562500", "150135.022500", "150135.482500", "150135.942500", "150136.402500", "150136.862500", "150137.322500", "150137.782500", "150138.242500", "150138.702500", "150139.162500", "150139.622500", "150140.082500", "150140.542500", "150141.002500", "150141.462500", "150141.922500", "150142.382500", "150142.842500", "150143.302500", "150143.762500", "150144.222500", "150144.682500", "150145.142500", "150145.602500", "150146.062500", "150146.522500", "150146.982500", "150147.442500", "150147.902500", "150148.362500", "150148.822500", "150149.282500", "150149.742500", "150150.202500", "150150.662500", "150151.122500", "150151.582500", "150152.042500", "150152.502500", "150152.962500", "150153.422500", "150153.882500", "150154.342500", "150154.802500", "150155.262500", "150155.722500", "150156.182500", "150156.642500", "150157.102500", "150157.562500", "150158.022500", "150158.482500", "150158.942500", "150159.402500", "150159.862500", "150200.322500", "150200.782500", "150201.242500", "150201.702500", "150202.162500", "150202.622500", "150203.082500", "150203.542500", "150204.002500", "150204.462500", "150204.922500", "150205.382500", "150205.842500", "150206.302500", "150206.762500", "150207.222500", "150207.682500", "150208.142500", "150208.602500", "150209.062500", "150209.522500", "150209.982500", "150210.442500", "150210.902500", "150211.362500", "150211.822500", "150212.282500", "150212.742500", "150213.202500", "150213.662500", "150214.122500", "150214.582500", "150215.042500", "150215.502500", "150215.962500", "150216.422500", "150216.882500", "150217.342500", "150217.802500", "150218.262500", "150218.722500", "150219.182500", "150219.642500", "150220.102500", "150220.562500", "150221.022500", "150221.482500", "150221.942500", "150222.402500", "150222.862500", "150223.322500", "150223.782500", "150224.242500", "150224.702500", "150225.162500", "150225.622500", "150226.082500", "150226.542500", "150227.002500", "150227.462500", "150227.922500", "150228.382500", "150228.842500", "150229.302500", "150229.762500", "150230.222500", "150230.682500", "150231.142500", "150231.602500", "150232.062500", "150232.522500", "150232.982500", "150233.442500", "150233.902500", "150234.362500", "150234.822500", "150235.282500", "150235.742500", "150236.202500", "150236.662500", "150237.122500", "150237.582500", "150238.042500", "150238.502500", "150238.962500", "150239.422500", "150239.882500", "150240.342500", "150240.802500", "150241.262500", "150241.722500", "150242.182500", "150242.642500", "150243.102500", "150243.562500", "150244.022500", "150244.482500", "150244.942500", "150245.402500", "150245.862500", "150246.322500", "150246.782500", "150247.242500", "150247.702500", "150248.162500", "150248.622500", "150249.082500", "150249.542500", "150250.002500", "150250.462500", "150250.922500", "150251.382500", "150251.842500", "150252.302500", "150252.762500", "150253.222500", "150253.682500", "150254.142500", "150254.602500", "150255.062500", "150255.522500", "150255.982500", "150256.442500", "150256.902500", "150257.362500", "150257.822500", "150258.282500", "150258.742500", "150259.202500", "150259.662500", "150300.122500", "150300.582500", "150301.042500", "150301.502500", "150301.962500", "150302.422500", "150302.882500", "150303.342500", "150303.802500", "150304.262500", "150304.722500", "150305.182500", "150305.642500", "150306.102500", "150306.562500", "150307.022500", "150307.482500", "150307.942500", "150308.402500", "150308.862500", "150309.322500", "150309.782500", "150310.242500", "150310.702500", "150311.162500", "150311.622500", "150312.082500", "150312.542500", "150313.002500", "150313.462500", "150313.922500", "150314.382500", "150314.842500", "150315.302500", "150315.762500", "150316.222500", "150316.682500", "150317.142500", "150317.602500", "150318.062500", "150318.522500", "150318.982500", "150319.442500", "150319.902500", "150320.362500", "150320.822500", "150321.282500", "150321.742500", "150322.202500", "150322.662500", "150323.122500", "150323.582500", "150324.042500", "150324.502500", "150324.962500", "150325.422500", "150325.882500", "150326.342500", "150326.802500", "150327.262500", "150327.722500", "150328.182500", "150328.642500", "150329.102500", "150329.562500", "150330.022500", "150330.482500", "150330.942500", "150331.402500", "150331.862500", "150332.322500", "150332.782500", "150333.242500", "150333.702500", "150334.162500", "150334.622500", "150335.082500", "150335.542500", "150336.002500", "150336.462500", "150336.922500", "150337.382500", "150337.842500", "150338.302500", "150338.762500", "150339.222500", "150339.682500", "150340.142500", "150340.602500", "150341.062500", "150341.522500", "150341.982500", "150342.442500", "150342.902500", "150343.362500", "150343.822500", "150344.282500", "150344.742500", "150345.202500", "150345.662500", "150346.122500", "150346.582500", "150347.042500", "150347.502500", "150347.962500", "150348.422500", "150348.882500", "150349.342500", "150349.802500", "150350.262500", "150350.722500", "150351.182500", "150351.642500", "150352.102500", "150352.562500", "150353.022500", "150353.482500", "150353.942500", "150354.402500", "150354.862500", "150355.322500", "150355.782500", "150356.242500", "150356.702500", "150357.162500", "150357.622500", "150358.082500", "150358.542500", "150359.002500", "150359.462500", "150359.922500", "150400.382500", "150400.842500", "150401.302500", "150401.762500", "150402.222500", "150402.682500", "150403.142500", "150403.602500", "150404.062500", "150404.522500", "150404.982500", "150405.442500", "150405.902500", "150406.362500", "150406.822500", "150407.282500", "150407.742500", "150408.202500", "150408.662500", "150409.122500", "150409.582500", "150410.042500", "150410.502500", "150410.962500", "150411.422500", "150411.882500", "150412.342500", "150412.802500", "150413.262500", "150413.722500", "150414.182500", "150414.642500", "150415.102500", "150415.562500", "150416.022500", "150416.482500", "150416.942500", "150417.402500", "150417.862500", "150418.322500", "150418.782500", "150419.242500", "150419.702500", "150420.162500", "150420.622500", "150421.082500", "150421.542500", "150422.002500", "150422.462500", "150422.922500", "150423.382500", "150423.842500", "150424.302500", "150424.762500", "150425.222500", "150425.682500", "150426.142500", "150426.602500", "150427.062500", "150427.522500", "150427.982500", "150428.442500", "150428.902500", "150429.362500", "150429.822500", "150430.282500", "150430.742500", "150431.202500", "150431.662500", "150432.122500", "150432.582500", "150433.042500", "150433.502500", "150433.962500", "150434.422500", "150434.882500", "150435.342500", "150435.802500", "150436.262500", "150436.722500", "150437.182500", "150437.642500", "150438.102500", "150438.562500", "150439.022500", "150439.482500", "150439.942500", "150440.402500", "150440.862500", "150441.322500", "150441.782500", "150442.242500", "150442.702500", "150443.162500", "150443.622500", "150444.082500", "150444.542500", "150445.002500", "150445.462500", "150445.922500", "150446.382500", "150446.842500", "150447.302500", "150447.762500", "150448.222500", "150448.682500", "150449.142500", "150449.602500", "150450.062500", "150450.522500", "150450.982500", "150451.442500", "150451.902500", "150452.362500", "150452.822500", "150453.282500", "150453.742500", "150454.202500", "150454.662500", "150455.122500", "150455.582500", "150456.042500", "150456.502500", "150456.962500", "150457.422500", "150457.882500", "150458.342500", "150458.802500", "150459.262500", "150459.722500", "150500.182500", "150500.642500", "150501.102500", "150501.562500", "150502.022500", "150502.482500", "150502.942500", "150503.402500", "150503.862500", "150504.322500", "150504.782500", "150505.242500", "150505.702500", "150506.162500", "150506.622500", "150507.082500", "150507.542500", "150508.002500", "150508.462500", "150508.922500", "150509.382500", "150509.842500", "150510.302500", "150510.762500", "150511.222500", "150511.682500", "150512.142500", "150512.602500", "150513.062500", "150513.522500", "150513.982500", "150514.442500", "150514.902500", "150515.362500", "150515.822500", "150516.282500", "150516.742500", "150517.202500", "150517.662500", "150518.122500"],
