{
  "AcquisitionMatrixPE": 82,
  "AcquisitionNumber": 1,
  "AcquisitionTime": "13:32:49.422500",
  "BandwidthPerPixelPhaseEncode": 24.888,
  "BaseResolution": 82,
  "BodyPartExamined": "BRAIN",
  "ConsistencyInfo": "N4_VE11C_LATEST_20160120",
  "ConversionSoftware": "dcm2niix",
  "ConversionSoftwareVersion": "v1.0.20201102",
  "DerivedVendorReportedEchoSpacing": 0.00049,
  "DeviceSerialNumber": "66112",
  "DwellTime": 2e-06,
  "EchoTime": 0.0272,
  "EchoTrainLength": 82,
  "EffectiveEchoSpacing": 0.00049,
  "FlipAngle": 44,
  "ImageComments": "Unaliased MB8/PE3",
  "ImageOrientationPatientDICOM": [0.99709, -0.073896, -0.0187402, 0.0746216, 0.996346, 0.0415377],
  "ImageType": [
    "ORIGINAL",
    "PRIMARY",
    "M",
    "MB",
    "ND",
    "NORM",
    "MOSAIC"
],
  "ImagingFrequency": 123.252,
  "InPlanePhaseEncodingDirectionDICOM": "COL",
  "InstitutionAddress": "Maynard 3,Hanover,NH,US,03755",
  "InstitutionName": "Dartmouth College - PBS",
  "InstitutionalDepartmentName": "Department",
  "MRAcquisitionType": "2D",
  "MagneticFieldStrength": 3,
  "Manufacturer": "Siemens",
  "ManufacturersModelName": "Prisma",
  "Modality": "MR",
  "MultibandAccelerationFactor": 8,
  "PartialFourier": 1,
  "PatientPosition": "HFS",
  "PercentPhaseFOV": 100,
  "PercentSampling": 100,
  "PhaseEncodingDirection": "j-",
  "PhaseEncodingSteps": 82,
  "PhaseResolution": 1,
  "PixelBandwidth": 3050,
  "ProcedureStepDescription": "Wager_Wager^1076_spacetop",
  "ProtocolName": "func_run-02_task-narratives_acq-ap-mb8",
  "PulseSequenceDetails": "%CustomerSeq%\\cmrr_mbep2d_bold",
  "ReceiveCoilActiveElements": "HEA;HEP",
  "ReceiveCoilName": "Head_32",
  "ReconMatrixPE": 82,
  "RepetitionTime": 0.46,
  "SAR": 0.097594,
  "ScanOptions": "FS",
  "ScanningSequence": "EP",
  "SequenceName": "epfid2d1_82",
  "SequenceVariant": "SK\\SS",
  "SeriesDescription": "func_run-02_task-narratives_acq-ap-mb8",
  "SeriesNumber": 10,
  "ShimSetting": [4145, -7775, -7252, 571, -16, -62, -20, 59],
  "SliceThickness": 2.7,
  "SliceTiming": [0, 0.25, 0.0625, 0.3125, 0.125, 0.3775, 0.1875, 0, 0.25, 0.0625, 0.3125, 0.125, 0.3775, 0.1875, 0, 0.25, 0.0625, 0.3125, 0.125, 0.3775, 0.1875, 0, 0.25, 0.0625, 0.3125, 0.125, 0.3775, 0.1875, 0, 0.25, 0.0625, 0.3125, 0.125, 0.3775, 0.1875, 0, 0.25, 0.0625, 0.3125, 0.125, 0.3775, 0.1875, 0, 0.25, 0.0625, 0.3125, 0.125, 0.3775, 0.1875, 0, 0.25, 0.0625, 0.3125, 0.125, 0.3775, 0.1875],
  "SoftwareVersions": "syngo MR E11",
  "SpacingBetweenSlices": 2.7,
  "StationName": "AWP66112",
  "TaskName": "narratives",
  "TotalReadoutTime": 0.03969,
  "TxRefAmp": 241.491,
  "WipMemBlock": "3714dbf4-79b1-4140-b89c-6cbbfd81bc97||Sequence: R016 ve11c/master r/e634e98; Dec 19 2017 11:00:25 by eja",
  "dcmmeta_affine": [
    [-2.675119161605835, 0.20020417869091034, -0.042126040905714035, 103.12435913085938],
    [0.1982574462890625, 2.6731247901916504, 0.11560112982988358, -104.11991882324219],
    [-0.05027851462364197, -0.11144258826971054, 2.697195053100586, -53.94114303588867],
    [0.0, 0.0, 0.0, 1.0]
],
  "dcmmeta_reorient_transform": [
    [0.0, -1.0, 0.0, 81.0],
    [1.0, 0.0, 0.0, 0.0],
    [0.0, 0.0, 1.0, 0.0],
    [0.0, 0.0, 0.0, 1.0]
],
  "dcmmeta_shape": [82, 82, 56, 1098],
  "dcmmeta_slice_dim": 2,
  "dcmmeta_version": 0.6,
  "global": {
    "const": {
      "AccessionNumber": "A003612",
      "AcquisitionMatrix": [82, 0, 0, 82],
      "AngioFlag": "N",
      "BitsAllocated": 16,
      "BitsStored": 16,
      "BodyPartExamined": "BRAIN",
      "Columns": 656,
      "EchoNumbers": 1,
      "EchoTime": 27.2,
      "EchoTrainLength": 82,
      "FlipAngle": 44.0,
      "HighBit": 15,
      "ImageOrientationPatient": [0.99708986231003, -0.0738959566437, -0.018740172632, 0.07462155641444, 0.99634644749536, 0.04153769230072],
      "ImagePositionPatient": [-944.55870768168, -822.69007366351, -80.522083900065],
      "ImageType": [
        "ORIGINAL",
        "PRIMARY",
        "M",
        "MB",
        "ND",
        "NORM",
        "MOSAIC"
],
      "ImagedNucleus": "1H",
      "ImagingFrequency": 123.252164,
      "InPlanePhaseEncodingDirection": "COL",
      "MRAcquisitionType": "2D",
      "MagneticFieldStrength": 3.0,
      "Manufacturer": "SIEMENS",
      "ManufacturerModelName": "Prisma",
      "Modality": "MR",
      "NumberOfAverages": 1.0,
      "NumberOfPhaseEncodingSteps": 82,
      "PercentPhaseFieldOfView": 100.0,
      "PercentSampling": 100.0,
      "PerformedProcedureStepStartTime": "130251.971000",
      "PhotometricInterpretation": "MONOCHROME2",
      "PixelBandwidth": 3050.0,
      "PixelRepresentation": 0,
      "PixelSpacing": [2.6829268932343, 2.6829268932343],
      "ProtocolName": "func_run-02_task-narratives_acq-ap-mb8",
      "RepetitionTime": 460.0,
      "Rows": 656,
      "SAR": 0.09759399062407,
      "SamplesPerPixel": 1,
      "ScanOptions": "FS",
      "ScanningSequence": "EP",
      "SequenceName": "epfid2d1_82",
      "SequenceVariant": [
        "SK",
        "SS"
],
      "SeriesDescription": "func_run-02_task-narratives_acq-ap-mb8",
      "SeriesNumber": 10,
      "SeriesTime": "133306.298000",
      "SliceLocation": -59.951997179374,
      "SliceThickness": 2.7000000476837,
      "SmallestImagePixelValue": 0,
      "SoftwareVersions": "syngo MR E11",
      "SpacingBetweenSlices": 2.6999999879531,
      "SpecificCharacterSet": "ISO_IR 100",
      "StudyID": "1",
      "StudyTime": "130251.915000",
      "TransmitCoilName": "Body",
      "VariableFlipAngleFlag": "N",
      "WindowCenterWidthExplanation": "Algo1",
      "dBdt": 0.0},
    "slices": {}
  },
  "time": {
    "samples": {
      "AcquisitionNumber": [1, 2, 3, 4, 5, 6, 7, 8, 9, 10, 11, 12, 13, 14, 15, 16, 17, 18, 19, 20, 21, 22, 23, 24, 25, 26, 27, 28, 29, 30, 31, 32, 33, 34, 35, 36, 37, 38, 39, 40, 41, 42, 43, 44, 45, 46, 47, 48, 49, 50, 51, 52, 53, 54, 55, 56, 57, 58, 59, 60, 61, 62, 63, 64, 65, 66, 67, 68, 69, 70, 71, 72, 73, 74, 75, 76, 77, 78, 79, 80, 81, 82, 83, 84, 85, 86, 87, 88, 89, 90, 91, 92, 93, 94, 95, 96, 97, 98, 99, 100, 101, 102, 103, 104, 105, 106, 107, 108, 109, 110, 111, 112, 113, 114, 115, 116, 117, 118, 119, 120, 121, 122, 123, 124, 125, 126, 127, 128, 129, 130, 131, 132, 133, 134, 135, 136, 137, 138, 139, 140, 141, 142, 143, 144, 145, 146, 147, 148, 149, 150, 151, 152, 153, 154, 155, 156, 157, 158, 159, 160, 161, 162, 163, 164, 165, 166, 167, 168, 169, 170, 171, 172, 173, 174, 175, 176, 177, 178, 179, 180, 181, 182, 183, 184, 185, 186, 187, 188, 189, 190, 191, 192, 193, 194, 195, 196, 197, 198, 199, 200, 201, 202, 203, 204, 205, 206, 207, 208, 209, 210, 211, 212, 213, 214, 215, 216, 217, 218, 219, 220, 221, 222, 223, 224, 225, 226, 227, 228, 229, 230, 231, 232, 233, 234, 235, 236, 237, 238, 239, 240, 241, 242, 243, 244, 245, 246, 247, 248, 249, 250, 251, 252, 253, 254, 255, 256, 257, 258, 259, 260, 261, 262, 263, 264, 265, 266, 267, 268, 269, 270, 271, 272, 273, 274, 275, 276, 277, 278, 279, 280, 281, 282, 283, 284, 285, 286, 287, 288, 289, 290, 291, 292, 293, 294, 295, 296, 297, 298, 299, 300, 301, 302, 303, 304, 305, 306, 307, 308, 309, 310, 311, 312, 313, 314, 315, 316, 317, 318, 319, 320, 321, 322, 323, 324, 325, 326, 327, 328, 329, 330, 331, 332, 333, 334, 335, 336, 337, 338, 339, 340, 341, 342, 343, 344, 345, 346, 347, 348, 349, 350, 351, 352, 353, 354, 355, 356, 357, 358, 359, 360, 361, 362, 363, 364, 365, 366, 367, 368, 369, 370, 371, 372, 373, 374, 375, 376, 377, 378, 379, 380, 381, 382, 383, 384, 385, 386, 387, 388, 389, 390, 391, 392, 393, 394, 395, 396, 397, 398, 399, 400, 401, 402, 403, 404, 405, 406, 407, 408, 409, 410, 411, 412, 413, 414, 415, 416, 417, 418, 419, 420, 421, 422, 423, 424, 425, 426, 427, 428, 429, 430, 431, 432, 433, 434, 435, 436, 437, 438, 439, 440, 441, 442, 443, 444, 445, 446, 447, 448, 449, 450, 451, 452, 453, 454, 455, 456, 457, 458, 459, 460, 461, 462, 463, 464, 465, 466, 467, 468, 469, 470, 471, 472, 473, 474, 475, 476, 477, 478, 479, 480, 481, 482, 483, 484, 485, 486, 487, 488, 489, 490, 491, 492, 493, 494, 495, 496, 497, 498, 499, 500, 501, 502, 503, 504, 505, 506, 507, 508, 509, 510, 511, 512, 513, 514, 515, 516, 517, 518, 519, 520, 521, 522, 523, 524, 525, 526, 527, 528, 529, 530, 531, 532, 533, 534, 535, 536, 537, 538, 539, 540, 541, 542, 543, 544, 545, 546, 547, 548, 549, 550, 551, 552, 553, 554, 555, 556, 557, 558, 559, 560, 561, 562, 563, 564, 565, 566, 567, 568, 569, 570, 571, 572, 573, 574, 575, 576, 577, 578, 579, 580, 581, 582, 583, 584, 585, 586, 587, 588, 589, 590, 591, 592, 593, 594, 595, 596, 597, 598, 599, 600, 601, 602, 603, 604, 605, 606, 607, 608, 609, 610, 611, 612, 613, 614, 615, 616, 617, 618, 619, 620, 621, 622, 623, 624, 625, 626, 627, 628, 629, 630, 631, 632, 633, 634, 635, 636, 637, 638, 639, 640, 641, 642, 643, 644, 645, 646, 647, 648, 649, 650, 651, 652, 653, 654, 655, 656, 657, 658, 659, 660, 661, 662, 663, 664, 665, 666, 667, 668, 669, 670, 671, 672, 673, 674, 675, 676, 677, 678, 679, 680, 681, 682, 683, 684, 685, 686, 687, 688, 689, 690, 691, 692, 693, 694, 695, 696, 697, 698, 699, 700, 701, 702, 703, 704, 705, 706, 707, 708, 709, 710, 711, 712, 713, 714, 715, 716, 717, 718, 719, 720, 721, 722, 723, 724, 725, 726, 727, 728, 729, 730, 731, 732, 733, 734, 735, 736, 737, 738, 739, 740, 741, 742, 743, 744, 745, 746, 747, 748, 749, 750, 751, 752, 753, 754, 755, 756, 757, 758, 759, 760, 761, 762, 763, 764, 765, 766, 767, 768, 769, 770, 771, 772, 773, 774, 775, 776, 777, 778, 779, 780, 781, 782, 783, 784, 785, 786, 787, 788, 789, 790, 791, 792, 793, 794, 795, 796, 797, 798, 799, 800, 801, 802, 803, 804, 805, 806, 807, 808, 809, 810, 811, 812, 813, 814, 815, 816, 817, 818, 819, 820, 821, 822, 823, 824, 825, 826, 827, 828, 829, 830, 831, 832, 833, 834, 835, 836, 837, 838, 839, 840, 841, 842, 843, 844, 845, 846, 847, 848, 849, 850, 851, 852, 853, 854, 855, 856, 857, 858, 859, 860, 861, 862, 863, 864, 865, 866, 867, 868, 869, 870, 871, 872, 873, 874, 875, 876, 877, 878, 879, 880, 881, 882, 883, 884, 885, 886, 887, 888, 889, 890, 891, 892, 893, 894, 895, 896, 897, 898, 899, 900, 901, 902, 903, 904, 905, 906, 907, 908, 909, 910, 911, 912, 913, 914, 915, 916, 917, 918, 919, 920, 921, 922, 923, 924, 925, 926, 927, 928, 929, 930, 931, 932, 933, 934, 935, 936, 937, 938, 939, 940, 941, 942, 943, 944, 945, 946, 947, 948, 949, 950, 951, 952, 953, 954, 955, 956, 957, 958, 959, 960, 961, 962, 963, 964, 965, 966, 967, 968, 969, 970, 971, 972, 973, 974, 975, 976, 977, 978, 979, 980, 981, 982, 983, 984, 985, 986, 987, 988, 989, 990, 991, 992, 993, 994, 995, 996, 997, 998, 999, 1000, 1001, 1002, 1003, 1004, 1005, 1006, 1007, 1008, 1009, 1010, 1011, 1012, 1013, 1014, 1015, 1016, 1017, 1018, 1019, 1020, 1021, 1022, 1023, 1024, 1025, 1026, 1027, 1028, 1029, 1030, 1031, 1032, 1033, 1034, 1035, 1036, 1037, 1038, 1039, 1040, 1041, 1042, 1043, 1044, 1045, 1046, 1047, 1048, 1049, 1050, 1051, 1052, 1053, 1054, 1055, 1056, 1057, 1058, 1059, 1060, 1061, 1062, 1063, 1064, 1065, 1066, 1067, 1068, 1069, 1070, 1071, 1072, 1073, 1074, 1075, 1076, 1077, 1078, 1079, 1080, 1081, 1082, 1083, 1084, 1085, 1086, 1087, 1088, 1089, 1090, 1091, 1092, 1093, 1094, 1095, 1096, 1097, 1098],
      "AcquisitionTime": ["133249.422500", "133249.882500", "133250.342500", "133250.802500", "133251.262500", "133251.722500", "133252.182500", "133252.642500", "133253.102500", "133253.562500", "133254.022500", "133254.482500", "133254.942500", "133255.402500", "133255.862500", "133256.322500", "133256.782500", "133257.242500", "133257.702500", "133258.162500", "133258.622500", "133259.082500", "133259.542500", "133300.002500", "133300.462500", "133300.922500", "133301.382500", "133301.842500", "133302.302500", "133302.762500", "133303.222500", "133303.682500", "133304.142500", "133304.602500", "133305.062500", "133305.522500", "133305.982500", "133306.442500", "133306.902500", "133307.362500", "133307.822500", "133308.282500", "133308.742500", "133309.202500", "133309.662500", "133310.122500", "133310.582500", "133311.042500", "133311.502500", "133311.962500", "133312.422500", "133312.882500", "133313.342500", "133313.802500", "133314.262500", "133314.722500", "133315.182500", "133315.642500", "133316.102500", "133316.562500", "133317.022500", "133317.482500", "133317.942500", "133318.402500", "133318.862500", "133319.322500", "133319.782500", "133320.242500", "133320.702500", "133321.162500", "133321.622500", "133322.082500", "133322.542500", "133323.002500", "133323.462500", "133323.922500", "133324.382500", "133324.842500", "133325.302500", "133325.762500", "133326.222500", "133326.682500", "133327.142500", "133327.602500", "133328.062500", "133328.522500", "133328.982500", "133329.442500", "133329.902500", "133330.362500", "133330.822500", "133331.282500", "133331.742500", "133332.202500", "133332.662500", "133333.122500", "133333.582500", "133334.042500", "133334.502500", "133334.962500", "133335.422500", "133335.882500", "133336.342500", "133336.802500", "133337.262500", "133337.722500", "133338.182500", "133338.642500", "133339.102500", "133339.562500", "133340.022500", "133340.482500", "133340.942500", "133341.402500", "133341.862500", "133342.322500", "133342.782500", "133343.242500", "133343.702500", "133344.162500", "133344.622500", "133345.082500", "133345.542500", "133346.002500", "133346.462500", "133346.922500", "133347.382500", "133347.842500", "133348.302500", "133348.762500", "133349.222500", "133349.682500", "133350.142500", "133350.602500", "133351.062500", "133351.522500", "133351.982500", "133352.442500", "133352.902500", "133353.362500", "133353.822500", "133354.282500", "133354.742500", "133355.202500", "133355.662500", "133356.122500", "133356.582500", "133357.042500", "133357.502500", "133357.962500", "133358.422500", "133358.882500", "133359.342500", "133359.802500", "133400.262500", "133400.722500", "133401.182500", "133401.642500", "133402.102500", "133402.562500", "133403.022500", "133403.482500", "133403.942500", "133404.402500", "133404.862500", "133405.322500", "133405.782500", "133406.242500", "133406.702500", "133407.162500", "133407.622500", "133408.082500", "133408.542500", "133409.002500", "133409.462500", "133409.922500", "133410.382500", "133410.842500", "133411.302500", "133411.762500", "133412.222500", "133412.682500", "133413.142500", "133413.602500", "133414.062500", "133414.522500", "133414.982500", "133415.442500", "133415.902500", "133416.362500", "133416.822500", "133417.282500", "133417.742500", "133418.202500", "133418.662500", "133419.122500", "133419.582500", "133420.042500", "133420.502500", "133420.962500", "133421.422500", "133421.882500", "133422.342500", "133422.802500", "133423.262500", "133423.722500", "133424.182500", "133424.642500", "133425.102500", "133425.562500", "133426.022500", "133426.482500", "133426.942500", "133427.402500", "133427.862500", "133428.322500", "133428.782500", "133429.242500", "133429.702500", "133430.162500", "133430.622500", "133431.082500", "133431.542500", "133432.002500", "133432.462500", "133432.922500", "133433.382500", "133433.842500", "133434.302500", "133434.762500", "133435.222500", "133435.682500", "133436.142500", "133436.602500", "133437.062500", "133437.522500", "133437.982500", "133438.442500", "133438.902500", "133439.362500", "133439.822500", "133440.282500", "133440.742500", "133441.202500", "133441.662500", "133442.122500", "133442.582500", "133443.042500", "133443.502500", "133443.962500", "133444.422500", "133444.882500", "133445.342500", "133445.802500", "133446.262500", "133446.722500", "133447.182500", "133447.642500", "133448.102500", "133448.562500", "133449.022500", "133449.482500", "133449.942500", "133450.402500", "133450.862500", "133451.322500", "133451.782500", "133452.242500", "133452.702500", "133453.162500", "133453.622500", "133454.082500", "133454.542500", "133455.002500", "133455.462500", "133455.922500", "133456.382500", "133456.842500", "133457.302500", "133457.762500", "133458.222500", "133458.682500", "133459.142500", "133459.602500", "133500.062500", "133500.522500", "133500.982500", "133501.442500", "133501.902500", "133502.362500", "133502.822500", "133503.282500", "133503.742500", "133504.202500", "133504.662500", "133505.122500", "133505.582500", "133506.042500", "133506.502500", "133506.962500", "133507.422500", "133507.882500", "133508.342500", "133508.802500", "133509.262500", "133509.722500", "133510.182500", "133510.642500", "133511.102500", "133511.562500", "133512.022500", "133512.482500", "133512.942500", "133513.402500", "133513.862500", "133514.322500", "133514.782500", "133515.242500", "133515.702500", "133516.162500", "133516.622500", "133517.082500", "133517.542500", "133518.002500", "133518.462500", "133518.922500", "133519.382500", "133519.842500", "133520.302500", "133520.762500", "133521.222500", "133521.682500", "133522.142500", "133522.602500", "133523.062500", "133523.522500", "133523.982500", "133524.442500", "133524.902500", "133525.362500", "133525.822500", "133526.282500", "133526.742500", "133527.202500", "133527.662500", "133528.122500", "133528.582500", "133529.042500", "133529.502500", "133529.962500", "133530.422500", "133530.882500", "133531.342500", "133531.802500", "133532.262500", "133532.722500", "133533.182500", "133533.642500", "133534.102500", "133534.562500", "133535.022500", "133535.482500", "133535.942500", "133536.402500", "133536.862500", "133537.322500", "133537.782500", "133538.242500", "133538.702500", "133539.162500", "133539.622500", "133540.082500", "133540.542500", "133541.002500", "133541.462500", "133541.922500", "133542.382500", "133542.842500", "133543.302500", "133543.762500", "133544.222500", "133544.682500", "133545.142500", "133545.602500", "133546.062500", "133546.522500", "133546.982500", "133547.442500", "133547.902500", "133548.362500", "133548.822500", "133549.282500", "133549.742500", "133550.202500", "133550.662500", "133551.122500", "133551.582500", "133552.042500", "133552.502500", "133552.962500", "133553.422500", "133553.882500", "133554.342500", "133554.802500", "133555.262500", "133555.722500", "133556.182500", "133556.642500", "133557.102500", "133557.562500", "133558.022500", "133558.482500", "133558.942500", "133559.402500", "133559.862500", "133600.322500", "133600.782500", "133601.242500", "133601.702500", "133602.162500", "133602.622500", "133603.082500", "133603.542500", "133604.002500", "133604.462500", "133604.922500", "133605.382500", "133605.842500", "133606.302500", "133606.762500", "133607.222500", "133607.682500", "133608.142500", "133608.602500", "133609.062500", "133609.522500", "133609.982500", "133610.442500", "133610.902500", "133611.362500", "133611.822500", "133612.282500", "133612.742500", "133613.202500", "133613.662500", "133614.122500", "133614.582500", "133615.042500", "133615.502500", "133615.962500", "133616.422500", "133616.882500", "133617.342500", "133617.802500", "133618.262500", "133618.722500", "133619.182500", "133619.642500", "133620.102500", "133620.562500", "133621.022500", "133621.482500", "133621.942500", "133622.402500", "133622.862500", "133623.322500", "133623.782500", "133624.242500", "133624.702500", "133625.162500", "133625.622500", "133626.082500", "133626.542500", "133627.002500", "133627.462500", "133627.922500", "133628.382500", "133628.842500", "133629.302500", "133629.762500", "133630.222500", "133630.682500", "133631.142500", "133631.602500", "133632.062500", "133632.522500", "133632.982500", "133633.442500", "133633.902500", "133634.362500", "133634.822500", "133635.282500", "133635.742500", "133636.202500", "133636.662500", "133637.122500", "133637.582500", "133638.042500", "133638.502500", "133638.962500", "133639.422500", "133639.882500", "133640.342500", "133640.802500", "133641.262500", "133641.722500", "133642.182500", "133642.642500", "133643.102500", "133643.562500", "133644.022500", "133644.482500", "133644.942500", "133645.402500", "133645.862500", "133646.322500", "133646.782500", "133647.242500", "133647.702500", "133648.162500", "133648.622500", "133649.082500", "133649.542500", "133650.002500", "133650.462500", "133650.922500", "133651.382500", "133651.842500", "133652.302500", "133652.762500", "133653.222500", "133653.682500", "133654.142500", "133654.602500", "133655.062500", "133655.522500", "133655.982500", "133656.442500", "133656.902500", "133657.362500", "133657.822500", "133658.282500", "133658.742500", "133659.202500", "133659.662500", "133700.122500", "133700.582500", "133701.042500", "133701.502500", "133701.962500", "133702.422500", "133702.882500", "133703.342500", "133703.802500", "133704.262500", "133704.722500", "133705.182500", "133705.642500", "133706.102500", "133706.562500", "133707.022500", "133707.482500", "133707.942500", "133708.402500", "133708.862500", "133709.322500", "133709.782500", "133710.242500", "133710.702500", "133711.162500", "133711.622500", "133712.082500", "133712.542500", "133713.002500", "133713.462500", "133713.922500", "133714.382500", "133714.842500", "133715.302500", "133715.762500", "133716.222500", "133716.682500", "133717.142500", "133717.602500", "133718.062500", "133718.522500", "133718.982500", "133719.442500", "133719.902500", "133720.362500", "133720.822500", "133721.282500", "133721.742500", "133722.202500", "133722.662500", "133723.122500", "133723.582500", "133724.042500", "133724.502500", "133724.962500", "133725.422500", "133725.882500", "133726.342500", "133726.802500", "133727.262500", "133727.722500", "133728.182500", "133728.642500", "133729.102500", "133729.562500", "133730.022500", "133730.482500", "133730.942500", "133731.402500", "133731.862500", "133732.322500", "133732.782500", "133733.242500", "133733.702500", "133734.162500", "133734.622500", "133735.082500", "133735.542500", "133736.002500", "133736.462500", "133736.922500", "133737.382500", "133737.842500", "133738.302500", "133738.762500", "133739.222500", "133739.682500", "133740.142500", "133740.602500", "133741.062500", "133741.522500", "133741.982500", "133742.442500", "133742.902500", "133743.362500", "133743.822500", "133744.282500", "133744.742500", "133745.202500", "133745.662500", "133746.122500", "133746.582500", "133747.042500", "133747.502500", "133747.962500", "133748.422500", "133748.882500", "133749.342500", "133749.802500", "133750.262500", "133750.722500", "133751.182500", "133751.642500", "133752.102500", "133752.562500", "133753.022500", "133753.482500", "133753.942500", "133754.402500", "133754.862500", "133755.322500", "133755.782500", "133756.242500", "133756.702500", "133757.162500", "133757.622500", "133758.082500", "133758.542500", "133759.002500", "133759.462500", "133759.922500", "133800.382500", "133800.842500", "133801.302500", "133801.762500", "133802.222500", "133802.682500", "133803.142500", "133803.602500", "133804.062500", "133804.522500", "133804.982500", "133805.442500", "133805.902500", "133806.362500", "133806.822500", "133807.282500", "133807.742500", "133808.202500", "133808.662500", "133809.122500", "133809.582500", "133810.042500", "133810.502500", "133810.962500", "133811.422500", "133811.882500", "133812.342500", "133812.802500", "133813.262500", "133813.722500", "133814.182500", "133814.642500", "133815.102500", "133815.562500", "133816.022500", "133816.482500", "133816.942500", "133817.402500", "133817.862500", "133818.322500", "133818.782500", "133819.242500", "133819.702500", "133820.162500", "133820.622500", "133821.082500", "133821.542500", "133822.002500", "133822.462500", "133822.922500", "133823.382500", "133823.842500", "133824.302500", "133824.762500", "133825.222500", "133825.682500", "133826.142500", "133826.602500", "133827.062500", "133827.522500", "133827.982500", "133828.442500", "133828.902500", "133829.362500", "133829.822500", "133830.282500", "133830.742500", "133831.202500", "133831.662500", "133832.122500", "133832.582500", "133833.042500", "133833.502500", "133833.962500", "133834.422500", "133834.882500", "133835.342500", "133835.802500", "133836.262500", "133836.722500", "133837.182500", "133837.642500", "133838.102500", "133838.562500", "133839.022500", "133839.482500", "133839.942500", "133840.402500", "133840.862500", "133841.322500", "133841.782500", "133842.242500", "133842.702500", "133843.162500", "133843.622500", "133844.082500", "133844.542500", "133845.002500", "133845.462500", "133845.922500", "133846.382500", "133846.842500", "133847.302500", "133847.762500", "133848.222500", "133848.682500", "133849.142500", "133849.602500", "133850.062500", "133850.522500", "133850.982500", "133851.442500", "133851.902500", "133852.362500", "133852.822500", "133853.282500", "133853.742500", "133854.202500", "133854.662500", "133855.122500", "133855.582500", "133856.042500", "133856.502500", "133856.962500", "133857.422500", "133857.882500", "133858.342500", "133858.802500", "133859.262500", "133859.722500", "133900.182500", "133900.642500", "133901.102500", "133901.562500", "133902.022500", "133902.482500", "133902.942500", "133903.402500", "133903.862500", "133904.322500", "133904.782500", "133905.242500", "133905.702500", "133906.162500", "133906.622500", "133907.082500", "133907.542500", "133908.002500", "133908.462500", "133908.922500", "133909.382500", "133909.842500", "133910.302500", "133910.762500", "133911.222500", "133911.682500", "133912.142500", "133912.602500", "133913.062500", "133913.522500", "133913.982500", "133914.442500", "133914.902500", "133915.362500", "133915.822500", "133916.282500", "133916.742500", "133917.202500", "133917.662500", "133918.122500", "133918.582500", "133919.042500", "133919.502500", "133919.962500", "133920.422500", "133920.882500", "133921.342500", "133921.802500", "133922.262500", "133922.722500", "133923.182500", "133923.642500", "133924.102500", "133924.562500", "133925.022500", "133925.482500", "133925.942500", "133926.402500", "133926.862500", "133927.322500", "133927.782500", "133928.242500", "133928.702500", "133929.162500", "133929.622500", "133930.082500", "133930.542500", "133931.002500", "133931.462500", "133931.922500", "133932.382500", "133932.842500", "133933.302500", "133933.762500", "133934.222500", "133934.682500", "133935.142500", "133935.602500", "133936.062500", "133936.522500", "133936.982500", "133937.442500", "133937.902500", "133938.362500", "133938.822500", "133939.282500", "133939.742500", "133940.202500", "133940.662500", "133941.122500", "133941.582500", "133942.042500", "133942.502500", "133942.962500", "133943.422500", "133943.882500", "133944.342500", "133944.802500", "133945.262500", "133945.722500", "133946.182500", "133946.642500", "133947.102500", "133947.562500", "133948.022500", "133948.482500", "133948.942500", "133949.402500", "133949.862500", "133950.322500", "133950.782500", "133951.242500", "133951.702500", "133952.162500", "133952.622500", "133953.082500", "133953.542500", "133954.002500", "133954.462500", "133954.922500", "133955.382500", "133955.842500", "133956.302500", "133956.762500", "133957.222500", "133957.682500", "133958.142500", "133958.602500", "133959.062500", "133959.522500", "133959.982500", "134000.442500", "134000.902500", "134001.362500", "134001.822500", "134002.282500", "134002.742500", "134003.202500", "134003.662500", "134004.122500", "134004.582500", "134005.042500", "134005.502500", "134005.962500", "134006.422500", "134006.882500", "134007.342500", "134007.802500", "134008.262500", "134008.722500", "134009.182500", "134009.642500", "134010.102500", "134010.562500", "134011.022500", "134011.482500", "134011.942500", "134012.402500", "134012.862500", "134013.322500", "134013.782500", "134014.242500", "134014.702500", "134015.162500", "134015.622500", "134016.082500", "134016.542500", "134017.002500", "134017.462500", "134017.922500", "134018.382500", "134018.842500", "134019.302500", "134019.762500", "134020.222500", "134020.682500", "134021.142500", "134021.602500", "134022.062500", "134022.522500", "134022.982500", "134023.442500", "134023.902500", "134024.362500", "134024.822500", "134025.282500", "134025.742500", "134026.202500", "134026.662500", "134027.122500", "134027.582500", "134028.042500", "134028.502500", "134028.962500", "134029.422500", "134029.882500", "134030.342500", "134030.802500", "134031.262500", "134031.722500", "134032.182500", "134032.642500", "134033.102500", "134033.562500", "134034.022500", "134034.482500", "134034.942500", "134035.402500", "134035.862500", "134036.322500", "134036.782500", "134037.242500", "134037.702500", "134038.162500", "134038.622500", "134039.082500", "134039.542500", "134040.002500", "134040.462500", "134040.922500", "134041.382500", "134041.842500", "134042.302500", "134042.762500", "134043.222500", "134043.682500", "134044.142500", "134044.602500", "134045.062500", "134045.522500", "134045.982500", "134046.442500", "134046.902500", "134047.362500", "134047.822500", "134048.282500", "134048.742500", "134049.202500", "134049.662500", "134050.122500", "134050.582500", "134051.042500", "134051.502500", "134051.962500", "134052.422500", "134052.882500", "134053.342500", "134053.802500", "134054.262500", "134054.722500", "134055.182500", "134055.642500", "134056.102500", "134056.562500", "134057.022500", "134057.482500", "134057.942500", "134058.402500", "134058.862500", "134059.322500", "134059.782500", "134100.242500", "134100.702500", "134101.162500", "134101.622500", "134102.082500", "134102.542500", "134103.002500", "134103.462500", "134103.922500", "134104.382500", "134104.842500", "134105.302500", "134105.762500", "134106.222500", "134106.682500", "134107.142500", "134107.602500", "134108.062500", "134108.522500", "134108.982500", "134109.442500", "134109.902500", "134110.362500", "134110.822500", "134111.282500", "134111.742500", "134112.202500", "134112.662500", "134113.122500", "134113.582500", "134114.042500"],
