{
  "AcquisitionMatrixPE": 82,
  "AcquisitionNumber": 1,
  "AcquisitionTime": "12:55:9.802500",
  "BandwidthPerPixelPhaseEncode": 24.888,
  "BaseResolution": 82,
  "BodyPartExamined": "BRAIN",
  "ConsistencyInfo": "N4_VE11C_LATEST_20160120",
  "ConversionSoftware": "dcm2niix",
  "ConversionSoftwareVersion": "v1.0.20201102",
  "DerivedVendorReportedEchoSpacing": 0.00049,
  "DeviceSerialNumber": "66112",
  "DwellTime": 2e-06,
  "EchoTime": 0.0272,
  "EchoTrainLength": 82,
  "EffectiveEchoSpacing": 0.00049,
  "FlipAngle": 44,
  "ImageComments": "Unaliased MB8/PE3",
  "ImageOrientationPatientDICOM": [0.997265, -0.0526764, 0.0518368, 0.0515664, 0.998416, 0.0225242],
  "ImageType": [
    "ORIGINAL",
    "PRIMARY",
    "M",
    "MB",
    "ND",
    "NORM",
    "MOSAIC"
],
  "ImagingFrequency": 123.252,
  "InPlanePhaseEncodingDirectionDICOM": "COL",
  "InstitutionAddress": "Maynard 3,Hanover,NH,US,03755",
  "InstitutionName": "Dartmouth College - PBS",
  "InstitutionalDepartmentName": "Department",
  "MRAcquisitionType": "2D",
  "MagneticFieldStrength": 3,
  "Manufacturer": "Siemens",
  "ManufacturersModelName": "Prisma",
  "Modality": "MR",
  "MultibandAccelerationFactor": 8,
  "PartialFourier": 1,
  "PatientPosition": "HFS",
  "PercentPhaseFOV": 100,
  "PercentSampling": 100,
  "PhaseEncodingDirection": "j-",
  "PhaseEncodingSteps": 82,
  "PhaseResolution": 1,
  "PixelBandwidth": 3050,
  "ProcedureStepDescription": "Wager_Wager^1076_spacetop",
  "ProtocolName": "func_run-03_task-social_acq-ap-mb8",
  "PulseSequenceDetails": "%CustomerSeq%\\cmrr_mbep2d_bold",
  "ReceiveCoilActiveElements": "HEA;HEP",
  "ReceiveCoilName": "Head_32",
  "ReconMatrixPE": 82,
  "RepetitionTime": 0.46,
  "SAR": 0.0880803,
  "ScanOptions": "FS",
  "ScanningSequence": "EP",
  "SequenceName": "epfid2d1_82",
  "SequenceVariant": "SK\\SS",
  "SeriesDescription": "func_run-03_task-social_acq-ap-mb8",
  "SeriesNumber": 20,
  "ShimSetting": [4149, -7717, -7290, 582, -105, -121, -74, 78],
  "SliceThickness": 2.7,
  "SliceTiming": [0, 0.2525, 0.0625, 0.315, 0.1275, 0.3775, 0.19, 0, 0.2525, 0.0625, 0.315, 0.1275, 0.3775, 0.19, 0, 0.2525, 0.0625, 0.315, 0.1275, 0.3775, 0.19, 0, 0.2525, 0.0625, 0.315, 0.1275, 0.3775, 0.19, 0, 0.2525, 0.0625, 0.315, 0.1275, 0.3775, 0.19, 0, 0.2525, 0.0625, 0.315, 0.1275, 0.3775, 0.19, 0, 0.2525, 0.0625, 0.315, 0.1275, 0.3775, 0.19, 0, 0.2525, 0.0625, 0.315, 0.1275, 0.3775, 0.19],
  "SoftwareVersions": "syngo MR E11",
  "SpacingBetweenSlices": 2.7,
  "StationName": "AWP66112",
  "TaskName": "social",
  "TotalReadoutTime": 0.03969,
  "TxRefAmp": 227.908,
  "WipMemBlock": "950887ba-cad2-4e6f-9063-0a9d235757a8||Sequence: R016 ve11c/master r/e634e98; Dec 19 2017 11:00:25 by eja",
  "dcmmeta_affine": [
    [-2.6755900382995605, 0.13834889233112335, 0.14294123649597168, 101.7933349609375],
    [0.14132700860500336, 2.678675889968872, 0.05343172326683998, -108.76885223388672],
    [0.139074444770813, -0.060430679470300674, 2.6956841945648193, -57.40049362182617],
    [0.0, 0.0, 0.0, 1.0]
],
  "dcmmeta_reorient_transform": [
    [0.0, -1.0, 0.0, 81.0],
    [1.0, 0.0, 0.0, 0.0],
    [0.0, 0.0, 1.0, 0.0],
    [0.0, 0.0, 0.0, 1.0]
],
  "dcmmeta_shape": [82, 82, 56, 872],
  "dcmmeta_slice_dim": 2,
  "dcmmeta_version": 0.6,
  "global": {
    "const": {
      "AccessionNumber": "A003486",
      "AcquisitionMatrix": [82, 0, 0, 82],
      "AngioFlag": "N",
      "BitsAllocated": 16,
      "BitsStored": 16,
      "BodyPartExamined": "BRAIN",
      "Columns": 656,
      "EchoNumbers": 1,
      "EchoTime": 27.2,
      "EchoTrainLength": 82,
      "FlipAngle": 44.0,
      "HighBit": 15,
      "ImageOrientationPatient": [0.99726532865843, -0.0526764302794, 0.05183683968785, 0.05156640176447, 0.99841552888497, 0.02252416236863],
      "ImagePositionPatient": [-920.60004350379, -836.42301973206, -119.55335262034],
      "ImageType": [
        "ORIGINAL",
        "PRIMARY",
        "M",
        "MB",
        "ND",
        "NORM",
        "MOSAIC"
],
      "ImagedNucleus": "1H",
      "ImagingFrequency": 123.252172,
      "InPlanePhaseEncodingDirection": "COL",
      "MRAcquisitionType": "2D",
      "MagneticFieldStrength": 3.0,
      "Manufacturer": "SIEMENS",
      "ManufacturerModelName": "Prisma",
      "Modality": "MR",
      "NumberOfAverages": 1.0,
      "NumberOfPhaseEncodingSteps": 82,
      "PercentPhaseFieldOfView": 100.0,
      "PercentSampling": 100.0,
      "PerformedProcedureStepStartTime": "120017.636000",
      "PhotometricInterpretation": "MONOCHROME2",
      "PixelBandwidth": 3050.0,
      "PixelRepresentation": 0,
      "PixelSpacing": [2.6829268932343, 2.6829268932343],
      "ProtocolName": "func_run-03_task-social_acq-ap-mb8",
      "RepetitionTime": 460.0,
      "Rows": 656,
      "SAR": 0.08808027697141,
      "SamplesPerPixel": 1,
      "ScanOptions": "FS",
      "ScanningSequence": "EP",
      "SequenceName": "epfid2d1_82",
      "SequenceVariant": [
        "SK",
        "SS"
],
      "SeriesDescription": "func_run-03_task-social_acq-ap-mb8",
      "SeriesNumber": 20,
      "SeriesTime": "125520.849000",
      "SliceLocation": -54.072164331755,
      "SliceThickness": 2.7000000476837,
      "SmallestImagePixelValue": 0,
      "SoftwareVersions": "syngo MR E11",
      "SpacingBetweenSlices": 2.7000000042089,
      "SpecificCharacterSet": "ISO_IR 100",
      "StudyID": "2",
      "StudyTime": "120017.582000",
      "TransmitCoilName": "Body",
      "VariableFlipAngleFlag": "N",
      "WindowCenterWidthExplanation": "Algo1",
      "dBdt": 0.0},
    "slices": {}
  },
  "time": {
    "samples": {
      "AcquisitionNumber": [1, 2, 3, 4, 5, 6, 7, 8, 9, 10, 11, 12, 13, 14, 15, 16, 17, 18, 19, 20, 21, 22, 23, 24, 25, 26, 27, 28, 29, 30, 31, 32, 33, 34, 35, 36, 37, 38, 39, 40, 41, 42, 43, 44, 45, 46, 47, 48, 49, 50, 51, 52, 53, 54, 55, 56, 57, 58, 59, 60, 61, 62, 63, 64, 65, 66, 67, 68, 69, 70, 71, 72, 73, 74, 75, 76, 77, 78, 79, 80, 81, 82, 83, 84, 85, 86, 87, 88, 89, 90, 91, 92, 93, 94, 95, 96, 97, 98, 99, 100, 101, 102, 103, 104, 105, 106, 107, 108, 109, 110, 111, 112, 113, 114, 115, 116, 117, 118, 119, 120, 121, 122, 123, 124, 125, 126, 127, 128, 129, 130, 131, 132, 133, 134, 135, 136, 137, 138, 139, 140, 141, 142, 143, 144, 145, 146, 147, 148, 149, 150, 151, 152, 153, 154, 155, 156, 157, 158, 159, 160, 161, 162, 163, 164, 165, 166, 167, 168, 169, 170, 171, 172, 173, 174, 175, 176, 177, 178, 179, 180, 181, 182, 183, 184, 185, 186, 187, 188, 189, 190, 191, 192, 193, 194, 195, 196, 197, 198, 199, 200, 201, 202, 203, 204, 205, 206, 207, 208, 209, 210, 211, 212, 213, 214, 215, 216, 217, 218, 219, 220, 221, 222, 223, 224, 225, 226, 227, 228, 229, 230, 231, 232, 233, 234, 235, 236, 237, 238, 239, 240, 241, 242, 243, 244, 245, 246, 247, 248, 249, 250, 251, 252, 253, 254, 255, 256, 257, 258, 259, 260, 261, 262, 263, 264, 265, 266, 267, 268, 269, 270, 271, 272, 273, 274, 275, 276, 277, 278, 279, 280, 281, 282, 283, 284, 285, 286, 287, 288, 289, 290, 291, 292, 293, 294, 295, 296, 297, 298, 299, 300, 301, 302, 303, 304, 305, 306, 307, 308, 309, 310, 311, 312, 313, 314, 315, 316, 317, 318, 319, 320, 321, 322, 323, 324, 325, 326, 327, 328, 329, 330, 331, 332, 333, 334, 335, 336, 337, 338, 339, 340, 341, 342, 343, 344, 345, 346, 347, 348, 349, 350, 351, 352, 353, 354, 355, 356, 357, 358, 359, 360, 361, 362, 363, 364, 365, 366, 367, 368, 369, 370, 371, 372, 373, 374, 375, 376, 377, 378, 379, 380, 381, 382, 383, 384, 385, 386, 387, 388, 389, 390, 391, 392, 393, 394, 395, 396, 397, 398, 399, 400, 401, 402, 403, 404, 405, 406, 407, 408, 409, 410, 411, 412, 413, 414, 415, 416, 417, 418, 419, 420, 421, 422, 423, 424, 425, 426, 427, 428, 429, 430, 431, 432, 433, 434, 435, 436, 437, 438, 439, 440, 441, 442, 443, 444, 445, 446, 447, 448, 449, 450, 451, 452, 453, 454, 455, 456, 457, 458, 459, 460, 461, 462, 463, 464, 465, 466, 467, 468, 469, 470, 471, 472, 473, 474, 475, 476, 477, 478, 479, 480, 481, 482, 483, 484, 485, 486, 487, 488, 489, 490, 491, 492, 493, 494, 495, 496, 497, 498, 499, 500, 501, 502, 503, 504, 505, 506, 507, 508, 509, 510, 511, 512, 513, 514, 515, 516, 517, 518, 519, 520, 521, 522, 523, 524, 525, 526, 527, 528, 529, 530, 531, 532, 533, 534, 535, 536, 537, 538, 539, 540, 541, 542, 543, 544, 545, 546, 547, 548, 549, 550, 551, 552, 553, 554, 555, 556, 557, 558, 559, 560, 561, 562, 563, 564, 565, 566, 567, 568, 569, 570, 571, 572, 573, 574, 575, 576, 577, 578, 579, 580, 581, 582, 583, 584, 585, 586, 587, 588, 589, 590, 591, 592, 593, 594, 595, 596, 597, 598, 599, 600, 601, 602, 603, 604, 605, 606, 607, 608, 609, 610, 611, 612, 613, 614, 615, 616, 617, 618, 619, 620, 621, 622, 623, 624, 625, 626, 627, 628, 629, 630, 631, 632, 633, 634, 635, 636, 637, 638, 639, 640, 641, 642, 643, 644, 645, 646, 647, 648, 649, 650, 651, 652, 653, 654, 655, 656, 657, 658, 659, 660, 661, 662, 663, 664, 665, 666, 667, 668, 669, 670, 671, 672, 673, 674, 675, 676, 677, 678, 679, 680, 681, 682, 683, 684, 685, 686, 687, 688, 689, 690, 691, 692, 693, 694, 695, 696, 697, 698, 699, 700, 701, 702, 703, 704, 705, 706, 707, 708, 709, 710, 711, 712, 713, 714, 715, 716, 717, 718, 719, 720, 721, 722, 723, 724, 725, 726, 727, 728, 729, 730, 731, 732, 733, 734, 735, 736, 737, 738, 739, 740, 741, 742, 743, 744, 745, 746, 747, 748, 749, 750, 751, 752, 753, 754, 755, 756, 757, 758, 759, 760, 761, 762, 763, 764, 765, 766, 767, 768, 769, 770, 771, 772, 773, 774, 775, 776, 777, 778, 779, 780, 781, 782, 783, 784, 785, 786, 787, 788, 789, 790, 791, 792, 793, 794, 795, 796, 797, 798, 799, 800, 801, 802, 803, 804, 805, 806, 807, 808, 809, 810, 811, 812, 813, 814, 815, 816, 817, 818, 819, 820, 821, 822, 823, 824, 825, 826, 827, 828, 829, 830, 831, 832, 833, 834, 835, 836, 837, 838, 839, 840, 841, 842, 843, 844, 845, 846, 847, 848, 849, 850, 851, 852, 853, 854, 855, 856, 857, 858, 859, 860, 861, 862, 863, 864, 865, 866, 867, 868, 869, 870, 871, 872],
      "AcquisitionTime": ["125509.802500", "125510.262500", "125510.722500", "125511.182500", "125511.642500", "125512.102500", "125512.562500", "125513.022500", "125513.482500", "125513.942500", "125514.402500", "125514.862500", "125515.322500", "125515.782500", "125516.242500", "125516.702500", "125517.162500", "125517.622500", "125518.082500", "125518.542500", "125519.002500", "125519.462500", "125519.922500", "125520.382500", "125520.842500", "125521.302500", "125521.762500", "125522.222500", "125522.682500", "125523.142500", "125523.602500", "125524.062500", "125524.522500", "125524.982500", "125525.442500", "125525.902500", "125526.362500", "125526.822500", "125527.282500", "125527.742500", "125528.202500", "125528.662500", "125529.122500", "125529.582500", "125530.042500", "125530.502500", "125530.962500", "125531.422500", "125531.882500", "125532.342500", "125532.802500", "125533.262500", "125533.722500", "125534.182500", "125534.642500", "125535.102500", "125535.562500", "125536.022500", "125536.482500", "125536.942500", "125537.402500", "125537.862500", "125538.322500", "125538.782500", "125539.242500", "125539.702500", "125540.162500", "125540.622500", "125541.082500", "125541.542500", "125542.002500", "125542.462500", "125542.922500", "125543.382500", "125543.842500", "125544.302500", "125544.762500", "125545.222500", "125545.682500", "125546.142500", "125546.602500", "125547.062500", "125547.522500", "125547.982500", "125548.442500", "125548.902500", "125549.362500", "125549.822500", "125550.282500", "125550.742500", "125551.202500", "125551.662500", "125552.122500", "125552.582500", "125553.042500", "125553.502500", "125553.962500", "125554.422500", "125554.882500", "125555.342500", "125555.802500", "125556.262500", "125556.722500", "125557.182500", "125557.642500", "125558.102500", "125558.562500", "125559.022500", "125559.482500", "125559.942500", "125600.402500", "125600.862500", "125601.322500", "125601.782500", "125602.242500", "125602.702500", "125603.162500", "125603.622500", "125604.082500", "125604.542500", "125605.002500", "125605.462500", "125605.922500", "125606.382500", "125606.842500", "125607.302500", "125607.762500", "125608.222500", "125608.682500", "125609.142500", "125609.602500", "125610.062500", "125610.522500", "125610.982500", "125611.442500", "125611.902500", "125612.362500", "125612.822500", "125613.282500", "125613.742500", "125614.202500", "125614.662500", "125615.122500", "125615.582500", "125616.042500", "125616.502500", "125616.962500", "125617.422500", "125617.882500", "125618.342500", "125618.802500", "125619.262500", "125619.722500", "125620.182500", "125620.642500", "125621.102500", "125621.562500", "125622.022500", "125622.482500", "125622.942500", "125623.402500", "125623.862500", "125624.322500", "125624.782500", "125625.242500", "125625.702500", "125626.162500", "125626.622500", "125627.082500", "125627.542500", "125628.002500", "125628.462500", "125628.922500", "125629.382500", "125629.842500", "125630.302500", "125630.762500", "125631.222500", "125631.682500", "125632.142500", "125632.602500", "125633.062500", "125633.522500", "125633.982500", "125634.442500", "125634.902500", "125635.362500", "125635.822500", "125636.282500", "125636.742500", "125637.202500", "125637.662500", "125638.122500", "125638.582500", "125639.042500", "125639.502500", "125639.962500", "125640.422500", "125640.882500", "125641.342500", "125641.802500", "125642.262500", "125642.722500", "125643.182500", "125643.642500", "125644.102500", "125644.562500", "125645.022500", "125645.482500", "125645.942500", "125646.402500", "125646.862500", "125647.322500", "125647.782500", "125648.242500", "125648.702500", "125649.162500", "125649.622500", "125650.082500", "125650.542500", "125651.002500", "125651.462500", "125651.922500", "125652.382500", "125652.842500", "125653.302500", "125653.762500", "125654.222500", "125654.682500", "125655.142500", "125655.602500", "125656.062500", "125656.522500", "125656.982500", "125657.442500", "125657.902500", "125658.362500", "125658.822500", "125659.282500", "125659.742500", "125700.202500", "125700.662500", "125701.122500", "125701.582500", "125702.042500", "125702.502500", "125702.962500", "125703.422500", "125703.882500", "125704.342500", "125704.802500", "125705.262500", "125705.722500", "125706.182500", "125706.642500", "125707.102500", "125707.562500", "125708.022500", "125708.482500", "125708.942500", "125709.402500", "125709.862500", "125710.322500", "125710.782500", "125711.242500", "125711.702500", "125712.162500", "125712.622500", "125713.082500", "125713.542500", "125714.002500", "125714.462500", "125714.922500", "125715.382500", "125715.842500", "125716.302500", "125716.762500", "125717.222500", "125717.682500", "125718.142500", "125718.602500", "125719.062500", "125719.522500", "125719.982500", "125720.442500", "125720.902500", "125721.362500", "125721.822500", "125722.282500", "125722.742500", "125723.202500", "125723.662500", "125724.122500", "125724.582500", "125725.042500", "125725.502500", "125725.962500", "125726.422500", "125726.882500", "125727.342500", "125727.802500", "125728.262500", "125728.722500", "125729.182500", "125729.642500", "125730.102500", "125730.562500", "125731.022500", "125731.482500", "125731.942500", "125732.402500", "125732.862500", "125733.322500", "125733.782500", "125734.242500", "125734.702500", "125735.162500", "125735.622500", "125736.082500", "125736.542500", "125737.002500", "125737.462500", "125737.922500", "125738.382500", "125738.842500", "125739.302500", "125739.762500", "125740.222500", "125740.682500", "125741.142500", "125741.602500", "125742.062500", "125742.522500", "125742.982500", "125743.442500", "125743.902500", "125744.362500", "125744.822500", "125745.282500", "125745.742500", "125746.202500", "125746.662500", "125747.122500", "125747.582500", "125748.042500", "125748.502500", "125748.962500", "125749.422500", "125749.882500", "125750.342500", "125750.802500", "125751.262500", "125751.722500", "125752.182500", "125752.642500", "125753.102500", "125753.562500", "125754.022500", "125754.482500", "125754.942500", "125755.402500", "125755.862500", "125756.322500", "125756.782500", "125757.242500", "125757.702500", "125758.162500", "125758.622500", "125759.082500", "125759.542500", "125800.002500", "125800.462500", "125800.922500", "125801.382500", "125801.842500", "125802.302500", "125802.762500", "125803.222500", "125803.682500", "125804.142500", "125804.602500", "125805.062500", "125805.522500", "125805.982500", "125806.442500", "125806.902500", "125807.362500", "125807.822500", "125808.282500", "125808.742500", "125809.202500", "125809.662500", "125810.122500", "125810.582500", "125811.042500", "125811.502500", "125811.962500", "125812.422500", "125812.882500", "125813.342500", "125813.802500", "125814.262500", "125814.722500", "125815.182500", "125815.642500", "125816.102500", "125816.562500", "125817.022500", "125817.482500", "125817.942500", "125818.402500", "125818.862500", "125819.322500", "125819.782500", "125820.242500", "125820.702500", "125821.162500", "125821.622500", "125822.082500", "125822.542500", "125823.002500", "125823.462500", "125823.922500", "125824.382500", "125824.842500", "125825.302500", "125825.762500", "125826.222500", "125826.682500", "125827.142500", "125827.602500", "125828.062500", "125828.522500", "125828.982500", "125829.442500", "125829.902500", "125830.362500", "125830.822500", "125831.282500", "125831.742500", "125832.202500", "125832.662500", "125833.122500", "125833.582500", "125834.042500", "125834.502500", "125834.962500", "125835.422500", "125835.882500", "125836.342500", "125836.802500", "125837.262500", "125837.722500", "125838.182500", "125838.642500", "125839.102500", "125839.562500", "125840.022500", "125840.482500", "125840.942500", "125841.402500", "125841.862500", "125842.322500", "125842.782500", "125843.242500", "125843.702500", "125844.162500", "125844.622500", "125845.082500", "125845.542500", "125846.002500", "125846.462500", "125846.922500", "125847.382500", "125847.842500", "125848.302500", "125848.762500", "125849.222500", "125849.682500", "125850.142500", "125850.602500", "125851.062500", "125851.522500", "125851.982500", "125852.442500", "125852.902500", "125853.362500", "125853.822500", "125854.282500", "125854.742500", "125855.202500", "125855.662500", "125856.122500", "125856.582500", "125857.042500", "125857.502500", "125857.962500", "125858.422500", "125858.882500", "125859.342500", "125859.802500", "125900.262500", "125900.722500", "125901.182500", "125901.642500", "125902.102500", "125902.562500", "125903.022500", "125903.482500", "125903.942500", "125904.402500", "125904.862500", "125905.322500", "125905.782500", "125906.242500", "125906.702500", "125907.162500", "125907.622500", "125908.082500", "125908.542500", "125909.002500", "125909.462500", "125909.922500", "125910.382500", "125910.842500", "125911.302500", "125911.762500", "125912.222500", "125912.682500", "125913.142500", "125913.602500", "125914.062500", "125914.522500", "125914.982500", "125915.442500", "125915.902500", "125916.362500", "125916.822500", "125917.282500", "125917.742500", "125918.202500", "125918.662500", "125919.122500", "125919.582500", "125920.042500", "125920.502500", "125920.962500", "125921.422500", "125921.882500", "125922.342500", "125922.802500", "125923.262500", "125923.722500", "125924.182500", "125924.642500", "125925.102500", "125925.562500", "125926.022500", "125926.482500", "125926.942500", "125927.402500", "125927.862500", "125928.322500", "125928.782500", "125929.242500", "125929.702500", "125930.162500", "125930.622500", "125931.082500", "125931.542500", "125932.002500", "125932.462500", "125932.922500", "125933.382500", "125933.842500", "125934.302500", "125934.762500", "125935.222500", "125935.682500", "125936.142500", "125936.602500", "125937.062500", "125937.522500", "125937.982500", "125938.442500", "125938.902500", "125939.362500", "125939.822500", "125940.282500", "125940.742500", "125941.202500", "125941.662500", "125942.122500", "125942.582500", "125943.042500", "125943.502500", "125943.962500", "125944.422500", "125944.882500", "125945.342500", "125945.802500", "125946.262500", "125946.722500", "125947.182500", "125947.642500", "125948.102500", "125948.562500", "125949.022500", "125949.482500", "125949.942500", "125950.402500", "125950.862500", "125951.322500", "125951.782500", "125952.242500", "125952.702500", "125953.162500", "125953.622500", "125954.082500", "125954.542500", "125955.002500", "125955.462500", "125955.922500", "125956.382500", "125956.842500", "125957.302500", "125957.762500", "125958.222500", "125958.682500", "125959.142500", "125959.602500", "130000.062500", "130000.522500", "130000.982500", "130001.442500", "130001.902500", "130002.362500", "130002.822500", "130003.282500", "130003.742500", "130004.202500", "130004.662500", "130005.122500", "130005.582500", "130006.042500", "130006.502500", "130006.962500", "130007.422500", "130007.882500", "130008.342500", "130008.802500", "130009.262500", "130009.722500", "130010.182500", "130010.642500", "130011.102500", "130011.562500", "130012.022500", "130012.482500", "130012.942500", "130013.402500", "130013.862500", "130014.322500", "130014.782500", "130015.242500", "130015.702500", "130016.162500", "130016.622500", "130017.082500", "130017.542500", "130018.002500", "130018.462500", "130018.922500", "130019.382500", "130019.842500", "130020.302500", "130020.762500", "130021.222500", "130021.682500", "130022.142500", "130022.602500", "130023.062500", "130023.522500", "130023.982500", "130024.442500", "130024.902500", "130025.362500", "130025.822500", "130026.282500", "130026.742500", "130027.202500", "130027.662500", "130028.122500", "130028.582500", "130029.042500", "130029.502500", "130029.962500", "130030.422500", "130030.882500", "130031.342500", "130031.802500", "130032.262500", "130032.722500", "130033.182500", "130033.642500", "130034.102500", "130034.562500", "130035.022500", "130035.482500", "130035.942500", "130036.402500", "130036.862500", "130037.322500", "130037.782500", "130038.242500", "130038.702500", "130039.162500", "130039.622500", "130040.082500", "130040.542500", "130041.002500", "130041.462500", "130041.922500", "130042.382500", "130042.842500", "130043.302500", "130043.762500", "130044.222500", "130044.682500", "130045.142500", "130045.602500", "130046.062500", "130046.522500", "130046.982500", "130047.442500", "130047.902500", "130048.362500", "130048.822500", "130049.282500", "130049.742500", "130050.202500", "130050.662500", "130051.122500", "130051.582500", "130052.042500", "130052.502500", "130052.962500", "130053.422500", "130053.882500", "130054.342500", "130054.802500", "130055.262500", "130055.722500", "130056.182500", "130056.642500", "130057.102500", "130057.562500", "130058.022500", "130058.482500", "130058.942500", "130059.402500", "130059.862500", "130100.322500", "130100.782500", "130101.242500", "130101.702500", "130102.162500", "130102.622500", "130103.082500", "130103.542500", "130104.002500", "130104.462500", "130104.922500", "130105.382500", "130105.842500", "130106.302500", "130106.762500", "130107.222500", "130107.682500", "130108.142500", "130108.602500", "130109.062500", "130109.522500", "130109.982500", "130110.442500", "130110.902500", "130111.362500", "130111.822500", "130112.282500", "130112.742500", "130113.202500", "130113.662500", "130114.122500", "130114.582500", "130115.042500", "130115.502500", "130115.962500", "130116.422500", "130116.882500", "130117.342500", "130117.802500", "130118.262500", "130118.722500", "130119.182500", "130119.642500", "130120.102500", "130120.562500", "130121.022500", "130121.482500", "130121.942500", "130122.402500", "130122.862500", "130123.322500", "130123.782500", "130124.242500", "130124.702500", "130125.162500", "130125.622500", "130126.082500", "130126.542500", "130127.002500", "130127.462500", "130127.922500", "130128.382500", "130128.842500", "130129.302500", "130129.762500", "130130.222500", "130130.682500", "130131.142500", "130131.602500", "130132.062500", "130132.522500", "130132.982500", "130133.442500", "130133.902500", "130134.362500", "130134.822500", "130135.282500", "130135.742500", "130136.202500", "130136.662500", "130137.122500", "130137.582500", "130138.042500", "130138.502500", "130138.962500", "130139.422500", "130139.882500", "130140.342500", "130140.802500", "130141.262500", "130141.722500", "130142.182500", "130142.642500", "130143.102500", "130143.562500", "130144.022500", "130144.482500", "130144.942500", "130145.402500", "130145.862500", "130146.322500", "130146.782500", "130147.242500", "130147.702500", "130148.162500", "130148.622500", "130149.082500", "130149.542500", "130150.002500", "130150.462500"],
