{
  "AcquisitionMatrixPE": 82,
  "AcquisitionNumber": 1,
  "AcquisitionTime": "13:18:26.725000",
  "BandwidthPerPixelPhaseEncode": 24.888,
  "BaseResolution": 82,
  "BodyPartExamined": "BRAIN",
  "ConsistencyInfo": "N4_VE11C_LATEST_20160120",
  "ConversionSoftware": "dcm2niix",
  "ConversionSoftwareVersion": "v1.0.20201102",
  "DerivedVendorReportedEchoSpacing": 0.00049,
  "DeviceSerialNumber": "66112",
  "DwellTime": 2e-06,
  "EchoTime": 0.0272,
  "EchoTrainLength": 82,
  "EffectiveEchoSpacing": 0.00049,
  "FlipAngle": 44,
  "ImageComments": "Unaliased MB8/PE3",
  "ImageOrientationPatientDICOM": [0.997265, -0.0526764, 0.0518368, 0.0515664, 0.998416, 0.0225242],
  "ImageType": [
    "ORIGINAL",
    "PRIMARY",
    "M",
    "MB",
    "ND",
    "NORM",
    "MOSAIC"
],
  "ImagingFrequency": 123.252,
  "InPlanePhaseEncodingDirectionDICOM": "COL",
  "InstitutionAddress": "Maynard 3,Hanover,NH,US,03755",
  "InstitutionName": "Dartmouth College - PBS",
  "InstitutionalDepartmentName": "Department",
  "MRAcquisitionType": "2D",
  "MagneticFieldStrength": 3,
  "Manufacturer": "Siemens",
  "ManufacturersModelName": "Prisma",
  "Modality": "MR",
  "MultibandAccelerationFactor": 8,
  "PartialFourier": 1,
  "PatientPosition": "HFS",
  "PercentPhaseFOV": 100,
  "PercentSampling": 100,
  "PhaseEncodingDirection": "j-",
  "PhaseEncodingSteps": 82,
  "PhaseResolution": 1,
  "PixelBandwidth": 3050,
  "ProcedureStepDescription": "Wager_Wager^1076_spacetop",
  "ProtocolName": "func_run-06_task-social_acq-ap-mb8",
  "PulseSequenceDetails": "%CustomerSeq%\\cmrr_mbep2d_bold",
  "ReceiveCoilActiveElements": "HEA;HEP",
  "ReceiveCoilName": "Head_32",
  "ReconMatrixPE": 82,
  "RepetitionTime": 0.46,
  "SAR": 0.0880803,
  "ScanOptions": "FS",
  "ScanningSequence": "EP",
  "SequenceName": "epfid2d1_82",
  "SequenceVariant": "SK\\SS",
  "SeriesDescription": "func_run-06_task-social_acq-ap-mb8",
  "SeriesNumber": 26,
  "ShimSetting": [4149, -7717, -7290, 582, -105, -121, -74, 78],
  "SliceThickness": 2.7,
  "SliceTiming": [0, 0.2525, 0.0625, 0.315, 0.125, 0.3775, 0.19, 0, 0.2525, 0.0625, 0.315, 0.125, 0.3775, 0.19, 0, 0.2525, 0.0625, 0.315, 0.125, 0.3775, 0.19, 0, 0.2525, 0.0625, 0.315, 0.125, 0.3775, 0.19, 0, 0.2525, 0.0625, 0.315, 0.125, 0.3775, 0.19, 0, 0.2525, 0.0625, 0.315, 0.125, 0.3775, 0.19, 0, 0.2525, 0.0625, 0.315, 0.125, 0.3775, 0.19, 0, 0.2525, 0.0625, 0.315, 0.125, 0.3775, 0.19],
  "SoftwareVersions": "syngo MR E11",
  "SpacingBetweenSlices": 2.7,
  "StationName": "AWP66112",
  "TaskName": "social",
  "TotalReadoutTime": 0.03969,
  "TxRefAmp": 227.908,
  "WipMemBlock": "b6dfb4c1-15ce-4b90-b4ee-e47bcd9ed9a5||Sequence: R016 ve11c/master r/e634e98; Dec 19 2017 11:00:25 by eja",
  "dcmmeta_affine": [
    [-2.6755900382995605, 0.13834889233112335, 0.14294123649597168, 101.7933349609375],
    [0.14132700860500336, 2.678675889968872, 0.05343172326683998, -108.76885223388672],
    [0.139074444770813, -0.060430679470300674, 2.6956841945648193, -57.40049362182617],
    [0.0, 0.0, 0.0, 1.0]
],
  "dcmmeta_reorient_transform": [
    [0.0, -1.0, 0.0, 81.0],
    [1.0, 0.0, 0.0, 0.0],
    [0.0, 0.0, 1.0, 0.0],
    [0.0, 0.0, 0.0, 1.0]
],
  "dcmmeta_shape": [82, 82, 56, 872],
  "dcmmeta_slice_dim": 2,
  "dcmmeta_version": 0.6,
  "global": {
    "const": {
      "AccessionNumber": "A003486",
      "AcquisitionMatrix": [82, 0, 0, 82],
      "AngioFlag": "N",
      "BitsAllocated": 16,
      "BitsStored": 16,
      "BodyPartExamined": "BRAIN",
      "Columns": 656,
      "EchoNumbers": 1,
      "EchoTime": 27.2,
      "EchoTrainLength": 82,
      "FlipAngle": 44.0,
      "HighBit": 15,
      "ImageOrientationPatient": [0.99726532865843, -0.0526764302794, 0.05183683968785, 0.05156640176447, 0.99841552888497, 0.02252416236863],
      "ImagePositionPatient": [-920.60004350379, -836.42301973206, -119.55335262034],
      "ImageType": [
        "ORIGINAL",
        "PRIMARY",
        "M",
        "MB",
        "ND",
        "NORM",
        "MOSAIC"
],
      "ImagedNucleus": "1H",
      "ImagingFrequency": 123.252175,
      "InPlanePhaseEncodingDirection": "COL",
      "MRAcquisitionType": "2D",
      "MagneticFieldStrength": 3.0,
      "Manufacturer": "SIEMENS",
      "ManufacturerModelName": "Prisma",
      "Modality": "MR",
      "NumberOfAverages": 1.0,
      "NumberOfPhaseEncodingSteps": 82,
      "PercentPhaseFieldOfView": 100.0,
      "PercentSampling": 100.0,
      "PerformedProcedureStepStartTime": "120017.636000",
      "PhotometricInterpretation": "MONOCHROME2",
      "PixelBandwidth": 3050.0,
      "PixelRepresentation": 0,
      "PixelSpacing": [2.6829268932343, 2.6829268932343],
      "ProtocolName": "func_run-06_task-social_acq-ap-mb8",
      "RepetitionTime": 460.0,
      "Rows": 656,
      "SAR": 0.08808027697141,
      "SamplesPerPixel": 1,
      "ScanOptions": "FS",
      "ScanningSequence": "EP",
      "SequenceName": "epfid2d1_82",
      "SequenceVariant": [
        "SK",
        "SS"
],
      "SeriesDescription": "func_run-06_task-social_acq-ap-mb8",
      "SeriesNumber": 26,
      "SeriesTime": "131840.851000",
      "SliceLocation": -54.072164331755,
      "SliceThickness": 2.7000000476837,
      "SmallestImagePixelValue": 0,
      "SoftwareVersions": "syngo MR E11",
      "SpacingBetweenSlices": 2.7000000042089,
      "SpecificCharacterSet": "ISO_IR 100",
      "StudyID": "2",
      "StudyTime": "120017.582000",
      "TransmitCoilName": "Body",
      "VariableFlipAngleFlag": "N",
      "WindowCenterWidthExplanation": "Algo1",
      "dBdt": 0.0},
    "slices": {}
  },
  "time": {
    "samples": {
      "AcquisitionNumber": [1, 2, 3, 4, 5, 6, 7, 8, 9, 10, 11, 12, 13, 14, 15, 16, 17, 18, 19, 20, 21, 22, 23, 24, 25, 26, 27, 28, 29, 30, 31, 32, 33, 34, 35, 36, 37, 38, 39, 40, 41, 42, 43, 44, 45, 46, 47, 48, 49, 50, 51, 52, 53, 54, 55, 56, 57, 58, 59, 60, 61, 62, 63, 64, 65, 66, 67, 68, 69, 70, 71, 72, 73, 74, 75, 76, 77, 78, 79, 80, 81, 82, 83, 84, 85, 86, 87, 88, 89, 90, 91, 92, 93, 94, 95, 96, 97, 98, 99, 100, 101, 102, 103, 104, 105, 106, 107, 108, 109, 110, 111, 112, 113, 114, 115, 116, 117, 118, 119, 120, 121, 122, 123, 124, 125, 126, 127, 128, 129, 130, 131, 132, 133, 134, 135, 136, 137, 138, 139, 140, 141, 142, 143, 144, 145, 146, 147, 148, 149, 150, 151, 152, 153, 154, 155, 156, 157, 158, 159, 160, 161, 162, 163, 164, 165, 166, 167, 168, 169, 170, 171, 172, 173, 174, 175, 176, 177, 178, 179, 180, 181, 182, 183, 184, 185, 186, 187, 188, 189, 190, 191, 192, 193, 194, 195, 196, 197, 198, 199, 200, 201, 202, 203, 204, 205, 206, 207, 208, 209, 210, 211, 212, 213, 214, 215, 216, 217, 218, 219, 220, 221, 222, 223, 224, 225, 226, 227, 228, 229, 230, 231, 232, 233, 234, 235, 236, 237, 238, 239, 240, 241, 242, 243, 244, 245, 246, 247, 248, 249, 250, 251, 252, 253, 254, 255, 256, 257, 258, 259, 260, 261, 262, 263, 264, 265, 266, 267, 268, 269, 270, 271, 272, 273, 274, 275, 276, 277, 278, 279, 280, 281, 282, 283, 284, 285, 286, 287, 288, 289, 290, 291, 292, 293, 294, 295, 296, 297, 298, 299, 300, 301, 302, 303, 304, 305, 306, 307, 308, 309, 310, 311, 312, 313, 314, 315, 316, 317, 318, 319, 320, 321, 322, 323, 324, 325, 326, 327, 328, 329, 330, 331, 332, 333, 334, 335, 336, 337, 338, 339, 340, 341, 342, 343, 344, 345, 346, 347, 348, 349, 350, 351, 352, 353, 354, 355, 356, 357, 358, 359, 360, 361, 362, 363, 364, 365, 366, 367, 368, 369, 370, 371, 372, 373, 374, 375, 376, 377, 378, 379, 380, 381, 382, 383, 384, 385, 386, 387, 388, 389, 390, 391, 392, 393, 394, 395, 396, 397, 398, 399, 400, 401, 402, 403, 404, 405, 406, 407, 408, 409, 410, 411, 412, 413, 414, 415, 416, 417, 418, 419, 420, 421, 422, 423, 424, 425, 426, 427, 428, 429, 430, 431, 432, 433, 434, 435, 436, 437, 438, 439, 440, 441, 442, 443, 444, 445, 446, 447, 448, 449, 450, 451, 452, 453, 454, 455, 456, 457, 458, 459, 460, 461, 462, 463, 464, 465, 466, 467, 468, 469, 470, 471, 472, 473, 474, 475, 476, 477, 478, 479, 480, 481, 482, 483, 484, 485, 486, 487, 488, 489, 490, 491, 492, 493, 494, 495, 496, 497, 498, 499, 500, 501, 502, 503, 504, 505, 506, 507, 508, 509, 510, 511, 512, 513, 514, 515, 516, 517, 518, 519, 520, 521, 522, 523, 524, 525, 526, 527, 528, 529, 530, 531, 532, 533, 534, 535, 536, 537, 538, 539, 540, 541, 542, 543, 544, 545, 546, 547, 548, 549, 550, 551, 552, 553, 554, 555, 556, 557, 558, 559, 560, 561, 562, 563, 564, 565, 566, 567, 568, 569, 570, 571, 572, 573, 574, 575, 576, 577, 578, 579, 580, 581, 582, 583, 584, 585, 586, 587, 588, 589, 590, 591, 592, 593, 594, 595, 596, 597, 598, 599, 600, 601, 602, 603, 604, 605, 606, 607, 608, 609, 610, 611, 612, 613, 614, 615, 616, 617, 618, 619, 620, 621, 622, 623, 624, 625, 626, 627, 628, 629, 630, 631, 632, 633, 634, 635, 636, 637, 638, 639, 640, 641, 642, 643, 644, 645, 646, 647, 648, 649, 650, 651, 652, 653, 654, 655, 656, 657, 658, 659, 660, 661, 662, 663, 664, 665, 666, 667, 668, 669, 670, 671, 672, 673, 674, 675, 676, 677, 678, 679, 680, 681, 682, 683, 684, 685, 686, 687, 688, 689, 690, 691, 692, 693, 694, 695, 696, 697, 698, 699, 700, 701, 702, 703, 704, 705, 706, 707, 708, 709, 710, 711, 712, 713, 714, 715, 716, 717, 718, 719, 720, 721, 722, 723, 724, 725, 726, 727, 728, 729, 730, 731, 732, 733, 734, 735, 736, 737, 738, 739, 740, 741, 742, 743, 744, 745, 746, 747, 748, 749, 750, 751, 752, 753, 754, 755, 756, 757, 758, 759, 760, 761, 762, 763, 764, 765, 766, 767, 768, 769, 770, 771, 772, 773, 774, 775, 776, 777, 778, 779, 780, 781, 782, 783, 784, 785, 786, 787, 788, 789, 790, 791, 792, 793, 794, 795, 796, 797, 798, 799, 800, 801, 802, 803, 804, 805, 806, 807, 808, 809, 810, 811, 812, 813, 814, 815, 816, 817, 818, 819, 820, 821, 822, 823, 824, 825, 826, 827, 828, 829, 830, 831, 832, 833, 834, 835, 836, 837, 838, 839, 840, 841, 842, 843, 844, 845, 846, 847, 848, 849, 850, 851, 852, 853, 854, 855, 856, 857, 858, 859, 860, 861, 862, 863, 864, 865, 866, 867, 868, 869, 870, 871, 872],
      "AcquisitionTime": ["131826.725000", "131827.185000", "131827.645000", "131828.105000", "131828.565000", "131829.025000", "131829.485000", "131829.945000", "131830.405000", "131830.865000", "131831.325000", "131831.785000", "131832.245000", "131832.705000", "131833.165000", "131833.625000", "131834.085000", "131834.545000", "131835.005000", "131835.465000", "131835.925000", "131836.385000", "131836.845000", "131837.305000", "131837.765000", "131838.225000", "131838.685000", "131839.145000", "131839.605000", "131840.065000", "131840.525000", "131840.985000", "131841.445000", "131841.905000", "131842.365000", "131842.825000", "131843.285000", "131843.745000", "131844.205000", "131844.665000", "131845.125000", "131845.585000", "131846.045000", "131846.505000", "131846.965000", "131847.425000", "131847.885000", "131848.345000", "131848.805000", "131849.265000", "131849.725000", "131850.185000", "131850.645000", "131851.105000", "131851.565000", "131852.025000", "131852.485000", "131852.945000", "131853.405000", "131853.865000", "131854.325000", "131854.785000", "131855.245000", "131855.705000", "131856.165000", "131856.625000", "131857.085000", "131857.545000", "131858.005000", "131858.465000", "131858.925000", "131859.385000", "131859.845000", "131900.305000", "131900.765000", "131901.225000", "131901.685000", "131902.145000", "131902.605000", "131903.065000", "131903.525000", "131903.985000", "131904.445000", "131904.905000", "131905.365000", "131905.825000", "131906.285000", "131906.745000", "131907.205000", "131907.665000", "131908.125000", "131908.585000", "131909.045000", "131909.505000", "131909.965000", "131910.425000", "131910.885000", "131911.345000", "131911.805000", "131912.265000", "131912.725000", "131913.185000", "131913.645000", "131914.105000", "131914.565000", "131915.025000", "131915.485000", "131915.945000", "131916.405000", "131916.865000", "131917.325000", "131917.785000", "131918.245000", "131918.705000", "131919.165000", "131919.625000", "131920.085000", "131920.545000", "131921.005000", "131921.465000", "131921.925000", "131922.385000", "131922.845000", "131923.305000", "131923.765000", "131924.225000", "131924.685000", "131925.145000", "131925.605000", "131926.065000", "131926.525000", "131926.985000", "131927.445000", "131927.905000", "131928.365000", "131928.825000", "131929.285000", "131929.745000", "131930.205000", "131930.665000", "131931.125000", "131931.585000", "131932.045000", "131932.505000", "131932.965000", "131933.425000", "131933.885000", "131934.345000", "131934.805000", "131935.265000", "131935.725000", "131936.185000", "131936.645000", "131937.105000", "131937.565000", "131938.025000", "131938.485000", "131938.945000", "131939.405000", "131939.865000", "131940.325000", "131940.785000", "131941.245000", "131941.705000", "131942.165000", "131942.625000", "131943.085000", "131943.545000", "131944.005000", "131944.465000", "131944.925000", "131945.385000", "131945.845000", "131946.305000", "131946.765000", "131947.225000", "131947.685000", "131948.145000", "131948.605000", "131949.065000", "131949.525000", "131949.985000", "131950.445000", "131950.905000", "131951.365000", "131951.825000", "131952.285000", "131952.745000", "131953.205000", "131953.665000", "131954.125000", "131954.585000", "131955.045000", "131955.505000", "131955.965000", "131956.425000", "131956.885000", "131957.345000", "131957.805000", "131958.265000", "131958.725000", "131959.185000", "131959.645000", "132000.105000", "132000.565000", "132001.025000", "132001.485000", "132001.945000", "132002.405000", "132002.865000", "132003.325000", "132003.785000", "132004.245000", "132004.705000", "132005.165000", "132005.625000", "132006.085000", "132006.545000", "132007.005000", "132007.465000", "132007.925000", "132008.385000", "132008.845000", "132009.305000", "132009.765000", "132010.225000", "132010.685000", "132011.145000", "132011.605000", "132012.065000", "132012.525000", "132012.985000", "132013.445000", "132013.905000", "132014.365000", "132014.825000", "132015.285000", "132015.745000", "132016.205000", "132016.665000", "132017.125000", "132017.585000", "132018.045000", "132018.505000", "132018.965000", "132019.425000", "132019.885000", "132020.345000", "132020.805000", "132021.265000", "132021.725000", "132022.185000", "132022.645000", "132023.105000", "132023.565000", "132024.025000", "132024.485000", "132024.945000", "132025.405000", "132025.865000", "132026.325000", "132026.785000", "132027.245000", "132027.705000", "132028.165000", "132028.625000", "132029.085000", "132029.545000", "132030.005000", "132030.465000", "132030.925000", "132031.385000", "132031.845000", "132032.305000", "132032.765000", "132033.225000", "132033.685000", "132034.145000", "132034.605000", "132035.065000", "132035.525000", "132035.985000", "132036.445000", "132036.905000", "132037.365000", "132037.825000", "132038.285000", "132038.745000", "132039.205000", "132039.665000", "132040.125000", "132040.585000", "132041.045000", "132041.505000", "132041.965000", "132042.425000", "132042.885000", "132043.345000", "132043.805000", "132044.265000", "132044.725000", "132045.185000", "132045.645000", "132046.105000", "132046.565000", "132047.025000", "132047.485000", "132047.945000", "132048.405000", "132048.865000", "132049.325000", "132049.785000", "132050.245000", "132050.705000", "132051.165000", "132051.625000", "132052.085000", "132052.545000", "132053.005000", "132053.465000", "132053.925000", "132054.385000", "132054.845000", "132055.305000", "132055.765000", "132056.225000", "132056.685000", "132057.145000", "132057.605000", "132058.065000", "132058.525000", "132058.985000", "132059.445000", "132059.905000", "132100.365000", "132100.825000", "132101.285000", "132101.745000", "132102.205000", "132102.665000", "132103.125000", "132103.585000", "132104.045000", "132104.505000", "132104.965000", "132105.425000", "132105.885000", "132106.345000", "132106.805000", "132107.265000", "132107.725000", "132108.185000", "132108.645000", "132109.105000", "132109.565000", "132110.025000", "132110.485000", "132110.945000", "132111.405000", "132111.865000", "132112.325000", "132112.785000", "132113.245000", "132113.705000", "132114.165000", "132114.625000", "132115.085000", "132115.545000", "132116.005000", "132116.465000", "132116.925000", "132117.385000", "132117.845000", "132118.305000", "132118.765000", "132119.225000", "132119.685000", "132120.145000", "132120.605000", "132121.065000", "132121.525000", "132121.985000", "132122.445000", "132122.905000", "132123.365000", "132123.825000", "132124.285000", "132124.745000", "132125.205000", "132125.665000", "132126.125000", "132126.585000", "132127.045000", "132127.505000", "132127.965000", "132128.425000", "132128.885000", "132129.345000", "132129.805000", "132130.265000", "132130.725000", "132131.185000", "132131.645000", "132132.105000", "132132.565000", "132133.025000", "132133.485000", "132133.945000", "132134.405000", "132134.865000", "132135.325000", "132135.785000", "132136.245000", "132136.705000", "132137.165000", "132137.625000", "132138.085000", "132138.545000", "132139.005000", "132139.465000", "132139.925000", "132140.385000", "132140.845000", "132141.305000", "132141.765000", "132142.225000", "132142.685000", "132143.145000", "132143.605000", "132144.065000", "132144.525000", "132144.985000", "132145.445000", "132145.905000", "132146.365000", "132146.825000", "132147.285000", "132147.745000", "132148.205000", "132148.665000", "132149.125000", "132149.585000", "132150.045000", "132150.505000", "132150.965000", "132151.425000", "132151.885000", "132152.345000", "132152.805000", "132153.265000", "132153.725000", "132154.185000", "132154.645000", "132155.105000", "132155.565000", "132156.025000", "132156.485000", "132156.945000", "132157.405000", "132157.865000", "132158.325000", "132158.785000", "132159.245000", "132159.705000", "132200.165000", "132200.625000", "132201.085000", "132201.545000", "132202.005000", "132202.465000", "132202.925000", "132203.385000", "132203.845000", "132204.305000", "132204.765000", "132205.225000", "132205.685000", "132206.145000", "132206.605000", "132207.065000", "132207.525000", "132207.985000", "132208.445000", "132208.905000", "132209.365000", "132209.825000", "132210.285000", "132210.745000", "132211.205000", "132211.665000", "132212.125000", "132212.585000", "132213.045000", "132213.505000", "132213.965000", "132214.425000", "132214.885000", "132215.345000", "132215.805000", "132216.265000", "132216.725000", "132217.185000", "132217.645000", "132218.105000", "132218.565000", "132219.025000", "132219.485000", "132219.945000", "132220.405000", "132220.865000", "132221.325000", "132221.785000", "132222.245000", "132222.705000", "132223.165000", "132223.625000", "132224.085000", "132224.545000", "132225.005000", "132225.465000", "132225.925000", "132226.385000", "132226.845000", "132227.305000", "132227.765000", "132228.225000", "132228.685000", "132229.145000", "132229.605000", "132230.065000", "132230.525000", "132230.985000", "132231.445000", "132231.905000", "132232.365000", "132232.825000", "132233.285000", "132233.745000", "132234.205000", "132234.665000", "132235.125000", "132235.585000", "132236.045000", "132236.505000", "132236.965000", "132237.425000", "132237.885000", "132238.345000", "132238.805000", "132239.265000", "132239.725000", "132240.185000", "132240.645000", "132241.105000", "132241.565000", "132242.025000", "132242.485000", "132242.945000", "132243.405000", "132243.865000", "132244.325000", "132244.785000", "132245.245000", "132245.705000", "132246.165000", "132246.625000", "132247.085000", "132247.545000", "132248.005000", "132248.465000", "132248.925000", "132249.385000", "132249.845000", "132250.305000", "132250.765000", "132251.225000", "132251.685000", "132252.145000", "132252.605000", "132253.065000", "132253.525000", "132253.985000", "132254.445000", "132254.905000", "132255.365000", "132255.825000", "132256.285000", "132256.745000", "132257.205000", "132257.665000", "132258.125000", "132258.585000", "132259.045000", "132259.505000", "132259.965000", "132300.425000", "132300.885000", "132301.345000", "132301.805000", "132302.265000", "132302.725000", "132303.185000", "132303.645000", "132304.105000", "132304.565000", "132305.025000", "132305.485000", "132305.945000", "132306.405000", "132306.865000", "132307.325000", "132307.785000", "132308.245000", "132308.705000", "132309.165000", "132309.625000", "132310.085000", "132310.545000", "132311.005000", "132311.465000", "132311.925000", "132312.385000", "132312.845000", "132313.305000", "132313.765000", "132314.225000", "132314.685000", "132315.145000", "132315.605000", "132316.065000", "132316.525000", "132316.985000", "132317.445000", "132317.905000", "132318.365000", "132318.825000", "132319.285000", "132319.745000", "132320.205000", "132320.665000", "132321.125000", "132321.585000", "132322.045000", "132322.505000", "132322.965000", "132323.425000", "132323.885000", "132324.345000", "132324.805000", "132325.265000", "132325.725000", "132326.185000", "132326.645000", "132327.105000", "132327.565000", "132328.025000", "132328.485000", "132328.945000", "132329.405000", "132329.865000", "132330.325000", "132330.785000", "132331.245000", "132331.705000", "132332.165000", "132332.625000", "132333.085000", "132333.545000", "132334.005000", "132334.465000", "132334.925000", "132335.385000", "132335.845000", "132336.305000", "132336.765000", "132337.225000", "132337.685000", "132338.145000", "132338.605000", "132339.065000", "132339.525000", "132339.985000", "132340.445000", "132340.905000", "132341.365000", "132341.825000", "132342.285000", "132342.745000", "132343.205000", "132343.665000", "132344.125000", "132344.585000", "132345.045000", "132345.505000", "132345.965000", "132346.425000", "132346.885000", "132347.345000", "132347.805000", "132348.265000", "132348.725000", "132349.185000", "132349.645000", "132350.105000", "132350.565000", "132351.025000", "132351.485000", "132351.945000", "132352.405000", "132352.865000", "132353.325000", "132353.785000", "132354.245000", "132354.705000", "132355.165000", "132355.625000", "132356.085000", "132356.545000", "132357.005000", "132357.465000", "132357.925000", "132358.385000", "132358.845000", "132359.305000", "132359.765000", "132400.225000", "132400.685000", "132401.145000", "132401.605000", "132402.065000", "132402.525000", "132402.985000", "132403.445000", "132403.905000", "132404.365000", "132404.825000", "132405.285000", "132405.745000", "132406.205000", "132406.665000", "132407.125000", "132407.585000", "132408.045000", "132408.505000", "132408.965000", "132409.425000", "132409.885000", "132410.345000", "132410.805000", "132411.265000", "132411.725000", "132412.185000", "132412.645000", "132413.105000", "132413.565000", "132414.025000", "132414.485000", "132414.945000", "132415.405000", "132415.865000", "132416.325000", "132416.785000", "132417.245000", "132417.705000", "132418.165000", "132418.625000", "132419.085000", "132419.545000", "132420.005000", "132420.465000", "132420.925000", "132421.385000", "132421.845000", "132422.305000", "132422.765000", "132423.225000", "132423.685000", "132424.145000", "132424.605000", "132425.065000", "132425.525000", "132425.985000", "132426.445000", "132426.905000", "132427.365000", "132427.825000", "132428.285000", "132428.745000", "132429.205000", "132429.665000", "132430.125000", "132430.585000", "132431.045000", "132431.505000", "132431.965000", "132432.425000", "132432.885000", "132433.345000", "132433.805000", "132434.265000", "132434.725000", "132435.185000", "132435.645000", "132436.105000", "132436.565000", "132437.025000", "132437.485000", "132437.945000", "132438.405000", "132438.865000", "132439.325000", "132439.785000", "132440.245000", "132440.705000", "132441.165000", "132441.625000", "132442.085000", "132442.545000", "132443.005000", "132443.465000", "132443.925000", "132444.385000", "132444.845000", "132445.305000", "132445.765000", "132446.225000", "132446.685000", "132447.145000", "132447.605000", "132448.065000", "132448.525000", "132448.985000", "132449.445000", "132449.905000", "132450.365000", "132450.825000", "132451.285000", "132451.745000", "132452.205000", "132452.665000", "132453.125000", "132453.585000", "132454.045000", "132454.505000", "132454.965000", "132455.425000", "132455.885000", "132456.345000", "132456.805000", "132457.265000", "132457.725000", "132458.185000", "132458.645000", "132459.105000", "132459.565000", "132500.025000", "132500.485000", "132500.945000", "132501.405000", "132501.865000", "132502.325000", "132502.785000", "132503.245000", "132503.705000", "132504.165000", "132504.625000", "132505.085000", "132505.545000", "132506.005000", "132506.465000", "132506.925000", "132507.385000"],
