{
  "AcquisitionMatrixPE": 82,
  "AcquisitionNumber": 1,
  "AcquisitionTime": "12:40:39.640000",
  "BandwidthPerPixelPhaseEncode": 24.888,
  "BaseResolution": 82,
  "BodyPartExamined": "BRAIN",
  "ConsistencyInfo": "N4_VE11C_LATEST_20160120",
  "ConversionSoftware": "dcm2niix",
  "ConversionSoftwareVersion": "v1.0.20201102",
  "DerivedVendorReportedEchoSpacing": 0.00049,
  "DeviceSerialNumber": "66112",
  "DwellTime": 2e-06,
  "EchoTime": 0.0272,
  "EchoTrainLength": 82,
  "EffectiveEchoSpacing": 0.00049,
  "FlipAngle": 44,
  "ImageComments": "Unaliased MB8/PE3",
  "ImageOrientationPatientDICOM": [0.997265, -0.0526764, 0.0518368, 0.0515664, 0.998416, 0.0225242],
  "ImageType": [
    "ORIGINAL",
    "PRIMARY",
    "M",
    "MB",
    "ND",
    "NORM",
    "MOSAIC"
],
  "ImagingFrequency": 123.252,
  "InPlanePhaseEncodingDirectionDICOM": "COL",
  "InstitutionAddress": "Maynard 3,Hanover,NH,US,03755",
  "InstitutionName": "Dartmouth College - PBS",
  "InstitutionalDepartmentName": "Department",
  "MRAcquisitionType": "2D",
  "MagneticFieldStrength": 3,
  "Manufacturer": "Siemens",
  "ManufacturersModelName": "Prisma",
  "Modality": "MR",
  "MultibandAccelerationFactor": 8,
  "PartialFourier": 1,
  "PatientPosition": "HFS",
  "PercentPhaseFOV": 100,
  "PercentSampling": 100,
  "PhaseEncodingDirection": "j-",
  "PhaseEncodingSteps": 82,
  "PhaseResolution": 1,
  "PixelBandwidth": 3050,
  "ProcedureStepDescription": "Wager_Wager^1076_spacetop",
  "ProtocolName": "func_run-01_task-social_acq-ap-mb8",
  "PulseSequenceDetails": "%CustomerSeq%\\cmrr_mbep2d_bold",
  "ReceiveCoilActiveElements": "HEA;HEP",
  "ReceiveCoilName": "Head_32",
  "ReconMatrixPE": 82,
  "RepetitionTime": 0.46,
  "SAR": 0.0880803,
  "ScanOptions": "FS",
  "ScanningSequence": "EP",
  "SequenceName": "epfid2d1_82",
  "SequenceVariant": "SK\\SS",
  "SeriesDescription": "func_run-01_task-social_acq-ap-mb8",
  "SeriesNumber": 16,
  "ShimSetting": [4149, -7717, -7290, 582, -105, -121, -74, 78],
  "SliceThickness": 2.7,
  "SliceTiming": [0, 0.2525, 0.0625, 0.315, 0.125, 0.3775, 0.1875, 0, 0.2525, 0.0625, 0.315, 0.125, 0.3775, 0.1875, 0, 0.2525, 0.0625, 0.315, 0.125, 0.3775, 0.1875, 0, 0.2525, 0.0625, 0.315, 0.125, 0.3775, 0.1875, 0, 0.2525, 0.0625, 0.315, 0.125, 0.3775, 0.1875, 0, 0.2525, 0.0625, 0.315, 0.125, 0.3775, 0.1875, 0, 0.2525, 0.0625, 0.315, 0.125, 0.3775, 0.1875, 0, 0.2525, 0.0625, 0.315, 0.125, 0.3775, 0.1875],
  "SoftwareVersions": "syngo MR E11",
  "SpacingBetweenSlices": 2.7,
  "StationName": "AWP66112",
  "TaskName": "social",
  "TotalReadoutTime": 0.03969,
  "TxRefAmp": 227.908,
  "WipMemBlock": "95d686c7-6e9b-4733-bd2e-e2dcc2d54cac||Sequence: R016 ve11c/master r/e634e98; Dec 19 2017 11:00:25 by eja",
  "dcmmeta_affine": [
    [-2.6755900382995605, 0.13834889233112335, 0.14294123649597168, 101.7933349609375],
    [0.14132700860500336, 2.678675889968872, 0.05343172326683998, -108.76885223388672],
    [0.139074444770813, -0.060430679470300674, 2.6956841945648193, -57.40049362182617],
    [0.0, 0.0, 0.0, 1.0]
],
  "dcmmeta_reorient_transform": [
    [0.0, -1.0, 0.0, 81.0],
    [1.0, 0.0, 0.0, 0.0],
    [0.0, 0.0, 1.0, 0.0],
    [0.0, 0.0, 0.0, 1.0]
],
  "dcmmeta_shape": [82, 82, 56, 872],
  "dcmmeta_slice_dim": 2,
  "dcmmeta_version": 0.6,
  "global": {
    "const": {
      "AccessionNumber": "A003486",
      "AcquisitionMatrix": [82, 0, 0, 82],
      "AngioFlag": "N",
      "BitsAllocated": 16,
      "BitsStored": 16,
      "BodyPartExamined": "BRAIN",
      "Columns": 656,
      "EchoNumbers": 1,
      "EchoTime": 27.2,
      "EchoTrainLength": 82,
      "FlipAngle": 44.0,
      "HighBit": 15,
      "ImageOrientationPatient": [0.99726532865843, -0.0526764302794, 0.05183683968785, 0.05156640176447, 0.99841552888497, 0.02252416236863],
      "ImagePositionPatient": [-920.60004350379, -836.42301973206, -119.55335262034],
      "ImageType": [
        "ORIGINAL",
        "PRIMARY",
        "M",
        "MB",
        "ND",
        "NORM",
        "MOSAIC"
],
      "ImagedNucleus": "1H",
      "ImagingFrequency": 123.252164,
      "InPlanePhaseEncodingDirection": "COL",
      "MRAcquisitionType": "2D",
      "MagneticFieldStrength": 3.0,
      "Manufacturer": "SIEMENS",
      "ManufacturerModelName": "Prisma",
      "Modality": "MR",
      "NumberOfAverages": 1.0,
      "NumberOfPhaseEncodingSteps": 82,
      "PercentPhaseFieldOfView": 100.0,
      "PercentSampling": 100.0,
      "PerformedProcedureStepStartTime": "120017.636000",
      "PhotometricInterpretation": "MONOCHROME2",
      "PixelBandwidth": 3050.0,
      "PixelRepresentation": 0,
      "PixelSpacing": [2.6829268932343, 2.6829268932343],
      "ProtocolName": "func_run-01_task-social_acq-ap-mb8",
      "RepetitionTime": 460.0,
      "Rows": 656,
      "SAR": 0.08808027697141,
      "SamplesPerPixel": 1,
      "ScanOptions": "FS",
      "ScanningSequence": "EP",
      "SequenceName": "epfid2d1_82",
      "SequenceVariant": [
        "SK",
        "SS"
],
      "SeriesDescription": "func_run-01_task-social_acq-ap-mb8",
      "SeriesNumber": 16,
      "SeriesTime": "124100.912000",
      "SliceLocation": -54.072164331755,
      "SliceThickness": 2.7000000476837,
      "SmallestImagePixelValue": 0,
      "SoftwareVersions": "syngo MR E11",
      "SpacingBetweenSlices": 2.7000000042089,
      "SpecificCharacterSet": "ISO_IR 100",
      "StudyID": "2",
      "StudyTime": "120017.582000",
      "TransmitCoilName": "Body",
      "VariableFlipAngleFlag": "N",
      "WindowCenterWidthExplanation": "Algo1",
      "dBdt": 0.0},
    "slices": {}
  },
  "time": {
    "samples": {
      "AcquisitionNumber": [1, 2, 3, 4, 5, 6, 7, 8, 9, 10, 11, 12, 13, 14, 15, 16, 17, 18, 19, 20, 21, 22, 23, 24, 25, 26, 27, 28, 29, 30, 31, 32, 33, 34, 35, 36, 37, 38, 39, 40, 41, 42, 43, 44, 45, 46, 47, 48, 49, 50, 51, 52, 53, 54, 55, 56, 57, 58, 59, 60, 61, 62, 63, 64, 65, 66, 67, 68, 69, 70, 71, 72, 73, 74, 75, 76, 77, 78, 79, 80, 81, 82, 83, 84, 85, 86, 87, 88, 89, 90, 91, 92, 93, 94, 95, 96, 97, 98, 99, 100, 101, 102, 103, 104, 105, 106, 107, 108, 109, 110, 111, 112, 113, 114, 115, 116, 117, 118, 119, 120, 121, 122, 123, 124, 125, 126, 127, 128, 129, 130, 131, 132, 133, 134, 135, 136, 137, 138, 139, 140, 141, 142, 143, 144, 145, 146, 147, 148, 149, 150, 151, 152, 153, 154, 155, 156, 157, 158, 159, 160, 161, 162, 163, 164, 165, 166, 167, 168, 169, 170, 171, 172, 173, 174, 175, 176, 177, 178, 179, 180, 181, 182, 183, 184, 185, 186, 187, 188, 189, 190, 191, 192, 193, 194, 195, 196, 197, 198, 199, 200, 201, 202, 203, 204, 205, 206, 207, 208, 209, 210, 211, 212, 213, 214, 215, 216, 217, 218, 219, 220, 221, 222, 223, 224, 225, 226, 227, 228, 229, 230, 231, 232, 233, 234, 235, 236, 237, 238, 239, 240, 241, 242, 243, 244, 245, 246, 247, 248, 249, 250, 251, 252, 253, 254, 255, 256, 257, 258, 259, 260, 261, 262, 263, 264, 265, 266, 267, 268, 269, 270, 271, 272, 273, 274, 275, 276, 277, 278, 279, 280, 281, 282, 283, 284, 285, 286, 287, 288, 289, 290, 291, 292, 293, 294, 295, 296, 297, 298, 299, 300, 301, 302, 303, 304, 305, 306, 307, 308, 309, 310, 311, 312, 313, 314, 315, 316, 317, 318, 319, 320, 321, 322, 323, 324, 325, 326, 327, 328, 329, 330, 331, 332, 333, 334, 335, 336, 337, 338, 339, 340, 341, 342, 343, 344, 345, 346, 347, 348, 349, 350, 351, 352, 353, 354, 355, 356, 357, 358, 359, 360, 361, 362, 363, 364, 365, 366, 367, 368, 369, 370, 371, 372, 373, 374, 375, 376, 377, 378, 379, 380, 381, 382, 383, 384, 385, 386, 387, 388, 389, 390, 391, 392, 393, 394, 395, 396, 397, 398, 399, 400, 401, 402, 403, 404, 405, 406, 407, 408, 409, 410, 411, 412, 413, 414, 415, 416, 417, 418, 419, 420, 421, 422, 423, 424, 425, 426, 427, 428, 429, 430, 431, 432, 433, 434, 435, 436, 437, 438, 439, 440, 441, 442, 443, 444, 445, 446, 447, 448, 449, 450, 451, 452, 453, 454, 455, 456, 457, 458, 459, 460, 461, 462, 463, 464, 465, 466, 467, 468, 469, 470, 471, 472, 473, 474, 475, 476, 477, 478, 479, 480, 481, 482, 483, 484, 485, 486, 487, 488, 489, 490, 491, 492, 493, 494, 495, 496, 497, 498, 499, 500, 501, 502, 503, 504, 505, 506, 507, 508, 509, 510, 511, 512, 513, 514, 515, 516, 517, 518, 519, 520, 521, 522, 523, 524, 525, 526, 527, 528, 529, 530, 531, 532, 533, 534, 535, 536, 537, 538, 539, 540, 541, 542, 543, 544, 545, 546, 547, 548, 549, 550, 551, 552, 553, 554, 555, 556, 557, 558, 559, 560, 561, 562, 563, 564, 565, 566, 567, 568, 569, 570, 571, 572, 573, 574, 575, 576, 577, 578, 579, 580, 581, 582, 583, 584, 585, 586, 587, 588, 589, 590, 591, 592, 593, 594, 595, 596, 597, 598, 599, 600, 601, 602, 603, 604, 605, 606, 607, 608, 609, 610, 611, 612, 613, 614, 615, 616, 617, 618, 619, 620, 621, 622, 623, 624, 625, 626, 627, 628, 629, 630, 631, 632, 633, 634, 635, 636, 637, 638, 639, 640, 641, 642, 643, 644, 645, 646, 647, 648, 649, 650, 651, 652, 653, 654, 655, 656, 657, 658, 659, 660, 661, 662, 663, 664, 665, 666, 667, 668, 669, 670, 671, 672, 673, 674, 675, 676, 677, 678, 679, 680, 681, 682, 683, 684, 685, 686, 687, 688, 689, 690, 691, 692, 693, 694, 695, 696, 697, 698, 699, 700, 701, 702, 703, 704, 705, 706, 707, 708, 709, 710, 711, 712, 713, 714, 715, 716, 717, 718, 719, 720, 721, 722, 723, 724, 725, 726, 727, 728, 729, 730, 731, 732, 733, 734, 735, 736, 737, 738, 739, 740, 741, 742, 743, 744, 745, 746, 747, 748, 749, 750, 751, 752, 753, 754, 755, 756, 757, 758, 759, 760, 761, 762, 763, 764, 765, 766, 767, 768, 769, 770, 771, 772, 773, 774, 775, 776, 777, 778, 779, 780, 781, 782, 783, 784, 785, 786, 787, 788, 789, 790, 791, 792, 793, 794, 795, 796, 797, 798, 799, 800, 801, 802, 803, 804, 805, 806, 807, 808, 809, 810, 811, 812, 813, 814, 815, 816, 817, 818, 819, 820, 821, 822, 823, 824, 825, 826, 827, 828, 829, 830, 831, 832, 833, 834, 835, 836, 837, 838, 839, 840, 841, 842, 843, 844, 845, 846, 847, 848, 849, 850, 851, 852, 853, 854, 855, 856, 857, 858, 859, 860, 861, 862, 863, 864, 865, 866, 867, 868, 869, 870, 871, 872],
      "AcquisitionTime": ["124039.640000", "124040.100000", "124040.560000", "124041.020000", "124041.480000", "124041.940000", "124042.400000", "124042.860000", "124043.320000", "124043.780000", "124044.240000", "124044.700000", "124045.160000", "124045.620000", "124046.080000", "124046.540000", "124047.000000", "124047.460000", "124047.920000", "124048.380000", "124048.840000", "124049.300000", "124049.760000", "124050.220000", "124050.680000", "124051.140000", "124051.600000", "124052.060000", "124052.520000", "124052.980000", "124053.440000", "124053.900000", "124054.360000", "124054.820000", "124055.280000", "124055.740000", "124056.200000", "124056.660000", "124057.120000", "124057.580000", "124058.040000", "124058.500000", "124058.960000", "124059.420000", "124059.880000", "124100.340000", "124100.800000", "124101.260000", "124101.720000", "124102.180000", "124102.640000", "124103.100000", "124103.560000", "124104.020000", "124104.480000", "124104.940000", "124105.400000", "124105.860000", "124106.320000", "124106.780000", "124107.240000", "124107.700000", "124108.160000", "124108.620000", "124109.080000", "124109.540000", "124110.000000", "124110.460000", "124110.920000", "124111.380000", "124111.840000", "124112.300000", "124112.760000", "124113.220000", "124113.680000", "124114.140000", "124114.600000", "124115.060000", "124115.520000", "124115.980000", "124116.440000", "124116.900000", "124117.360000", "124117.820000", "124118.280000", "124118.740000", "124119.200000", "124119.660000", "124120.120000", "124120.580000", "124121.040000", "124121.500000", "124121.960000", "124122.420000", "124122.880000", "124123.340000", "124123.800000", "124124.260000", "124124.720000", "124125.180000", "124125.640000", "124126.100000", "124126.560000", "124127.020000", "124127.480000", "124127.940000", "124128.400000", "124128.860000", "124129.320000", "124129.780000", "124130.240000", "124130.700000", "124131.160000", "124131.620000", "124132.080000", "124132.540000", "124133.000000", "124133.460000", "124133.920000", "124134.380000", "124134.840000", "124135.300000", "124135.760000", "124136.220000", "124136.680000", "124137.140000", "124137.600000", "124138.060000", "124138.520000", "124138.980000", "124139.440000", "124139.900000", "124140.360000", "124140.820000", "124141.280000", "124141.740000", "124142.200000", "124142.660000", "124143.120000", "124143.580000", "124144.040000", "124144.500000", "124144.960000", "124145.420000", "124145.880000", "124146.340000", "124146.800000", "124147.260000", "124147.720000", "124148.180000", "124148.640000", "124149.100000", "124149.560000", "124150.020000", "124150.480000", "124150.940000", "124151.400000", "124151.860000", "124152.320000", "124152.780000", "124153.240000", "124153.700000", "124154.160000", "124154.620000", "124155.080000", "124155.540000", "124156.000000", "124156.460000", "124156.920000", "124157.380000", "124157.840000", "124158.300000", "124158.760000", "124159.220000", "124159.680000", "124200.140000", "124200.600000", "124201.060000", "124201.520000", "124201.980000", "124202.440000", "124202.900000", "124203.360000", "124203.820000", "124204.280000", "124204.740000", "124205.200000", "124205.660000", "124206.120000", "124206.580000", "124207.040000", "124207.500000", "124207.960000", "124208.420000", "124208.880000", "124209.340000", "124209.800000", "124210.260000", "124210.720000", "124211.180000", "124211.640000", "124212.100000", "124212.560000", "124213.020000", "124213.480000", "124213.940000", "124214.400000", "124214.860000", "124215.320000", "124215.780000", "124216.240000", "124216.700000", "124217.160000", "124217.620000", "124218.080000", "124218.540000", "124219.000000", "124219.460000", "124219.920000", "124220.380000", "124220.840000", "124221.300000", "124221.760000", "124222.220000", "124222.680000", "124223.140000", "124223.600000", "124224.060000", "124224.520000", "124224.980000", "124225.440000", "124225.900000", "124226.360000", "124226.820000", "124227.280000", "124227.740000", "124228.200000", "124228.660000", "124229.120000", "124229.580000", "124230.040000", "124230.500000", "124230.960000", "124231.420000", "124231.880000", "124232.340000", "124232.800000", "124233.260000", "124233.720000", "124234.180000", "124234.640000", "124235.100000", "124235.560000", "124236.020000", "124236.480000", "124236.940000", "124237.400000", "124237.860000", "124238.320000", "124238.780000", "124239.240000", "124239.700000", "124240.160000", "124240.620000", "124241.080000", "124241.540000", "124242.000000", "124242.460000", "124242.920000", "124243.380000", "124243.840000", "124244.300000", "124244.760000", "124245.220000", "124245.680000", "124246.140000", "124246.600000", "124247.060000", "124247.520000", "124247.980000", "124248.440000", "124248.900000", "124249.360000", "124249.820000", "124250.280000", "124250.740000", "124251.200000", "124251.660000", "124252.120000", "124252.580000", "124253.040000", "124253.500000", "124253.960000", "124254.420000", "124254.880000", "124255.340000", "124255.800000", "124256.260000", "124256.720000", "124257.180000", "124257.640000", "124258.100000", "124258.560000", "124259.020000", "124259.480000", "124259.940000", "124300.400000", "124300.860000", "124301.320000", "124301.780000", "124302.240000", "124302.700000", "124303.160000", "124303.620000", "124304.080000", "124304.540000", "124305.000000", "124305.460000", "124305.920000", "124306.380000", "124306.840000", "124307.300000", "124307.760000", "124308.220000", "124308.680000", "124309.140000", "124309.600000", "124310.060000", "124310.520000", "124310.980000", "124311.440000", "124311.900000", "124312.360000", "124312.820000", "124313.280000", "124313.740000", "124314.200000", "124314.660000", "124315.120000", "124315.580000", "124316.040000", "124316.500000", "124316.960000", "124317.420000", "124317.880000", "124318.340000", "124318.800000", "124319.260000", "124319.720000", "124320.180000", "124320.640000", "124321.100000", "124321.560000", "124322.020000", "124322.480000", "124322.940000", "124323.400000", "124323.860000", "124324.320000", "124324.780000", "124325.240000", "124325.700000", "124326.160000", "124326.620000", "124327.080000", "124327.540000", "124328.000000", "124328.460000", "124328.920000", "124329.380000", "124329.840000", "124330.300000", "124330.760000", "124331.220000", "124331.680000", "124332.140000", "124332.600000", "124333.060000", "124333.520000", "124333.980000", "124334.440000", "124334.900000", "124335.360000", "124335.820000", "124336.280000", "124336.740000", "124337.200000", "124337.660000", "124338.120000", "124338.580000", "124339.040000", "124339.500000", "124339.960000", "124340.420000", "124340.880000", "124341.340000", "124341.800000", "124342.260000", "124342.720000", "124343.180000", "124343.640000", "124344.100000", "124344.560000", "124345.020000", "124345.480000", "124345.940000", "124346.400000", "124346.860000", "124347.320000", "124347.780000", "124348.240000", "124348.700000", "124349.160000", "124349.620000", "124350.080000", "124350.540000", "124351.000000", "124351.460000", "124351.920000", "124352.380000", "124352.840000", "124353.300000", "124353.760000", "124354.220000", "124354.680000", "124355.140000", "124355.600000", "124356.060000", "124356.520000", "124356.980000", "124357.440000", "124357.900000", "124358.360000", "124358.820000", "124359.280000", "124359.740000", "124400.200000", "124400.660000", "124401.120000", "124401.580000", "124402.040000", "124402.500000", "124402.960000", "124403.420000", "124403.880000", "124404.340000", "124404.800000", "124405.260000", "124405.720000", "124406.180000", "124406.640000", "124407.100000", "124407.560000", "124408.020000", "124408.480000", "124408.940000", "124409.400000", "124409.860000", "124410.320000", "124410.780000", "124411.240000", "124411.700000", "124412.160000", "124412.620000", "124413.080000", "124413.540000", "124414.000000", "124414.460000", "124414.920000", "124415.380000", "124415.840000", "124416.300000", "124416.760000", "124417.220000", "124417.680000", "124418.140000", "124418.600000", "124419.060000", "124419.520000", "124419.980000", "124420.440000", "124420.900000", "124421.360000", "124421.820000", "124422.280000", "124422.740000", "124423.200000", "124423.660000", "124424.120000", "124424.580000", "124425.040000", "124425.500000", "124425.960000", "124426.420000", "124426.880000", "124427.340000", "124427.800000", "124428.260000", "124428.720000", "124429.180000", "124429.640000", "124430.100000", "124430.560000", "124431.020000", "124431.480000", "124431.940000", "124432.400000", "124432.860000", "124433.320000", "124433.780000", "124434.240000", "124434.700000", "124435.160000", "124435.620000", "124436.080000", "124436.540000", "124437.000000", "124437.460000", "124437.920000", "124438.380000", "124438.840000", "124439.300000", "124439.760000", "124440.220000", "124440.680000", "124441.140000", "124441.600000", "124442.060000", "124442.520000", "124442.980000", "124443.440000", "124443.900000", "124444.360000", "124444.820000", "124445.280000", "124445.740000", "124446.200000", "124446.660000", "124447.120000", "124447.580000", "124448.040000", "124448.500000", "124448.960000", "124449.420000", "124449.880000", "124450.340000", "124450.800000", "124451.260000", "124451.720000", "124452.180000", "124452.640000", "124453.100000", "124453.560000", "124454.020000", "124454.480000", "124454.940000", "124455.400000", "124455.860000", "124456.320000", "124456.780000", "124457.240000", "124457.700000", "124458.160000", "124458.620000", "124459.080000", "124459.540000", "124500.000000", "124500.460000", "124500.920000", "124501.380000", "124501.840000", "124502.300000", "124502.760000", "124503.220000", "124503.680000", "124504.140000", "124504.600000", "124505.060000", "124505.520000", "124505.980000", "124506.440000", "124506.900000", "124507.360000", "124507.820000", "124508.280000", "124508.740000", "124509.200000", "124509.660000", "124510.120000", "124510.580000", "124511.040000", "124511.500000", "124511.960000", "124512.420000", "124512.880000", "124513.340000", "124513.800000", "124514.260000", "124514.720000", "124515.180000", "124515.640000", "124516.100000", "124516.560000", "124517.020000", "124517.480000", "124517.940000", "124518.400000", "124518.860000", "124519.320000", "124519.780000", "124520.240000", "124520.700000", "124521.160000", "124521.620000", "124522.080000", "124522.540000", "124523.000000", "124523.460000", "124523.920000", "124524.380000", "124524.840000", "124525.300000", "124525.760000", "124526.220000", "124526.680000", "124527.140000", "124527.600000", "124528.060000", "124528.520000", "124528.980000", "124529.440000", "124529.900000", "124530.360000", "124530.820000", "124531.280000", "124531.740000", "124532.200000", "124532.660000", "124533.120000", "124533.580000", "124534.040000", "124534.500000", "124534.960000", "124535.420000", "124535.880000", "124536.340000", "124536.800000", "124537.260000", "124537.720000", "124538.180000", "124538.640000", "124539.100000", "124539.560000", "124540.020000", "124540.480000", "124540.940000", "124541.400000", "124541.860000", "124542.320000", "124542.780000", "124543.240000", "124543.700000", "124544.160000", "124544.620000", "124545.080000", "124545.540000", "124546.000000", "124546.460000", "124546.920000", "124547.380000", "124547.840000", "124548.300000", "124548.760000", "124549.220000", "124549.680000", "124550.140000", "124550.600000", "124551.060000", "124551.520000", "124551.980000", "124552.440000", "124552.900000", "124553.360000", "124553.820000", "124554.280000", "124554.740000", "124555.200000", "124555.660000", "124556.120000", "124556.580000", "124557.040000", "124557.500000", "124557.960000", "124558.420000", "124558.880000", "124559.340000", "124559.800000", "124600.260000", "124600.720000", "124601.180000", "124601.640000", "124602.100000", "124602.560000", "124603.020000", "124603.480000", "124603.940000", "124604.400000", "124604.860000", "124605.320000", "124605.780000", "124606.240000", "124606.700000", "124607.160000", "124607.620000", "124608.080000", "124608.540000", "124609.000000", "124609.460000", "124609.920000", "124610.380000", "124610.840000", "124611.300000", "124611.760000", "124612.220000", "124612.680000", "124613.140000", "124613.600000", "124614.060000", "124614.520000", "124614.980000", "124615.440000", "124615.900000", "124616.360000", "124616.820000", "124617.280000", "124617.740000", "124618.200000", "124618.660000", "124619.120000", "124619.580000", "124620.040000", "124620.500000", "124620.960000", "124621.420000", "124621.880000", "124622.340000", "124622.800000", "124623.260000", "124623.720000", "124624.180000", "124624.640000", "124625.100000", "124625.560000", "124626.020000", "124626.480000", "124626.940000", "124627.400000", "124627.860000", "124628.320000", "124628.780000", "124629.240000", "124629.700000", "124630.160000", "124630.620000", "124631.080000", "124631.540000", "124632.000000", "124632.460000", "124632.920000", "124633.380000", "124633.840000", "124634.300000", "124634.760000", "124635.220000", "124635.680000", "124636.140000", "124636.600000", "124637.060000", "124637.520000", "124637.980000", "124638.440000", "124638.900000", "124639.360000", "124639.820000", "124640.280000", "124640.740000", "124641.200000", "124641.660000", "124642.120000", "124642.580000", "124643.040000", "124643.500000", "124643.960000", "124644.420000", "124644.880000", "124645.340000", "124645.800000", "124646.260000", "124646.720000", "124647.180000", "124647.640000", "124648.100000", "124648.560000", "124649.020000", "124649.480000", "124649.940000", "124650.400000", "124650.860000", "124651.320000", "124651.780000", "124652.240000", "124652.700000", "124653.160000", "124653.620000", "124654.080000", "124654.540000", "124655.000000", "124655.460000", "124655.920000", "124656.380000", "124656.840000", "124657.300000", "124657.760000", "124658.220000", "124658.680000", "124659.140000", "124659.600000", "124700.060000", "124700.520000", "124700.980000", "124701.440000", "124701.900000", "124702.360000", "124702.820000", "124703.280000", "124703.740000", "124704.200000", "124704.660000", "124705.120000", "124705.580000", "124706.040000", "124706.500000", "124706.960000", "124707.420000", "124707.880000", "124708.340000", "124708.800000", "124709.260000", "124709.720000", "124710.180000", "124710.640000", "124711.100000", "124711.560000", "124712.020000", "124712.480000", "124712.940000", "124713.400000", "124713.860000", "124714.320000", "124714.780000", "124715.240000", "124715.700000", "124716.160000", "124716.620000", "124717.080000", "124717.540000", "124718.000000", "124718.460000", "124718.920000", "124719.380000", "124719.840000", "124720.300000"],
