{
  "AcquisitionMatrixPE": 82,
  "AcquisitionNumber": 1,
  "AcquisitionTime": "13:02:37.047500",
  "BandwidthPerPixelPhaseEncode": 24.888,
  "BaseResolution": 82,
  "BodyPartExamined": "BRAIN",
  "ConsistencyInfo": "N4_VE11C_LATEST_20160120",
  "ConversionSoftware": "dcm2niix",
  "ConversionSoftwareVersion": "v1.0.20201102",
  "DerivedVendorReportedEchoSpacing": 0.00049,
  "DeviceSerialNumber": "66112",
  "DwellTime": 2e-06,
  "EchoTime": 0.0272,
  "EchoTrainLength": 82,
  "EffectiveEchoSpacing": 0.00049,
  "FlipAngle": 44,
  "ImageComments": "Unaliased MB8/PE3",
  "ImageOrientationPatientDICOM": [0.997265, -0.0526764, 0.0518368, 0.0515664, 0.998416, 0.0225242],
  "ImageType": [
    "ORIGINAL",
    "PRIMARY",
    "M",
    "MB",
    "ND",
    "NORM",
    "MOSAIC"
],
  "ImagingFrequency": 123.252,
  "InPlanePhaseEncodingDirectionDICOM": "COL",
  "InstitutionAddress": "Maynard 3,Hanover,NH,US,03755",
  "InstitutionName": "Dartmouth College - PBS",
  "InstitutionalDepartmentName": "Department",
  "MRAcquisitionType": "2D",
  "MagneticFieldStrength": 3,
  "Manufacturer": "Siemens",
  "ManufacturersModelName": "Prisma",
  "Modality": "MR",
  "MultibandAccelerationFactor": 8,
  "PartialFourier": 1,
  "PatientPosition": "HFS",
  "PercentPhaseFOV": 100,
  "PercentSampling": 100,
  "PhaseEncodingDirection": "j-",
  "PhaseEncodingSteps": 82,
  "PhaseResolution": 1,
  "PixelBandwidth": 3050,
  "ProcedureStepDescription": "Wager_Wager^1076_spacetop",
  "ProtocolName": "func_run-04_task-social_acq-ap-mb8",
  "PulseSequenceDetails": "%CustomerSeq%\\cmrr_mbep2d_bold",
  "ReceiveCoilActiveElements": "HEA;HEP",
  "ReceiveCoilName": "Head_32",
  "ReconMatrixPE": 82,
  "RepetitionTime": 0.46,
  "SAR": 0.0880803,
  "ScanOptions": "FS",
  "ScanningSequence": "EP",
  "SequenceName": "epfid2d1_82",
  "SequenceVariant": "SK\\SS",
  "SeriesDescription": "func_run-04_task-social_acq-ap-mb8",
  "SeriesNumber": 22,
  "ShimSetting": [4149, -7717, -7290, 582, -105, -121, -74, 78],
  "SliceThickness": 2.7,
  "SliceTiming": [0, 0.2525, 0.0625, 0.315, 0.125, 0.3775, 0.1875, 0, 0.2525, 0.0625, 0.315, 0.125, 0.3775, 0.1875, 0, 0.2525, 0.0625, 0.315, 0.125, 0.3775, 0.1875, 0, 0.2525, 0.0625, 0.315, 0.125, 0.3775, 0.1875, 0, 0.2525, 0.0625, 0.315, 0.125, 0.3775, 0.1875, 0, 0.2525, 0.0625, 0.315, 0.125, 0.3775, 0.1875, 0, 0.2525, 0.0625, 0.315, 0.125, 0.3775, 0.1875, 0, 0.2525, 0.0625, 0.315, 0.125, 0.3775, 0.1875],
  "SoftwareVersions": "syngo MR E11",
  "SpacingBetweenSlices": 2.7,
  "StationName": "AWP66112",
  "TaskName": "social",
  "TotalReadoutTime": 0.03969,
  "TxRefAmp": 227.908,
  "WipMemBlock": "c2092fa8-8640-47a1-a3de-02fd4312ac80||Sequence: R016 ve11c/master r/e634e98; Dec 19 2017 11:00:25 by eja",
  "dcmmeta_affine": [
    [-2.6755900382995605, 0.13834889233112335, 0.14294123649597168, 101.7933349609375],
    [0.14132700860500336, 2.678675889968872, 0.05343172326683998, -108.76885223388672],
    [0.139074444770813, -0.060430679470300674, 2.6956841945648193, -57.40049362182617],
    [0.0, 0.0, 0.0, 1.0]
],
  "dcmmeta_reorient_transform": [
    [0.0, -1.0, 0.0, 81.0],
    [1.0, 0.0, 0.0, 0.0],
    [0.0, 0.0, 1.0, 0.0],
    [0.0, 0.0, 0.0, 1.0]
],
  "dcmmeta_shape": [82, 82, 56, 872],
  "dcmmeta_slice_dim": 2,
  "dcmmeta_version": 0.6,
  "global": {
    "const": {
      "AccessionNumber": "A003486",
      "AcquisitionMatrix": [82, 0, 0, 82],
      "AngioFlag": "N",
      "BitsAllocated": 16,
      "BitsStored": 16,
      "BodyPartExamined": "BRAIN",
      "Columns": 656,
      "EchoNumbers": 1,
      "EchoTime": 27.2,
      "EchoTrainLength": 82,
      "FlipAngle": 44.0,
      "HighBit": 15,
      "ImageOrientationPatient": [0.99726532865843, -0.0526764302794, 0.05183683968785, 0.05156640176447, 0.99841552888497, 0.02252416236863],
      "ImagePositionPatient": [-920.60004350379, -836.42301973206, -119.55335262034],
      "ImageType": [
        "ORIGINAL",
        "PRIMARY",
        "M",
        "MB",
        "ND",
        "NORM",
        "MOSAIC"
],
      "ImagedNucleus": "1H",
      "ImagingFrequency": 123.252175,
      "InPlanePhaseEncodingDirection": "COL",
      "MRAcquisitionType": "2D",
      "MagneticFieldStrength": 3.0,
      "Manufacturer": "SIEMENS",
      "ManufacturerModelName": "Prisma",
      "Modality": "MR",
      "NumberOfAverages": 1.0,
      "NumberOfPhaseEncodingSteps": 82,
      "PercentPhaseFieldOfView": 100.0,
      "PercentSampling": 100.0,
      "PerformedProcedureStepStartTime": "120017.636000",
      "PhotometricInterpretation": "MONOCHROME2",
      "PixelBandwidth": 3050.0,
      "PixelRepresentation": 0,
      "PixelSpacing": [2.6829268932343, 2.6829268932343],
      "ProtocolName": "func_run-04_task-social_acq-ap-mb8",
      "RepetitionTime": 460.0,
      "Rows": 656,
      "SAR": 0.08808027697141,
      "SamplesPerPixel": 1,
      "ScanOptions": "FS",
      "ScanningSequence": "EP",
      "SequenceName": "epfid2d1_82",
      "SequenceVariant": [
        "SK",
        "SS"
],
      "SeriesDescription": "func_run-04_task-social_acq-ap-mb8",
      "SeriesNumber": 22,
      "SeriesTime": "130300.917000",
      "SliceLocation": -54.072164331755,
      "SliceThickness": 2.7000000476837,
      "SmallestImagePixelValue": 0,
      "SoftwareVersions": "syngo MR E11",
      "SpacingBetweenSlices": 2.7000000042089,
      "SpecificCharacterSet": "ISO_IR 100",
      "StudyID": "2",
      "StudyTime": "120017.582000",
      "TransmitCoilName": "Body",
      "VariableFlipAngleFlag": "N",
      "WindowCenterWidthExplanation": "Algo1",
      "dBdt": 0.0},
    "slices": {}
  },
  "time": {
    "samples": {
      "AcquisitionNumber": [1, 2, 3, 4, 5, 6, 7, 8, 9, 10, 11, 12, 13, 14, 15, 16, 17, 18, 19, 20, 21, 22, 23, 24, 25, 26, 27, 28, 29, 30, 31, 32, 33, 34, 35, 36, 37, 38, 39, 40, 41, 42, 43, 44, 45, 46, 47, 48, 49, 50, 51, 52, 53, 54, 55, 56, 57, 58, 59, 60, 61, 62, 63, 64, 65, 66, 67, 68, 69, 70, 71, 72, 73, 74, 75, 76, 77, 78, 79, 80, 81, 82, 83, 84, 85, 86, 87, 88, 89, 90, 91, 92, 93, 94, 95, 96, 97, 98, 99, 100, 101, 102, 103, 104, 105, 106, 107, 108, 109, 110, 111, 112, 113, 114, 115, 116, 117, 118, 119, 120, 121, 122, 123, 124, 125, 126, 127, 128, 129, 130, 131, 132, 133, 134, 135, 136, 137, 138, 139, 140, 141, 142, 143, 144, 145, 146, 147, 148, 149, 150, 151, 152, 153, 154, 155, 156, 157, 158, 159, 160, 161, 162, 163, 164, 165, 166, 167, 168, 169, 170, 171, 172, 173, 174, 175, 176, 177, 178, 179, 180, 181, 182, 183, 184, 185, 186, 187, 188, 189, 190, 191, 192, 193, 194, 195, 196, 197, 198, 199, 200, 201, 202, 203, 204, 205, 206, 207, 208, 209, 210, 211, 212, 213, 214, 215, 216, 217, 218, 219, 220, 221, 222, 223, 224, 225, 226, 227, 228, 229, 230, 231, 232, 233, 234, 235, 236, 237, 238, 239, 240, 241, 242, 243, 244, 245, 246, 247, 248, 249, 250, 251, 252, 253, 254, 255, 256, 257, 258, 259, 260, 261, 262, 263, 264, 265, 266, 267, 268, 269, 270, 271, 272, 273, 274, 275, 276, 277, 278, 279, 280, 281, 282, 283, 284, 285, 286, 287, 288, 289, 290, 291, 292, 293, 294, 295, 296, 297, 298, 299, 300, 301, 302, 303, 304, 305, 306, 307, 308, 309, 310, 311, 312, 313, 314, 315, 316, 317, 318, 319, 320, 321, 322, 323, 324, 325, 326, 327, 328, 329, 330, 331, 332, 333, 334, 335, 336, 337, 338, 339, 340, 341, 342, 343, 344, 345, 346, 347, 348, 349, 350, 351, 352, 353, 354, 355, 356, 357, 358, 359, 360, 361, 362, 363, 364, 365, 366, 367, 368, 369, 370, 371, 372, 373, 374, 375, 376, 377, 378, 379, 380, 381, 382, 383, 384, 385, 386, 387, 388, 389, 390, 391, 392, 393, 394, 395, 396, 397, 398, 399, 400, 401, 402, 403, 404, 405, 406, 407, 408, 409, 410, 411, 412, 413, 414, 415, 416, 417, 418, 419, 420, 421, 422, 423, 424, 425, 426, 427, 428, 429, 430, 431, 432, 433, 434, 435, 436, 437, 438, 439, 440, 441, 442, 443, 444, 445, 446, 447, 448, 449, 450, 451, 452, 453, 454, 455, 456, 457, 458, 459, 460, 461, 462, 463, 464, 465, 466, 467, 468, 469, 470, 471, 472, 473, 474, 475, 476, 477, 478, 479, 480, 481, 482, 483, 484, 485, 486, 487, 488, 489, 490, 491, 492, 493, 494, 495, 496, 497, 498, 499, 500, 501, 502, 503, 504, 505, 506, 507, 508, 509, 510, 511, 512, 513, 514, 515, 516, 517, 518, 519, 520, 521, 522, 523, 524, 525, 526, 527, 528, 529, 530, 531, 532, 533, 534, 535, 536, 537, 538, 539, 540, 541, 542, 543, 544, 545, 546, 547, 548, 549, 550, 551, 552, 553, 554, 555, 556, 557, 558, 559, 560, 561, 562, 563, 564, 565, 566, 567, 568, 569, 570, 571, 572, 573, 574, 575, 576, 577, 578, 579, 580, 581, 582, 583, 584, 585, 586, 587, 588, 589, 590, 591, 592, 593, 594, 595, 596, 597, 598, 599, 600, 601, 602, 603, 604, 605, 606, 607, 608, 609, 610, 611, 612, 613, 614, 615, 616, 617, 618, 619, 620, 621, 622, 623, 624, 625, 626, 627, 628, 629, 630, 631, 632, 633, 634, 635, 636, 637, 638, 639, 640, 641, 642, 643, 644, 645, 646, 647, 648, 649, 650, 651, 652, 653, 654, 655, 656, 657, 658, 659, 660, 661, 662, 663, 664, 665, 666, 667, 668, 669, 670, 671, 672, 673, 674, 675, 676, 677, 678, 679, 680, 681, 682, 683, 684, 685, 686, 687, 688, 689, 690, 691, 692, 693, 694, 695, 696, 697, 698, 699, 700, 701, 702, 703, 704, 705, 706, 707, 708, 709, 710, 711, 712, 713, 714, 715, 716, 717, 718, 719, 720, 721, 722, 723, 724, 725, 726, 727, 728, 729, 730, 731, 732, 733, 734, 735, 736, 737, 738, 739, 740, 741, 742, 743, 744, 745, 746, 747, 748, 749, 750, 751, 752, 753, 754, 755, 756, 757, 758, 759, 760, 761, 762, 763, 764, 765, 766, 767, 768, 769, 770, 771, 772, 773, 774, 775, 776, 777, 778, 779, 780, 781, 782, 783, 784, 785, 786, 787, 788, 789, 790, 791, 792, 793, 794, 795, 796, 797, 798, 799, 800, 801, 802, 803, 804, 805, 806, 807, 808, 809, 810, 811, 812, 813, 814, 815, 816, 817, 818, 819, 820, 821, 822, 823, 824, 825, 826, 827, 828, 829, 830, 831, 832, 833, 834, 835, 836, 837, 838, 839, 840, 841, 842, 843, 844, 845, 846, 847, 848, 849, 850, 851, 852, 853, 854, 855, 856, 857, 858, 859, 860, 861, 862, 863, 864, 865, 866, 867, 868, 869, 870, 871, 872],
      "AcquisitionTime": ["130237.047500", "130237.507500", "130237.967500", "130238.427500", "130238.887500", "130239.347500", "130239.807500", "130240.267500", "130240.727500", "130241.187500", "130241.647500", "130242.107500", "130242.567500", "130243.027500", "130243.487500", "130243.947500", "130244.407500", "130244.867500", "130245.327500", "130245.787500", "130246.247500", "130246.707500", "130247.167500", "130247.627500", "130248.087500", "130248.547500", "130249.007500", "130249.467500", "130249.927500", "130250.387500", "130250.847500", "130251.307500", "130251.767500", "130252.227500", "130252.687500", "130253.147500", "130253.607500", "130254.067500", "130254.527500", "130254.987500", "130255.447500", "130255.907500", "130256.367500", "130256.827500", "130257.287500", "130257.747500", "130258.207500", "130258.667500", "130259.127500", "130259.587500", "130300.047500", "130300.507500", "130300.967500", "130301.427500", "130301.887500", "130302.347500", "130302.807500", "130303.267500", "130303.727500", "130304.187500", "130304.647500", "130305.107500", "130305.567500", "130306.027500", "130306.487500", "130306.947500", "130307.407500", "130307.867500", "130308.327500", "130308.787500", "130309.247500", "130309.707500", "130310.167500", "130310.627500", "130311.087500", "130311.547500", "130312.007500", "130312.467500", "130312.927500", "130313.387500", "130313.847500", "130314.307500", "130314.767500", "130315.227500", "130315.687500", "130316.147500", "130316.607500", "130317.067500", "130317.527500", "130317.987500", "130318.447500", "130318.907500", "130319.367500", "130319.827500", "130320.287500", "130320.747500", "130321.207500", "130321.667500", "130322.127500", "130322.587500", "130323.047500", "130323.507500", "130323.967500", "130324.427500", "130324.887500", "130325.347500", "130325.807500", "130326.267500", "130326.727500", "130327.187500", "130327.647500", "130328.107500", "130328.567500", "130329.027500", "130329.487500", "130329.947500", "130330.407500", "130330.867500", "130331.327500", "130331.787500", "130332.247500", "130332.707500", "130333.167500", "130333.627500", "130334.087500", "130334.547500", "130335.007500", "130335.467500", "130335.927500", "130336.387500", "130336.847500", "130337.307500", "130337.767500", "130338.227500", "130338.687500", "130339.147500", "130339.607500", "130340.067500", "130340.527500", "130340.987500", "130341.447500", "130341.907500", "130342.367500", "130342.827500", "130343.287500", "130343.747500", "130344.207500", "130344.667500", "130345.127500", "130345.587500", "130346.047500", "130346.507500", "130346.967500", "130347.427500", "130347.887500", "130348.347500", "130348.807500", "130349.267500", "130349.727500", "130350.187500", "130350.647500", "130351.107500", "130351.567500", "130352.027500", "130352.487500", "130352.947500", "130353.407500", "130353.867500", "130354.327500", "130354.787500", "130355.247500", "130355.707500", "130356.167500", "130356.627500", "130357.087500", "130357.547500", "130358.007500", "130358.467500", "130358.927500", "130359.387500", "130359.847500", "130400.307500", "130400.767500", "130401.227500", "130401.687500", "130402.147500", "130402.607500", "130403.067500", "130403.527500", "130403.987500", "130404.447500", "130404.907500", "130405.367500", "130405.827500", "130406.287500", "130406.747500", "130407.207500", "130407.667500", "130408.127500", "130408.587500", "130409.047500", "130409.507500", "130409.967500", "130410.427500", "130410.887500", "130411.347500", "130411.807500", "130412.267500", "130412.727500", "130413.187500", "130413.647500", "130414.107500", "130414.567500", "130415.027500", "130415.487500", "130415.947500", "130416.407500", "130416.867500", "130417.327500", "130417.787500", "130418.247500", "130418.707500", "130419.167500", "130419.627500", "130420.087500", "130420.547500", "130421.007500", "130421.467500", "130421.927500", "130422.387500", "130422.847500", "130423.307500", "130423.767500", "130424.227500", "130424.687500", "130425.147500", "130425.607500", "130426.067500", "130426.527500", "130426.987500", "130427.447500", "130427.907500", "130428.367500", "130428.827500", "130429.287500", "130429.747500", "130430.207500", "130430.667500", "130431.127500", "130431.587500", "130432.047500", "130432.507500", "130432.967500", "130433.427500", "130433.887500", "130434.347500", "130434.807500", "130435.267500", "130435.727500", "130436.187500", "130436.647500", "130437.107500", "130437.567500", "130438.027500", "130438.487500", "130438.947500", "130439.407500", "130439.867500", "130440.327500", "130440.787500", "130441.247500", "130441.707500", "130442.167500", "130442.627500", "130443.087500", "130443.547500", "130444.007500", "130444.467500", "130444.927500", "130445.387500", "130445.847500", "130446.307500", "130446.767500", "130447.227500", "130447.687500", "130448.147500", "130448.607500", "130449.067500", "130449.527500", "130449.987500", "130450.447500", "130450.907500", "130451.367500", "130451.827500", "130452.287500", "130452.747500", "130453.207500", "130453.667500", "130454.127500", "130454.587500", "130455.047500", "130455.507500", "130455.967500", "130456.427500", "130456.887500", "130457.347500", "130457.807500", "130458.267500", "130458.727500", "130459.187500", "130459.647500", "130500.107500", "130500.567500", "130501.027500", "130501.487500", "130501.947500", "130502.407500", "130502.867500", "130503.327500", "130503.787500", "130504.247500", "130504.707500", "130505.167500", "130505.627500", "130506.087500", "130506.547500", "130507.007500", "130507.467500", "130507.927500", "130508.387500", "130508.847500", "130509.307500", "130509.767500", "130510.227500", "130510.687500", "130511.147500", "130511.607500", "130512.067500", "130512.527500", "130512.987500", "130513.447500", "130513.907500", "130514.367500", "130514.827500", "130515.287500", "130515.747500", "130516.207500", "130516.667500", "130517.127500", "130517.587500", "130518.047500", "130518.507500", "130518.967500", "130519.427500", "130519.887500", "130520.347500", "130520.807500", "130521.267500", "130521.727500", "130522.187500", "130522.647500", "130523.107500", "130523.567500", "130524.027500", "130524.487500", "130524.947500", "130525.407500", "130525.867500", "130526.327500", "130526.787500", "130527.247500", "130527.707500", "130528.167500", "130528.627500", "130529.087500", "130529.547500", "130530.007500", "130530.467500", "130530.927500", "130531.387500", "130531.847500", "130532.307500", "130532.767500", "130533.227500", "130533.687500", "130534.147500", "130534.607500", "130535.067500", "130535.527500", "130535.987500", "130536.447500", "130536.907500", "130537.367500", "130537.827500", "130538.287500", "130538.747500", "130539.207500", "130539.667500", "130540.127500", "130540.587500", "130541.047500", "130541.507500", "130541.967500", "130542.427500", "130542.887500", "130543.347500", "130543.807500", "130544.267500", "130544.727500", "130545.187500", "130545.647500", "130546.107500", "130546.567500", "130547.027500", "130547.487500", "130547.947500", "130548.407500", "130548.867500", "130549.327500", "130549.787500", "130550.247500", "130550.707500", "130551.167500", "130551.627500", "130552.087500", "130552.547500", "130553.007500", "130553.467500", "130553.927500", "130554.387500", "130554.847500", "130555.307500", "130555.767500", "130556.227500", "130556.687500", "130557.147500", "130557.607500", "130558.067500", "130558.527500", "130558.987500", "130559.447500", "130559.907500", "130600.367500", "130600.827500", "130601.287500", "130601.747500", "130602.207500", "130602.667500", "130603.127500", "130603.587500", "130604.047500", "130604.507500", "130604.967500", "130605.427500", "130605.887500", "130606.347500", "130606.807500", "130607.267500", "130607.727500", "130608.187500", "130608.647500", "130609.107500", "130609.567500", "130610.027500", "130610.487500", "130610.947500", "130611.407500", "130611.867500", "130612.327500", "130612.787500", "130613.247500", "130613.707500", "130614.167500", "130614.627500", "130615.087500", "130615.547500", "130616.007500", "130616.467500", "130616.927500", "130617.387500", "130617.847500", "130618.307500", "130618.767500", "130619.227500", "130619.687500", "130620.147500", "130620.607500", "130621.067500", "130621.527500", "130621.987500", "130622.447500", "130622.907500", "130623.367500", "130623.827500", "130624.287500", "130624.747500", "130625.207500", "130625.667500", "130626.127500", "130626.587500", "130627.047500", "130627.507500", "130627.967500", "130628.427500", "130628.887500", "130629.347500", "130629.807500", "130630.267500", "130630.727500", "130631.187500", "130631.647500", "130632.107500", "130632.567500", "130633.027500", "130633.487500", "130633.947500", "130634.407500", "130634.867500", "130635.327500", "130635.787500", "130636.247500", "130636.707500", "130637.167500", "130637.627500", "130638.087500", "130638.547500", "130639.007500", "130639.467500", "130639.927500", "130640.387500", "130640.847500", "130641.307500", "130641.767500", "130642.227500", "130642.687500", "130643.147500", "130643.607500", "130644.067500", "130644.527500", "130644.987500", "130645.447500", "130645.907500", "130646.367500", "130646.827500", "130647.287500", "130647.747500", "130648.207500", "130648.667500", "130649.127500", "130649.587500", "130650.047500", "130650.507500", "130650.967500", "130651.427500", "130651.887500", "130652.347500", "130652.807500", "130653.267500", "130653.727500", "130654.187500", "130654.647500", "130655.107500", "130655.567500", "130656.027500", "130656.487500", "130656.947500", "130657.407500", "130657.867500", "130658.327500", "130658.787500", "130659.247500", "130659.707500", "130700.167500", "130700.627500", "130701.087500", "130701.547500", "130702.007500", "130702.467500", "130702.927500", "130703.387500", "130703.847500", "130704.307500", "130704.767500", "130705.227500", "130705.687500", "130706.147500", "130706.607500", "130707.067500", "130707.527500", "130707.987500", "130708.447500", "130708.907500", "130709.367500", "130709.827500", "130710.287500", "130710.747500", "130711.207500", "130711.667500", "130712.127500", "130712.587500", "130713.047500", "130713.507500", "130713.967500", "130714.427500", "130714.887500", "130715.347500", "130715.807500", "130716.267500", "130716.727500", "130717.187500", "130717.647500", "130718.107500", "130718.567500", "130719.027500", "130719.487500", "130719.947500", "130720.407500", "130720.867500", "130721.327500", "130721.787500", "130722.247500", "130722.707500", "130723.167500", "130723.627500", "130724.087500", "130724.547500", "130725.007500", "130725.467500", "130725.927500", "130726.387500", "130726.847500", "130727.307500", "130727.767500", "130728.227500", "130728.687500", "130729.147500", "130729.607500", "130730.067500", "130730.527500", "130730.987500", "130731.447500", "130731.907500", "130732.367500", "130732.827500", "130733.287500", "130733.747500", "130734.207500", "130734.667500", "130735.127500", "130735.587500", "130736.047500", "130736.507500", "130736.967500", "130737.427500", "130737.887500", "130738.347500", "130738.807500", "130739.267500", "130739.727500", "130740.187500", "130740.647500", "130741.107500", "130741.567500", "130742.027500", "130742.487500", "130742.947500", "130743.407500", "130743.867500", "130744.327500", "130744.787500", "130745.247500", "130745.707500", "130746.167500", "130746.627500", "130747.087500", "130747.547500", "130748.007500", "130748.467500", "130748.927500", "130749.387500", "130749.847500", "130750.307500", "130750.767500", "130751.227500", "130751.687500", "130752.147500", "130752.607500", "130753.067500", "130753.527500", "130753.987500", "130754.447500", "130754.907500", "130755.367500", "130755.827500", "130756.287500", "130756.747500", "130757.207500", "130757.667500", "130758.127500", "130758.587500", "130759.047500", "130759.507500", "130759.967500", "130800.427500", "130800.887500", "130801.347500", "130801.807500", "130802.267500", "130802.727500", "130803.187500", "130803.647500", "130804.107500", "130804.567500", "130805.027500", "130805.487500", "130805.947500", "130806.407500", "130806.867500", "130807.327500", "130807.787500", "130808.247500", "130808.707500", "130809.167500", "130809.627500", "130810.087500", "130810.547500", "130811.007500", "130811.467500", "130811.927500", "130812.387500", "130812.847500", "130813.307500", "130813.767500", "130814.227500", "130814.687500", "130815.147500", "130815.607500", "130816.067500", "130816.527500", "130816.987500", "130817.447500", "130817.907500", "130818.367500", "130818.827500", "130819.287500", "130819.747500", "130820.207500", "130820.667500", "130821.127500", "130821.587500", "130822.047500", "130822.507500", "130822.967500", "130823.427500", "130823.887500", "130824.347500", "130824.807500", "130825.267500", "130825.727500", "130826.187500", "130826.647500", "130827.107500", "130827.567500", "130828.027500", "130828.487500", "130828.947500", "130829.407500", "130829.867500", "130830.327500", "130830.787500", "130831.247500", "130831.707500", "130832.167500", "130832.627500", "130833.087500", "130833.547500", "130834.007500", "130834.467500", "130834.927500", "130835.387500", "130835.847500", "130836.307500", "130836.767500", "130837.227500", "130837.687500", "130838.147500", "130838.607500", "130839.067500", "130839.527500", "130839.987500", "130840.447500", "130840.907500", "130841.367500", "130841.827500", "130842.287500", "130842.747500", "130843.207500", "130843.667500", "130844.127500", "130844.587500", "130845.047500", "130845.507500", "130845.967500", "130846.427500", "130846.887500", "130847.347500", "130847.807500", "130848.267500", "130848.727500", "130849.187500", "130849.647500", "130850.107500", "130850.567500", "130851.027500", "130851.487500", "130851.947500", "130852.407500", "130852.867500", "130853.327500", "130853.787500", "130854.247500", "130854.707500", "130855.167500", "130855.627500", "130856.087500", "130856.547500", "130857.007500", "130857.467500", "130857.927500", "130858.387500", "130858.847500", "130859.307500", "130859.767500", "130900.227500", "130900.687500", "130901.147500", "130901.607500", "130902.067500", "130902.527500", "130902.987500", "130903.447500", "130903.907500", "130904.367500", "130904.827500", "130905.287500", "130905.747500", "130906.207500", "130906.667500", "130907.127500", "130907.587500", "130908.047500", "130908.507500", "130908.967500", "130909.427500", "130909.887500", "130910.347500", "130910.807500", "130911.267500", "130911.727500", "130912.187500", "130912.647500", "130913.107500", "130913.567500", "130914.027500", "130914.487500", "130914.947500", "130915.407500", "130915.867500", "130916.327500", "130916.787500", "130917.247500", "130917.707500"],
