{
  "AcquisitionMatrixPE": 82,
  "AcquisitionNumber": 1,
  "AcquisitionTime": "12:55:26.667500",
  "BandwidthPerPixelPhaseEncode": 24.888,
  "BaseResolution": 82,
  "BodyPartExamined": "BRAIN",
  "ConsistencyInfo": "N4_VE11E_LATEST_20181129",
  "ConversionSoftware": "dcm2niix",
  "ConversionSoftwareVersion": "v1.0.20201102",
  "DerivedVendorReportedEchoSpacing": 0.00049,
  "DeviceSerialNumber": "66112",
  "DwellTime": 2e-06,
  "EchoTime": 0.0272,
  "EchoTrainLength": 82,
  "EffectiveEchoSpacing": 0.00049,
  "FlipAngle": 44,
  "ImageComments": "Unaliased MB8/PE3",
  "ImageOrientationPatientDICOM": [0.99914, 0.0310373, 0.0274781, -0.0301774, 0.999058, -0.0311755],
  "ImageType": [
    "ORIGINAL",
    "PRIMARY",
    "M",
    "MB",
    "ND",
    "NORM",
    "MOSAIC"
],
  "ImagingFrequency": 123.252,
  "InPlanePhaseEncodingDirectionDICOM": "COL",
  "InstitutionAddress": "Maynard 3,Hanover,NH,US,03755",
  "InstitutionName": "Dartmouth College - PBS",
  "InstitutionalDepartmentName": "Department",
  "MRAcquisitionType": "2D",
  "MagneticFieldStrength": 3,
  "Manufacturer": "Siemens",
  "ManufacturersModelName": "Prisma",
  "Modality": "MR",
  "MultibandAccelerationFactor": 8,
  "PartialFourier": 1,
  "PatientPosition": "HFS",
  "PercentPhaseFOV": 100,
  "PercentSampling": 100,
  "PhaseEncodingDirection": "j-",
  "PhaseEncodingSteps": 82,
  "PhaseResolution": 1,
  "PixelBandwidth": 3050,
  "ProcedureStepDescription": "Wager_Wager^1076_spacetop",
  "ProtocolName": "func_run-03_task-social_acq-ap-mb8",
  "PulseSequenceDetails": "%CustomerSeq%\\cmrr_mbep2d_bold",
  "ReceiveCoilActiveElements": "HEA;HEP",
  "ReceiveCoilName": "Head_32",
  "ReconMatrixPE": 82,
  "RepetitionTime": 0.46,
  "SAR": 0.108179,
  "ScanOptions": "FS",
  "ScanningSequence": "EP",
  "SequenceName": "epfid2d1_82",
  "SequenceVariant": "SK\\SS",
  "SeriesDescription": "func_run-03_task-social_acq-ap-mb8",
  "SeriesNumber": 16,
  "ShimSetting": [4148, -7737, -7252, 538, -72, -279, 127, 73],
  "SliceThickness": 2.7,
  "SliceTiming": [0, 0.25, 0.0625, 0.315, 0.125, 0.3775, 0.1875, 0, 0.25, 0.0625, 0.315, 0.125, 0.3775, 0.1875, 0, 0.25, 0.0625, 0.315, 0.125, 0.3775, 0.1875, 0, 0.25, 0.0625, 0.315, 0.125, 0.3775, 0.1875, 0, 0.25, 0.0625, 0.315, 0.125, 0.3775, 0.1875, 0, 0.25, 0.0625, 0.315, 0.125, 0.3775, 0.1875, 0, 0.25, 0.0625, 0.315, 0.125, 0.3775, 0.1875, 0, 0.25, 0.0625, 0.315, 0.125, 0.3775, 0.1875],
  "SoftwareVersions": "syngo MR E11",
  "SpacingBetweenSlices": 2.7,
  "StationName": "AWP66112",
  "TaskName": "social",
  "TotalReadoutTime": 0.03969,
  "TxRefAmp": 282.93,
  "WipMemBlock": "d9e6375f-828f-498f-aba5-b300398996f2||Sequence: R016 ve11e/master r/434b28f1; Aug  7 2019 18:53:46 by eja",
  "dcmmeta_affine": [
    [-2.6806206703186035, -0.08096378296613693, 0.07673351466655731, 115.5253677368164],
    [-0.08327092230319977, 2.6804003715515137, -0.08186262100934982, -88.57644653320312],
    [0.07372171431779861, 0.08364159613847733, 2.6976675987243652, -78.37476348876953],
    [0.0, 0.0, 0.0, 1.0]
],
  "dcmmeta_reorient_transform": [
    [0.0, -1.0, 0.0, 81.0],
    [1.0, 0.0, 0.0, 0.0],
    [0.0, 0.0, 1.0, 0.0],
    [0.0, 0.0, 0.0, 1.0]
],
  "dcmmeta_shape": [82, 82, 56, 872],
  "dcmmeta_slice_dim": 2,
  "dcmmeta_version": 0.6,
  "global": {
    "const": {
      "AccessionNumber": "A004075",
      "AcquisitionMatrix": [82, 0, 0, 82],
      "AngioFlag": "N",
      "BitsAllocated": 16,
      "BitsStored": 16,
      "BodyPartExamined": "BRAIN",
      "Columns": 656,
      "EchoNumbers": 1,
      "EchoTime": 27.2,
      "EchoTrainLength": 82,
      "FlipAngle": 44.0,
      "HighBit": 15,
      "ImageOrientationPatient": [0.99914044948669, 0.03103734278268, 0.02747809222875, -0.0301774093714, 0.99905826250486, -0.0311755045572],
      "ImagePositionPatient": [-855.06885735401, -921.70960764207, -68.752784946901],
      "ImageType": [
        "ORIGINAL",
        "PRIMARY",
        "M",
        "MB",
        "ND",
        "NORM",
        "MOSAIC"
],
      "ImagedNucleus": "1H",
      "ImagingFrequency": 123.252168,
      "InPlanePhaseEncodingDirection": "COL",
      "MRAcquisitionType": "2D",
      "MagneticFieldStrength": 3.0,
      "Manufacturer": "SIEMENS",
      "ManufacturerModelName": "Prisma",
      "Modality": "MR",
      "NumberOfAverages": 1.0,
      "NumberOfPhaseEncodingSteps": 82,
      "PercentPhaseFieldOfView": 100.0,
      "PercentSampling": 100.0,
      "PerformedProcedureStepStartTime": "121839.670000",
      "PhotometricInterpretation": "MONOCHROME2",
      "PixelBandwidth": 3050.0,
      "PixelRepresentation": 0,
      "PixelSpacing": [2.6829268932343, 2.6829268932343],
      "ProtocolName": "func_run-03_task-social_acq-ap-mb8",
      "RepetitionTime": 460.0,
      "Rows": 656,
      "SAR": 0.10817915458371,
      "SamplesPerPixel": 1,
      "ScanOptions": "FS",
      "ScanningSequence": "EP",
      "SequenceName": "epfid2d1_82",
      "SequenceVariant": [
        "SK",
        "SS"
],
      "SeriesDescription": "func_run-03_task-social_acq-ap-mb8",
      "SeriesNumber": 16,
      "SeriesTime": "125556.730000",
      "SliceLocation": -72.338255022214,
      "SliceThickness": 2.7000000476837,
      "SmallestImagePixelValue": 0,
      "SoftwareVersions": "syngo MR E11",
      "SpacingBetweenSlices": 2.7000000249973,
      "SpecificCharacterSet": "ISO_IR 100",
      "StudyID": "1",
      "StudyTime": "121839.618000",
      "TransmitCoilName": "Body",
      "VariableFlipAngleFlag": "N",
      "WindowCenterWidthExplanation": "Algo1"
    },
    "slices": {}
  },
  "time": {
    "samples": {
      "AcquisitionNumber": [1, 2, 3, 4, 5, 6, 7, 8, 9, 10, 11, 12, 13, 14, 15, 16, 17, 18, 19, 20, 21, 22, 23, 24, 25, 26, 27, 28, 29, 30, 31, 32, 33, 34, 35, 36, 37, 38, 39, 40, 41, 42, 43, 44, 45, 46, 47, 48, 49, 50, 51, 52, 53, 54, 55, 56, 57, 58, 59, 60, 61, 62, 63, 64, 65, 66, 67, 68, 69, 70, 71, 72, 73, 74, 75, 76, 77, 78, 79, 80, 81, 82, 83, 84, 85, 86, 87, 88, 89, 90, 91, 92, 93, 94, 95, 96, 97, 98, 99, 100, 101, 102, 103, 104, 105, 106, 107, 108, 109, 110, 111, 112, 113, 114, 115, 116, 117, 118, 119, 120, 121, 122, 123, 124, 125, 126, 127, 128, 129, 130, 131, 132, 133, 134, 135, 136, 137, 138, 139, 140, 141, 142, 143, 144, 145, 146, 147, 148, 149, 150, 151, 152, 153, 154, 155, 156, 157, 158, 159, 160, 161, 162, 163, 164, 165, 166, 167, 168, 169, 170, 171, 172, 173, 174, 175, 176, 177, 178, 179, 180, 181, 182, 183, 184, 185, 186, 187, 188, 189, 190, 191, 192, 193, 194, 195, 196, 197, 198, 199, 200, 201, 202, 203, 204, 205, 206, 207, 208, 209, 210, 211, 212, 213, 214, 215, 216, 217, 218, 219, 220, 221, 222, 223, 224, 225, 226, 227, 228, 229, 230, 231, 232, 233, 234, 235, 236, 237, 238, 239, 240, 241, 242, 243, 244, 245, 246, 247, 248, 249, 250, 251, 252, 253, 254, 255, 256, 257, 258, 259, 260, 261, 262, 263, 264, 265, 266, 267, 268, 269, 270, 271, 272, 273, 274, 275, 276, 277, 278, 279, 280, 281, 282, 283, 284, 285, 286, 287, 288, 289, 290, 291, 292, 293, 294, 295, 296, 297, 298, 299, 300, 301, 302, 303, 304, 305, 306, 307, 308, 309, 310, 311, 312, 313, 314, 315, 316, 317, 318, 319, 320, 321, 322, 323, 324, 325, 326, 327, 328, 329, 330, 331, 332, 333, 334, 335, 336, 337, 338, 339, 340, 341, 342, 343, 344, 345, 346, 347, 348, 349, 350, 351, 352, 353, 354, 355, 356, 357, 358, 359, 360, 361, 362, 363, 364, 365, 366, 367, 368, 369, 370, 371, 372, 373, 374, 375, 376, 377, 378, 379, 380, 381, 382, 383, 384, 385, 386, 387, 388, 389, 390, 391, 392, 393, 394, 395, 396, 397, 398, 399, 400, 401, 402, 403, 404, 405, 406, 407, 408, 409, 410, 411, 412, 413, 414, 415, 416, 417, 418, 419, 420, 421, 422, 423, 424, 425, 426, 427, 428, 429, 430, 431, 432, 433, 434, 435, 436, 437, 438, 439, 440, 441, 442, 443, 444, 445, 446, 447, 448, 449, 450, 451, 452, 453, 454, 455, 456, 457, 458, 459, 460, 461, 462, 463, 464, 465, 466, 467, 468, 469, 470, 471, 472, 473, 474, 475, 476, 477, 478, 479, 480, 481, 482, 483, 484, 485, 486, 487, 488, 489, 490, 491, 492, 493, 494, 495, 496, 497, 498, 499, 500, 501, 502, 503, 504, 505, 506, 507, 508, 509, 510, 511, 512, 513, 514, 515, 516, 517, 518, 519, 520, 521, 522, 523, 524, 525, 526, 527, 528, 529, 530, 531, 532, 533, 534, 535, 536, 537, 538, 539, 540, 541, 542, 543, 544, 545, 546, 547, 548, 549, 550, 551, 552, 553, 554, 555, 556, 557, 558, 559, 560, 561, 562, 563, 564, 565, 566, 567, 568, 569, 570, 571, 572, 573, 574, 575, 576, 577, 578, 579, 580, 581, 582, 583, 584, 585, 586, 587, 588, 589, 590, 591, 592, 593, 594, 595, 596, 597, 598, 599, 600, 601, 602, 603, 604, 605, 606, 607, 608, 609, 610, 611, 612, 613, 614, 615, 616, 617, 618, 619, 620, 621, 622, 623, 624, 625, 626, 627, 628, 629, 630, 631, 632, 633, 634, 635, 636, 637, 638, 639, 640, 641, 642, 643, 644, 645, 646, 647, 648, 649, 650, 651, 652, 653, 654, 655, 656, 657, 658, 659, 660, 661, 662, 663, 664, 665, 666, 667, 668, 669, 670, 671, 672, 673, 674, 675, 676, 677, 678, 679, 680, 681, 682, 683, 684, 685, 686, 687, 688, 689, 690, 691, 692, 693, 694, 695, 696, 697, 698, 699, 700, 701, 702, 703, 704, 705, 706, 707, 708, 709, 710, 711, 712, 713, 714, 715, 716, 717, 718, 719, 720, 721, 722, 723, 724, 725, 726, 727, 728, 729, 730, 731, 732, 733, 734, 735, 736, 737, 738, 739, 740, 741, 742, 743, 744, 745, 746, 747, 748, 749, 750, 751, 752, 753, 754, 755, 756, 757, 758, 759, 760, 761, 762, 763, 764, 765, 766, 767, 768, 769, 770, 771, 772, 773, 774, 775, 776, 777, 778, 779, 780, 781, 782, 783, 784, 785, 786, 787, 788, 789, 790, 791, 792, 793, 794, 795, 796, 797, 798, 799, 800, 801, 802, 803, 804, 805, 806, 807, 808, 809, 810, 811, 812, 813, 814, 815, 816, 817, 818, 819, 820, 821, 822, 823, 824, 825, 826, 827, 828, 829, 830, 831, 832, 833, 834, 835, 836, 837, 838, 839, 840, 841, 842, 843, 844, 845, 846, 847, 848, 849, 850, 851, 852, 853, 854, 855, 856, 857, 858, 859, 860, 861, 862, 863, 864, 865, 866, 867, 868, 869, 870, 871, 872],
      "AcquisitionTime": ["125526.667500", "125527.127500", "125527.587500", "125528.047500", "125528.507500", "125528.967500", "125529.427500", "125529.887500", "125530.347500", "125530.807500", "125531.267500", "125531.727500", "125532.187500", "125532.647500", "125533.107500", "125533.567500", "125534.027500", "125534.487500", "125534.947500", "125535.407500", "125535.867500", "125536.327500", "125536.787500", "125537.247500", "125537.707500", "125538.167500", "125538.627500", "125539.087500", "125539.547500", "125540.007500", "125540.467500", "125540.927500", "125541.387500", "125541.847500", "125542.307500", "125542.767500", "125543.227500", "125543.687500", "125544.147500", "125544.607500", "125545.067500", "125545.527500", "125545.987500", "125546.447500", "125546.907500", "125547.367500", "125547.827500", "125548.287500", "125548.747500", "125549.207500", "125549.667500", "125550.127500", "125550.587500", "125551.047500", "125551.507500", "125551.967500", "125552.427500", "125552.887500", "125553.347500", "125553.807500", "125554.267500", "125554.727500", "125555.187500", "125555.647500", "125556.107500", "125556.567500", "125557.027500", "125557.487500", "125557.947500", "125558.407500", "125558.867500", "125559.327500", "125559.787500", "125600.247500", "125600.707500", "125601.167500", "125601.627500", "125602.087500", "125602.547500", "125603.007500", "125603.467500", "125603.927500", "125604.387500", "125604.847500", "125605.307500", "125605.767500", "125606.227500", "125606.687500", "125607.147500", "125607.607500", "125608.067500", "125608.527500", "125608.987500", "125609.447500", "125609.907500", "125610.367500", "125610.827500", "125611.287500", "125611.747500", "125612.207500", "125612.667500", "125613.127500", "125613.587500", "125614.047500", "125614.507500", "125614.967500", "125615.427500", "125615.887500", "125616.347500", "125616.807500", "125617.267500", "125617.727500", "125618.187500", "125618.647500", "125619.107500", "125619.567500", "125620.027500", "125620.487500", "125620.947500", "125621.407500", "125621.867500", "125622.327500", "125622.787500", "125623.247500", "125623.707500", "125624.167500", "125624.627500", "125625.087500", "125625.547500", "125626.007500", "125626.467500", "125626.927500", "125627.387500", "125627.847500", "125628.307500", "125628.767500", "125629.227500", "125629.687500", "125630.147500", "125630.607500", "125631.067500", "125631.527500", "125631.987500", "125632.447500", "125632.907500", "125633.367500", "125633.827500", "125634.287500", "125634.747500", "125635.207500", "125635.667500", "125636.127500", "125636.587500", "125637.047500", "125637.507500", "125637.967500", "125638.427500", "125638.887500", "125639.347500", "125639.807500", "125640.267500", "125640.727500", "125641.187500", "125641.647500", "125642.107500", "125642.567500", "125643.027500", "125643.487500", "125643.947500", "125644.407500", "125644.867500", "125645.327500", "125645.787500", "125646.247500", "125646.707500", "125647.167500", "125647.627500", "125648.087500", "125648.547500", "125649.007500", "125649.467500", "125649.927500", "125650.387500", "125650.847500", "125651.307500", "125651.767500", "125652.227500", "125652.687500", "125653.147500", "125653.607500", "125654.067500", "125654.527500", "125654.987500", "125655.447500", "125655.907500", "125656.367500", "125656.827500", "125657.287500", "125657.747500", "125658.207500", "125658.667500", "125659.127500", "125659.587500", "125700.047500", "125700.507500", "125700.967500", "125701.427500", "125701.887500", "125702.347500", "125702.807500", "125703.267500", "125703.727500", "125704.187500", "125704.647500", "125705.107500", "125705.567500", "125706.027500", "125706.487500", "125706.947500", "125707.407500", "125707.867500", "125708.327500", "125708.787500", "125709.247500", "125709.707500", "125710.167500", "125710.627500", "125711.087500", "125711.547500", "125712.007500", "125712.467500", "125712.927500", "125713.387500", "125713.847500", "125714.307500", "125714.767500", "125715.227500", "125715.687500", "125716.147500", "125716.607500", "125717.067500", "125717.527500", "125717.987500", "125718.447500", "125718.907500", "125719.367500", "125719.827500", "125720.287500", "125720.747500", "125721.207500", "125721.667500", "125722.127500", "125722.587500", "125723.047500", "125723.507500", "125723.967500", "125724.427500", "125724.887500", "125725.347500", "125725.807500", "125726.267500", "125726.727500", "125727.187500", "125727.647500", "125728.107500", "125728.567500", "125729.027500", "125729.487500", "125729.947500", "125730.407500", "125730.867500", "125731.327500", "125731.787500", "125732.247500", "125732.707500", "125733.167500", "125733.627500", "125734.087500", "125734.547500", "125735.007500", "125735.467500", "125735.927500", "125736.387500", "125736.847500", "125737.307500", "125737.767500", "125738.227500", "125738.687500", "125739.147500", "125739.607500", "125740.067500", "125740.527500", "125740.987500", "125741.447500", "125741.907500", "125742.367500", "125742.827500", "125743.287500", "125743.747500", "125744.207500", "125744.667500", "125745.127500", "125745.587500", "125746.047500", "125746.507500", "125746.967500", "125747.427500", "125747.887500", "125748.347500", "125748.807500", "125749.267500", "125749.727500", "125750.187500", "125750.647500", "125751.107500", "125751.567500", "125752.027500", "125752.487500", "125752.947500", "125753.407500", "125753.867500", "125754.327500", "125754.787500", "125755.247500", "125755.707500", "125756.167500", "125756.627500", "125757.087500", "125757.547500", "125758.007500", "125758.467500", "125758.927500", "125759.387500", "125759.847500", "125800.307500", "125800.767500", "125801.227500", "125801.687500", "125802.147500", "125802.607500", "125803.067500", "125803.527500", "125803.987500", "125804.447500", "125804.907500", "125805.367500", "125805.827500", "125806.287500", "125806.747500", "125807.207500", "125807.667500", "125808.127500", "125808.587500", "125809.047500", "125809.507500", "125809.967500", "125810.427500", "125810.887500", "125811.347500", "125811.807500", "125812.267500", "125812.727500", "125813.187500", "125813.647500", "125814.107500", "125814.567500", "125815.027500", "125815.487500", "125815.947500", "125816.407500", "125816.867500", "125817.327500", "125817.787500", "125818.247500", "125818.707500", "125819.167500", "125819.627500", "125820.087500", "125820.547500", "125821.007500", "125821.467500", "125821.927500", "125822.387500", "125822.847500", "125823.307500", "125823.767500", "125824.227500", "125824.687500", "125825.147500", "125825.607500", "125826.067500", "125826.527500", "125826.987500", "125827.447500", "125827.907500", "125828.367500", "125828.827500", "125829.287500", "125829.747500", "125830.207500", "125830.667500", "125831.127500", "125831.587500", "125832.047500", "125832.507500", "125832.967500", "125833.427500", "125833.887500", "125834.347500", "125834.807500", "125835.267500", "125835.727500", "125836.187500", "125836.647500", "125837.107500", "125837.567500", "125838.027500", "125838.487500", "125838.947500", "125839.407500", "125839.867500", "125840.327500", "125840.787500", "125841.247500", "125841.707500", "125842.167500", "125842.627500", "125843.087500", "125843.547500", "125844.007500", "125844.467500", "125844.927500", "125845.387500", "125845.847500", "125846.307500", "125846.767500", "125847.227500", "125847.687500", "125848.147500", "125848.607500", "125849.067500", "125849.527500", "125849.987500", "125850.447500", "125850.907500", "125851.367500", "125851.827500", "125852.287500", "125852.747500", "125853.207500", "125853.667500", "125854.127500", "125854.587500", "125855.047500", "125855.507500", "125855.967500", "125856.427500", "125856.887500", "125857.347500", "125857.807500", "125858.267500", "125858.727500", "125859.187500", "125859.647500", "125900.107500", "125900.567500", "125901.027500", "125901.487500", "125901.947500", "125902.407500", "125902.867500", "125903.327500", "125903.787500", "125904.247500", "125904.707500", "125905.167500", "125905.627500", "125906.087500", "125906.547500", "125907.007500", "125907.467500", "125907.927500", "125908.387500", "125908.847500", "125909.307500", "125909.767500", "125910.227500", "125910.687500", "125911.147500", "125911.607500", "125912.067500", "125912.527500", "125912.987500", "125913.447500", "125913.907500", "125914.367500", "125914.827500", "125915.287500", "125915.747500", "125916.207500", "125916.667500", "125917.127500", "125917.587500", "125918.047500", "125918.507500", "125918.967500", "125919.427500", "125919.887500", "125920.347500", "125920.807500", "125921.267500", "125921.727500", "125922.187500", "125922.647500", "125923.107500", "125923.567500", "125924.027500", "125924.487500", "125924.947500", "125925.407500", "125925.867500", "125926.327500", "125926.787500", "125927.247500", "125927.707500", "125928.167500", "125928.627500", "125929.087500", "125929.547500", "125930.007500", "125930.467500", "125930.927500", "125931.387500", "125931.847500", "125932.307500", "125932.767500", "125933.227500", "125933.687500", "125934.147500", "125934.607500", "125935.067500", "125935.527500", "125935.987500", "125936.447500", "125936.907500", "125937.367500", "125937.827500", "125938.287500", "125938.747500", "125939.207500", "125939.667500", "125940.127500", "125940.587500", "125941.047500", "125941.507500", "125941.967500", "125942.427500", "125942.887500", "125943.347500", "125943.807500", "125944.267500", "125944.727500", "125945.187500", "125945.647500", "125946.107500", "125946.567500", "125947.027500", "125947.487500", "125947.947500", "125948.407500", "125948.867500", "125949.327500", "125949.787500", "125950.247500", "125950.707500", "125951.167500", "125951.627500", "125952.087500", "125952.547500", "125953.007500", "125953.467500", "125953.927500", "125954.387500", "125954.847500", "125955.307500", "125955.767500", "125956.227500", "125956.687500", "125957.147500", "125957.607500", "125958.067500", "125958.527500", "125958.987500", "125959.447500", "125959.907500", "130000.367500", "130000.827500", "130001.287500", "130001.747500", "130002.207500", "130002.667500", "130003.127500", "130003.587500", "130004.047500", "130004.507500", "130004.967500", "130005.427500", "130005.887500", "130006.347500", "130006.807500", "130007.267500", "130007.727500", "130008.187500", "130008.647500", "130009.107500", "130009.567500", "130010.027500", "130010.487500", "130010.947500", "130011.407500", "130011.867500", "130012.327500", "130012.787500", "130013.247500", "130013.707500", "130014.167500", "130014.627500", "130015.087500", "130015.547500", "130016.007500", "130016.467500", "130016.927500", "130017.387500", "130017.847500", "130018.307500", "130018.767500", "130019.227500", "130019.687500", "130020.147500", "130020.607500", "130021.067500", "130021.527500", "130021.987500", "130022.447500", "130022.907500", "130023.367500", "130023.827500", "130024.287500", "130024.747500", "130025.207500", "130025.667500", "130026.127500", "130026.587500", "130027.047500", "130027.507500", "130027.967500", "130028.427500", "130028.887500", "130029.347500", "130029.807500", "130030.267500", "130030.727500", "130031.187500", "130031.647500", "130032.107500", "130032.567500", "130033.027500", "130033.487500", "130033.947500", "130034.407500", "130034.867500", "130035.327500", "130035.787500", "130036.247500", "130036.707500", "130037.167500", "130037.627500", "130038.087500", "130038.547500", "130039.007500", "130039.467500", "130039.927500", "130040.387500", "130040.847500", "130041.307500", "130041.767500", "130042.227500", "130042.687500", "130043.147500", "130043.607500", "130044.067500", "130044.527500", "130044.987500", "130045.447500", "130045.907500", "130046.367500", "130046.827500", "130047.287500", "130047.747500", "130048.207500", "130048.667500", "130049.127500", "130049.587500", "130050.047500", "130050.507500", "130050.967500", "130051.427500", "130051.887500", "130052.347500", "130052.807500", "130053.267500", "130053.727500", "130054.187500", "130054.647500", "130055.107500", "130055.567500", "130056.027500", "130056.487500", "130056.947500", "130057.407500", "130057.867500", "130058.327500", "130058.787500", "130059.247500", "130059.707500", "130100.167500", "130100.627500", "130101.087500", "130101.547500", "130102.007500", "130102.467500", "130102.927500", "130103.387500", "130103.847500", "130104.307500", "130104.767500", "130105.227500", "130105.687500", "130106.147500", "130106.607500", "130107.067500", "130107.527500", "130107.987500", "130108.447500", "130108.907500", "130109.367500", "130109.827500", "130110.287500", "130110.747500", "130111.207500", "130111.667500", "130112.127500", "130112.587500", "130113.047500", "130113.507500", "130113.967500", "130114.427500", "130114.887500", "130115.347500", "130115.807500", "130116.267500", "130116.727500", "130117.187500", "130117.647500", "130118.107500", "130118.567500", "130119.027500", "130119.487500", "130119.947500", "130120.407500", "130120.867500", "130121.327500", "130121.787500", "130122.247500", "130122.707500", "130123.167500", "130123.627500", "130124.087500", "130124.547500", "130125.007500", "130125.467500", "130125.927500", "130126.387500", "130126.847500", "130127.307500", "130127.767500", "130128.227500", "130128.687500", "130129.147500", "130129.607500", "130130.067500", "130130.527500", "130130.987500", "130131.447500", "130131.907500", "130132.367500", "130132.827500", "130133.287500", "130133.747500", "130134.207500", "130134.667500", "130135.127500", "130135.587500", "130136.047500", "130136.507500", "130136.967500", "130137.427500", "130137.887500", "130138.347500", "130138.807500", "130139.267500", "130139.727500", "130140.187500", "130140.647500", "130141.107500", "130141.567500", "130142.027500", "130142.487500", "130142.947500", "130143.407500", "130143.867500", "130144.327500", "130144.787500", "130145.247500", "130145.707500", "130146.167500", "130146.627500", "130147.087500", "130147.547500", "130148.007500", "130148.467500", "130148.927500", "130149.387500", "130149.847500", "130150.307500", "130150.767500", "130151.227500", "130151.687500", "130152.147500", "130152.607500", "130153.067500", "130153.527500", "130153.987500", "130154.447500", "130154.907500", "130155.367500", "130155.827500", "130156.287500", "130156.747500", "130157.207500", "130157.667500", "130158.127500", "130158.587500", "130159.047500", "130159.507500", "130159.967500", "130200.427500", "130200.887500", "130201.347500", "130201.807500", "130202.267500", "130202.727500", "130203.187500", "130203.647500", "130204.107500", "130204.567500", "130205.027500", "130205.487500", "130205.947500", "130206.407500", "130206.867500", "130207.327500"],
