{
  "AcquisitionMatrixPE": 82,
  "AcquisitionNumber": 1,
  "AcquisitionTime": "13:10:45.522500",
  "BandwidthPerPixelPhaseEncode": 24.888,
  "BaseResolution": 82,
  "BodyPartExamined": "BRAIN",
  "ConsistencyInfo": "N4_VE11E_LATEST_20181129",
  "ConversionSoftware": "dcm2niix",
  "ConversionSoftwareVersion": "v1.0.20201102",
  "DerivedVendorReportedEchoSpacing": 0.00049,
  "DeviceSerialNumber": "66112",
  "DwellTime": 2e-06,
  "EchoTime": 0.0272,
  "EchoTrainLength": 82,
  "EffectiveEchoSpacing": 0.00049,
  "FlipAngle": 44,
  "ImageComments": "Unaliased MB8/PE3",
  "ImageOrientationPatientDICOM": [0.99914, 0.0310373, 0.0274781, -0.0301774, 0.999058, -0.0311755],
  "ImageType": [
    "ORIGINAL",
    "PRIMARY",
    "M",
    "MB",
    "ND",
    "NORM",
    "MOSAIC"
],
  "ImagingFrequency": 123.252,
  "InPlanePhaseEncodingDirectionDICOM": "COL",
  "InstitutionAddress": "Maynard 3,Hanover,NH,US,03755",
  "InstitutionName": "Dartmouth College - PBS",
  "InstitutionalDepartmentName": "Department",
  "MRAcquisitionType": "2D",
  "MagneticFieldStrength": 3,
  "Manufacturer": "Siemens",
  "ManufacturersModelName": "Prisma",
  "Modality": "MR",
  "MultibandAccelerationFactor": 8,
  "PartialFourier": 1,
  "PatientPosition": "HFS",
  "PercentPhaseFOV": 100,
  "PercentSampling": 100,
  "PhaseEncodingDirection": "j-",
  "PhaseEncodingSteps": 82,
  "PhaseResolution": 1,
  "PixelBandwidth": 3050,
  "ProcedureStepDescription": "Wager_Wager^1076_spacetop",
  "ProtocolName": "func_run-05_task-social_acq-ap-mb8",
  "PulseSequenceDetails": "%CustomerSeq%\\cmrr_mbep2d_bold",
  "ReceiveCoilActiveElements": "HEA;HEP",
  "ReceiveCoilName": "Head_32",
  "ReconMatrixPE": 82,
  "RepetitionTime": 0.46,
  "SAR": 0.108179,
  "ScanOptions": "FS",
  "ScanningSequence": "EP",
  "SequenceName": "epfid2d1_82",
  "SequenceVariant": "SK\\SS",
  "SeriesDescription": "func_run-05_task-social_acq-ap-mb8",
  "SeriesNumber": 20,
  "ShimSetting": [4148, -7737, -7252, 538, -72, -279, 127, 73],
  "SliceThickness": 2.7,
  "SliceTiming": [0, 0.2525, 0.0625, 0.315, 0.1275, 0.3775, 0.19, 0, 0.2525, 0.0625, 0.315, 0.1275, 0.3775, 0.19, 0, 0.2525, 0.0625, 0.315, 0.1275, 0.3775, 0.19, 0, 0.2525, 0.0625, 0.315, 0.1275, 0.3775, 0.19, 0, 0.2525, 0.0625, 0.315, 0.1275, 0.3775, 0.19, 0, 0.2525, 0.0625, 0.315, 0.1275, 0.3775, 0.19, 0, 0.2525, 0.0625, 0.315, 0.1275, 0.3775, 0.19, 0, 0.2525, 0.0625, 0.315, 0.1275, 0.3775, 0.19],
  "SoftwareVersions": "syngo MR E11",
  "SpacingBetweenSlices": 2.7,
  "StationName": "AWP66112",
  "TaskName": "social",
  "TotalReadoutTime": 0.03969,
  "TxRefAmp": 282.93,
  "WipMemBlock": "c2e65c2a-57a6-42b9-a515-c53359fe758d||Sequence: R016 ve11e/master r/434b28f1; Aug  7 2019 18:53:46 by eja",
  "dcmmeta_affine": [
    [-2.6806206703186035, -0.08096378296613693, 0.07673351466655731, 115.5253677368164],
    [-0.08327092230319977, 2.6804003715515137, -0.08186262100934982, -88.57644653320312],
    [0.07372171431779861, 0.08364159613847733, 2.6976675987243652, -78.37476348876953],
    [0.0, 0.0, 0.0, 1.0]
],
  "dcmmeta_reorient_transform": [
    [0.0, -1.0, 0.0, 81.0],
    [1.0, 0.0, 0.0, 0.0],
    [0.0, 0.0, 1.0, 0.0],
    [0.0, 0.0, 0.0, 1.0]
],
  "dcmmeta_shape": [82, 82, 56, 872],
  "dcmmeta_slice_dim": 2,
  "dcmmeta_version": 0.6,
  "global": {
    "const": {
      "AccessionNumber": "A004075",
      "AcquisitionMatrix": [82, 0, 0, 82],
      "AngioFlag": "N",
      "BitsAllocated": 16,
      "BitsStored": 16,
      "BodyPartExamined": "BRAIN",
      "Columns": 656,
      "EchoNumbers": 1,
      "EchoTime": 27.2,
      "EchoTrainLength": 82,
      "FlipAngle": 44.0,
      "HighBit": 15,
      "ImageOrientationPatient": [0.99914044948669, 0.03103734278268, 0.02747809222875, -0.0301774093714, 0.99905826250486, -0.0311755045572],
      "ImagePositionPatient": [-855.06885735401, -921.70960764207, -68.752784946901],
      "ImageType": [
        "ORIGINAL",
        "PRIMARY",
        "M",
        "MB",
        "ND",
        "NORM",
        "MOSAIC"
],
      "ImagedNucleus": "1H",
      "ImagingFrequency": 123.252176,
      "InPlanePhaseEncodingDirection": "COL",
      "MRAcquisitionType": "2D",
      "MagneticFieldStrength": 3.0,
      "Manufacturer": "SIEMENS",
      "ManufacturerModelName": "Prisma",
      "Modality": "MR",
      "NumberOfAverages": 1.0,
      "NumberOfPhaseEncodingSteps": 82,
      "PercentPhaseFieldOfView": 100.0,
      "PercentSampling": 100.0,
      "PerformedProcedureStepStartTime": "121839.670000",
      "PhotometricInterpretation": "MONOCHROME2",
      "PixelBandwidth": 3050.0,
      "PixelRepresentation": 0,
      "PixelSpacing": [2.6829268932343, 2.6829268932343],
      "ProtocolName": "func_run-05_task-social_acq-ap-mb8",
      "RepetitionTime": 460.0,
      "Rows": 656,
      "SAR": 0.10817915458371,
      "SamplesPerPixel": 1,
      "ScanOptions": "FS",
      "ScanningSequence": "EP",
      "SequenceName": "epfid2d1_82",
      "SequenceVariant": [
        "SK",
        "SS"
],
      "SeriesDescription": "func_run-05_task-social_acq-ap-mb8",
      "SeriesNumber": 20,
      "SeriesTime": "131056.910000",
      "SliceLocation": -72.338255022214,
      "SliceThickness": 2.7000000476837,
      "SmallestImagePixelValue": 0,
      "SoftwareVersions": "syngo MR E11",
      "SpacingBetweenSlices": 2.7000000249973,
      "SpecificCharacterSet": "ISO_IR 100",
      "StudyID": "1",
      "StudyTime": "121839.618000",
      "TransmitCoilName": "Body",
      "VariableFlipAngleFlag": "N",
      "WindowCenterWidthExplanation": "Algo1"
    },
    "slices": {}
  },
  "time": {
    "samples": {
      "AcquisitionNumber": [1, 2, 3, 4, 5, 6, 7, 8, 9, 10, 11, 12, 13, 14, 15, 16, 17, 18, 19, 20, 21, 22, 23, 24, 25, 26, 27, 28, 29, 30, 31, 32, 33, 34, 35, 36, 37, 38, 39, 40, 41, 42, 43, 44, 45, 46, 47, 48, 49, 50, 51, 52, 53, 54, 55, 56, 57, 58, 59, 60, 61, 62, 63, 64, 65, 66, 67, 68, 69, 70, 71, 72, 73, 74, 75, 76, 77, 78, 79, 80, 81, 82, 83, 84, 85, 86, 87, 88, 89, 90, 91, 92, 93, 94, 95, 96, 97, 98, 99, 100, 101, 102, 103, 104, 105, 106, 107, 108, 109, 110, 111, 112, 113, 114, 115, 116, 117, 118, 119, 120, 121, 122, 123, 124, 125, 126, 127, 128, 129, 130, 131, 132, 133, 134, 135, 136, 137, 138, 139, 140, 141, 142, 143, 144, 145, 146, 147, 148, 149, 150, 151, 152, 153, 154, 155, 156, 157, 158, 159, 160, 161, 162, 163, 164, 165, 166, 167, 168, 169, 170, 171, 172, 173, 174, 175, 176, 177, 178, 179, 180, 181, 182, 183, 184, 185, 186, 187, 188, 189, 190, 191, 192, 193, 194, 195, 196, 197, 198, 199, 200, 201, 202, 203, 204, 205, 206, 207, 208, 209, 210, 211, 212, 213, 214, 215, 216, 217, 218, 219, 220, 221, 222, 223, 224, 225, 226, 227, 228, 229, 230, 231, 232, 233, 234, 235, 236, 237, 238, 239, 240, 241, 242, 243, 244, 245, 246, 247, 248, 249, 250, 251, 252, 253, 254, 255, 256, 257, 258, 259, 260, 261, 262, 263, 264, 265, 266, 267, 268, 269, 270, 271, 272, 273, 274, 275, 276, 277, 278, 279, 280, 281, 282, 283, 284, 285, 286, 287, 288, 289, 290, 291, 292, 293, 294, 295, 296, 297, 298, 299, 300, 301, 302, 303, 304, 305, 306, 307, 308, 309, 310, 311, 312, 313, 314, 315, 316, 317, 318, 319, 320, 321, 322, 323, 324, 325, 326, 327, 328, 329, 330, 331, 332, 333, 334, 335, 336, 337, 338, 339, 340, 341, 342, 343, 344, 345, 346, 347, 348, 349, 350, 351, 352, 353, 354, 355, 356, 357, 358, 359, 360, 361, 362, 363, 364, 365, 366, 367, 368, 369, 370, 371, 372, 373, 374, 375, 376, 377, 378, 379, 380, 381, 382, 383, 384, 385, 386, 387, 388, 389, 390, 391, 392, 393, 394, 395, 396, 397, 398, 399, 400, 401, 402, 403, 404, 405, 406, 407, 408, 409, 410, 411, 412, 413, 414, 415, 416, 417, 418, 419, 420, 421, 422, 423, 424, 425, 426, 427, 428, 429, 430, 431, 432, 433, 434, 435, 436, 437, 438, 439, 440, 441, 442, 443, 444, 445, 446, 447, 448, 449, 450, 451, 452, 453, 454, 455, 456, 457, 458, 459, 460, 461, 462, 463, 464, 465, 466, 467, 468, 469, 470, 471, 472, 473, 474, 475, 476, 477, 478, 479, 480, 481, 482, 483, 484, 485, 486, 487, 488, 489, 490, 491, 492, 493, 494, 495, 496, 497, 498, 499, 500, 501, 502, 503, 504, 505, 506, 507, 508, 509, 510, 511, 512, 513, 514, 515, 516, 517, 518, 519, 520, 521, 522, 523, 524, 525, 526, 527, 528, 529, 530, 531, 532, 533, 534, 535, 536, 537, 538, 539, 540, 541, 542, 543, 544, 545, 546, 547, 548, 549, 550, 551, 552, 553, 554, 555, 556, 557, 558, 559, 560, 561, 562, 563, 564, 565, 566, 567, 568, 569, 570, 571, 572, 573, 574, 575, 576, 577, 578, 579, 580, 581, 582, 583, 584, 585, 586, 587, 588, 589, 590, 591, 592, 593, 594, 595, 596, 597, 598, 599, 600, 601, 602, 603, 604, 605, 606, 607, 608, 609, 610, 611, 612, 613, 614, 615, 616, 617, 618, 619, 620, 621, 622, 623, 624, 625, 626, 627, 628, 629, 630, 631, 632, 633, 634, 635, 636, 637, 638, 639, 640, 641, 642, 643, 644, 645, 646, 647, 648, 649, 650, 651, 652, 653, 654, 655, 656, 657, 658, 659, 660, 661, 662, 663, 664, 665, 666, 667, 668, 669, 670, 671, 672, 673, 674, 675, 676, 677, 678, 679, 680, 681, 682, 683, 684, 685, 686, 687, 688, 689, 690, 691, 692, 693, 694, 695, 696, 697, 698, 699, 700, 701, 702, 703, 704, 705, 706, 707, 708, 709, 710, 711, 712, 713, 714, 715, 716, 717, 718, 719, 720, 721, 722, 723, 724, 725, 726, 727, 728, 729, 730, 731, 732, 733, 734, 735, 736, 737, 738, 739, 740, 741, 742, 743, 744, 745, 746, 747, 748, 749, 750, 751, 752, 753, 754, 755, 756, 757, 758, 759, 760, 761, 762, 763, 764, 765, 766, 767, 768, 769, 770, 771, 772, 773, 774, 775, 776, 777, 778, 779, 780, 781, 782, 783, 784, 785, 786, 787, 788, 789, 790, 791, 792, 793, 794, 795, 796, 797, 798, 799, 800, 801, 802, 803, 804, 805, 806, 807, 808, 809, 810, 811, 812, 813, 814, 815, 816, 817, 818, 819, 820, 821, 822, 823, 824, 825, 826, 827, 828, 829, 830, 831, 832, 833, 834, 835, 836, 837, 838, 839, 840, 841, 842, 843, 844, 845, 846, 847, 848, 849, 850, 851, 852, 853, 854, 855, 856, 857, 858, 859, 860, 861, 862, 863, 864, 865, 866, 867, 868, 869, 870, 871, 872],
      "AcquisitionTime": ["131045.522500", "131045.982500", "131046.442500", "131046.902500", "131047.362500", "131047.822500", "131048.282500", "131048.742500", "131049.202500", "131049.662500", "131050.122500", "131050.582500", "131051.042500", "131051.502500", "131051.962500", "131052.422500", "131052.882500", "131053.342500", "131053.802500", "131054.262500", "131054.722500", "131055.182500", "131055.642500", "131056.102500", "131056.562500", "131057.022500", "131057.482500", "131057.942500", "131058.402500", "131058.862500", "131059.322500", "131059.782500", "131100.242500", "131100.702500", "131101.162500", "131101.622500", "131102.082500", "131102.542500", "131103.002500", "131103.462500", "131103.922500", "131104.382500", "131104.842500", "131105.302500", "131105.762500", "131106.222500", "131106.682500", "131107.142500", "131107.602500", "131108.062500", "131108.522500", "131108.982500", "131109.442500", "131109.902500", "131110.362500", "131110.822500", "131111.282500", "131111.742500", "131112.202500", "131112.662500", "131113.122500", "131113.582500", "131114.042500", "131114.502500", "131114.962500", "131115.422500", "131115.882500", "131116.342500", "131116.802500", "131117.262500", "131117.722500", "131118.182500", "131118.642500", "131119.102500", "131119.562500", "131120.022500", "131120.482500", "131120.942500", "131121.402500", "131121.862500", "131122.322500", "131122.782500", "131123.242500", "131123.702500", "131124.162500", "131124.622500", "131125.082500", "131125.542500", "131126.002500", "131126.462500", "131126.922500", "131127.382500", "131127.842500", "131128.302500", "131128.762500", "131129.222500", "131129.682500", "131130.142500", "131130.602500", "131131.062500", "131131.522500", "131131.982500", "131132.442500", "131132.902500", "131133.362500", "131133.822500", "131134.282500", "131134.742500", "131135.202500", "131135.662500", "131136.122500", "131136.582500", "131137.042500", "131137.502500", "131137.962500", "131138.422500", "131138.882500", "131139.342500", "131139.802500", "131140.262500", "131140.722500", "131141.182500", "131141.642500", "131142.102500", "131142.562500", "131143.022500", "131143.482500", "131143.942500", "131144.402500", "131144.862500", "131145.322500", "131145.782500", "131146.242500", "131146.702500", "131147.162500", "131147.622500", "131148.082500", "131148.542500", "131149.002500", "131149.462500", "131149.922500", "131150.382500", "131150.842500", "131151.302500", "131151.762500", "131152.222500", "131152.682500", "131153.142500", "131153.602500", "131154.062500", "131154.522500", "131154.982500", "131155.442500", "131155.902500", "131156.362500", "131156.822500", "131157.282500", "131157.742500", "131158.202500", "131158.662500", "131159.122500", "131159.582500", "131200.042500", "131200.502500", "131200.962500", "131201.422500", "131201.882500", "131202.342500", "131202.802500", "131203.262500", "131203.722500", "131204.182500", "131204.642500", "131205.102500", "131205.562500", "131206.022500", "131206.482500", "131206.942500", "131207.402500", "131207.862500", "131208.322500", "131208.782500", "131209.242500", "131209.702500", "131210.162500", "131210.622500", "131211.082500", "131211.542500", "131212.002500", "131212.462500", "131212.922500", "131213.382500", "131213.842500", "131214.302500", "131214.762500", "131215.222500", "131215.682500", "131216.142500", "131216.602500", "131217.062500", "131217.522500", "131217.982500", "131218.442500", "131218.902500", "131219.362500", "131219.822500", "131220.282500", "131220.742500", "131221.202500", "131221.662500", "131222.122500", "131222.582500", "131223.042500", "131223.502500", "131223.962500", "131224.422500", "131224.882500", "131225.342500", "131225.802500", "131226.262500", "131226.722500", "131227.182500", "131227.642500", "131228.102500", "131228.562500", "131229.022500", "131229.482500", "131229.942500", "131230.402500", "131230.862500", "131231.322500", "131231.782500", "131232.242500", "131232.702500", "131233.162500", "131233.622500", "131234.082500", "131234.542500", "131235.002500", "131235.462500", "131235.922500", "131236.382500", "131236.842500", "131237.302500", "131237.762500", "131238.222500", "131238.682500", "131239.142500", "131239.602500", "131240.062500", "131240.522500", "131240.982500", "131241.442500", "131241.902500", "131242.362500", "131242.822500", "131243.282500", "131243.742500", "131244.202500", "131244.662500", "131245.122500", "131245.582500", "131246.042500", "131246.502500", "131246.962500", "131247.422500", "131247.882500", "131248.342500", "131248.802500", "131249.262500", "131249.722500", "131250.182500", "131250.642500", "131251.102500", "131251.562500", "131252.022500", "131252.482500", "131252.942500", "131253.402500", "131253.862500", "131254.322500", "131254.782500", "131255.242500", "131255.702500", "131256.162500", "131256.622500", "131257.082500", "131257.542500", "131258.002500", "131258.462500", "131258.922500", "131259.382500", "131259.842500", "131300.302500", "131300.762500", "131301.222500", "131301.682500", "131302.142500", "131302.602500", "131303.062500", "131303.522500", "131303.982500", "131304.442500", "131304.902500", "131305.362500", "131305.822500", "131306.282500", "131306.742500", "131307.202500", "131307.662500", "131308.122500", "131308.582500", "131309.042500", "131309.502500", "131309.962500", "131310.422500", "131310.882500", "131311.342500", "131311.802500", "131312.262500", "131312.722500", "131313.182500", "131313.642500", "131314.102500", "131314.562500", "131315.022500", "131315.482500", "131315.942500", "131316.402500", "131316.862500", "131317.322500", "131317.782500", "131318.242500", "131318.702500", "131319.162500", "131319.622500", "131320.082500", "131320.542500", "131321.002500", "131321.462500", "131321.922500", "131322.382500", "131322.842500", "131323.302500", "131323.762500", "131324.222500", "131324.682500", "131325.142500", "131325.602500", "131326.062500", "131326.522500", "131326.982500", "131327.442500", "131327.902500", "131328.362500", "131328.822500", "131329.282500", "131329.742500", "131330.202500", "131330.662500", "131331.122500", "131331.582500", "131332.042500", "131332.502500", "131332.962500", "131333.422500", "131333.882500", "131334.342500", "131334.802500", "131335.262500", "131335.722500", "131336.182500", "131336.642500", "131337.102500", "131337.562500", "131338.022500", "131338.482500", "131338.942500", "131339.402500", "131339.862500", "131340.322500", "131340.782500", "131341.242500", "131341.702500", "131342.162500", "131342.622500", "131343.082500", "131343.542500", "131344.002500", "131344.462500", "131344.922500", "131345.382500", "131345.842500", "131346.302500", "131346.762500", "131347.222500", "131347.682500", "131348.142500", "131348.602500", "131349.062500", "131349.522500", "131349.982500", "131350.442500", "131350.902500", "131351.362500", "131351.822500", "131352.282500", "131352.742500", "131353.202500", "131353.662500", "131354.122500", "131354.582500", "131355.042500", "131355.502500", "131355.962500", "131356.422500", "131356.882500", "131357.342500", "131357.802500", "131358.262500", "131358.722500", "131359.182500", "131359.642500", "131400.102500", "131400.562500", "131401.022500", "131401.482500", "131401.942500", "131402.402500", "131402.862500", "131403.322500", "131403.782500", "131404.242500", "131404.702500", "131405.162500", "131405.622500", "131406.082500", "131406.542500", "131407.002500", "131407.462500", "131407.922500", "131408.382500", "131408.842500", "131409.302500", "131409.762500", "131410.222500", "131410.682500", "131411.142500", "131411.602500", "131412.062500", "131412.522500", "131412.982500", "131413.442500", "131413.902500", "131414.362500", "131414.822500", "131415.282500", "131415.742500", "131416.202500", "131416.662500", "131417.122500", "131417.582500", "131418.042500", "131418.502500", "131418.962500", "131419.422500", "131419.882500", "131420.342500", "131420.802500", "131421.262500", "131421.722500", "131422.182500", "131422.642500", "131423.102500", "131423.562500", "131424.022500", "131424.482500", "131424.942500", "131425.402500", "131425.862500", "131426.322500", "131426.782500", "131427.242500", "131427.702500", "131428.162500", "131428.622500", "131429.082500", "131429.542500", "131430.002500", "131430.462500", "131430.922500", "131431.382500", "131431.842500", "131432.302500", "131432.762500", "131433.222500", "131433.682500", "131434.142500", "131434.602500", "131435.062500", "131435.522500", "131435.982500", "131436.442500", "131436.902500", "131437.362500", "131437.822500", "131438.282500", "131438.742500", "131439.202500", "131439.662500", "131440.122500", "131440.582500", "131441.042500", "131441.502500", "131441.962500", "131442.422500", "131442.882500", "131443.342500", "131443.802500", "131444.262500", "131444.722500", "131445.182500", "131445.642500", "131446.102500", "131446.562500", "131447.022500", "131447.482500", "131447.942500", "131448.402500", "131448.862500", "131449.322500", "131449.782500", "131450.242500", "131450.702500", "131451.162500", "131451.622500", "131452.082500", "131452.542500", "131453.002500", "131453.462500", "131453.922500", "131454.382500", "131454.842500", "131455.302500", "131455.762500", "131456.222500", "131456.682500", "131457.142500", "131457.602500", "131458.062500", "131458.522500", "131458.982500", "131459.442500", "131459.902500", "131500.362500", "131500.822500", "131501.282500", "131501.742500", "131502.202500", "131502.662500", "131503.122500", "131503.582500", "131504.042500", "131504.502500", "131504.962500", "131505.422500", "131505.882500", "131506.342500", "131506.802500", "131507.262500", "131507.722500", "131508.182500", "131508.642500", "131509.102500", "131509.562500", "131510.022500", "131510.482500", "131510.942500", "131511.402500", "131511.862500", "131512.322500", "131512.782500", "131513.242500", "131513.702500", "131514.162500", "131514.622500", "131515.082500", "131515.542500", "131516.002500", "131516.462500", "131516.922500", "131517.382500", "131517.842500", "131518.302500", "131518.762500", "131519.222500", "131519.682500", "131520.142500", "131520.602500", "131521.062500", "131521.522500", "131521.982500", "131522.442500", "131522.902500", "131523.362500", "131523.822500", "131524.282500", "131524.742500", "131525.202500", "131525.662500", "131526.122500", "131526.582500", "131527.042500", "131527.502500", "131527.962500", "131528.422500", "131528.882500", "131529.342500", "131529.802500", "131530.262500", "131530.722500", "131531.182500", "131531.642500", "131532.102500", "131532.562500", "131533.022500", "131533.482500", "131533.942500", "131534.402500", "131534.862500", "131535.322500", "131535.782500", "131536.242500", "131536.702500", "131537.162500", "131537.622500", "131538.082500", "131538.542500", "131539.002500", "131539.462500", "131539.922500", "131540.382500", "131540.842500", "131541.302500", "131541.762500", "131542.222500", "131542.682500", "131543.142500", "131543.602500", "131544.062500", "131544.522500", "131544.982500", "131545.442500", "131545.902500", "131546.362500", "131546.822500", "131547.282500", "131547.742500", "131548.202500", "131548.662500", "131549.122500", "131549.582500", "131550.042500", "131550.502500", "131550.962500", "131551.422500", "131551.882500", "131552.342500", "131552.802500", "131553.262500", "131553.722500", "131554.182500", "131554.642500", "131555.102500", "131555.562500", "131556.022500", "131556.482500", "131556.942500", "131557.402500", "131557.862500", "131558.322500", "131558.782500", "131559.242500", "131559.702500", "131600.162500", "131600.622500", "131601.082500", "131601.542500", "131602.002500", "131602.462500", "131602.922500", "131603.382500", "131603.842500", "131604.302500", "131604.762500", "131605.222500", "131605.682500", "131606.142500", "131606.602500", "131607.062500", "131607.522500", "131607.982500", "131608.442500", "131608.902500", "131609.362500", "131609.822500", "131610.282500", "131610.742500", "131611.202500", "131611.662500", "131612.122500", "131612.582500", "131613.042500", "131613.502500", "131613.962500", "131614.422500", "131614.882500", "131615.342500", "131615.802500", "131616.262500", "131616.722500", "131617.182500", "131617.642500", "131618.102500", "131618.562500", "131619.022500", "131619.482500", "131619.942500", "131620.402500", "131620.862500", "131621.322500", "131621.782500", "131622.242500", "131622.702500", "131623.162500", "131623.622500", "131624.082500", "131624.542500", "131625.002500", "131625.462500", "131625.922500", "131626.382500", "131626.842500", "131627.302500", "131627.762500", "131628.222500", "131628.682500", "131629.142500", "131629.602500", "131630.062500", "131630.522500", "131630.982500", "131631.442500", "131631.902500", "131632.362500", "131632.822500", "131633.282500", "131633.742500", "131634.202500", "131634.662500", "131635.122500", "131635.582500", "131636.042500", "131636.502500", "131636.962500", "131637.422500", "131637.882500", "131638.342500", "131638.802500", "131639.262500", "131639.722500", "131640.182500", "131640.642500", "131641.102500", "131641.562500", "131642.022500", "131642.482500", "131642.942500", "131643.402500", "131643.862500", "131644.322500", "131644.782500", "131645.242500", "131645.702500", "131646.162500", "131646.622500", "131647.082500", "131647.542500", "131648.002500", "131648.462500", "131648.922500", "131649.382500", "131649.842500", "131650.302500", "131650.762500", "131651.222500", "131651.682500", "131652.142500", "131652.602500", "131653.062500", "131653.522500", "131653.982500", "131654.442500", "131654.902500", "131655.362500", "131655.822500", "131656.282500", "131656.742500", "131657.202500", "131657.662500", "131658.122500", "131658.582500", "131659.042500", "131659.502500", "131659.962500", "131700.422500", "131700.882500", "131701.342500", "131701.802500", "131702.262500", "131702.722500", "131703.182500", "131703.642500", "131704.102500", "131704.562500", "131705.022500", "131705.482500", "131705.942500", "131706.402500", "131706.862500", "131707.322500", "131707.782500", "131708.242500", "131708.702500", "131709.162500", "131709.622500", "131710.082500", "131710.542500", "131711.002500", "131711.462500", "131711.922500", "131712.382500", "131712.842500", "131713.302500", "131713.762500", "131714.222500", "131714.682500", "131715.142500", "131715.602500", "131716.062500", "131716.522500", "131716.982500", "131717.442500", "131717.902500", "131718.362500", "131718.822500", "131719.282500", "131719.742500", "131720.202500", "131720.662500", "131721.122500", "131721.582500", "131722.042500", "131722.502500", "131722.962500", "131723.422500", "131723.882500", "131724.342500", "131724.802500", "131725.262500", "131725.722500", "131726.182500"],
