{
  "AcquisitionMatrixPE": 82,
  "AcquisitionNumber": 1,
  "AcquisitionTime": "13:18:31.885000",
  "BandwidthPerPixelPhaseEncode": 24.888,
  "BaseResolution": 82,
  "BodyPartExamined": "BRAIN",
  "ConsistencyInfo": "N4_VE11E_LATEST_20181129",
  "ConversionSoftware": "dcm2niix",
  "ConversionSoftwareVersion": "v1.0.20201102",
  "DerivedVendorReportedEchoSpacing": 0.00049,
  "DeviceSerialNumber": "66112",
  "DwellTime": 2e-06,
  "EchoTime": 0.0272,
  "EchoTrainLength": 82,
  "EffectiveEchoSpacing": 0.00049,
  "FlipAngle": 44,
  "ImageComments": "Unaliased MB8/PE3",
  "ImageOrientationPatientDICOM": [0.99914, 0.0310373, 0.0274781, -0.0301774, 0.999058, -0.0311755],
  "ImageType": [
    "ORIGINAL",
    "PRIMARY",
    "M",
    "MB",
    "ND",
    "NORM",
    "MOSAIC"
],
  "ImagingFrequency": 123.252,
  "InPlanePhaseEncodingDirectionDICOM": "COL",
  "InstitutionAddress": "Maynard 3,Hanover,NH,US,03755",
  "InstitutionName": "Dartmouth College - PBS",
  "InstitutionalDepartmentName": "Department",
  "MRAcquisitionType": "2D",
  "MagneticFieldStrength": 3,
  "Manufacturer": "Siemens",
  "ManufacturersModelName": "Prisma",
  "Modality": "MR",
  "MultibandAccelerationFactor": 8,
  "PartialFourier": 1,
  "PatientPosition": "HFS",
  "PercentPhaseFOV": 100,
  "PercentSampling": 100,
  "PhaseEncodingDirection": "j-",
  "PhaseEncodingSteps": 82,
  "PhaseResolution": 1,
  "PixelBandwidth": 3050,
  "ProcedureStepDescription": "Wager_Wager^1076_spacetop",
  "ProtocolName": "func_run-06_task-social_acq-ap-mb8",
  "PulseSequenceDetails": "%CustomerSeq%\\cmrr_mbep2d_bold",
  "ReceiveCoilActiveElements": "HEA;HEP",
  "ReceiveCoilName": "Head_32",
  "ReconMatrixPE": 82,
  "RepetitionTime": 0.46,
  "SAR": 0.108179,
  "ScanOptions": "FS",
  "ScanningSequence": "EP",
  "SequenceName": "epfid2d1_82",
  "SequenceVariant": "SK\\SS",
  "SeriesDescription": "func_run-06_task-social_acq-ap-mb8",
  "SeriesNumber": 22,
  "ShimSetting": [4148, -7737, -7252, 538, -72, -279, 127, 73],
  "SliceThickness": 2.7,
  "SliceTiming": [0, 0.25, 0.0625, 0.315, 0.125, 0.3775, 0.1875, 0, 0.25, 0.0625, 0.315, 0.125, 0.3775, 0.1875, 0, 0.25, 0.0625, 0.315, 0.125, 0.3775, 0.1875, 0, 0.25, 0.0625, 0.315, 0.125, 0.3775, 0.1875, 0, 0.25, 0.0625, 0.315, 0.125, 0.3775, 0.1875, 0, 0.25, 0.0625, 0.315, 0.125, 0.3775, 0.1875, 0, 0.25, 0.0625, 0.315, 0.125, 0.3775, 0.1875, 0, 0.25, 0.0625, 0.315, 0.125, 0.3775, 0.1875],
  "SoftwareVersions": "syngo MR E11",
  "SpacingBetweenSlices": 2.7,
  "StationName": "AWP66112",
  "TaskName": "social",
  "TotalReadoutTime": 0.03969,
  "TxRefAmp": 282.93,
  "WipMemBlock": "25eea2a4-365e-4400-894e-53c17c2ac1bf||Sequence: R016 ve11e/master r/434b28f1; Aug  7 2019 18:53:46 by eja",
  "dcmmeta_affine": [
    [-2.6806206703186035, -0.08096378296613693, 0.07673351466655731, 115.5253677368164],
    [-0.08327092230319977, 2.6804003715515137, -0.08186262100934982, -88.57644653320312],
    [0.07372171431779861, 0.08364159613847733, 2.6976675987243652, -78.37476348876953],
    [0.0, 0.0, 0.0, 1.0]
],
  "dcmmeta_reorient_transform": [
    [0.0, -1.0, 0.0, 81.0],
    [1.0, 0.0, 0.0, 0.0],
    [0.0, 0.0, 1.0, 0.0],
    [0.0, 0.0, 0.0, 1.0]
],
  "dcmmeta_shape": [82, 82, 56, 872],
  "dcmmeta_slice_dim": 2,
  "dcmmeta_version": 0.6,
  "global": {
    "const": {
      "AccessionNumber": "A004075",
      "AcquisitionMatrix": [82, 0, 0, 82],
      "AngioFlag": "N",
      "BitsAllocated": 16,
      "BitsStored": 16,
      "BodyPartExamined": "BRAIN",
      "Columns": 656,
      "EchoNumbers": 1,
      "EchoTime": 27.2,
      "EchoTrainLength": 82,
      "FlipAngle": 44.0,
      "HighBit": 15,
      "ImageOrientationPatient": [0.99914044948669, 0.03103734278268, 0.02747809222875, -0.0301774093714, 0.99905826250486, -0.0311755045572],
      "ImagePositionPatient": [-855.06885735401, -921.70960764207, -68.752784946901],
      "ImageType": [
        "ORIGINAL",
        "PRIMARY",
        "M",
        "MB",
        "ND",
        "NORM",
        "MOSAIC"
],
      "ImagedNucleus": "1H",
      "ImagingFrequency": 123.252174,
      "InPlanePhaseEncodingDirection": "COL",
      "MRAcquisitionType": "2D",
      "MagneticFieldStrength": 3.0,
      "Manufacturer": "SIEMENS",
      "ManufacturerModelName": "Prisma",
      "Modality": "MR",
      "NumberOfAverages": 1.0,
      "NumberOfPhaseEncodingSteps": 82,
      "PercentPhaseFieldOfView": 100.0,
      "PercentSampling": 100.0,
      "PerformedProcedureStepStartTime": "121839.670000",
      "PhotometricInterpretation": "MONOCHROME2",
      "PixelBandwidth": 3050.0,
      "PixelRepresentation": 0,
      "PixelSpacing": [2.6829268932343, 2.6829268932343],
      "ProtocolName": "func_run-06_task-social_acq-ap-mb8",
      "RepetitionTime": 460.0,
      "Rows": 656,
      "SAR": 0.10817915458371,
      "SamplesPerPixel": 1,
      "ScanOptions": "FS",
      "ScanningSequence": "EP",
      "SequenceName": "epfid2d1_82",
      "SequenceVariant": [
        "SK",
        "SS"
],
      "SeriesDescription": "func_run-06_task-social_acq-ap-mb8",
      "SeriesNumber": 22,
      "SeriesTime": "131856.730000",
      "SliceLocation": -72.338255022214,
      "SliceThickness": 2.7000000476837,
      "SmallestImagePixelValue": 0,
      "SoftwareVersions": "syngo MR E11",
      "SpacingBetweenSlices": 2.7000000249973,
      "SpecificCharacterSet": "ISO_IR 100",
      "StudyID": "1",
      "StudyTime": "121839.618000",
      "TransmitCoilName": "Body",
      "VariableFlipAngleFlag": "N",
      "WindowCenterWidthExplanation": "Algo1"
    },
    "slices": {}
  },
  "time": {
    "samples": {
      "AcquisitionNumber": [1, 2, 3, 4, 5, 6, 7, 8, 9, 10, 11, 12, 13, 14, 15, 16, 17, 18, 19, 20, 21, 22, 23, 24, 25, 26, 27, 28, 29, 30, 31, 32, 33, 34, 35, 36, 37, 38, 39, 40, 41, 42, 43, 44, 45, 46, 47, 48, 49, 50, 51, 52, 53, 54, 55, 56, 57, 58, 59, 60, 61, 62, 63, 64, 65, 66, 67, 68, 69, 70, 71, 72, 73, 74, 75, 76, 77, 78, 79, 80, 81, 82, 83, 84, 85, 86, 87, 88, 89, 90, 91, 92, 93, 94, 95, 96, 97, 98, 99, 100, 101, 102, 103, 104, 105, 106, 107, 108, 109, 110, 111, 112, 113, 114, 115, 116, 117, 118, 119, 120, 121, 122, 123, 124, 125, 126, 127, 128, 129, 130, 131, 132, 133, 134, 135, 136, 137, 138, 139, 140, 141, 142, 143, 144, 145, 146, 147, 148, 149, 150, 151, 152, 153, 154, 155, 156, 157, 158, 159, 160, 161, 162, 163, 164, 165, 166, 167, 168, 169, 170, 171, 172, 173, 174, 175, 176, 177, 178, 179, 180, 181, 182, 183, 184, 185, 186, 187, 188, 189, 190, 191, 192, 193, 194, 195, 196, 197, 198, 199, 200, 201, 202, 203, 204, 205, 206, 207, 208, 209, 210, 211, 212, 213, 214, 215, 216, 217, 218, 219, 220, 221, 222, 223, 224, 225, 226, 227, 228, 229, 230, 231, 232, 233, 234, 235, 236, 237, 238, 239, 240, 241, 242, 243, 244, 245, 246, 247, 248, 249, 250, 251, 252, 253, 254, 255, 256, 257, 258, 259, 260, 261, 262, 263, 264, 265, 266, 267, 268, 269, 270, 271, 272, 273, 274, 275, 276, 277, 278, 279, 280, 281, 282, 283, 284, 285, 286, 287, 288, 289, 290, 291, 292, 293, 294, 295, 296, 297, 298, 299, 300, 301, 302, 303, 304, 305, 306, 307, 308, 309, 310, 311, 312, 313, 314, 315, 316, 317, 318, 319, 320, 321, 322, 323, 324, 325, 326, 327, 328, 329, 330, 331, 332, 333, 334, 335, 336, 337, 338, 339, 340, 341, 342, 343, 344, 345, 346, 347, 348, 349, 350, 351, 352, 353, 354, 355, 356, 357, 358, 359, 360, 361, 362, 363, 364, 365, 366, 367, 368, 369, 370, 371, 372, 373, 374, 375, 376, 377, 378, 379, 380, 381, 382, 383, 384, 385, 386, 387, 388, 389, 390, 391, 392, 393, 394, 395, 396, 397, 398, 399, 400, 401, 402, 403, 404, 405, 406, 407, 408, 409, 410, 411, 412, 413, 414, 415, 416, 417, 418, 419, 420, 421, 422, 423, 424, 425, 426, 427, 428, 429, 430, 431, 432, 433, 434, 435, 436, 437, 438, 439, 440, 441, 442, 443, 444, 445, 446, 447, 448, 449, 450, 451, 452, 453, 454, 455, 456, 457, 458, 459, 460, 461, 462, 463, 464, 465, 466, 467, 468, 469, 470, 471, 472, 473, 474, 475, 476, 477, 478, 479, 480, 481, 482, 483, 484, 485, 486, 487, 488, 489, 490, 491, 492, 493, 494, 495, 496, 497, 498, 499, 500, 501, 502, 503, 504, 505, 506, 507, 508, 509, 510, 511, 512, 513, 514, 515, 516, 517, 518, 519, 520, 521, 522, 523, 524, 525, 526, 527, 528, 529, 530, 531, 532, 533, 534, 535, 536, 537, 538, 539, 540, 541, 542, 543, 544, 545, 546, 547, 548, 549, 550, 551, 552, 553, 554, 555, 556, 557, 558, 559, 560, 561, 562, 563, 564, 565, 566, 567, 568, 569, 570, 571, 572, 573, 574, 575, 576, 577, 578, 579, 580, 581, 582, 583, 584, 585, 586, 587, 588, 589, 590, 591, 592, 593, 594, 595, 596, 597, 598, 599, 600, 601, 602, 603, 604, 605, 606, 607, 608, 609, 610, 611, 612, 613, 614, 615, 616, 617, 618, 619, 620, 621, 622, 623, 624, 625, 626, 627, 628, 629, 630, 631, 632, 633, 634, 635, 636, 637, 638, 639, 640, 641, 642, 643, 644, 645, 646, 647, 648, 649, 650, 651, 652, 653, 654, 655, 656, 657, 658, 659, 660, 661, 662, 663, 664, 665, 666, 667, 668, 669, 670, 671, 672, 673, 674, 675, 676, 677, 678, 679, 680, 681, 682, 683, 684, 685, 686, 687, 688, 689, 690, 691, 692, 693, 694, 695, 696, 697, 698, 699, 700, 701, 702, 703, 704, 705, 706, 707, 708, 709, 710, 711, 712, 713, 714, 715, 716, 717, 718, 719, 720, 721, 722, 723, 724, 725, 726, 727, 728, 729, 730, 731, 732, 733, 734, 735, 736, 737, 738, 739, 740, 741, 742, 743, 744, 745, 746, 747, 748, 749, 750, 751, 752, 753, 754, 755, 756, 757, 758, 759, 760, 761, 762, 763, 764, 765, 766, 767, 768, 769, 770, 771, 772, 773, 774, 775, 776, 777, 778, 779, 780, 781, 782, 783, 784, 785, 786, 787, 788, 789, 790, 791, 792, 793, 794, 795, 796, 797, 798, 799, 800, 801, 802, 803, 804, 805, 806, 807, 808, 809, 810, 811, 812, 813, 814, 815, 816, 817, 818, 819, 820, 821, 822, 823, 824, 825, 826, 827, 828, 829, 830, 831, 832, 833, 834, 835, 836, 837, 838, 839, 840, 841, 842, 843, 844, 845, 846, 847, 848, 849, 850, 851, 852, 853, 854, 855, 856, 857, 858, 859, 860, 861, 862, 863, 864, 865, 866, 867, 868, 869, 870, 871, 872],
      "AcquisitionTime": ["131831.885000", "131832.345000", "131832.805000", "131833.265000", "131833.725000", "131834.185000", "131834.645000", "131835.105000", "131835.565000", "131836.025000", "131836.485000", "131836.945000", "131837.405000", "131837.865000", "131838.325000", "131838.785000", "131839.245000", "131839.705000", "131840.165000", "131840.625000", "131841.085000", "131841.545000", "131842.005000", "131842.465000", "131842.925000", "131843.385000", "131843.845000", "131844.305000", "131844.765000", "131845.225000", "131845.685000", "131846.145000", "131846.605000", "131847.065000", "131847.525000", "131847.985000", "131848.445000", "131848.905000", "131849.365000", "131849.825000", "131850.285000", "131850.745000", "131851.205000", "131851.665000", "131852.125000", "131852.585000", "131853.045000", "131853.505000", "131853.965000", "131854.425000", "131854.885000", "131855.345000", "131855.805000", "131856.265000", "131856.725000", "131857.185000", "131857.645000", "131858.105000", "131858.565000", "131859.025000", "131859.485000", "131859.945000", "131900.405000", "131900.865000", "131901.325000", "131901.785000", "131902.245000", "131902.705000", "131903.165000", "131903.625000", "131904.085000", "131904.545000", "131905.005000", "131905.465000", "131905.925000", "131906.385000", "131906.845000", "131907.305000", "131907.765000", "131908.225000", "131908.685000", "131909.145000", "131909.605000", "131910.065000", "131910.525000", "131910.985000", "131911.445000", "131911.905000", "131912.365000", "131912.825000", "131913.285000", "131913.745000", "131914.205000", "131914.665000", "131915.125000", "131915.585000", "131916.045000", "131916.505000", "131916.965000", "131917.425000", "131917.885000", "131918.345000", "131918.805000", "131919.265000", "131919.725000", "131920.185000", "131920.645000", "131921.105000", "131921.565000", "131922.025000", "131922.485000", "131922.945000", "131923.405000", "131923.865000", "131924.325000", "131924.785000", "131925.245000", "131925.705000", "131926.165000", "131926.625000", "131927.085000", "131927.545000", "131928.005000", "131928.465000", "131928.925000", "131929.385000", "131929.845000", "131930.305000", "131930.765000", "131931.225000", "131931.685000", "131932.145000", "131932.605000", "131933.065000", "131933.525000", "131933.985000", "131934.445000", "131934.905000", "131935.365000", "131935.825000", "131936.285000", "131936.745000", "131937.205000", "131937.665000", "131938.125000", "131938.585000", "131939.045000", "131939.505000", "131939.965000", "131940.425000", "131940.885000", "131941.345000", "131941.805000", "131942.265000", "131942.725000", "131943.185000", "131943.645000", "131944.105000", "131944.565000", "131945.025000", "131945.485000", "131945.945000", "131946.405000", "131946.865000", "131947.325000", "131947.785000", "131948.245000", "131948.705000", "131949.165000", "131949.625000", "131950.085000", "131950.545000", "131951.005000", "131951.465000", "131951.925000", "131952.385000", "131952.845000", "131953.305000", "131953.765000", "131954.225000", "131954.685000", "131955.145000", "131955.605000", "131956.065000", "131956.525000", "131956.985000", "131957.445000", "131957.905000", "131958.365000", "131958.825000", "131959.285000", "131959.745000", "132000.205000", "132000.665000", "132001.125000", "132001.585000", "132002.045000", "132002.505000", "132002.965000", "132003.425000", "132003.885000", "132004.345000", "132004.805000", "132005.265000", "132005.725000", "132006.185000", "132006.645000", "132007.105000", "132007.565000", "132008.025000", "132008.485000", "132008.945000", "132009.405000", "132009.865000", "132010.325000", "132010.785000", "132011.245000", "132011.705000", "132012.165000", "132012.625000", "132013.085000", "132013.545000", "132014.005000", "132014.465000", "132014.925000", "132015.385000", "132015.845000", "132016.305000", "132016.765000", "132017.225000", "132017.685000", "132018.145000", "132018.605000", "132019.065000", "132019.525000", "132019.985000", "132020.445000", "132020.905000", "132021.365000", "132021.825000", "132022.285000", "132022.745000", "132023.205000", "132023.665000", "132024.125000", "132024.585000", "132025.045000", "132025.505000", "132025.965000", "132026.425000", "132026.885000", "132027.345000", "132027.805000", "132028.265000", "132028.725000", "132029.185000", "132029.645000", "132030.105000", "132030.565000", "132031.025000", "132031.485000", "132031.945000", "132032.405000", "132032.865000", "132033.325000", "132033.785000", "132034.245000", "132034.705000", "132035.165000", "132035.625000", "132036.085000", "132036.545000", "132037.005000", "132037.465000", "132037.925000", "132038.385000", "132038.845000", "132039.305000", "132039.765000", "132040.225000", "132040.685000", "132041.145000", "132041.605000", "132042.065000", "132042.525000", "132042.985000", "132043.445000", "132043.905000", "132044.365000", "132044.825000", "132045.285000", "132045.745000", "132046.205000", "132046.665000", "132047.125000", "132047.585000", "132048.045000", "132048.505000", "132048.965000", "132049.425000", "132049.885000", "132050.345000", "132050.805000", "132051.265000", "132051.725000", "132052.185000", "132052.645000", "132053.105000", "132053.565000", "132054.025000", "132054.485000", "132054.945000", "132055.405000", "132055.865000", "132056.325000", "132056.785000", "132057.245000", "132057.705000", "132058.165000", "132058.625000", "132059.085000", "132059.545000", "132100.005000", "132100.465000", "132100.925000", "132101.385000", "132101.845000", "132102.305000", "132102.765000", "132103.225000", "132103.685000", "132104.145000", "132104.605000", "132105.065000", "132105.525000", "132105.985000", "132106.445000", "132106.905000", "132107.365000", "132107.825000", "132108.285000", "132108.745000", "132109.205000", "132109.665000", "132110.125000", "132110.585000", "132111.045000", "132111.505000", "132111.965000", "132112.425000", "132112.885000", "132113.345000", "132113.805000", "132114.265000", "132114.725000", "132115.185000", "132115.645000", "132116.105000", "132116.565000", "132117.025000", "132117.485000", "132117.945000", "132118.405000", "132118.865000", "132119.325000", "132119.785000", "132120.245000", "132120.705000", "132121.165000", "132121.625000", "132122.085000", "132122.545000", "132123.005000", "132123.465000", "132123.925000", "132124.385000", "132124.845000", "132125.305000", "132125.765000", "132126.225000", "132126.685000", "132127.145000", "132127.605000", "132128.065000", "132128.525000", "132128.985000", "132129.445000", "132129.905000", "132130.365000", "132130.825000", "132131.285000", "132131.745000", "132132.205000", "132132.665000", "132133.125000", "132133.585000", "132134.045000", "132134.505000", "132134.965000", "132135.425000", "132135.885000", "132136.345000", "132136.805000", "132137.265000", "132137.725000", "132138.185000", "132138.645000", "132139.105000", "132139.565000", "132140.025000", "132140.485000", "132140.945000", "132141.405000", "132141.865000", "132142.325000", "132142.785000", "132143.245000", "132143.705000", "132144.165000", "132144.625000", "132145.085000", "132145.545000", "132146.005000", "132146.465000", "132146.925000", "132147.385000", "132147.845000", "132148.305000", "132148.765000", "132149.225000", "132149.685000", "132150.145000", "132150.605000", "132151.065000", "132151.525000", "132151.985000", "132152.445000", "132152.905000", "132153.365000", "132153.825000", "132154.285000", "132154.745000", "132155.205000", "132155.665000", "132156.125000", "132156.585000", "132157.045000", "132157.505000", "132157.965000", "132158.425000", "132158.885000", "132159.345000", "132159.805000", "132200.265000", "132200.725000", "132201.185000", "132201.645000", "132202.105000", "132202.565000", "132203.025000", "132203.485000", "132203.945000", "132204.405000", "132204.865000", "132205.325000", "132205.785000", "132206.245000", "132206.705000", "132207.165000", "132207.625000", "132208.085000", "132208.545000", "132209.005000", "132209.465000", "132209.925000", "132210.385000", "132210.845000", "132211.305000", "132211.765000", "132212.225000", "132212.685000", "132213.145000", "132213.605000", "132214.065000", "132214.525000", "132214.985000", "132215.445000", "132215.905000", "132216.365000", "132216.825000", "132217.285000", "132217.745000", "132218.205000", "132218.665000", "132219.125000", "132219.585000", "132220.045000", "132220.505000", "132220.965000", "132221.425000", "132221.885000", "132222.345000", "132222.805000", "132223.265000", "132223.725000", "132224.185000", "132224.645000", "132225.105000", "132225.565000", "132226.025000", "132226.485000", "132226.945000", "132227.405000", "132227.865000", "132228.325000", "132228.785000", "132229.245000", "132229.705000", "132230.165000", "132230.625000", "132231.085000", "132231.545000", "132232.005000", "132232.465000", "132232.925000", "132233.385000", "132233.845000", "132234.305000", "132234.765000", "132235.225000", "132235.685000", "132236.145000", "132236.605000", "132237.065000", "132237.525000", "132237.985000", "132238.445000", "132238.905000", "132239.365000", "132239.825000", "132240.285000", "132240.745000", "132241.205000", "132241.665000", "132242.125000", "132242.585000", "132243.045000", "132243.505000", "132243.965000", "132244.425000", "132244.885000", "132245.345000", "132245.805000", "132246.265000", "132246.725000", "132247.185000", "132247.645000", "132248.105000", "132248.565000", "132249.025000", "132249.485000", "132249.945000", "132250.405000", "132250.865000", "132251.325000", "132251.785000", "132252.245000", "132252.705000", "132253.165000", "132253.625000", "132254.085000", "132254.545000", "132255.005000", "132255.465000", "132255.925000", "132256.385000", "132256.845000", "132257.305000", "132257.765000", "132258.225000", "132258.685000", "132259.145000", "132259.605000", "132300.065000", "132300.525000", "132300.985000", "132301.445000", "132301.905000", "132302.365000", "132302.825000", "132303.285000", "132303.745000", "132304.205000", "132304.665000", "132305.125000", "132305.585000", "132306.045000", "132306.505000", "132306.965000", "132307.425000", "132307.885000", "132308.345000", "132308.805000", "132309.265000", "132309.725000", "132310.185000", "132310.645000", "132311.105000", "132311.565000", "132312.025000", "132312.485000", "132312.945000", "132313.405000", "132313.865000", "132314.325000", "132314.785000", "132315.245000", "132315.705000", "132316.165000", "132316.625000", "132317.085000", "132317.545000", "132318.005000", "132318.465000", "132318.925000", "132319.385000", "132319.845000", "132320.305000", "132320.765000", "132321.225000", "132321.685000", "132322.145000", "132322.605000", "132323.065000", "132323.525000", "132323.985000", "132324.445000", "132324.905000", "132325.365000", "132325.825000", "132326.285000", "132326.745000", "132327.205000", "132327.665000", "132328.125000", "132328.585000", "132329.045000", "132329.505000", "132329.965000", "132330.425000", "132330.885000", "132331.345000", "132331.805000", "132332.265000", "132332.725000", "132333.185000", "132333.645000", "132334.105000", "132334.565000", "132335.025000", "132335.485000", "132335.945000", "132336.405000", "132336.865000", "132337.325000", "132337.785000", "132338.245000", "132338.705000", "132339.165000", "132339.625000", "132340.085000", "132340.545000", "132341.005000", "132341.465000", "132341.925000", "132342.385000", "132342.845000", "132343.305000", "132343.765000", "132344.225000", "132344.685000", "132345.145000", "132345.605000", "132346.065000", "132346.525000", "132346.985000", "132347.445000", "132347.905000", "132348.365000", "132348.825000", "132349.285000", "132349.745000", "132350.205000", "132350.665000", "132351.125000", "132351.585000", "132352.045000", "132352.505000", "132352.965000", "132353.425000", "132353.885000", "132354.345000", "132354.805000", "132355.265000", "132355.725000", "132356.185000", "132356.645000", "132357.105000", "132357.565000", "132358.025000", "132358.485000", "132358.945000", "132359.405000", "132359.865000", "132400.325000", "132400.785000", "132401.245000", "132401.705000", "132402.165000", "132402.625000", "132403.085000", "132403.545000", "132404.005000", "132404.465000", "132404.925000", "132405.385000", "132405.845000", "132406.305000", "132406.765000", "132407.225000", "132407.685000", "132408.145000", "132408.605000", "132409.065000", "132409.525000", "132409.985000", "132410.445000", "132410.905000", "132411.365000", "132411.825000", "132412.285000", "132412.745000", "132413.205000", "132413.665000", "132414.125000", "132414.585000", "132415.045000", "132415.505000", "132415.965000", "132416.425000", "132416.885000", "132417.345000", "132417.805000", "132418.265000", "132418.725000", "132419.185000", "132419.645000", "132420.105000", "132420.565000", "132421.025000", "132421.485000", "132421.945000", "132422.405000", "132422.865000", "132423.325000", "132423.785000", "132424.245000", "132424.705000", "132425.165000", "132425.625000", "132426.085000", "132426.545000", "132427.005000", "132427.465000", "132427.925000", "132428.385000", "132428.845000", "132429.305000", "132429.765000", "132430.225000", "132430.685000", "132431.145000", "132431.605000", "132432.065000", "132432.525000", "132432.985000", "132433.445000", "132433.905000", "132434.365000", "132434.825000", "132435.285000", "132435.745000", "132436.205000", "132436.665000", "132437.125000", "132437.585000", "132438.045000", "132438.505000", "132438.965000", "132439.425000", "132439.885000", "132440.345000", "132440.805000", "132441.265000", "132441.725000", "132442.185000", "132442.645000", "132443.105000", "132443.565000", "132444.025000", "132444.485000", "132444.945000", "132445.405000", "132445.865000", "132446.325000", "132446.785000", "132447.245000", "132447.705000", "132448.165000", "132448.625000", "132449.085000", "132449.545000", "132450.005000", "132450.465000", "132450.925000", "132451.385000", "132451.845000", "132452.305000", "132452.765000", "132453.225000", "132453.685000", "132454.145000", "132454.605000", "132455.065000", "132455.525000", "132455.985000", "132456.445000", "132456.905000", "132457.365000", "132457.825000", "132458.285000", "132458.745000", "132459.205000", "132459.665000", "132500.125000", "132500.585000", "132501.045000", "132501.505000", "132501.965000", "132502.425000", "132502.885000", "132503.345000", "132503.805000", "132504.265000", "132504.725000", "132505.185000", "132505.645000", "132506.105000", "132506.565000", "132507.025000", "132507.485000", "132507.945000", "132508.405000", "132508.865000", "132509.325000", "132509.785000", "132510.245000", "132510.705000", "132511.165000", "132511.625000", "132512.085000", "132512.545000"],
