{
  "AcquisitionMatrixPE": 82,
  "AcquisitionNumber": 1,
  "AcquisitionTime": "13:47:45.542500",
  "BandwidthPerPixelPhaseEncode": 24.888,
  "BaseResolution": 82,
  "BodyPartExamined": "BRAIN",
  "ConsistencyInfo": "N4_VE11E_LATEST_20181129",
  "ConversionSoftware": "dcm2niix",
  "ConversionSoftwareVersion": "v1.0.20201102",
  "DerivedVendorReportedEchoSpacing": 0.00049,
  "DeviceSerialNumber": "66112",
  "DwellTime": 2e-06,
  "EchoTime": 0.0272,
  "EchoTrainLength": 82,
  "EffectiveEchoSpacing": 0.00049,
  "FlipAngle": 44,
  "ImageComments": "Unaliased MB8/PE3",
  "ImageOrientationPatientDICOM": [0.999116, 0.0159636, 0.0388966, -0.0155209, 0.999812, -0.0116558],
  "ImageType": [
    "ORIGINAL",
    "PRIMARY",
    "M",
    "MB",
    "ND",
    "NORM",
    "MOSAIC"
],
  "ImagingFrequency": 123.252,
  "InPlanePhaseEncodingDirectionDICOM": "COL",
  "InstitutionAddress": "Maynard 3,Hanover,NH,US,03755",
  "InstitutionName": "Dartmouth College - PBS",
  "InstitutionalDepartmentName": "Department",
  "MRAcquisitionType": "2D",
  "MagneticFieldStrength": 3,
  "Manufacturer": "Siemens",
  "ManufacturersModelName": "Prisma",
  "Modality": "MR",
  "MultibandAccelerationFactor": 8,
  "PartialFourier": 1,
  "PatientPosition": "HFS",
  "PercentPhaseFOV": 100,
  "PercentSampling": 100,
  "PhaseEncodingDirection": "j-",
  "PhaseEncodingSteps": 82,
  "PhaseResolution": 1,
  "PixelBandwidth": 3050,
  "ProcedureStepDescription": "Wager_Wager^1076_spacetop",
  "ProtocolName": "func_run-03_task-alignvideo_acq-ap-mb8",
  "PulseSequenceDetails": "%CustomerSeq%\\cmrr_mbep2d_bold",
  "ReceiveCoilActiveElements": "HEA;HEP",
  "ReceiveCoilName": "Head_32",
  "ReconMatrixPE": 82,
  "RepetitionTime": 0.46,
  "SAR": 0.108275,
  "ScanOptions": "FS",
  "ScanningSequence": "EP",
  "SequenceName": "epfid2d1_82",
  "SequenceVariant": "SK\\SS",
  "SeriesDescription": "func_run-03_task-alignvideo_acq-ap-mb8",
  "SeriesNumber": 34,
  "ShimSetting": [4149, -7740, -7256, 536, -85, -306, 129, 72],
  "SliceThickness": 2.7,
  "SliceTiming": [0, 0.2525, 0.0625, 0.315, 0.125, 0.3775, 0.1875, 0, 0.2525, 0.0625, 0.315, 0.125, 0.3775, 0.1875, 0, 0.2525, 0.0625, 0.315, 0.125, 0.3775, 0.1875, 0, 0.2525, 0.0625, 0.315, 0.125, 0.3775, 0.1875, 0, 0.2525, 0.0625, 0.315, 0.125, 0.3775, 0.1875, 0, 0.2525, 0.0625, 0.315, 0.125, 0.3775, 0.1875, 0, 0.2525, 0.0625, 0.315, 0.125, 0.3775, 0.1875, 0, 0.2525, 0.0625, 0.315, 0.125, 0.3775, 0.1875],
  "SoftwareVersions": "syngo MR E11",
  "SpacingBetweenSlices": 2.7,
  "StationName": "AWP66112",
  "TaskName": "alignvideo",
  "TotalReadoutTime": 0.03969,
  "TxRefAmp": 282.93,
  "WipMemBlock": "ec8d9380-079c-4934-9742-d5d054b44ed6||Sequence: R016 ve11e/master r/434b28f1; Aug  7 2019 18:53:46 by eja",
  "dcmmeta_affine": [
    [-2.6805543899536133, -0.0416414849460125, 0.10550351440906525, 113.43882751464844],
    [-0.04282908886671066, 2.6824214458465576, -0.029812777414917946, -92.00482177734375],
    [0.10435683280229568, 0.03127162531018257, 2.6977732181549072, -83.01593780517578],
    [0.0, 0.0, 0.0, 1.0]
],
  "dcmmeta_reorient_transform": [
    [0.0, -1.0, 0.0, 81.0],
    [1.0, 0.0, 0.0, 0.0],
    [0.0, 0.0, 1.0, 0.0],
    [0.0, 0.0, 0.0, 1.0]
],
  "dcmmeta_shape": [82, 82, 56, 1016],
  "dcmmeta_slice_dim": 2,
  "dcmmeta_version": 0.6,
  "global": {
    "const": {
      "AccessionNumber": "A004075",
      "AcquisitionMatrix": [82, 0, 0, 82],
      "AngioFlag": "N",
      "BitsAllocated": 16,
      "BitsStored": 16,
      "BodyPartExamined": "BRAIN",
      "Columns": 656,
      "EchoNumbers": 1,
      "EchoTime": 27.2,
      "EchoTrainLength": 82,
      "FlipAngle": 44.0,
      "HighBit": 15,
      "ImageOrientationPatient": [0.99911571708679, 0.0159635695839, 0.03889663631084, -0.0155209160648, 0.99981160414395, -0.0116557875582],
      "ImagePositionPatient": [-867.43388065463, -907.41821640576, -101.45839003981],
      "ImageType": [
        "ORIGINAL",
        "PRIMARY",
        "M",
        "MB",
        "ND",
        "NORM",
        "MOSAIC"
],
      "ImagedNucleus": "1H",
      "ImagingFrequency": 123.252172,
      "InPlanePhaseEncodingDirection": "COL",
      "MRAcquisitionType": "2D",
      "MagneticFieldStrength": 3.0,
      "Manufacturer": "SIEMENS",
      "ManufacturerModelName": "Prisma",
      "Modality": "MR",
      "NumberOfAverages": 1.0,
      "NumberOfPhaseEncodingSteps": 82,
      "PercentPhaseFieldOfView": 100.0,
      "PercentSampling": 100.0,
      "PerformedProcedureStepStartTime": "121839.670000",
      "PhotometricInterpretation": "MONOCHROME2",
      "PixelBandwidth": 3050.0,
      "PixelRepresentation": 0,
      "PixelSpacing": [2.6829268932343, 2.6829268932343],
      "ProtocolName": "func_run-03_task-alignvideo_acq-ap-mb8",
      "RepetitionTime": 460.0,
      "Rows": 656,
      "SAR": 0.10827453848507,
      "SamplesPerPixel": 1,
      "ScanOptions": "FS",
      "ScanningSequence": "EP",
      "SequenceName": "epfid2d1_82",
      "SequenceVariant": [
        "SK",
        "SS"
],
      "SeriesDescription": "func_run-03_task-alignvideo_acq-ap-mb8",
      "SeriesNumber": 34,
      "SeriesTime": "134756.732000",
      "SliceLocation": -77.49891006539,
      "SliceThickness": 2.7000000476837,
      "SmallestImagePixelValue": 0,
      "SoftwareVersions": "syngo MR E11",
      "SpacingBetweenSlices": 2.6999999938715,
      "SpecificCharacterSet": "ISO_IR 100",
      "StudyID": "1",
      "StudyTime": "121839.618000",
      "TransmitCoilName": "Body",
      "VariableFlipAngleFlag": "N",
      "WindowCenterWidthExplanation": "Algo1"
    },
    "slices": {}
  },
  "time": {
    "samples": {
      "AcquisitionNumber": [1, 2, 3, 4, 5, 6, 7, 8, 9, 10, 11, 12, 13, 14, 15, 16, 17, 18, 19, 20, 21, 22, 23, 24, 25, 26, 27, 28, 29, 30, 31, 32, 33, 34, 35, 36, 37, 38, 39, 40, 41, 42, 43, 44, 45, 46, 47, 48, 49, 50, 51, 52, 53, 54, 55, 56, 57, 58, 59, 60, 61, 62, 63, 64, 65, 66, 67, 68, 69, 70, 71, 72, 73, 74, 75, 76, 77, 78, 79, 80, 81, 82, 83, 84, 85, 86, 87, 88, 89, 90, 91, 92, 93, 94, 95, 96, 97, 98, 99, 100, 101, 102, 103, 104, 105, 106, 107, 108, 109, 110, 111, 112, 113, 114, 115, 116, 117, 118, 119, 120, 121, 122, 123, 124, 125, 126, 127, 128, 129, 130, 131, 132, 133, 134, 135, 136, 137, 138, 139, 140, 141, 142, 143, 144, 145, 146, 147, 148, 149, 150, 151, 152, 153, 154, 155, 156, 157, 158, 159, 160, 161, 162, 163, 164, 165, 166, 167, 168, 169, 170, 171, 172, 173, 174, 175, 176, 177, 178, 179, 180, 181, 182, 183, 184, 185, 186, 187, 188, 189, 190, 191, 192, 193, 194, 195, 196, 197, 198, 199, 200, 201, 202, 203, 204, 205, 206, 207, 208, 209, 210, 211, 212, 213, 214, 215, 216, 217, 218, 219, 220, 221, 222, 223, 224, 225, 226, 227, 228, 229, 230, 231, 232, 233, 234, 235, 236, 237, 238, 239, 240, 241, 242, 243, 244, 245, 246, 247, 248, 249, 250, 251, 252, 253, 254, 255, 256, 257, 258, 259, 260, 261, 262, 263, 264, 265, 266, 267, 268, 269, 270, 271, 272, 273, 274, 275, 276, 277, 278, 279, 280, 281, 282, 283, 284, 285, 286, 287, 288, 289, 290, 291, 292, 293, 294, 295, 296, 297, 298, 299, 300, 301, 302, 303, 304, 305, 306, 307, 308, 309, 310, 311, 312, 313, 314, 315, 316, 317, 318, 319, 320, 321, 322, 323, 324, 325, 326, 327, 328, 329, 330, 331, 332, 333, 334, 335, 336, 337, 338, 339, 340, 341, 342, 343, 344, 345, 346, 347, 348, 349, 350, 351, 352, 353, 354, 355, 356, 357, 358, 359, 360, 361, 362, 363, 364, 365, 366, 367, 368, 369, 370, 371, 372, 373, 374, 375, 376, 377, 378, 379, 380, 381, 382, 383, 384, 385, 386, 387, 388, 389, 390, 391, 392, 393, 394, 395, 396, 397, 398, 399, 400, 401, 402, 403, 404, 405, 406, 407, 408, 409, 410, 411, 412, 413, 414, 415, 416, 417, 418, 419, 420, 421, 422, 423, 424, 425, 426, 427, 428, 429, 430, 431, 432, 433, 434, 435, 436, 437, 438, 439, 440, 441, 442, 443, 444, 445, 446, 447, 448, 449, 450, 451, 452, 453, 454, 455, 456, 457, 458, 459, 460, 461, 462, 463, 464, 465, 466, 467, 468, 469, 470, 471, 472, 473, 474, 475, 476, 477, 478, 479, 480, 481, 482, 483, 484, 485, 486, 487, 488, 489, 490, 491, 492, 493, 494, 495, 496, 497, 498, 499, 500, 501, 502, 503, 504, 505, 506, 507, 508, 509, 510, 511, 512, 513, 514, 515, 516, 517, 518, 519, 520, 521, 522, 523, 524, 525, 526, 527, 528, 529, 530, 531, 532, 533, 534, 535, 536, 537, 538, 539, 540, 541, 542, 543, 544, 545, 546, 547, 548, 549, 550, 551, 552, 553, 554, 555, 556, 557, 558, 559, 560, 561, 562, 563, 564, 565, 566, 567, 568, 569, 570, 571, 572, 573, 574, 575, 576, 577, 578, 579, 580, 581, 582, 583, 584, 585, 586, 587, 588, 589, 590, 591, 592, 593, 594, 595, 596, 597, 598, 599, 600, 601, 602, 603, 604, 605, 606, 607, 608, 609, 610, 611, 612, 613, 614, 615, 616, 617, 618, 619, 620, 621, 622, 623, 624, 625, 626, 627, 628, 629, 630, 631, 632, 633, 634, 635, 636, 637, 638, 639, 640, 641, 642, 643, 644, 645, 646, 647, 648, 649, 650, 651, 652, 653, 654, 655, 656, 657, 658, 659, 660, 661, 662, 663, 664, 665, 666, 667, 668, 669, 670, 671, 672, 673, 674, 675, 676, 677, 678, 679, 680, 681, 682, 683, 684, 685, 686, 687, 688, 689, 690, 691, 692, 693, 694, 695, 696, 697, 698, 699, 700, 701, 702, 703, 704, 705, 706, 707, 708, 709, 710, 711, 712, 713, 714, 715, 716, 717, 718, 719, 720, 721, 722, 723, 724, 725, 726, 727, 728, 729, 730, 731, 732, 733, 734, 735, 736, 737, 738, 739, 740, 741, 742, 743, 744, 745, 746, 747, 748, 749, 750, 751, 752, 753, 754, 755, 756, 757, 758, 759, 760, 761, 762, 763, 764, 765, 766, 767, 768, 769, 770, 771, 772, 773, 774, 775, 776, 777, 778, 779, 780, 781, 782, 783, 784, 785, 786, 787, 788, 789, 790, 791, 792, 793, 794, 795, 796, 797, 798, 799, 800, 801, 802, 803, 804, 805, 806, 807, 808, 809, 810, 811, 812, 813, 814, 815, 816, 817, 818, 819, 820, 821, 822, 823, 824, 825, 826, 827, 828, 829, 830, 831, 832, 833, 834, 835, 836, 837, 838, 839, 840, 841, 842, 843, 844, 845, 846, 847, 848, 849, 850, 851, 852, 853, 854, 855, 856, 857, 858, 859, 860, 861, 862, 863, 864, 865, 866, 867, 868, 869, 870, 871, 872, 873, 874, 875, 876, 877, 878, 879, 880, 881, 882, 883, 884, 885, 886, 887, 888, 889, 890, 891, 892, 893, 894, 895, 896, 897, 898, 899, 900, 901, 902, 903, 904, 905, 906, 907, 908, 909, 910, 911, 912, 913, 914, 915, 916, 917, 918, 919, 920, 921, 922, 923, 924, 925, 926, 927, 928, 929, 930, 931, 932, 933, 934, 935, 936, 937, 938, 939, 940, 941, 942, 943, 944, 945, 946, 947, 948, 949, 950, 951, 952, 953, 954, 955, 956, 957, 958, 959, 960, 961, 962, 963, 964, 965, 966, 967, 968, 969, 970, 971, 972, 973, 974, 975, 976, 977, 978, 979, 980, 981, 982, 983, 984, 985, 986, 987, 988, 989, 990, 991, 992, 993, 994, 995, 996, 997, 998, 999, 1000, 1001, 1002, 1003, 1004, 1005, 1006, 1007, 1008, 1009, 1010, 1011, 1012, 1013, 1014, 1015, 1016],
      "AcquisitionTime": ["134745.542500", "134746.002500", "134746.462500", "134746.922500", "134747.382500", "134747.842500", "134748.302500", "134748.762500", "134749.222500", "134749.682500", "134750.142500", "134750.602500", "134751.062500", "134751.522500", "134751.982500", "134752.442500", "134752.902500", "134753.362500", "134753.822500", "134754.282500", "134754.742500", "134755.202500", "134755.662500", "134756.122500", "134756.582500", "134757.042500", "134757.502500", "134757.962500", "134758.422500", "134758.882500", "134759.342500", "134759.802500", "134800.262500", "134800.722500", "134801.182500", "134801.642500", "134802.102500", "134802.562500", "134803.022500", "134803.482500", "134803.942500", "134804.402500", "134804.862500", "134805.322500", "134805.782500", "134806.242500", "134806.702500", "134807.162500", "134807.622500", "134808.082500", "134808.542500", "134809.002500", "134809.462500", "134809.922500", "134810.382500", "134810.842500", "134811.302500", "134811.762500", "134812.222500", "134812.682500", "134813.142500", "134813.602500", "134814.062500", "134814.522500", "134814.982500", "134815.442500", "134815.902500", "134816.362500", "134816.822500", "134817.282500", "134817.742500", "134818.202500", "134818.662500", "134819.122500", "134819.582500", "134820.042500", "134820.502500", "134820.962500", "134821.422500", "134821.882500", "134822.342500", "134822.802500", "134823.262500", "134823.722500", "134824.182500", "134824.642500", "134825.102500", "134825.562500", "134826.022500", "134826.482500", "134826.942500", "134827.402500", "134827.862500", "134828.322500", "134828.782500", "134829.242500", "134829.702500", "134830.162500", "134830.622500", "134831.082500", "134831.542500", "134832.002500", "134832.462500", "134832.922500", "134833.382500", "134833.842500", "134834.302500", "134834.762500", "134835.222500", "134835.682500", "134836.142500", "134836.602500", "134837.062500", "134837.522500", "134837.982500", "134838.442500", "134838.902500", "134839.362500", "134839.822500", "134840.282500", "134840.742500", "134841.202500", "134841.662500", "134842.122500", "134842.582500", "134843.042500", "134843.502500", "134843.962500", "134844.422500", "134844.882500", "134845.342500", "134845.802500", "134846.262500", "134846.722500", "134847.182500", "134847.642500", "134848.102500", "134848.562500", "134849.022500", "134849.482500", "134849.942500", "134850.402500", "134850.862500", "134851.322500", "134851.782500", "134852.242500", "134852.702500", "134853.162500", "134853.622500", "134854.082500", "134854.542500", "134855.002500", "134855.462500", "134855.922500", "134856.382500", "134856.842500", "134857.302500", "134857.762500", "134858.222500", "134858.682500", "134859.142500", "134859.602500", "134900.062500", "134900.522500", "134900.982500", "134901.442500", "134901.902500", "134902.362500", "134902.822500", "134903.282500", "134903.742500", "134904.202500", "134904.662500", "134905.122500", "134905.582500", "134906.042500", "134906.502500", "134906.962500", "134907.422500", "134907.882500", "134908.342500", "134908.802500", "134909.262500", "134909.722500", "134910.182500", "134910.642500", "134911.102500", "134911.562500", "134912.022500", "134912.482500", "134912.942500", "134913.402500", "134913.862500", "134914.322500", "134914.782500", "134915.242500", "134915.702500", "134916.162500", "134916.622500", "134917.082500", "134917.542500", "134918.002500", "134918.462500", "134918.922500", "134919.382500", "134919.842500", "134920.302500", "134920.762500", "134921.222500", "134921.682500", "134922.142500", "134922.602500", "134923.062500", "134923.522500", "134923.982500", "134924.442500", "134924.902500", "134925.362500", "134925.822500", "134926.282500", "134926.742500", "134927.202500", "134927.662500", "134928.122500", "134928.582500", "134929.042500", "134929.502500", "134929.962500", "134930.422500", "134930.882500", "134931.342500", "134931.802500", "134932.262500", "134932.722500", "134933.182500", "134933.642500", "134934.102500", "134934.562500", "134935.022500", "134935.482500", "134935.942500", "134936.402500", "134936.862500", "134937.322500", "134937.782500", "134938.242500", "134938.702500", "134939.162500", "134939.622500", "134940.082500", "134940.542500", "134941.002500", "134941.462500", "134941.922500", "134942.382500", "134942.842500", "134943.302500", "134943.762500", "134944.222500", "134944.682500", "134945.142500", "134945.602500", "134946.062500", "134946.522500", "134946.982500", "134947.442500", "134947.902500", "134948.362500", "134948.822500", "134949.282500", "134949.742500", "134950.202500", "134950.662500", "134951.122500", "134951.582500", "134952.042500", "134952.502500", "134952.962500", "134953.422500", "134953.882500", "134954.342500", "134954.802500", "134955.262500", "134955.722500", "134956.182500", "134956.642500", "134957.102500", "134957.562500", "134958.022500", "134958.482500", "134958.942500", "134959.402500", "134959.862500", "135000.322500", "135000.782500", "135001.242500", "135001.702500", "135002.162500", "135002.622500", "135003.082500", "135003.542500", "135004.002500", "135004.462500", "135004.922500", "135005.382500", "135005.842500", "135006.302500", "135006.762500", "135007.222500", "135007.682500", "135008.142500", "135008.602500", "135009.062500", "135009.522500", "135009.982500", "135010.442500", "135010.902500", "135011.362500", "135011.822500", "135012.282500", "135012.742500", "135013.202500", "135013.662500", "135014.122500", "135014.582500", "135015.042500", "135015.502500", "135015.962500", "135016.422500", "135016.882500", "135017.342500", "135017.802500", "135018.262500", "135018.722500", "135019.182500", "135019.642500", "135020.102500", "135020.562500", "135021.022500", "135021.482500", "135021.942500", "135022.402500", "135022.862500", "135023.322500", "135023.782500", "135024.242500", "135024.702500", "135025.162500", "135025.622500", "135026.082500", "135026.542500", "135027.002500", "135027.462500", "135027.922500", "135028.382500", "135028.842500", "135029.302500", "135029.762500", "135030.222500", "135030.682500", "135031.142500", "135031.602500", "135032.062500", "135032.522500", "135032.982500", "135033.442500", "135033.902500", "135034.362500", "135034.822500", "135035.282500", "135035.742500", "135036.202500", "135036.662500", "135037.122500", "135037.582500", "135038.042500", "135038.502500", "135038.962500", "135039.422500", "135039.882500", "135040.342500", "135040.802500", "135041.262500", "135041.722500", "135042.182500", "135042.642500", "135043.102500", "135043.562500", "135044.022500", "135044.482500", "135044.942500", "135045.402500", "135045.862500", "135046.322500", "135046.782500", "135047.242500", "135047.702500", "135048.162500", "135048.622500", "135049.082500", "135049.542500", "135050.002500", "135050.462500", "135050.922500", "135051.382500", "135051.842500", "135052.302500", "135052.762500", "135053.222500", "135053.682500", "135054.142500", "135054.602500", "135055.062500", "135055.522500", "135055.982500", "135056.442500", "135056.902500", "135057.362500", "135057.822500", "135058.282500", "135058.742500", "135059.202500", "135059.662500", "135100.122500", "135100.582500", "135101.042500", "135101.502500", "135101.962500", "135102.422500", "135102.882500", "135103.342500", "135103.802500", "135104.262500", "135104.722500", "135105.182500", "135105.642500", "135106.102500", "135106.562500", "135107.022500", "135107.482500", "135107.942500", "135108.402500", "135108.862500", "135109.322500", "135109.782500", "135110.242500", "135110.702500", "135111.162500", "135111.622500", "135112.082500", "135112.542500", "135113.002500", "135113.462500", "135113.922500", "135114.382500", "135114.842500", "135115.302500", "135115.762500", "135116.222500", "135116.682500", "135117.142500", "135117.602500", "135118.062500", "135118.522500", "135118.982500", "135119.442500", "135119.902500", "135120.362500", "135120.822500", "135121.282500", "135121.742500", "135122.202500", "135122.662500", "135123.122500", "135123.582500", "135124.042500", "135124.502500", "135124.962500", "135125.422500", "135125.882500", "135126.342500", "135126.802500", "135127.262500", "135127.722500", "135128.182500", "135128.642500", "135129.102500", "135129.562500", "135130.022500", "135130.482500", "135130.942500", "135131.402500", "135131.862500", "135132.322500", "135132.782500", "135133.242500", "135133.702500", "135134.162500", "135134.622500", "135135.082500", "135135.542500", "135136.002500", "135136.462500", "135136.922500", "135137.382500", "135137.842500", "135138.302500", "135138.762500", "135139.222500", "135139.682500", "135140.142500", "135140.602500", "135141.062500", "135141.522500", "135141.982500", "135142.442500", "135142.902500", "135143.362500", "135143.822500", "135144.282500", "135144.742500", "135145.202500", "135145.662500", "135146.122500", "135146.582500", "135147.042500", "135147.502500", "135147.962500", "135148.422500", "135148.882500", "135149.342500", "135149.802500", "135150.262500", "135150.722500", "135151.182500", "135151.642500", "135152.102500", "135152.562500", "135153.022500", "135153.482500", "135153.942500", "135154.402500", "135154.862500", "135155.322500", "135155.782500", "135156.242500", "135156.702500", "135157.162500", "135157.622500", "135158.082500", "135158.542500", "135159.002500", "135159.462500", "135159.922500", "135200.382500", "135200.842500", "135201.302500", "135201.762500", "135202.222500", "135202.682500", "135203.142500", "135203.602500", "135204.062500", "135204.522500", "135204.982500", "135205.442500", "135205.902500", "135206.362500", "135206.822500", "135207.282500", "135207.742500", "135208.202500", "135208.662500", "135209.122500", "135209.582500", "135210.042500", "135210.502500", "135210.962500", "135211.422500", "135211.882500", "135212.342500", "135212.802500", "135213.262500", "135213.722500", "135214.182500", "135214.642500", "135215.102500", "135215.562500", "135216.022500", "135216.482500", "135216.942500", "135217.402500", "135217.862500", "135218.322500", "135218.782500", "135219.242500", "135219.702500", "135220.162500", "135220.622500", "135221.082500", "135221.542500", "135222.002500", "135222.462500", "135222.922500", "135223.382500", "135223.842500", "135224.302500", "135224.762500", "135225.222500", "135225.682500", "135226.142500", "135226.602500", "135227.062500", "135227.522500", "135227.982500", "135228.442500", "135228.902500", "135229.362500", "135229.822500", "135230.282500", "135230.742500", "135231.202500", "135231.662500", "135232.122500", "135232.582500", "135233.042500", "135233.502500", "135233.962500", "135234.422500", "135234.882500", "135235.342500", "135235.802500", "135236.262500", "135236.722500", "135237.182500", "135237.642500", "135238.102500", "135238.562500", "135239.022500", "135239.482500", "135239.942500", "135240.402500", "135240.862500", "135241.322500", "135241.782500", "135242.242500", "135242.702500", "135243.162500", "135243.622500", "135244.082500", "135244.542500", "135245.002500", "135245.462500", "135245.922500", "135246.382500", "135246.842500", "135247.302500", "135247.762500", "135248.222500", "135248.682500", "135249.142500", "135249.602500", "135250.062500", "135250.522500", "135250.982500", "135251.442500", "135251.902500", "135252.362500", "135252.822500", "135253.282500", "135253.742500", "135254.202500", "135254.662500", "135255.122500", "135255.582500", "135256.042500", "135256.502500", "135256.962500", "135257.422500", "135257.882500", "135258.342500", "135258.802500", "135259.262500", "135259.722500", "135300.182500", "135300.642500", "135301.102500", "135301.562500", "135302.022500", "135302.482500", "135302.942500", "135303.402500", "135303.862500", "135304.322500", "135304.782500", "135305.242500", "135305.702500", "135306.162500", "135306.622500", "135307.082500", "135307.542500", "135308.002500", "135308.462500", "135308.922500", "135309.382500", "135309.842500", "135310.302500", "135310.762500", "135311.222500", "135311.682500", "135312.142500", "135312.602500", "135313.062500", "135313.522500", "135313.982500", "135314.442500", "135314.902500", "135315.362500", "135315.822500", "135316.282500", "135316.742500", "135317.202500", "135317.662500", "135318.122500", "135318.582500", "135319.042500", "135319.502500", "135319.962500", "135320.422500", "135320.882500", "135321.342500", "135321.802500", "135322.262500", "135322.722500", "135323.182500", "135323.642500", "135324.102500", "135324.562500", "135325.022500", "135325.482500", "135325.942500", "135326.402500", "135326.862500", "135327.322500", "135327.782500", "135328.242500", "135328.702500", "135329.162500", "135329.622500", "135330.082500", "135330.542500", "135331.002500", "135331.462500", "135331.922500", "135332.382500", "135332.842500", "135333.302500", "135333.762500", "135334.222500", "135334.682500", "135335.142500", "135335.602500", "135336.062500", "135336.522500", "135336.982500", "135337.442500", "135337.902500", "135338.362500", "135338.822500", "135339.282500", "135339.742500", "135340.202500", "135340.662500", "135341.122500", "135341.582500", "135342.042500", "135342.502500", "135342.962500", "135343.422500", "135343.882500", "135344.342500", "135344.802500", "135345.262500", "135345.722500", "135346.182500", "135346.642500", "135347.102500", "135347.562500", "135348.022500", "135348.482500", "135348.942500", "135349.402500", "135349.862500", "135350.322500", "135350.782500", "135351.242500", "135351.702500", "135352.162500", "135352.622500", "135353.082500", "135353.542500", "135354.002500", "135354.462500", "135354.922500", "135355.382500", "135355.842500", "135356.302500", "135356.762500", "135357.222500", "135357.682500", "135358.142500", "135358.602500", "135359.062500", "135359.522500", "135359.982500", "135400.442500", "135400.902500", "135401.362500", "135401.822500", "135402.282500", "135402.742500", "135403.202500", "135403.662500", "135404.122500", "135404.582500", "135405.042500", "135405.502500", "135405.962500", "135406.422500", "135406.882500", "135407.342500", "135407.802500", "135408.262500", "135408.722500", "135409.182500", "135409.642500", "135410.102500", "135410.562500", "135411.022500", "135411.482500", "135411.942500", "135412.402500", "135412.862500", "135413.322500", "135413.782500", "135414.242500", "135414.702500", "135415.162500", "135415.622500", "135416.082500", "135416.542500", "135417.002500", "135417.462500", "135417.922500", "135418.382500", "135418.842500", "135419.302500", "135419.762500", "135420.222500", "135420.682500", "135421.142500", "135421.602500", "135422.062500", "135422.522500", "135422.982500", "135423.442500", "135423.902500", "135424.362500", "135424.822500", "135425.282500", "135425.742500", "135426.202500", "135426.662500", "135427.122500", "135427.582500", "135428.042500", "135428.502500", "135428.962500", "135429.422500", "135429.882500", "135430.342500", "135430.802500", "135431.262500", "135431.722500", "135432.182500", "135432.642500", "135433.102500", "135433.562500", "135434.022500", "135434.482500", "135434.942500", "135435.402500", "135435.862500", "135436.322500", "135436.782500", "135437.242500", "135437.702500", "135438.162500", "135438.622500", "135439.082500", "135439.542500", "135440.002500", "135440.462500", "135440.922500", "135441.382500", "135441.842500", "135442.302500", "135442.762500", "135443.222500", "135443.682500", "135444.142500", "135444.602500", "135445.062500", "135445.522500", "135445.982500", "135446.442500", "135446.902500", "135447.362500", "135447.822500", "135448.282500", "135448.742500", "135449.202500", "135449.662500", "135450.122500", "135450.582500", "135451.042500", "135451.502500", "135451.962500", "135452.422500", "135452.882500", "135453.342500", "135453.802500", "135454.262500", "135454.722500", "135455.182500", "135455.642500", "135456.102500", "135456.562500", "135457.022500", "135457.482500", "135457.942500", "135458.402500", "135458.862500", "135459.322500", "135459.782500", "135500.242500", "135500.702500", "135501.162500", "135501.622500", "135502.082500", "135502.542500", "135503.002500", "135503.462500", "135503.922500", "135504.382500", "135504.842500", "135505.302500", "135505.762500", "135506.222500", "135506.682500", "135507.142500", "135507.602500", "135508.062500", "135508.522500", "135508.982500", "135509.442500", "135509.902500", "135510.362500", "135510.822500", "135511.282500", "135511.742500", "135512.202500", "135512.662500", "135513.122500", "135513.582500", "135514.042500", "135514.502500", "135514.962500", "135515.422500", "135515.882500", "135516.342500", "135516.802500", "135517.262500", "135517.722500", "135518.182500", "135518.642500", "135519.102500", "135519.562500", "135520.022500", "135520.482500", "135520.942500", "135521.402500", "135521.862500", "135522.322500", "135522.782500", "135523.242500", "135523.702500", "135524.162500", "135524.622500", "135525.082500", "135525.542500", "135526.002500", "135526.462500", "135526.922500", "135527.382500", "135527.842500", "135528.302500", "135528.762500", "135529.222500", "135529.682500", "135530.142500", "135530.602500", "135531.062500", "135531.522500", "135531.982500", "135532.442500"],
