{
  "AcquisitionMatrixPE": 82,
  "AcquisitionNumber": 1,
  "AcquisitionTime": "17:52:59.642500",
  "BandwidthPerPixelPhaseEncode": 24.888,
  "BaseResolution": 82,
  "BodyPartExamined": "BRAIN",
  "ConsistencyInfo": "N4_VE11E_LATEST_20181129",
  "ConversionSoftware": "dcm2niix",
  "ConversionSoftwareVersion": "v1.0.20201102",
  "DerivedVendorReportedEchoSpacing": 0.00049,
  "DeviceSerialNumber": "66112",
  "DwellTime": 2e-06,
  "EchoTime": 0.0272,
  "EchoTrainLength": 82,
  "EffectiveEchoSpacing": 0.00049,
  "FlipAngle": 44,
  "ImageComments": "Unaliased MB8/PE3",
  "ImageOrientationPatientDICOM": [0.995401, 0.0405339, -0.0867932, -0.0420678, 0.998988, -0.0159161],
  "ImageType": [
    "ORIGINAL",
    "PRIMARY",
    "M",
    "MB",
    "ND",
    "NORM",
    "MOSAIC"
],
  "ImagingFrequency": 123.259,
  "InPlanePhaseEncodingDirectionDICOM": "COL",
  "InstitutionAddress": "Maynard 3,Hanover,NH,US,03755",
  "InstitutionName": "Dartmouth College - PBS",
  "InstitutionalDepartmentName": "Department",
  "MRAcquisitionType": "2D",
  "MagneticFieldStrength": 3,
  "Manufacturer": "Siemens",
  "ManufacturersModelName": "Prisma",
  "Modality": "MR",
  "MultibandAccelerationFactor": 8,
  "PartialFourier": 1,
  "PatientPosition": "HFS",
  "PercentPhaseFOV": 100,
  "PercentSampling": 100,
  "PhaseEncodingDirection": "j-",
  "PhaseEncodingSteps": 82,
  "PhaseResolution": 1,
  "PixelBandwidth": 3050,
  "ProcedureStepDescription": "Wager_Wager^1076_spacetop",
  "ProtocolName": "func_run-06_task-social_acq-ap-mb8",
  "PulseSequenceDetails": "%CustomerSeq%\\cmrr_mbep2d_bold",
  "ReceiveCoilActiveElements": "HEA;HEP",
  "ReceiveCoilName": "Head_32",
  "ReconMatrixPE": 82,
  "RepetitionTime": 0.46,
  "SAR": 0.081078,
  "ScanOptions": "FS",
  "ScanningSequence": "EP",
  "SequenceName": "epfid2d1_82",
  "SequenceVariant": "SK\\SS",
  "SeriesDescription": "func_run-06_task-social_acq-ap-mb8",
  "SeriesNumber": 18,
  "ShimSetting": [4198, -7741, -7193, 435, -180, 129, 20, 41],
  "SliceThickness": 2.7,
  "SliceTiming": [0, 0.2525, 0.0625, 0.315, 0.125, 0.3775, 0.19, 0, 0.2525, 0.0625, 0.315, 0.125, 0.3775, 0.19, 0, 0.2525, 0.0625, 0.315, 0.125, 0.3775, 0.19, 0, 0.2525, 0.0625, 0.315, 0.125, 0.3775, 0.19, 0, 0.2525, 0.0625, 0.315, 0.125, 0.3775, 0.19, 0, 0.2525, 0.0625, 0.315, 0.125, 0.3775, 0.19, 0, 0.2525, 0.0625, 0.315, 0.125, 0.3775, 0.19, 0, 0.2525, 0.0625, 0.315, 0.125, 0.3775, 0.19],
  "SoftwareVersions": "syngo MR E11",
  "SpacingBetweenSlices": 2.7,
  "StationName": "AWP66112",
  "TaskName": "social",
  "TotalReadoutTime": 0.03969,
  "TxRefAmp": 232.454,
  "WipMemBlock": "19339e54-1687-49a8-b15a-8cd10a289dc6||Sequence: R016 ve11e/master r/434b28f1; Aug  7 2019 18:53:46 by eja",
  "dcmmeta_affine": [
    [-2.6705892086029053, -0.11286469548940659, -0.23236265778541565, 117.4312515258789],
    [-0.10874950140714645, 2.6802117824554443, -0.05263418331742287, -102.65340423583984],
    [-0.23285986483097076, 0.042701832950115204, 2.6894679069519043, -56.507843017578125],
    [0.0, 0.0, 0.0, 1.0]
],
  "dcmmeta_reorient_transform": [
    [0.0, -1.0, 0.0, 81.0],
    [1.0, 0.0, 0.0, 0.0],
    [0.0, 0.0, 1.0, 0.0],
    [0.0, 0.0, 0.0, 1.0]
],
  "dcmmeta_shape": [82, 82, 56, 872],
  "dcmmeta_slice_dim": 2,
  "dcmmeta_version": 0.6,
  "global": {
    "const": {
      "AccessionNumber": "A004728",
      "AcquisitionMatrix": [82, 0, 0, 82],
      "AngioFlag": "N",
      "BitsAllocated": 16,
      "BitsStored": 16,
      "BodyPartExamined": "BRAIN",
      "Columns": 656,
      "EchoNumbers": 1,
      "EchoTime": 27.2,
      "EchoTrainLength": 82,
      "FlipAngle": 44.0,
      "HighBit": 15,
      "ImageOrientationPatient": [0.99540139610052, 0.04053390546593, -0.0867932206386, -0.0420677499861, 0.99898797840349, -0.0159161369815],
      "ImagePositionPatient": [-842.35613253065, -914.87561420663, 26.037213850378],
      "ImageType": [
        "ORIGINAL",
        "PRIMARY",
        "M",
        "MB",
        "ND",
        "NORM",
        "MOSAIC"
],
      "ImagedNucleus": "1H",
      "ImagingFrequency": 123.259065,
      "InPlanePhaseEncodingDirection": "COL",
      "MRAcquisitionType": "2D",
      "MagneticFieldStrength": 3.0,
      "Manufacturer": "SIEMENS",
      "ManufacturerModelName": "Prisma",
      "Modality": "MR",
      "NumberOfAverages": 1.0,
      "NumberOfPhaseEncodingSteps": 82,
      "PercentPhaseFieldOfView": 100.0,
      "PercentSampling": 100.0,
      "PerformedProcedureStepStartTime": "171118.210000",
      "PhotometricInterpretation": "MONOCHROME2",
      "PixelBandwidth": 3050.0,
      "PixelRepresentation": 0,
      "PixelSpacing": [2.6829268932343, 2.6829268932343],
      "ProtocolName": "func_run-06_task-social_acq-ap-mb8",
      "RepetitionTime": 460.0,
      "Rows": 656,
      "SAR": 0.08107799965476,
      "SamplesPerPixel": 1,
      "ScanOptions": "FS",
      "ScanningSequence": "EP",
      "SequenceName": "epfid2d1_82",
      "SequenceVariant": [
        "SK",
        "SS"
],
      "SeriesDescription": "func_run-06_task-social_acq-ap-mb8",
      "SeriesNumber": 18,
      "SeriesTime": "175316.697000",
      "SliceLocation": -64.392437526362,
      "SliceThickness": 2.7000000476837,
      "SmallestImagePixelValue": 0,
      "SoftwareVersions": "syngo MR E11",
      "SpacingBetweenSlices": 2.7000001310982,
      "SpecificCharacterSet": "ISO_IR 100",
      "StudyID": "2",
      "StudyTime": "171118.173000",
      "TransmitCoilName": "Body",
      "VariableFlipAngleFlag": "N",
      "WindowCenterWidthExplanation": "Algo1"
    },
    "slices": {}
  },
  "time": {
    "samples": {
      "AcquisitionNumber": [1, 2, 3, 4, 5, 6, 7, 8, 9, 10, 11, 12, 13, 14, 15, 16, 17, 18, 19, 20, 21, 22, 23, 24, 25, 26, 27, 28, 29, 30, 31, 32, 33, 34, 35, 36, 37, 38, 39, 40, 41, 42, 43, 44, 45, 46, 47, 48, 49, 50, 51, 52, 53, 54, 55, 56, 57, 58, 59, 60, 61, 62, 63, 64, 65, 66, 67, 68, 69, 70, 71, 72, 73, 74, 75, 76, 77, 78, 79, 80, 81, 82, 83, 84, 85, 86, 87, 88, 89, 90, 91, 92, 93, 94, 95, 96, 97, 98, 99, 100, 101, 102, 103, 104, 105, 106, 107, 108, 109, 110, 111, 112, 113, 114, 115, 116, 117, 118, 119, 120, 121, 122, 123, 124, 125, 126, 127, 128, 129, 130, 131, 132, 133, 134, 135, 136, 137, 138, 139, 140, 141, 142, 143, 144, 145, 146, 147, 148, 149, 150, 151, 152, 153, 154, 155, 156, 157, 158, 159, 160, 161, 162, 163, 164, 165, 166, 167, 168, 169, 170, 171, 172, 173, 174, 175, 176, 177, 178, 179, 180, 181, 182, 183, 184, 185, 186, 187, 188, 189, 190, 191, 192, 193, 194, 195, 196, 197, 198, 199, 200, 201, 202, 203, 204, 205, 206, 207, 208, 209, 210, 211, 212, 213, 214, 215, 216, 217, 218, 219, 220, 221, 222, 223, 224, 225, 226, 227, 228, 229, 230, 231, 232, 233, 234, 235, 236, 237, 238, 239, 240, 241, 242, 243, 244, 245, 246, 247, 248, 249, 250, 251, 252, 253, 254, 255, 256, 257, 258, 259, 260, 261, 262, 263, 264, 265, 266, 267, 268, 269, 270, 271, 272, 273, 274, 275, 276, 277, 278, 279, 280, 281, 282, 283, 284, 285, 286, 287, 288, 289, 290, 291, 292, 293, 294, 295, 296, 297, 298, 299, 300, 301, 302, 303, 304, 305, 306, 307, 308, 309, 310, 311, 312, 313, 314, 315, 316, 317, 318, 319, 320, 321, 322, 323, 324, 325, 326, 327, 328, 329, 330, 331, 332, 333, 334, 335, 336, 337, 338, 339, 340, 341, 342, 343, 344, 345, 346, 347, 348, 349, 350, 351, 352, 353, 354, 355, 356, 357, 358, 359, 360, 361, 362, 363, 364, 365, 366, 367, 368, 369, 370, 371, 372, 373, 374, 375, 376, 377, 378, 379, 380, 381, 382, 383, 384, 385, 386, 387, 388, 389, 390, 391, 392, 393, 394, 395, 396, 397, 398, 399, 400, 401, 402, 403, 404, 405, 406, 407, 408, 409, 410, 411, 412, 413, 414, 415, 416, 417, 418, 419, 420, 421, 422, 423, 424, 425, 426, 427, 428, 429, 430, 431, 432, 433, 434, 435, 436, 437, 438, 439, 440, 441, 442, 443, 444, 445, 446, 447, 448, 449, 450, 451, 452, 453, 454, 455, 456, 457, 458, 459, 460, 461, 462, 463, 464, 465, 466, 467, 468, 469, 470, 471, 472, 473, 474, 475, 476, 477, 478, 479, 480, 481, 482, 483, 484, 485, 486, 487, 488, 489, 490, 491, 492, 493, 494, 495, 496, 497, 498, 499, 500, 501, 502, 503, 504, 505, 506, 507, 508, 509, 510, 511, 512, 513, 514, 515, 516, 517, 518, 519, 520, 521, 522, 523, 524, 525, 526, 527, 528, 529, 530, 531, 532, 533, 534, 535, 536, 537, 538, 539, 540, 541, 542, 543, 544, 545, 546, 547, 548, 549, 550, 551, 552, 553, 554, 555, 556, 557, 558, 559, 560, 561, 562, 563, 564, 565, 566, 567, 568, 569, 570, 571, 572, 573, 574, 575, 576, 577, 578, 579, 580, 581, 582, 583, 584, 585, 586, 587, 588, 589, 590, 591, 592, 593, 594, 595, 596, 597, 598, 599, 600, 601, 602, 603, 604, 605, 606, 607, 608, 609, 610, 611, 612, 613, 614, 615, 616, 617, 618, 619, 620, 621, 622, 623, 624, 625, 626, 627, 628, 629, 630, 631, 632, 633, 634, 635, 636, 637, 638, 639, 640, 641, 642, 643, 644, 645, 646, 647, 648, 649, 650, 651, 652, 653, 654, 655, 656, 657, 658, 659, 660, 661, 662, 663, 664, 665, 666, 667, 668, 669, 670, 671, 672, 673, 674, 675, 676, 677, 678, 679, 680, 681, 682, 683, 684, 685, 686, 687, 688, 689, 690, 691, 692, 693, 694, 695, 696, 697, 698, 699, 700, 701, 702, 703, 704, 705, 706, 707, 708, 709, 710, 711, 712, 713, 714, 715, 716, 717, 718, 719, 720, 721, 722, 723, 724, 725, 726, 727, 728, 729, 730, 731, 732, 733, 734, 735, 736, 737, 738, 739, 740, 741, 742, 743, 744, 745, 746, 747, 748, 749, 750, 751, 752, 753, 754, 755, 756, 757, 758, 759, 760, 761, 762, 763, 764, 765, 766, 767, 768, 769, 770, 771, 772, 773, 774, 775, 776, 777, 778, 779, 780, 781, 782, 783, 784, 785, 786, 787, 788, 789, 790, 791, 792, 793, 794, 795, 796, 797, 798, 799, 800, 801, 802, 803, 804, 805, 806, 807, 808, 809, 810, 811, 812, 813, 814, 815, 816, 817, 818, 819, 820, 821, 822, 823, 824, 825, 826, 827, 828, 829, 830, 831, 832, 833, 834, 835, 836, 837, 838, 839, 840, 841, 842, 843, 844, 845, 846, 847, 848, 849, 850, 851, 852, 853, 854, 855, 856, 857, 858, 859, 860, 861, 862, 863, 864, 865, 866, 867, 868, 869, 870, 871, 872],
      "AcquisitionTime": ["175259.642500", "175300.102500", "175300.562500", "175301.022500", "175301.482500", "175301.942500", "175302.402500", "175302.862500", "175303.322500", "175303.782500", "175304.242500", "175304.702500", "175305.162500", "175305.622500", "175306.082500", "175306.542500", "175307.002500", "175307.462500", "175307.922500", "175308.382500", "175308.842500", "175309.302500", "175309.762500", "175310.222500", "175310.682500", "175311.142500", "175311.602500", "175312.062500", "175312.522500", "175312.982500", "175313.442500", "175313.902500", "175314.362500", "175314.822500", "175315.282500", "175315.742500", "175316.202500", "175316.662500", "175317.122500", "175317.582500", "175318.042500", "175318.502500", "175318.962500", "175319.422500", "175319.882500", "175320.342500", "175320.802500", "175321.262500", "175321.722500", "175322.182500", "175322.642500", "175323.102500", "175323.562500", "175324.022500", "175324.482500", "175324.942500", "175325.402500", "175325.862500", "175326.322500", "175326.782500", "175327.242500", "175327.702500", "175328.162500", "175328.622500", "175329.082500", "175329.542500", "175330.002500", "175330.462500", "175330.922500", "175331.382500", "175331.842500", "175332.302500", "175332.762500", "175333.222500", "175333.682500", "175334.142500", "175334.602500", "175335.062500", "175335.522500", "175335.982500", "175336.442500", "175336.902500", "175337.362500", "175337.822500", "175338.282500", "175338.742500", "175339.202500", "175339.662500", "175340.122500", "175340.582500", "175341.042500", "175341.502500", "175341.962500", "175342.422500", "175342.882500", "175343.342500", "175343.802500", "175344.262500", "175344.722500", "175345.182500", "175345.642500", "175346.102500", "175346.562500", "175347.022500", "175347.482500", "175347.942500", "175348.402500", "175348.862500", "175349.322500", "175349.782500", "175350.242500", "175350.702500", "175351.162500", "175351.622500", "175352.082500", "175352.542500", "175353.002500", "175353.462500", "175353.922500", "175354.382500", "175354.842500", "175355.302500", "175355.762500", "175356.222500", "175356.682500", "175357.142500", "175357.602500", "175358.062500", "175358.522500", "175358.982500", "175359.442500", "175359.902500", "175400.362500", "175400.822500", "175401.282500", "175401.742500", "175402.202500", "175402.662500", "175403.122500", "175403.582500", "175404.042500", "175404.502500", "175404.962500", "175405.422500", "175405.882500", "175406.342500", "175406.802500", "175407.262500", "175407.722500", "175408.182500", "175408.642500", "175409.102500", "175409.562500", "175410.022500", "175410.482500", "175410.942500", "175411.402500", "175411.862500", "175412.322500", "175412.782500", "175413.242500", "175413.702500", "175414.162500", "175414.622500", "175415.082500", "175415.542500", "175416.002500", "175416.462500", "175416.922500", "175417.382500", "175417.842500", "175418.302500", "175418.762500", "175419.222500", "175419.682500", "175420.142500", "175420.602500", "175421.062500", "175421.522500", "175421.982500", "175422.442500", "175422.902500", "175423.362500", "175423.822500", "175424.282500", "175424.742500", "175425.202500", "175425.662500", "175426.122500", "175426.582500", "175427.042500", "175427.502500", "175427.962500", "175428.422500", "175428.882500", "175429.342500", "175429.802500", "175430.262500", "175430.722500", "175431.182500", "175431.642500", "175432.102500", "175432.562500", "175433.022500", "175433.482500", "175433.942500", "175434.402500", "175434.862500", "175435.322500", "175435.782500", "175436.242500", "175436.702500", "175437.162500", "175437.622500", "175438.082500", "175438.542500", "175439.002500", "175439.462500", "175439.922500", "175440.382500", "175440.842500", "175441.302500", "175441.762500", "175442.222500", "175442.682500", "175443.142500", "175443.602500", "175444.062500", "175444.522500", "175444.982500", "175445.442500", "175445.902500", "175446.362500", "175446.822500", "175447.282500", "175447.742500", "175448.202500", "175448.662500", "175449.122500", "175449.582500", "175450.042500", "175450.502500", "175450.962500", "175451.422500", "175451.882500", "175452.342500", "175452.802500", "175453.262500", "175453.722500", "175454.182500", "175454.642500", "175455.102500", "175455.562500", "175456.022500", "175456.482500", "175456.942500", "175457.402500", "175457.862500", "175458.322500", "175458.782500", "175459.242500", "175459.702500", "175500.162500", "175500.622500", "175501.082500", "175501.542500", "175502.002500", "175502.462500", "175502.922500", "175503.382500", "175503.842500", "175504.302500", "175504.762500", "175505.222500", "175505.682500", "175506.142500", "175506.602500", "175507.062500", "175507.522500", "175507.982500", "175508.442500", "175508.902500", "175509.362500", "175509.822500", "175510.282500", "175510.742500", "175511.202500", "175511.662500", "175512.122500", "175512.582500", "175513.042500", "175513.502500", "175513.962500", "175514.422500", "175514.882500", "175515.342500", "175515.802500", "175516.262500", "175516.722500", "175517.182500", "175517.642500", "175518.102500", "175518.562500", "175519.022500", "175519.482500", "175519.942500", "175520.402500", "175520.862500", "175521.322500", "175521.782500", "175522.242500", "175522.702500", "175523.162500", "175523.622500", "175524.082500", "175524.542500", "175525.002500", "175525.462500", "175525.922500", "175526.382500", "175526.842500", "175527.302500", "175527.762500", "175528.222500", "175528.682500", "175529.142500", "175529.602500", "175530.062500", "175530.522500", "175530.982500", "175531.442500", "175531.902500", "175532.362500", "175532.822500", "175533.282500", "175533.742500", "175534.202500", "175534.662500", "175535.122500", "175535.582500", "175536.042500", "175536.502500", "175536.962500", "175537.422500", "175537.882500", "175538.342500", "175538.802500", "175539.262500", "175539.722500", "175540.182500", "175540.642500", "175541.102500", "175541.562500", "175542.022500", "175542.482500", "175542.942500", "175543.402500", "175543.862500", "175544.322500", "175544.782500", "175545.242500", "175545.702500", "175546.162500", "175546.622500", "175547.082500", "175547.542500", "175548.002500", "175548.462500", "175548.922500", "175549.382500", "175549.842500", "175550.302500", "175550.762500", "175551.222500", "175551.682500", "175552.142500", "175552.602500", "175553.062500", "175553.522500", "175553.982500", "175554.442500", "175554.902500", "175555.362500", "175555.822500", "175556.282500", "175556.742500", "175557.202500", "175557.662500", "175558.122500", "175558.582500", "175559.042500", "175559.502500", "175559.962500", "175600.422500", "175600.882500", "175601.342500", "175601.802500", "175602.262500", "175602.722500", "175603.182500", "175603.642500", "175604.102500", "175604.562500", "175605.022500", "175605.482500", "175605.942500", "175606.402500", "175606.862500", "175607.322500", "175607.782500", "175608.242500", "175608.702500", "175609.162500", "175609.622500", "175610.082500", "175610.542500", "175611.002500", "175611.462500", "175611.922500", "175612.382500", "175612.842500", "175613.302500", "175613.762500", "175614.222500", "175614.682500", "175615.142500", "175615.602500", "175616.062500", "175616.522500", "175616.982500", "175617.442500", "175617.902500", "175618.362500", "175618.822500", "175619.282500", "175619.742500", "175620.202500", "175620.662500", "175621.122500", "175621.582500", "175622.042500", "175622.502500", "175622.962500", "175623.422500", "175623.882500", "175624.342500", "175624.802500", "175625.262500", "175625.722500", "175626.182500", "175626.642500", "175627.102500", "175627.562500", "175628.022500", "175628.482500", "175628.942500", "175629.402500", "175629.862500", "175630.322500", "175630.782500", "175631.242500", "175631.702500", "175632.162500", "175632.622500", "175633.082500", "175633.542500", "175634.002500", "175634.462500", "175634.922500", "175635.382500", "175635.842500", "175636.302500", "175636.762500", "175637.222500", "175637.682500", "175638.142500", "175638.602500", "175639.062500", "175639.522500", "175639.982500", "175640.442500", "175640.902500", "175641.362500", "175641.822500", "175642.282500", "175642.742500", "175643.202500", "175643.662500", "175644.122500", "175644.582500", "175645.042500", "175645.502500", "175645.962500", "175646.422500", "175646.882500", "175647.342500", "175647.802500", "175648.262500", "175648.722500", "175649.182500", "175649.642500", "175650.102500", "175650.562500", "175651.022500", "175651.482500", "175651.942500", "175652.402500", "175652.862500", "175653.322500", "175653.782500", "175654.242500", "175654.702500", "175655.162500", "175655.622500", "175656.082500", "175656.542500", "175657.002500", "175657.462500", "175657.922500", "175658.382500", "175658.842500", "175659.302500", "175659.762500", "175700.222500", "175700.682500", "175701.142500", "175701.602500", "175702.062500", "175702.522500", "175702.982500", "175703.442500", "175703.902500", "175704.362500", "175704.822500", "175705.282500", "175705.742500", "175706.202500", "175706.662500", "175707.122500", "175707.582500", "175708.042500", "175708.502500", "175708.962500", "175709.422500", "175709.882500", "175710.342500", "175710.802500", "175711.262500", "175711.722500", "175712.182500", "175712.642500", "175713.102500", "175713.562500", "175714.022500", "175714.482500", "175714.942500", "175715.402500", "175715.862500", "175716.322500", "175716.782500", "175717.242500", "175717.702500", "175718.162500", "175718.622500", "175719.082500", "175719.542500", "175720.002500", "175720.462500", "175720.922500", "175721.382500", "175721.842500", "175722.302500", "175722.762500", "175723.222500", "175723.682500", "175724.142500", "175724.602500", "175725.062500", "175725.522500", "175725.982500", "175726.442500", "175726.902500", "175727.362500", "175727.822500", "175728.282500", "175728.742500", "175729.202500", "175729.662500", "175730.122500", "175730.582500", "175731.042500", "175731.502500", "175731.962500", "175732.422500", "175732.882500", "175733.342500", "175733.802500", "175734.262500", "175734.722500", "175735.182500", "175735.642500", "175736.102500", "175736.562500", "175737.022500", "175737.482500", "175737.942500", "175738.402500", "175738.862500", "175739.322500", "175739.782500", "175740.242500", "175740.702500", "175741.162500", "175741.622500", "175742.082500", "175742.542500", "175743.002500", "175743.462500", "175743.922500", "175744.382500", "175744.842500", "175745.302500", "175745.762500", "175746.222500", "175746.682500", "175747.142500", "175747.602500", "175748.062500", "175748.522500", "175748.982500", "175749.442500", "175749.902500", "175750.362500", "175750.822500", "175751.282500", "175751.742500", "175752.202500", "175752.662500", "175753.122500", "175753.582500", "175754.042500", "175754.502500", "175754.962500", "175755.422500", "175755.882500", "175756.342500", "175756.802500", "175757.262500", "175757.722500", "175758.182500", "175758.642500", "175759.102500", "175759.562500", "175800.022500", "175800.482500", "175800.942500", "175801.402500", "175801.862500", "175802.322500", "175802.782500", "175803.242500", "175803.702500", "175804.162500", "175804.622500", "175805.082500", "175805.542500", "175806.002500", "175806.462500", "175806.922500", "175807.382500", "175807.842500", "175808.302500", "175808.762500", "175809.222500", "175809.682500", "175810.142500", "175810.602500", "175811.062500", "175811.522500", "175811.982500", "175812.442500", "175812.902500", "175813.362500", "175813.822500", "175814.282500", "175814.742500", "175815.202500", "175815.662500", "175816.122500", "175816.582500", "175817.042500", "175817.502500", "175817.962500", "175818.422500", "175818.882500", "175819.342500", "175819.802500", "175820.262500", "175820.722500", "175821.182500", "175821.642500", "175822.102500", "175822.562500", "175823.022500", "175823.482500", "175823.942500", "175824.402500", "175824.862500", "175825.322500", "175825.782500", "175826.242500", "175826.702500", "175827.162500", "175827.622500", "175828.082500", "175828.542500", "175829.002500", "175829.462500", "175829.922500", "175830.382500", "175830.842500", "175831.302500", "175831.762500", "175832.222500", "175832.682500", "175833.142500", "175833.602500", "175834.062500", "175834.522500", "175834.982500", "175835.442500", "175835.902500", "175836.362500", "175836.822500", "175837.282500", "175837.742500", "175838.202500", "175838.662500", "175839.122500", "175839.582500", "175840.042500", "175840.502500", "175840.962500", "175841.422500", "175841.882500", "175842.342500", "175842.802500", "175843.262500", "175843.722500", "175844.182500", "175844.642500", "175845.102500", "175845.562500", "175846.022500", "175846.482500", "175846.942500", "175847.402500", "175847.862500", "175848.322500", "175848.782500", "175849.242500", "175849.702500", "175850.162500", "175850.622500", "175851.082500", "175851.542500", "175852.002500", "175852.462500", "175852.922500", "175853.382500", "175853.842500", "175854.302500", "175854.762500", "175855.222500", "175855.682500", "175856.142500", "175856.602500", "175857.062500", "175857.522500", "175857.982500", "175858.442500", "175858.902500", "175859.362500", "175859.822500", "175900.282500", "175900.742500", "175901.202500", "175901.662500", "175902.122500", "175902.582500", "175903.042500", "175903.502500", "175903.962500", "175904.422500", "175904.882500", "175905.342500", "175905.802500", "175906.262500", "175906.722500", "175907.182500", "175907.642500", "175908.102500", "175908.562500", "175909.022500", "175909.482500", "175909.942500", "175910.402500", "175910.862500", "175911.322500", "175911.782500", "175912.242500", "175912.702500", "175913.162500", "175913.622500", "175914.082500", "175914.542500", "175915.002500", "175915.462500", "175915.922500", "175916.382500", "175916.842500", "175917.302500", "175917.762500", "175918.222500", "175918.682500", "175919.142500", "175919.602500", "175920.062500", "175920.522500", "175920.982500", "175921.442500", "175921.902500", "175922.362500", "175922.822500", "175923.282500", "175923.742500", "175924.202500", "175924.662500", "175925.122500", "175925.582500", "175926.042500", "175926.502500", "175926.962500", "175927.422500", "175927.882500", "175928.342500", "175928.802500", "175929.262500", "175929.722500", "175930.182500", "175930.642500", "175931.102500", "175931.562500", "175932.022500", "175932.482500", "175932.942500", "175933.402500", "175933.862500", "175934.322500", "175934.782500", "175935.242500", "175935.702500", "175936.162500", "175936.622500", "175937.082500", "175937.542500", "175938.002500", "175938.462500", "175938.922500", "175939.382500", "175939.842500", "175940.302500"],
