{
  "AcquisitionMatrixPE": 82,
  "AcquisitionNumber": 1,
  "AcquisitionTime": "17:23:49.825000",
  "BandwidthPerPixelPhaseEncode": 24.888,
  "BaseResolution": 82,
  "BodyPartExamined": "BRAIN",
  "ConsistencyInfo": "N4_VE11E_LATEST_20181129",
  "ConversionSoftware": "dcm2niix",
  "ConversionSoftwareVersion": "v1.0.20201102",
  "DerivedVendorReportedEchoSpacing": 0.00049,
  "DeviceSerialNumber": "66112",
  "DwellTime": 2e-06,
  "EchoTime": 0.0272,
  "EchoTrainLength": 82,
  "EffectiveEchoSpacing": 0.00049,
  "FlipAngle": 44,
  "ImageComments": "Unaliased MB8/PE3",
  "ImageOrientationPatientDICOM": [0.995401, 0.0405339, -0.0867932, -0.0420678, 0.998988, -0.0159161],
  "ImageType": [
    "ORIGINAL",
    "PRIMARY",
    "M",
    "MB",
    "ND",
    "NORM",
    "MOSAIC"
],
  "ImagingFrequency": 123.259,
  "InPlanePhaseEncodingDirectionDICOM": "COL",
  "InstitutionAddress": "Maynard 3,Hanover,NH,US,03755",
  "InstitutionName": "Dartmouth College - PBS",
  "InstitutionalDepartmentName": "Department",
  "MRAcquisitionType": "2D",
  "MagneticFieldStrength": 3,
  "Manufacturer": "Siemens",
  "ManufacturersModelName": "Prisma",
  "Modality": "MR",
  "MultibandAccelerationFactor": 8,
  "PartialFourier": 1,
  "PatientPosition": "HFS",
  "PercentPhaseFOV": 100,
  "PercentSampling": 100,
  "PhaseEncodingDirection": "j-",
  "PhaseEncodingSteps": 82,
  "PhaseResolution": 1,
  "PixelBandwidth": 3050,
  "ProcedureStepDescription": "Wager_Wager^1076_spacetop",
  "ProtocolName": "func_run-02_task-social_acq-ap-mb8",
  "PulseSequenceDetails": "%CustomerSeq%\\cmrr_mbep2d_bold",
  "ReceiveCoilActiveElements": "HEA;HEP",
  "ReceiveCoilName": "Head_32",
  "ReconMatrixPE": 82,
  "RepetitionTime": 0.46,
  "SAR": 0.081078,
  "ScanOptions": "FS",
  "ScanningSequence": "EP",
  "SequenceName": "epfid2d1_82",
  "SequenceVariant": "SK\\SS",
  "SeriesDescription": "func_run-02_task-social_acq-ap-mb8",
  "SeriesNumber": 10,
  "ShimSetting": [4198, -7741, -7193, 435, -180, 129, 20, 41],
  "SliceThickness": 2.7,
  "SliceTiming": [0, 0.25, 0.0625, 0.3125, 0.125, 0.375, 0.1875, 0, 0.25, 0.0625, 0.3125, 0.125, 0.375, 0.1875, 0, 0.25, 0.0625, 0.3125, 0.125, 0.375, 0.1875, 0, 0.25, 0.0625, 0.3125, 0.125, 0.375, 0.1875, 0, 0.25, 0.0625, 0.3125, 0.125, 0.375, 0.1875, 0, 0.25, 0.0625, 0.3125, 0.125, 0.375, 0.1875, 0, 0.25, 0.0625, 0.3125, 0.125, 0.375, 0.1875, 0, 0.25, 0.0625, 0.3125, 0.125, 0.375, 0.1875],
  "SoftwareVersions": "syngo MR E11",
  "SpacingBetweenSlices": 2.7,
  "StationName": "AWP66112",
  "TaskName": "social",
  "TotalReadoutTime": 0.03969,
  "TxRefAmp": 232.454,
  "WipMemBlock": "7041b452-3cdd-42f0-ba69-7245d5fd4fc0||Sequence: R016 ve11e/master r/434b28f1; Aug  7 2019 18:53:46 by eja",
  "dcmmeta_affine": [
    [-2.6705892086029053, -0.11286469548940659, -0.23236265778541565, 117.4312515258789],
    [-0.10874950140714645, 2.6802117824554443, -0.05263418331742287, -102.65340423583984],
    [-0.23285986483097076, 0.042701832950115204, 2.6894679069519043, -56.507843017578125],
    [0.0, 0.0, 0.0, 1.0]
],
  "dcmmeta_reorient_transform": [
    [0.0, -1.0, 0.0, 81.0],
    [1.0, 0.0, 0.0, 0.0],
    [0.0, 0.0, 1.0, 0.0],
    [0.0, 0.0, 0.0, 1.0]
],
  "dcmmeta_shape": [82, 82, 56, 872],
  "dcmmeta_slice_dim": 2,
  "dcmmeta_version": 0.6,
  "global": {
    "const": {
      "AccessionNumber": "A004728",
      "AcquisitionMatrix": [82, 0, 0, 82],
      "AngioFlag": "N",
      "BitsAllocated": 16,
      "BitsStored": 16,
      "BodyPartExamined": "BRAIN",
      "Columns": 656,
      "EchoNumbers": 1,
      "EchoTime": 27.2,
      "EchoTrainLength": 82,
      "FlipAngle": 44.0,
      "HighBit": 15,
      "ImageOrientationPatient": [0.99540139610052, 0.04053390546593, -0.0867932206386, -0.0420677499861, 0.99898797840349, -0.0159161369815],
      "ImagePositionPatient": [-842.35613253065, -914.87561420663, 26.037213850378],
      "ImageType": [
        "ORIGINAL",
        "PRIMARY",
        "M",
        "MB",
        "ND",
        "NORM",
        "MOSAIC"
],
      "ImagedNucleus": "1H",
      "ImagingFrequency": 123.259048,
      "InPlanePhaseEncodingDirection": "COL",
      "MRAcquisitionType": "2D",
      "MagneticFieldStrength": 3.0,
      "Manufacturer": "SIEMENS",
      "ManufacturerModelName": "Prisma",
      "Modality": "MR",
      "NumberOfAverages": 1.0,
      "NumberOfPhaseEncodingSteps": 82,
      "PercentPhaseFieldOfView": 100.0,
      "PercentSampling": 100.0,
      "PerformedProcedureStepStartTime": "171118.210000",
      "PhotometricInterpretation": "MONOCHROME2",
      "PixelBandwidth": 3050.0,
      "PixelRepresentation": 0,
      "PixelSpacing": [2.6829268932343, 2.6829268932343],
      "ProtocolName": "func_run-02_task-social_acq-ap-mb8",
      "RepetitionTime": 460.0,
      "Rows": 656,
      "SAR": 0.08107799965476,
      "SamplesPerPixel": 1,
      "ScanOptions": "FS",
      "ScanningSequence": "EP",
      "SequenceName": "epfid2d1_82",
      "SequenceVariant": [
        "SK",
        "SS"
],
      "SeriesDescription": "func_run-02_task-social_acq-ap-mb8",
      "SeriesNumber": 10,
      "SeriesTime": "172416.855000",
      "SliceLocation": -64.392437526362,
      "SliceThickness": 2.7000000476837,
      "SmallestImagePixelValue": 0,
      "SoftwareVersions": "syngo MR E11",
      "SpacingBetweenSlices": 2.7000001310982,
      "SpecificCharacterSet": "ISO_IR 100",
      "StudyID": "2",
      "StudyTime": "171118.173000",
      "TransmitCoilName": "Body",
      "VariableFlipAngleFlag": "N",
      "WindowCenterWidthExplanation": "Algo1"
    },
    "slices": {}
  },
  "time": {
    "samples": {
      "AcquisitionNumber": [1, 2, 3, 4, 5, 6, 7, 8, 9, 10, 11, 12, 13, 14, 15, 16, 17, 18, 19, 20, 21, 22, 23, 24, 25, 26, 27, 28, 29, 30, 31, 32, 33, 34, 35, 36, 37, 38, 39, 40, 41, 42, 43, 44, 45, 46, 47, 48, 49, 50, 51, 52, 53, 54, 55, 56, 57, 58, 59, 60, 61, 62, 63, 64, 65, 66, 67, 68, 69, 70, 71, 72, 73, 74, 75, 76, 77, 78, 79, 80, 81, 82, 83, 84, 85, 86, 87, 88, 89, 90, 91, 92, 93, 94, 95, 96, 97, 98, 99, 100, 101, 102, 103, 104, 105, 106, 107, 108, 109, 110, 111, 112, 113, 114, 115, 116, 117, 118, 119, 120, 121, 122, 123, 124, 125, 126, 127, 128, 129, 130, 131, 132, 133, 134, 135, 136, 137, 138, 139, 140, 141, 142, 143, 144, 145, 146, 147, 148, 149, 150, 151, 152, 153, 154, 155, 156, 157, 158, 159, 160, 161, 162, 163, 164, 165, 166, 167, 168, 169, 170, 171, 172, 173, 174, 175, 176, 177, 178, 179, 180, 181, 182, 183, 184, 185, 186, 187, 188, 189, 190, 191, 192, 193, 194, 195, 196, 197, 198, 199, 200, 201, 202, 203, 204, 205, 206, 207, 208, 209, 210, 211, 212, 213, 214, 215, 216, 217, 218, 219, 220, 221, 222, 223, 224, 225, 226, 227, 228, 229, 230, 231, 232, 233, 234, 235, 236, 237, 238, 239, 240, 241, 242, 243, 244, 245, 246, 247, 248, 249, 250, 251, 252, 253, 254, 255, 256, 257, 258, 259, 260, 261, 262, 263, 264, 265, 266, 267, 268, 269, 270, 271, 272, 273, 274, 275, 276, 277, 278, 279, 280, 281, 282, 283, 284, 285, 286, 287, 288, 289, 290, 291, 292, 293, 294, 295, 296, 297, 298, 299, 300, 301, 302, 303, 304, 305, 306, 307, 308, 309, 310, 311, 312, 313, 314, 315, 316, 317, 318, 319, 320, 321, 322, 323, 324, 325, 326, 327, 328, 329, 330, 331, 332, 333, 334, 335, 336, 337, 338, 339, 340, 341, 342, 343, 344, 345, 346, 347, 348, 349, 350, 351, 352, 353, 354, 355, 356, 357, 358, 359, 360, 361, 362, 363, 364, 365, 366, 367, 368, 369, 370, 371, 372, 373, 374, 375, 376, 377, 378, 379, 380, 381, 382, 383, 384, 385, 386, 387, 388, 389, 390, 391, 392, 393, 394, 395, 396, 397, 398, 399, 400, 401, 402, 403, 404, 405, 406, 407, 408, 409, 410, 411, 412, 413, 414, 415, 416, 417, 418, 419, 420, 421, 422, 423, 424, 425, 426, 427, 428, 429, 430, 431, 432, 433, 434, 435, 436, 437, 438, 439, 440, 441, 442, 443, 444, 445, 446, 447, 448, 449, 450, 451, 452, 453, 454, 455, 456, 457, 458, 459, 460, 461, 462, 463, 464, 465, 466, 467, 468, 469, 470, 471, 472, 473, 474, 475, 476, 477, 478, 479, 480, 481, 482, 483, 484, 485, 486, 487, 488, 489, 490, 491, 492, 493, 494, 495, 496, 497, 498, 499, 500, 501, 502, 503, 504, 505, 506, 507, 508, 509, 510, 511, 512, 513, 514, 515, 516, 517, 518, 519, 520, 521, 522, 523, 524, 525, 526, 527, 528, 529, 530, 531, 532, 533, 534, 535, 536, 537, 538, 539, 540, 541, 542, 543, 544, 545, 546, 547, 548, 549, 550, 551, 552, 553, 554, 555, 556, 557, 558, 559, 560, 561, 562, 563, 564, 565, 566, 567, 568, 569, 570, 571, 572, 573, 574, 575, 576, 577, 578, 579, 580, 581, 582, 583, 584, 585, 586, 587, 588, 589, 590, 591, 592, 593, 594, 595, 596, 597, 598, 599, 600, 601, 602, 603, 604, 605, 606, 607, 608, 609, 610, 611, 612, 613, 614, 615, 616, 617, 618, 619, 620, 621, 622, 623, 624, 625, 626, 627, 628, 629, 630, 631, 632, 633, 634, 635, 636, 637, 638, 639, 640, 641, 642, 643, 644, 645, 646, 647, 648, 649, 650, 651, 652, 653, 654, 655, 656, 657, 658, 659, 660, 661, 662, 663, 664, 665, 666, 667, 668, 669, 670, 671, 672, 673, 674, 675, 676, 677, 678, 679, 680, 681, 682, 683, 684, 685, 686, 687, 688, 689, 690, 691, 692, 693, 694, 695, 696, 697, 698, 699, 700, 701, 702, 703, 704, 705, 706, 707, 708, 709, 710, 711, 712, 713, 714, 715, 716, 717, 718, 719, 720, 721, 722, 723, 724, 725, 726, 727, 728, 729, 730, 731, 732, 733, 734, 735, 736, 737, 738, 739, 740, 741, 742, 743, 744, 745, 746, 747, 748, 749, 750, 751, 752, 753, 754, 755, 756, 757, 758, 759, 760, 761, 762, 763, 764, 765, 766, 767, 768, 769, 770, 771, 772, 773, 774, 775, 776, 777, 778, 779, 780, 781, 782, 783, 784, 785, 786, 787, 788, 789, 790, 791, 792, 793, 794, 795, 796, 797, 798, 799, 800, 801, 802, 803, 804, 805, 806, 807, 808, 809, 810, 811, 812, 813, 814, 815, 816, 817, 818, 819, 820, 821, 822, 823, 824, 825, 826, 827, 828, 829, 830, 831, 832, 833, 834, 835, 836, 837, 838, 839, 840, 841, 842, 843, 844, 845, 846, 847, 848, 849, 850, 851, 852, 853, 854, 855, 856, 857, 858, 859, 860, 861, 862, 863, 864, 865, 866, 867, 868, 869, 870, 871, 872],
      "AcquisitionTime": ["172349.825000", "172350.285000", "172350.745000", "172351.205000", "172351.665000", "172352.125000", "172352.585000", "172353.045000", "172353.505000", "172353.965000", "172354.425000", "172354.885000", "172355.345000", "172355.805000", "172356.265000", "172356.725000", "172357.185000", "172357.645000", "172358.105000", "172358.565000", "172359.025000", "172359.485000", "172359.945000", "172400.405000", "172400.865000", "172401.325000", "172401.785000", "172402.245000", "172402.705000", "172403.165000", "172403.625000", "172404.085000", "172404.545000", "172405.005000", "172405.465000", "172405.925000", "172406.385000", "172406.845000", "172407.305000", "172407.765000", "172408.225000", "172408.685000", "172409.145000", "172409.605000", "172410.065000", "172410.525000", "172410.985000", "172411.445000", "172411.905000", "172412.365000", "172412.825000", "172413.285000", "172413.745000", "172414.205000", "172414.665000", "172415.125000", "172415.585000", "172416.045000", "172416.505000", "172416.965000", "172417.425000", "172417.885000", "172418.345000", "172418.805000", "172419.265000", "172419.725000", "172420.185000", "172420.645000", "172421.105000", "172421.565000", "172422.025000", "172422.485000", "172422.945000", "172423.405000", "172423.865000", "172424.325000", "172424.785000", "172425.245000", "172425.705000", "172426.165000", "172426.625000", "172427.085000", "172427.545000", "172428.005000", "172428.465000", "172428.925000", "172429.385000", "172429.845000", "172430.305000", "172430.765000", "172431.225000", "172431.685000", "172432.145000", "172432.605000", "172433.065000", "172433.525000", "172433.985000", "172434.445000", "172434.905000", "172435.365000", "172435.825000", "172436.285000", "172436.745000", "172437.205000", "172437.665000", "172438.125000", "172438.585000", "172439.045000", "172439.505000", "172439.965000", "172440.425000", "172440.885000", "172441.345000", "172441.805000", "172442.265000", "172442.725000", "172443.185000", "172443.645000", "172444.105000", "172444.565000", "172445.025000", "172445.485000", "172445.945000", "172446.405000", "172446.865000", "172447.325000", "172447.785000", "172448.245000", "172448.705000", "172449.165000", "172449.625000", "172450.085000", "172450.545000", "172451.005000", "172451.465000", "172451.925000", "172452.385000", "172452.845000", "172453.305000", "172453.765000", "172454.225000", "172454.685000", "172455.145000", "172455.605000", "172456.065000", "172456.525000", "172456.985000", "172457.445000", "172457.905000", "172458.365000", "172458.825000", "172459.285000", "172459.745000", "172500.205000", "172500.665000", "172501.125000", "172501.585000", "172502.045000", "172502.505000", "172502.965000", "172503.425000", "172503.885000", "172504.345000", "172504.805000", "172505.265000", "172505.725000", "172506.185000", "172506.645000", "172507.105000", "172507.565000", "172508.025000", "172508.485000", "172508.945000", "172509.405000", "172509.865000", "172510.325000", "172510.785000", "172511.245000", "172511.705000", "172512.165000", "172512.625000", "172513.085000", "172513.545000", "172514.005000", "172514.465000", "172514.925000", "172515.385000", "172515.845000", "172516.305000", "172516.765000", "172517.225000", "172517.685000", "172518.145000", "172518.605000", "172519.065000", "172519.525000", "172519.985000", "172520.445000", "172520.905000", "172521.365000", "172521.825000", "172522.285000", "172522.745000", "172523.205000", "172523.665000", "172524.125000", "172524.585000", "172525.045000", "172525.505000", "172525.965000", "172526.425000", "172526.885000", "172527.345000", "172527.805000", "172528.265000", "172528.725000", "172529.185000", "172529.645000", "172530.105000", "172530.565000", "172531.025000", "172531.485000", "172531.945000", "172532.405000", "172532.865000", "172533.325000", "172533.785000", "172534.245000", "172534.705000", "172535.165000", "172535.625000", "172536.085000", "172536.545000", "172537.005000", "172537.465000", "172537.925000", "172538.385000", "172538.845000", "172539.305000", "172539.765000", "172540.225000", "172540.685000", "172541.145000", "172541.605000", "172542.065000", "172542.525000", "172542.985000", "172543.445000", "172543.905000", "172544.365000", "172544.825000", "172545.285000", "172545.745000", "172546.205000", "172546.665000", "172547.125000", "172547.585000", "172548.045000", "172548.505000", "172548.965000", "172549.425000", "172549.885000", "172550.345000", "172550.805000", "172551.265000", "172551.725000", "172552.185000", "172552.645000", "172553.105000", "172553.565000", "172554.025000", "172554.485000", "172554.945000", "172555.405000", "172555.865000", "172556.325000", "172556.785000", "172557.245000", "172557.705000", "172558.165000", "172558.625000", "172559.085000", "172559.545000", "172600.005000", "172600.465000", "172600.925000", "172601.385000", "172601.845000", "172602.305000", "172602.765000", "172603.225000", "172603.685000", "172604.145000", "172604.605000", "172605.065000", "172605.525000", "172605.985000", "172606.445000", "172606.905000", "172607.365000", "172607.825000", "172608.285000", "172608.745000", "172609.205000", "172609.665000", "172610.125000", "172610.585000", "172611.045000", "172611.505000", "172611.965000", "172612.425000", "172612.885000", "172613.345000", "172613.805000", "172614.265000", "172614.725000", "172615.185000", "172615.645000", "172616.105000", "172616.565000", "172617.025000", "172617.485000", "172617.945000", "172618.405000", "172618.865000", "172619.325000", "172619.785000", "172620.245000", "172620.705000", "172621.165000", "172621.625000", "172622.085000", "172622.545000", "172623.005000", "172623.465000", "172623.925000", "172624.385000", "172624.845000", "172625.305000", "172625.765000", "172626.225000", "172626.685000", "172627.145000", "172627.605000", "172628.065000", "172628.525000", "172628.985000", "172629.445000", "172629.905000", "172630.365000", "172630.825000", "172631.285000", "172631.745000", "172632.205000", "172632.665000", "172633.125000", "172633.585000", "172634.045000", "172634.505000", "172634.965000", "172635.425000", "172635.885000", "172636.345000", "172636.805000", "172637.265000", "172637.725000", "172638.185000", "172638.645000", "172639.105000", "172639.565000", "172640.025000", "172640.485000", "172640.945000", "172641.405000", "172641.865000", "172642.325000", "172642.785000", "172643.245000", "172643.705000", "172644.165000", "172644.625000", "172645.085000", "172645.545000", "172646.005000", "172646.465000", "172646.925000", "172647.385000", "172647.845000", "172648.305000", "172648.765000", "172649.225000", "172649.685000", "172650.145000", "172650.605000", "172651.065000", "172651.525000", "172651.985000", "172652.445000", "172652.905000", "172653.365000", "172653.825000", "172654.285000", "172654.745000", "172655.205000", "172655.665000", "172656.125000", "172656.585000", "172657.045000", "172657.505000", "172657.965000", "172658.425000", "172658.885000", "172659.345000", "172659.805000", "172700.265000", "172700.725000", "172701.185000", "172701.645000", "172702.105000", "172702.565000", "172703.025000", "172703.485000", "172703.945000", "172704.405000", "172704.865000", "172705.325000", "172705.785000", "172706.245000", "172706.705000", "172707.165000", "172707.625000", "172708.085000", "172708.545000", "172709.005000", "172709.465000", "172709.925000", "172710.385000", "172710.845000", "172711.305000", "172711.765000", "172712.225000", "172712.685000", "172713.145000", "172713.605000", "172714.065000", "172714.525000", "172714.985000", "172715.445000", "172715.905000", "172716.365000", "172716.825000", "172717.285000", "172717.745000", "172718.205000", "172718.665000", "172719.125000", "172719.585000", "172720.045000", "172720.505000", "172720.965000", "172721.425000", "172721.885000", "172722.345000", "172722.805000", "172723.265000", "172723.725000", "172724.185000", "172724.645000", "172725.105000", "172725.565000", "172726.025000", "172726.485000", "172726.945000", "172727.405000", "172727.865000", "172728.325000", "172728.785000", "172729.245000", "172729.705000", "172730.165000", "172730.625000", "172731.085000", "172731.545000", "172732.005000", "172732.465000", "172732.925000", "172733.385000", "172733.845000", "172734.305000", "172734.765000", "172735.225000", "172735.685000", "172736.145000", "172736.605000", "172737.065000", "172737.525000", "172737.985000", "172738.445000", "172738.905000", "172739.365000", "172739.825000", "172740.285000", "172740.745000", "172741.205000", "172741.665000", "172742.125000", "172742.585000", "172743.045000", "172743.505000", "172743.965000", "172744.425000", "172744.885000", "172745.345000", "172745.805000", "172746.265000", "172746.725000", "172747.185000", "172747.645000", "172748.105000", "172748.565000", "172749.025000", "172749.485000", "172749.945000", "172750.405000", "172750.865000", "172751.325000", "172751.785000", "172752.245000", "172752.705000", "172753.165000", "172753.625000", "172754.085000", "172754.545000", "172755.005000", "172755.465000", "172755.925000", "172756.385000", "172756.845000", "172757.305000", "172757.765000", "172758.225000", "172758.685000", "172759.145000", "172759.605000", "172800.065000", "172800.525000", "172800.985000", "172801.445000", "172801.905000", "172802.365000", "172802.825000", "172803.285000", "172803.745000", "172804.205000", "172804.665000", "172805.125000", "172805.585000", "172806.045000", "172806.505000", "172806.965000", "172807.425000", "172807.885000", "172808.345000", "172808.805000", "172809.265000", "172809.725000", "172810.185000", "172810.645000", "172811.105000", "172811.565000", "172812.025000", "172812.485000", "172812.945000", "172813.405000", "172813.865000", "172814.325000", "172814.785000", "172815.245000", "172815.705000", "172816.165000", "172816.625000", "172817.085000", "172817.545000", "172818.005000", "172818.465000", "172818.925000", "172819.385000", "172819.845000", "172820.305000", "172820.765000", "172821.225000", "172821.685000", "172822.145000", "172822.605000", "172823.065000", "172823.525000", "172823.985000", "172824.445000", "172824.905000", "172825.365000", "172825.825000", "172826.285000", "172826.745000", "172827.205000", "172827.665000", "172828.125000", "172828.585000", "172829.045000", "172829.505000", "172829.965000", "172830.425000", "172830.885000", "172831.345000", "172831.805000", "172832.265000", "172832.725000", "172833.185000", "172833.645000", "172834.105000", "172834.565000", "172835.025000", "172835.485000", "172835.945000", "172836.405000", "172836.865000", "172837.325000", "172837.785000", "172838.245000", "172838.705000", "172839.165000", "172839.625000", "172840.085000", "172840.545000", "172841.005000", "172841.465000", "172841.925000", "172842.385000", "172842.845000", "172843.305000", "172843.765000", "172844.225000", "172844.685000", "172845.145000", "172845.605000", "172846.065000", "172846.525000", "172846.985000", "172847.445000", "172847.905000", "172848.365000", "172848.825000", "172849.285000", "172849.745000", "172850.205000", "172850.665000", "172851.125000", "172851.585000", "172852.045000", "172852.505000", "172852.965000", "172853.425000", "172853.885000", "172854.345000", "172854.805000", "172855.265000", "172855.725000", "172856.185000", "172856.645000", "172857.105000", "172857.565000", "172858.025000", "172858.485000", "172858.945000", "172859.405000", "172859.865000", "172900.325000", "172900.785000", "172901.245000", "172901.705000", "172902.165000", "172902.625000", "172903.085000", "172903.545000", "172904.005000", "172904.465000", "172904.925000", "172905.385000", "172905.845000", "172906.305000", "172906.765000", "172907.225000", "172907.685000", "172908.145000", "172908.605000", "172909.065000", "172909.525000", "172909.985000", "172910.445000", "172910.905000", "172911.365000", "172911.825000", "172912.285000", "172912.745000", "172913.205000", "172913.665000", "172914.125000", "172914.585000", "172915.045000", "172915.505000", "172915.965000", "172916.425000", "172916.885000", "172917.345000", "172917.805000", "172918.265000", "172918.725000", "172919.185000", "172919.645000", "172920.105000", "172920.565000", "172921.025000", "172921.485000", "172921.945000", "172922.405000", "172922.865000", "172923.325000", "172923.785000", "172924.245000", "172924.705000", "172925.165000", "172925.625000", "172926.085000", "172926.545000", "172927.005000", "172927.465000", "172927.925000", "172928.385000", "172928.845000", "172929.305000", "172929.765000", "172930.225000", "172930.685000", "172931.145000", "172931.605000", "172932.065000", "172932.525000", "172932.985000", "172933.445000", "172933.905000", "172934.365000", "172934.825000", "172935.285000", "172935.745000", "172936.205000", "172936.665000", "172937.125000", "172937.585000", "172938.045000", "172938.505000", "172938.965000", "172939.425000", "172939.885000", "172940.345000", "172940.805000", "172941.265000", "172941.725000", "172942.185000", "172942.645000", "172943.105000", "172943.565000", "172944.025000", "172944.485000", "172944.945000", "172945.405000", "172945.865000", "172946.325000", "172946.785000", "172947.245000", "172947.705000", "172948.165000", "172948.625000", "172949.085000", "172949.545000", "172950.005000", "172950.465000", "172950.925000", "172951.385000", "172951.845000", "172952.305000", "172952.765000", "172953.225000", "172953.685000", "172954.145000", "172954.605000", "172955.065000", "172955.525000", "172955.985000", "172956.445000", "172956.905000", "172957.365000", "172957.825000", "172958.285000", "172958.745000", "172959.205000", "172959.665000", "173000.125000", "173000.585000", "173001.045000", "173001.505000", "173001.965000", "173002.425000", "173002.885000", "173003.345000", "173003.805000", "173004.265000", "173004.725000", "173005.185000", "173005.645000", "173006.105000", "173006.565000", "173007.025000", "173007.485000", "173007.945000", "173008.405000", "173008.865000", "173009.325000", "173009.785000", "173010.245000", "173010.705000", "173011.165000", "173011.625000", "173012.085000", "173012.545000", "173013.005000", "173013.465000", "173013.925000", "173014.385000", "173014.845000", "173015.305000", "173015.765000", "173016.225000", "173016.685000", "173017.145000", "173017.605000", "173018.065000", "173018.525000", "173018.985000", "173019.445000", "173019.905000", "173020.365000", "173020.825000", "173021.285000", "173021.745000", "173022.205000", "173022.665000", "173023.125000", "173023.585000", "173024.045000", "173024.505000", "173024.965000", "173025.425000", "173025.885000", "173026.345000", "173026.805000", "173027.265000", "173027.725000", "173028.185000", "173028.645000", "173029.105000", "173029.565000", "173030.025000", "173030.485000"],
