{
  "AcquisitionMatrixPE": 82,
  "AcquisitionNumber": 1,
  "AcquisitionTime": "17:13:27.022500",
  "BandwidthPerPixelPhaseEncode": 24.888,
  "BaseResolution": 82,
  "BodyPartExamined": "BRAIN",
  "ConsistencyInfo": "N4_VE11E_LATEST_20181129",
  "ConversionSoftware": "dcm2niix",
  "ConversionSoftwareVersion": "v1.0.20201102",
  "DerivedVendorReportedEchoSpacing": 0.00049,
  "DeviceSerialNumber": "66112",
  "DwellTime": 2e-06,
  "EchoTime": 0.0272,
  "EchoTrainLength": 82,
  "EffectiveEchoSpacing": 0.00049,
  "FlipAngle": 44,
  "ImageComments": "Unaliased MB8/PE3",
  "ImageOrientationPatientDICOM": [0.998958, -0.0162662, 0.0426301, 0.00819466, 0.983064, 0.183078],
  "ImageType": [
    "ORIGINAL",
    "PRIMARY",
    "M",
    "MB",
    "ND",
    "NORM",
    "MOSAIC"
],
  "ImagingFrequency": 123.252,
  "InPlanePhaseEncodingDirectionDICOM": "COL",
  "InstitutionAddress": "Maynard 3,Hanover,NH,US,03755",
  "InstitutionName": "Dartmouth College - PBS",
  "InstitutionalDepartmentName": "Department",
  "MRAcquisitionType": "2D",
  "MagneticFieldStrength": 3,
  "Manufacturer": "Siemens",
  "ManufacturersModelName": "Prisma",
  "Modality": "MR",
  "MultibandAccelerationFactor": 8,
  "PartialFourier": 1,
  "PatientPosition": "HFS",
  "PercentPhaseFOV": 100,
  "PercentSampling": 100,
  "PhaseEncodingDirection": "j-",
  "PhaseEncodingSteps": 82,
  "PhaseResolution": 1,
  "PixelBandwidth": 3050,
  "ProcedureStepDescription": "Wager_Wager^1076_spacetop",
  "ProtocolName": "func_run-04_task-social_acq-ap-mb8",
  "PulseSequenceDetails": "%CustomerSeq%\\cmrr_mbep2d_bold",
  "ReceiveCoilActiveElements": "HEA;HEP",
  "ReceiveCoilName": "Head_32",
  "ReconMatrixPE": 82,
  "RepetitionTime": 0.46,
  "SAR": 0.0962711,
  "ScanOptions": "FS",
  "ScanningSequence": "EP",
  "SequenceName": "epfid2d1_82",
  "SequenceVariant": "SK\\SS",
  "SeriesDescription": "func_run-04_task-social_acq-ap-mb8",
  "SeriesNumber": 18,
  "ShimSetting": [4154, -7773, -7249, 667, -72, -261, 14, 70],
  "SliceThickness": 2.7,
  "SliceTiming": [0, 0.25, 0.0625, 0.315, 0.125, 0.3775, 0.1875, 0, 0.25, 0.0625, 0.315, 0.125, 0.3775, 0.1875, 0, 0.25, 0.0625, 0.315, 0.125, 0.3775, 0.1875, 0, 0.25, 0.0625, 0.315, 0.125, 0.3775, 0.1875, 0, 0.25, 0.0625, 0.315, 0.125, 0.3775, 0.1875, 0, 0.25, 0.0625, 0.315, 0.125, 0.3775, 0.1875, 0, 0.25, 0.0625, 0.315, 0.125, 0.3775, 0.1875, 0, 0.25, 0.0625, 0.315, 0.125, 0.3775, 0.1875],
  "SoftwareVersions": "syngo MR E11",
  "SpacingBetweenSlices": 2.7,
  "StationName": "AWP66112",
  "TaskName": "social",
  "TotalReadoutTime": 0.03969,
  "TxRefAmp": 235.611,
  "WipMemBlock": "f41bef0a-fa30-4d64-9021-24cea67c0912||Sequence: R016 ve11e/master r/434b28f1; Aug  7 2019 18:53:46 by eja",
  "dcmmeta_affine": [
    [-2.6801326274871826, 0.021985670551657677, 0.12119261175394058, 104.37203979492188],
    [0.043641120195388794, 2.6374895572662354, 0.49285194277763367, -104.29890441894531],
    [0.11437354236841202, -0.491184264421463, 2.651869058609009, -51.046836853027344],
    [0.0, 0.0, 0.0, 1.0]
],
  "dcmmeta_reorient_transform": [
    [0.0, -1.0, 0.0, 81.0],
    [1.0, 0.0, 0.0, 0.0],
    [0.0, 0.0, 1.0, 0.0],
    [0.0, 0.0, 0.0, 1.0]
],
  "dcmmeta_shape": [82, 82, 56, 872],
  "dcmmeta_slice_dim": 2,
  "dcmmeta_version": 0.6,
  "global": {
    "const": {
      "AccessionNumber": "A003859",
      "AcquisitionMatrix": [82, 0, 0, 82],
      "AngioFlag": "N",
      "BitsAllocated": 16,
      "BitsStored": 16,
      "BodyPartExamined": "BRAIN",
      "Columns": 656,
      "EchoNumbers": 1,
      "EchoTime": 27.2,
      "EchoTrainLength": 82,
      "FlipAngle": 44.0,
      "HighBit": 15,
      "ImageOrientationPatient": [0.99895849810685, -0.0162662346377, 0.04263013805779, 0.00819465854872, 0.98306428023872, 0.1830777662361],
      "ImagePositionPatient": [-881.66082825036, -853.77226775934, -264.62785095605],
      "ImageType": [
        "ORIGINAL",
        "PRIMARY",
        "M",
        "MB",
        "ND",
        "NORM",
        "MOSAIC"
],
      "ImagedNucleus": "1H",
      "ImagingFrequency": 123.252329,
      "InPlanePhaseEncodingDirection": "COL",
      "MRAcquisitionType": "2D",
      "MagneticFieldStrength": 3.0,
      "Manufacturer": "SIEMENS",
      "ManufacturerModelName": "Prisma",
      "Modality": "MR",
      "NumberOfAverages": 1.0,
      "NumberOfPhaseEncodingSteps": 82,
      "PercentPhaseFieldOfView": 100.0,
      "PercentSampling": 100.0,
      "PerformedProcedureStepStartTime": "161824.012000",
      "PhotometricInterpretation": "MONOCHROME2",
      "PixelBandwidth": 3050.0,
      "PixelRepresentation": 0,
      "PixelSpacing": [2.6829268932343, 2.6829268932343],
      "ProtocolName": "func_run-04_task-social_acq-ap-mb8",
      "RepetitionTime": 460.0,
      "Rows": 656,
      "SAR": 0.09627107503447,
      "SamplesPerPixel": 1,
      "ScanOptions": "FS",
      "ScanningSequence": "EP",
      "SequenceName": "epfid2d1_82",
      "SequenceVariant": [
        "SK",
        "SS"
],
      "SeriesDescription": "func_run-04_task-social_acq-ap-mb8",
      "SeriesNumber": 18,
      "SeriesTime": "171349.326000",
      "SliceLocation": -64.490487532115,
      "SliceThickness": 2.7000000476837,
      "SmallestImagePixelValue": 0,
      "SoftwareVersions": "syngo MR E11",
      "SpacingBetweenSlices": 2.7000000354769,
      "SpecificCharacterSet": "ISO_IR 100",
      "StudyID": "1",
      "StudyTime": "161823.956000",
      "TransmitCoilName": "Body",
      "VariableFlipAngleFlag": "N",
      "WindowCenterWidthExplanation": "Algo1"
    },
    "slices": {}
  },
  "time": {
    "samples": {
      "AcquisitionNumber": [1, 2, 3, 4, 5, 6, 7, 8, 9, 10, 11, 12, 13, 14, 15, 16, 17, 18, 19, 20, 21, 22, 23, 24, 25, 26, 27, 28, 29, 30, 31, 32, 33, 34, 35, 36, 37, 38, 39, 40, 41, 42, 43, 44, 45, 46, 47, 48, 49, 50, 51, 52, 53, 54, 55, 56, 57, 58, 59, 60, 61, 62, 63, 64, 65, 66, 67, 68, 69, 70, 71, 72, 73, 74, 75, 76, 77, 78, 79, 80, 81, 82, 83, 84, 85, 86, 87, 88, 89, 90, 91, 92, 93, 94, 95, 96, 97, 98, 99, 100, 101, 102, 103, 104, 105, 106, 107, 108, 109, 110, 111, 112, 113, 114, 115, 116, 117, 118, 119, 120, 121, 122, 123, 124, 125, 126, 127, 128, 129, 130, 131, 132, 133, 134, 135, 136, 137, 138, 139, 140, 141, 142, 143, 144, 145, 146, 147, 148, 149, 150, 151, 152, 153, 154, 155, 156, 157, 158, 159, 160, 161, 162, 163, 164, 165, 166, 167, 168, 169, 170, 171, 172, 173, 174, 175, 176, 177, 178, 179, 180, 181, 182, 183, 184, 185, 186, 187, 188, 189, 190, 191, 192, 193, 194, 195, 196, 197, 198, 199, 200, 201, 202, 203, 204, 205, 206, 207, 208, 209, 210, 211, 212, 213, 214, 215, 216, 217, 218, 219, 220, 221, 222, 223, 224, 225, 226, 227, 228, 229, 230, 231, 232, 233, 234, 235, 236, 237, 238, 239, 240, 241, 242, 243, 244, 245, 246, 247, 248, 249, 250, 251, 252, 253, 254, 255, 256, 257, 258, 259, 260, 261, 262, 263, 264, 265, 266, 267, 268, 269, 270, 271, 272, 273, 274, 275, 276, 277, 278, 279, 280, 281, 282, 283, 284, 285, 286, 287, 288, 289, 290, 291, 292, 293, 294, 295, 296, 297, 298, 299, 300, 301, 302, 303, 304, 305, 306, 307, 308, 309, 310, 311, 312, 313, 314, 315, 316, 317, 318, 319, 320, 321, 322, 323, 324, 325, 326, 327, 328, 329, 330, 331, 332, 333, 334, 335, 336, 337, 338, 339, 340, 341, 342, 343, 344, 345, 346, 347, 348, 349, 350, 351, 352, 353, 354, 355, 356, 357, 358, 359, 360, 361, 362, 363, 364, 365, 366, 367, 368, 369, 370, 371, 372, 373, 374, 375, 376, 377, 378, 379, 380, 381, 382, 383, 384, 385, 386, 387, 388, 389, 390, 391, 392, 393, 394, 395, 396, 397, 398, 399, 400, 401, 402, 403, 404, 405, 406, 407, 408, 409, 410, 411, 412, 413, 414, 415, 416, 417, 418, 419, 420, 421, 422, 423, 424, 425, 426, 427, 428, 429, 430, 431, 432, 433, 434, 435, 436, 437, 438, 439, 440, 441, 442, 443, 444, 445, 446, 447, 448, 449, 450, 451, 452, 453, 454, 455, 456, 457, 458, 459, 460, 461, 462, 463, 464, 465, 466, 467, 468, 469, 470, 471, 472, 473, 474, 475, 476, 477, 478, 479, 480, 481, 482, 483, 484, 485, 486, 487, 488, 489, 490, 491, 492, 493, 494, 495, 496, 497, 498, 499, 500, 501, 502, 503, 504, 505, 506, 507, 508, 509, 510, 511, 512, 513, 514, 515, 516, 517, 518, 519, 520, 521, 522, 523, 524, 525, 526, 527, 528, 529, 530, 531, 532, 533, 534, 535, 536, 537, 538, 539, 540, 541, 542, 543, 544, 545, 546, 547, 548, 549, 550, 551, 552, 553, 554, 555, 556, 557, 558, 559, 560, 561, 562, 563, 564, 565, 566, 567, 568, 569, 570, 571, 572, 573, 574, 575, 576, 577, 578, 579, 580, 581, 582, 583, 584, 585, 586, 587, 588, 589, 590, 591, 592, 593, 594, 595, 596, 597, 598, 599, 600, 601, 602, 603, 604, 605, 606, 607, 608, 609, 610, 611, 612, 613, 614, 615, 616, 617, 618, 619, 620, 621, 622, 623, 624, 625, 626, 627, 628, 629, 630, 631, 632, 633, 634, 635, 636, 637, 638, 639, 640, 641, 642, 643, 644, 645, 646, 647, 648, 649, 650, 651, 652, 653, 654, 655, 656, 657, 658, 659, 660, 661, 662, 663, 664, 665, 666, 667, 668, 669, 670, 671, 672, 673, 674, 675, 676, 677, 678, 679, 680, 681, 682, 683, 684, 685, 686, 687, 688, 689, 690, 691, 692, 693, 694, 695, 696, 697, 698, 699, 700, 701, 702, 703, 704, 705, 706, 707, 708, 709, 710, 711, 712, 713, 714, 715, 716, 717, 718, 719, 720, 721, 722, 723, 724, 725, 726, 727, 728, 729, 730, 731, 732, 733, 734, 735, 736, 737, 738, 739, 740, 741, 742, 743, 744, 745, 746, 747, 748, 749, 750, 751, 752, 753, 754, 755, 756, 757, 758, 759, 760, 761, 762, 763, 764, 765, 766, 767, 768, 769, 770, 771, 772, 773, 774, 775, 776, 777, 778, 779, 780, 781, 782, 783, 784, 785, 786, 787, 788, 789, 790, 791, 792, 793, 794, 795, 796, 797, 798, 799, 800, 801, 802, 803, 804, 805, 806, 807, 808, 809, 810, 811, 812, 813, 814, 815, 816, 817, 818, 819, 820, 821, 822, 823, 824, 825, 826, 827, 828, 829, 830, 831, 832, 833, 834, 835, 836, 837, 838, 839, 840, 841, 842, 843, 844, 845, 846, 847, 848, 849, 850, 851, 852, 853, 854, 855, 856, 857, 858, 859, 860, 861, 862, 863, 864, 865, 866, 867, 868, 869, 870, 871, 872],
      "AcquisitionTime": ["171327.022500", "171327.482500", "171327.942500", "171328.402500", "171328.862500", "171329.322500", "171329.782500", "171330.242500", "171330.702500", "171331.162500", "171331.622500", "171332.082500", "171332.542500", "171333.002500", "171333.462500", "171333.922500", "171334.382500", "171334.842500", "171335.302500", "171335.762500", "171336.222500", "171336.682500", "171337.142500", "171337.602500", "171338.062500", "171338.522500", "171338.982500", "171339.442500", "171339.902500", "171340.362500", "171340.822500", "171341.282500", "171341.742500", "171342.202500", "171342.662500", "171343.122500", "171343.582500", "171344.042500", "171344.502500", "171344.962500", "171345.422500", "171345.882500", "171346.342500", "171346.802500", "171347.262500", "171347.722500", "171348.182500", "171348.642500", "171349.102500", "171349.562500", "171350.022500", "171350.482500", "171350.942500", "171351.402500", "171351.862500", "171352.322500", "171352.782500", "171353.242500", "171353.702500", "171354.162500", "171354.622500", "171355.082500", "171355.542500", "171356.002500", "171356.462500", "171356.922500", "171357.382500", "171357.842500", "171358.302500", "171358.762500", "171359.222500", "171359.682500", "171400.142500", "171400.602500", "171401.062500", "171401.522500", "171401.982500", "171402.442500", "171402.902500", "171403.362500", "171403.822500", "171404.282500", "171404.742500", "171405.202500", "171405.662500", "171406.122500", "171406.582500", "171407.042500", "171407.502500", "171407.962500", "171408.422500", "171408.882500", "171409.342500", "171409.802500", "171410.262500", "171410.722500", "171411.182500", "171411.642500", "171412.102500", "171412.562500", "171413.022500", "171413.482500", "171413.942500", "171414.402500", "171414.862500", "171415.322500", "171415.782500", "171416.242500", "171416.702500", "171417.162500", "171417.622500", "171418.082500", "171418.542500", "171419.002500", "171419.462500", "171419.922500", "171420.382500", "171420.842500", "171421.302500", "171421.762500", "171422.222500", "171422.682500", "171423.142500", "171423.602500", "171424.062500", "171424.522500", "171424.982500", "171425.442500", "171425.902500", "171426.362500", "171426.822500", "171427.282500", "171427.742500", "171428.202500", "171428.662500", "171429.122500", "171429.582500", "171430.042500", "171430.502500", "171430.962500", "171431.422500", "171431.882500", "171432.342500", "171432.802500", "171433.262500", "171433.722500", "171434.182500", "171434.642500", "171435.102500", "171435.562500", "171436.022500", "171436.482500", "171436.942500", "171437.402500", "171437.862500", "171438.322500", "171438.782500", "171439.242500", "171439.702500", "171440.162500", "171440.622500", "171441.082500", "171441.542500", "171442.002500", "171442.462500", "171442.922500", "171443.382500", "171443.842500", "171444.302500", "171444.762500", "171445.222500", "171445.682500", "171446.142500", "171446.602500", "171447.062500", "171447.522500", "171447.982500", "171448.442500", "171448.902500", "171449.362500", "171449.822500", "171450.282500", "171450.742500", "171451.202500", "171451.662500", "171452.122500", "171452.582500", "171453.042500", "171453.502500", "171453.962500", "171454.422500", "171454.882500", "171455.342500", "171455.802500", "171456.262500", "171456.722500", "171457.182500", "171457.642500", "171458.102500", "171458.562500", "171459.022500", "171459.482500", "171459.942500", "171500.402500", "171500.862500", "171501.322500", "171501.782500", "171502.242500", "171502.702500", "171503.162500", "171503.622500", "171504.082500", "171504.542500", "171505.002500", "171505.462500", "171505.922500", "171506.382500", "171506.842500", "171507.302500", "171507.762500", "171508.222500", "171508.682500", "171509.142500", "171509.602500", "171510.062500", "171510.522500", "171510.982500", "171511.442500", "171511.902500", "171512.362500", "171512.822500", "171513.282500", "171513.742500", "171514.202500", "171514.662500", "171515.122500", "171515.582500", "171516.042500", "171516.502500", "171516.962500", "171517.422500", "171517.882500", "171518.342500", "171518.802500", "171519.262500", "171519.722500", "171520.182500", "171520.642500", "171521.102500", "171521.562500", "171522.022500", "171522.482500", "171522.942500", "171523.402500", "171523.862500", "171524.322500", "171524.782500", "171525.242500", "171525.702500", "171526.162500", "171526.622500", "171527.082500", "171527.542500", "171528.002500", "171528.462500", "171528.922500", "171529.382500", "171529.842500", "171530.302500", "171530.762500", "171531.222500", "171531.682500", "171532.142500", "171532.602500", "171533.062500", "171533.522500", "171533.982500", "171534.442500", "171534.902500", "171535.362500", "171535.822500", "171536.282500", "171536.742500", "171537.202500", "171537.662500", "171538.122500", "171538.582500", "171539.042500", "171539.502500", "171539.962500", "171540.422500", "171540.882500", "171541.342500", "171541.802500", "171542.262500", "171542.722500", "171543.182500", "171543.642500", "171544.102500", "171544.562500", "171545.022500", "171545.482500", "171545.942500", "171546.402500", "171546.862500", "171547.322500", "171547.782500", "171548.242500", "171548.702500", "171549.162500", "171549.622500", "171550.082500", "171550.542500", "171551.002500", "171551.462500", "171551.922500", "171552.382500", "171552.842500", "171553.302500", "171553.762500", "171554.222500", "171554.682500", "171555.142500", "171555.602500", "171556.062500", "171556.522500", "171556.982500", "171557.442500", "171557.902500", "171558.362500", "171558.822500", "171559.282500", "171559.742500", "171600.202500", "171600.662500", "171601.122500", "171601.582500", "171602.042500", "171602.502500", "171602.962500", "171603.422500", "171603.882500", "171604.342500", "171604.802500", "171605.262500", "171605.722500", "171606.182500", "171606.642500", "171607.102500", "171607.562500", "171608.022500", "171608.482500", "171608.942500", "171609.402500", "171609.862500", "171610.322500", "171610.782500", "171611.242500", "171611.702500", "171612.162500", "171612.622500", "171613.082500", "171613.542500", "171614.002500", "171614.462500", "171614.922500", "171615.382500", "171615.842500", "171616.302500", "171616.762500", "171617.222500", "171617.682500", "171618.142500", "171618.602500", "171619.062500", "171619.522500", "171619.982500", "171620.442500", "171620.902500", "171621.362500", "171621.822500", "171622.282500", "171622.742500", "171623.202500", "171623.662500", "171624.122500", "171624.582500", "171625.042500", "171625.502500", "171625.962500", "171626.422500", "171626.882500", "171627.342500", "171627.802500", "171628.262500", "171628.722500", "171629.182500", "171629.642500", "171630.102500", "171630.562500", "171631.022500", "171631.482500", "171631.942500", "171632.402500", "171632.862500", "171633.322500", "171633.782500", "171634.242500", "171634.702500", "171635.162500", "171635.622500", "171636.082500", "171636.542500", "171637.002500", "171637.462500", "171637.922500", "171638.382500", "171638.842500", "171639.302500", "171639.762500", "171640.222500", "171640.682500", "171641.142500", "171641.602500", "171642.062500", "171642.522500", "171642.982500", "171643.442500", "171643.902500", "171644.362500", "171644.822500", "171645.282500", "171645.742500", "171646.202500", "171646.662500", "171647.122500", "171647.582500", "171648.042500", "171648.502500", "171648.962500", "171649.422500", "171649.882500", "171650.342500", "171650.802500", "171651.262500", "171651.722500", "171652.182500", "171652.642500", "171653.102500", "171653.562500", "171654.022500", "171654.482500", "171654.942500", "171655.402500", "171655.862500", "171656.322500", "171656.782500", "171657.242500", "171657.702500", "171658.162500", "171658.622500", "171659.082500", "171659.542500", "171700.002500", "171700.462500", "171700.922500", "171701.382500", "171701.842500", "171702.302500", "171702.762500", "171703.222500", "171703.682500", "171704.142500", "171704.602500", "171705.062500", "171705.522500", "171705.982500", "171706.442500", "171706.902500", "171707.362500", "171707.822500", "171708.282500", "171708.742500", "171709.202500", "171709.662500", "171710.122500", "171710.582500", "171711.042500", "171711.502500", "171711.962500", "171712.422500", "171712.882500", "171713.342500", "171713.802500", "171714.262500", "171714.722500", "171715.182500", "171715.642500", "171716.102500", "171716.562500", "171717.022500", "171717.482500", "171717.942500", "171718.402500", "171718.862500", "171719.322500", "171719.782500", "171720.242500", "171720.702500", "171721.162500", "171721.622500", "171722.082500", "171722.542500", "171723.002500", "171723.462500", "171723.922500", "171724.382500", "171724.842500", "171725.302500", "171725.762500", "171726.222500", "171726.682500", "171727.142500", "171727.602500", "171728.062500", "171728.522500", "171728.982500", "171729.442500", "171729.902500", "171730.362500", "171730.822500", "171731.282500", "171731.742500", "171732.202500", "171732.662500", "171733.122500", "171733.582500", "171734.042500", "171734.502500", "171734.962500", "171735.422500", "171735.882500", "171736.342500", "171736.802500", "171737.262500", "171737.722500", "171738.182500", "171738.642500", "171739.102500", "171739.562500", "171740.022500", "171740.482500", "171740.942500", "171741.402500", "171741.862500", "171742.322500", "171742.782500", "171743.242500", "171743.702500", "171744.162500", "171744.622500", "171745.082500", "171745.542500", "171746.002500", "171746.462500", "171746.922500", "171747.382500", "171747.842500", "171748.302500", "171748.762500", "171749.222500", "171749.682500", "171750.142500", "171750.602500", "171751.062500", "171751.522500", "171751.982500", "171752.442500", "171752.902500", "171753.362500", "171753.822500", "171754.282500", "171754.742500", "171755.202500", "171755.662500", "171756.122500", "171756.582500", "171757.042500", "171757.502500", "171757.962500", "171758.422500", "171758.882500", "171759.342500", "171759.802500", "171800.262500", "171800.722500", "171801.182500", "171801.642500", "171802.102500", "171802.562500", "171803.022500", "171803.482500", "171803.942500", "171804.402500", "171804.862500", "171805.322500", "171805.782500", "171806.242500", "171806.702500", "171807.162500", "171807.622500", "171808.082500", "171808.542500", "171809.002500", "171809.462500", "171809.922500", "171810.382500", "171810.842500", "171811.302500", "171811.762500", "171812.222500", "171812.682500", "171813.142500", "171813.602500", "171814.062500", "171814.522500", "171814.982500", "171815.442500", "171815.902500", "171816.362500", "171816.822500", "171817.282500", "171817.742500", "171818.202500", "171818.662500", "171819.122500", "171819.582500", "171820.042500", "171820.502500", "171820.962500", "171821.422500", "171821.882500", "171822.342500", "171822.802500", "171823.262500", "171823.722500", "171824.182500", "171824.642500", "171825.102500", "171825.562500", "171826.022500", "171826.482500", "171826.942500", "171827.402500", "171827.862500", "171828.322500", "171828.782500", "171829.242500", "171829.702500", "171830.162500", "171830.622500", "171831.082500", "171831.542500", "171832.002500", "171832.462500", "171832.922500", "171833.382500", "171833.842500", "171834.302500", "171834.762500", "171835.222500", "171835.682500", "171836.142500", "171836.602500", "171837.062500", "171837.522500", "171837.982500", "171838.442500", "171838.902500", "171839.362500", "171839.822500", "171840.282500", "171840.742500", "171841.202500", "171841.662500", "171842.122500", "171842.582500", "171843.042500", "171843.502500", "171843.962500", "171844.422500", "171844.882500", "171845.342500", "171845.802500", "171846.262500", "171846.722500", "171847.182500", "171847.642500", "171848.102500", "171848.562500", "171849.022500", "171849.482500", "171849.942500", "171850.402500", "171850.862500", "171851.322500", "171851.782500", "171852.242500", "171852.702500", "171853.162500", "171853.622500", "171854.082500", "171854.542500", "171855.002500", "171855.462500", "171855.922500", "171856.382500", "171856.842500", "171857.302500", "171857.762500", "171858.222500", "171858.682500", "171859.142500", "171859.602500", "171900.062500", "171900.522500", "171900.982500", "171901.442500", "171901.902500", "171902.362500", "171902.822500", "171903.282500", "171903.742500", "171904.202500", "171904.662500", "171905.122500", "171905.582500", "171906.042500", "171906.502500", "171906.962500", "171907.422500", "171907.882500", "171908.342500", "171908.802500", "171909.262500", "171909.722500", "171910.182500", "171910.642500", "171911.102500", "171911.562500", "171912.022500", "171912.482500", "171912.942500", "171913.402500", "171913.862500", "171914.322500", "171914.782500", "171915.242500", "171915.702500", "171916.162500", "171916.622500", "171917.082500", "171917.542500", "171918.002500", "171918.462500", "171918.922500", "171919.382500", "171919.842500", "171920.302500", "171920.762500", "171921.222500", "171921.682500", "171922.142500", "171922.602500", "171923.062500", "171923.522500", "171923.982500", "171924.442500", "171924.902500", "171925.362500", "171925.822500", "171926.282500", "171926.742500", "171927.202500", "171927.662500", "171928.122500", "171928.582500", "171929.042500", "171929.502500", "171929.962500", "171930.422500", "171930.882500", "171931.342500", "171931.802500", "171932.262500", "171932.722500", "171933.182500", "171933.642500", "171934.102500", "171934.562500", "171935.022500", "171935.482500", "171935.942500", "171936.402500", "171936.862500", "171937.322500", "171937.782500", "171938.242500", "171938.702500", "171939.162500", "171939.622500", "171940.082500", "171940.542500", "171941.002500", "171941.462500", "171941.922500", "171942.382500", "171942.842500", "171943.302500", "171943.762500", "171944.222500", "171944.682500", "171945.142500", "171945.602500", "171946.062500", "171946.522500", "171946.982500", "171947.442500", "171947.902500", "171948.362500", "171948.822500", "171949.282500", "171949.742500", "171950.202500", "171950.662500", "171951.122500", "171951.582500", "171952.042500", "171952.502500", "171952.962500", "171953.422500", "171953.882500", "171954.342500", "171954.802500", "171955.262500", "171955.722500", "171956.182500", "171956.642500", "171957.102500", "171957.562500", "171958.022500", "171958.482500", "171958.942500", "171959.402500", "171959.862500", "172000.322500", "172000.782500", "172001.242500", "172001.702500", "172002.162500", "172002.622500", "172003.082500", "172003.542500", "172004.002500", "172004.462500", "172004.922500", "172005.382500", "172005.842500", "172006.302500", "172006.762500", "172007.222500", "172007.682500"],
