{
  "AcquisitionMatrixPE": 82,
  "AcquisitionNumber": 1,
  "AcquisitionTime": "21:04:47.415000",
  "BandwidthPerPixelPhaseEncode": 24.888,
  "BaseResolution": 82,
  "BodyPartExamined": "BRAIN",
  "ConsistencyInfo": "N4_VE11E_LATEST_20181129",
  "ConversionSoftware": "dcm2niix",
  "ConversionSoftwareVersion": "v1.0.20201102",
  "DerivedVendorReportedEchoSpacing": 0.00049,
  "DeviceSerialNumber": "66112",
  "DwellTime": 2e-06,
  "EchoTime": 0.0272,
  "EchoTrainLength": 82,
  "EffectiveEchoSpacing": 0.00049,
  "FlipAngle": 44,
  "ImageComments": "Unaliased MB8/PE3",
  "ImageOrientationPatientDICOM": [0.999706, 0.0201503, 0.0134922, -0.0157047, 0.961902, -0.272942],
  "ImageType": [
    "ORIGINAL",
    "PRIMARY",
    "M",
    "MB",
    "ND",
    "NORM",
    "MOSAIC"
],
  "ImagingFrequency": 123.252,
  "InPlanePhaseEncodingDirectionDICOM": "COL",
  "InstitutionAddress": "Maynard 3,Hanover,NH,US,03755",
  "InstitutionName": "Dartmouth College - PBS",
  "InstitutionalDepartmentName": "Department",
  "MRAcquisitionType": "2D",
  "MagneticFieldStrength": 3,
  "Manufacturer": "Siemens",
  "ManufacturersModelName": "Prisma",
  "Modality": "MR",
  "MultibandAccelerationFactor": 8,
  "PartialFourier": 1,
  "PatientPosition": "HFS",
  "PercentPhaseFOV": 100,
  "PercentSampling": 100,
  "PhaseEncodingDirection": "j-",
  "PhaseEncodingSteps": 82,
  "PhaseResolution": 1,
  "PixelBandwidth": 3050,
  "ProcedureStepDescription": "Wager_Wager^1076_spacetop",
  "ProtocolName": "func_run-02_task-social_acq-ap-mb8",
  "PulseSequenceDetails": "%CustomerSeq%\\cmrr_mbep2d_bold",
  "ReceiveCoilActiveElements": "HEA;HEP",
  "ReceiveCoilName": "Head_32",
  "ReconMatrixPE": 82,
  "RepetitionTime": 0.46,
  "SAR": 0.11903,
  "ScanOptions": "FS",
  "ScanningSequence": "EP",
  "SequenceName": "epfid2d1_82",
  "SequenceVariant": "SK\\SS",
  "SeriesDescription": "func_run-02_task-social_acq-ap-mb8",
  "SeriesNumber": 15,
  "ShimSetting": [4171, -7679, -7291, 548, -78, -162, -93, 64],
  "SliceThickness": 2.7,
  "SliceTiming": [0, 0.2525, 0.0625, 0.315, 0.125, 0.3775, 0.19, 0, 0.2525, 0.0625, 0.315, 0.125, 0.3775, 0.19, 0, 0.2525, 0.0625, 0.315, 0.125, 0.3775, 0.19, 0, 0.2525, 0.0625, 0.315, 0.125, 0.3775, 0.19, 0, 0.2525, 0.0625, 0.315, 0.125, 0.3775, 0.19, 0, 0.2525, 0.0625, 0.315, 0.125, 0.3775, 0.19, 0, 0.2525, 0.0625, 0.315, 0.125, 0.3775, 0.19, 0, 0.2525, 0.0625, 0.315, 0.125, 0.3775, 0.19],
  "SoftwareVersions": "syngo MR E11",
  "SpacingBetweenSlices": 2.7,
  "StationName": "AWP66112",
  "TaskName": "social",
  "TotalReadoutTime": 0.03969,
  "TxRefAmp": 274.136,
  "WipMemBlock": "a1766c19-3ae2-4750-b342-19a7ee6fdbd3||Sequence: R016 ve11e/master r/434b28f1; Aug  7 2019 18:53:46 by eja",
  "dcmmeta_affine": [
    [-2.682137966156006, -0.042134467512369156, 0.0498906709253788, 112.83476257324219],
    [-0.05406179279088974, 2.580713987350464, -0.7361533045768738, -68.29856872558594],
    [0.03619856387376785, 0.7322821617126465, 2.597227096557617, -118.1077880859375],
    [0.0, 0.0, 0.0, 1.0]
],
  "dcmmeta_reorient_transform": [
    [0.0, -1.0, 0.0, 81.0],
    [1.0, 0.0, 0.0, 0.0],
    [0.0, 0.0, 1.0, 0.0],
    [0.0, 0.0, 0.0, 1.0]
],
  "dcmmeta_shape": [82, 82, 56, 872],
  "dcmmeta_slice_dim": 2,
  "dcmmeta_version": 0.6,
  "global": {
    "const": {
      "AccessionNumber": "A004209",
      "AcquisitionMatrix": [82, 0, 0, 82],
      "AngioFlag": "N",
      "BitsAllocated": 16,
      "BitsStored": 16,
      "BodyPartExamined": "BRAIN",
      "Columns": 656,
      "EchoNumbers": 1,
      "EchoTime": 27.2,
      "EchoTrainLength": 82,
      "FlipAngle": 44.0,
      "HighBit": 15,
      "ImageOrientationPatient": [0.99970591976691, 0.02015030371868, 0.0134921919287, -0.0157046652246, 0.96190243273488, -0.2729415200897],
      "ImagePositionPatient": [-867.10285598568, -896.91988006892, 140.98305491123],
      "ImageType": [
        "ORIGINAL",
        "PRIMARY",
        "M",
        "MB",
        "ND",
        "NORM",
        "MOSAIC"
],
      "ImagedNucleus": "1H",
      "ImagingFrequency": 123.252222,
      "InPlanePhaseEncodingDirection": "COL",
      "MRAcquisitionType": "2D",
      "MagneticFieldStrength": 3.0,
      "Manufacturer": "SIEMENS",
      "ManufacturerModelName": "Prisma",
      "Modality": "MR",
      "NumberOfAverages": 1.0,
      "NumberOfPhaseEncodingSteps": 82,
      "PercentPhaseFieldOfView": 100.0,
      "PercentSampling": 100.0,
      "PerformedProcedureStepStartTime": "202535.275000",
      "PhotometricInterpretation": "MONOCHROME2",
      "PixelBandwidth": 3050.0,
      "PixelRepresentation": 0,
      "PixelSpacing": [2.6829268932343, 2.6829268932343],
      "ProtocolName": "func_run-02_task-social_acq-ap-mb8",
      "RepetitionTime": 460.0,
      "Rows": 656,
      "SAR": 0.11902956012192,
      "SamplesPerPixel": 1,
      "ScanOptions": "FS",
      "ScanningSequence": "EP",
      "SequenceName": "epfid2d1_82",
      "SequenceVariant": [
        "SK",
        "SS"
],
      "SeriesDescription": "func_run-02_task-social_acq-ap-mb8",
      "SeriesNumber": 15,
      "SeriesTime": "210511.737000",
      "SliceLocation": -92.905606883138,
      "SliceThickness": 2.7000000476837,
      "SmallestImagePixelValue": 0,
      "SoftwareVersions": "syngo MR E11",
      "SpacingBetweenSlices": 2.6999999820118,
      "SpecificCharacterSet": "ISO_IR 100",
      "StudyID": "2",
      "StudyTime": "202535.211000",
      "TransmitCoilName": "Body",
      "VariableFlipAngleFlag": "N",
      "WindowCenterWidthExplanation": "Algo1"
    },
    "slices": {}
  },
  "time": {
    "samples": {
      "AcquisitionNumber": [1, 2, 3, 4, 5, 6, 7, 8, 9, 10, 11, 12, 13, 14, 15, 16, 17, 18, 19, 20, 21, 22, 23, 24, 25, 26, 27, 28, 29, 30, 31, 32, 33, 34, 35, 36, 37, 38, 39, 40, 41, 42, 43, 44, 45, 46, 47, 48, 49, 50, 51, 52, 53, 54, 55, 56, 57, 58, 59, 60, 61, 62, 63, 64, 65, 66, 67, 68, 69, 70, 71, 72, 73, 74, 75, 76, 77, 78, 79, 80, 81, 82, 83, 84, 85, 86, 87, 88, 89, 90, 91, 92, 93, 94, 95, 96, 97, 98, 99, 100, 101, 102, 103, 104, 105, 106, 107, 108, 109, 110, 111, 112, 113, 114, 115, 116, 117, 118, 119, 120, 121, 122, 123, 124, 125, 126, 127, 128, 129, 130, 131, 132, 133, 134, 135, 136, 137, 138, 139, 140, 141, 142, 143, 144, 145, 146, 147, 148, 149, 150, 151, 152, 153, 154, 155, 156, 157, 158, 159, 160, 161, 162, 163, 164, 165, 166, 167, 168, 169, 170, 171, 172, 173, 174, 175, 176, 177, 178, 179, 180, 181, 182, 183, 184, 185, 186, 187, 188, 189, 190, 191, 192, 193, 194, 195, 196, 197, 198, 199, 200, 201, 202, 203, 204, 205, 206, 207, 208, 209, 210, 211, 212, 213, 214, 215, 216, 217, 218, 219, 220, 221, 222, 223, 224, 225, 226, 227, 228, 229, 230, 231, 232, 233, 234, 235, 236, 237, 238, 239, 240, 241, 242, 243, 244, 245, 246, 247, 248, 249, 250, 251, 252, 253, 254, 255, 256, 257, 258, 259, 260, 261, 262, 263, 264, 265, 266, 267, 268, 269, 270, 271, 272, 273, 274, 275, 276, 277, 278, 279, 280, 281, 282, 283, 284, 285, 286, 287, 288, 289, 290, 291, 292, 293, 294, 295, 296, 297, 298, 299, 300, 301, 302, 303, 304, 305, 306, 307, 308, 309, 310, 311, 312, 313, 314, 315, 316, 317, 318, 319, 320, 321, 322, 323, 324, 325, 326, 327, 328, 329, 330, 331, 332, 333, 334, 335, 336, 337, 338, 339, 340, 341, 342, 343, 344, 345, 346, 347, 348, 349, 350, 351, 352, 353, 354, 355, 356, 357, 358, 359, 360, 361, 362, 363, 364, 365, 366, 367, 368, 369, 370, 371, 372, 373, 374, 375, 376, 377, 378, 379, 380, 381, 382, 383, 384, 385, 386, 387, 388, 389, 390, 391, 392, 393, 394, 395, 396, 397, 398, 399, 400, 401, 402, 403, 404, 405, 406, 407, 408, 409, 410, 411, 412, 413, 414, 415, 416, 417, 418, 419, 420, 421, 422, 423, 424, 425, 426, 427, 428, 429, 430, 431, 432, 433, 434, 435, 436, 437, 438, 439, 440, 441, 442, 443, 444, 445, 446, 447, 448, 449, 450, 451, 452, 453, 454, 455, 456, 457, 458, 459, 460, 461, 462, 463, 464, 465, 466, 467, 468, 469, 470, 471, 472, 473, 474, 475, 476, 477, 478, 479, 480, 481, 482, 483, 484, 485, 486, 487, 488, 489, 490, 491, 492, 493, 494, 495, 496, 497, 498, 499, 500, 501, 502, 503, 504, 505, 506, 507, 508, 509, 510, 511, 512, 513, 514, 515, 516, 517, 518, 519, 520, 521, 522, 523, 524, 525, 526, 527, 528, 529, 530, 531, 532, 533, 534, 535, 536, 537, 538, 539, 540, 541, 542, 543, 544, 545, 546, 547, 548, 549, 550, 551, 552, 553, 554, 555, 556, 557, 558, 559, 560, 561, 562, 563, 564, 565, 566, 567, 568, 569, 570, 571, 572, 573, 574, 575, 576, 577, 578, 579, 580, 581, 582, 583, 584, 585, 586, 587, 588, 589, 590, 591, 592, 593, 594, 595, 596, 597, 598, 599, 600, 601, 602, 603, 604, 605, 606, 607, 608, 609, 610, 611, 612, 613, 614, 615, 616, 617, 618, 619, 620, 621, 622, 623, 624, 625, 626, 627, 628, 629, 630, 631, 632, 633, 634, 635, 636, 637, 638, 639, 640, 641, 642, 643, 644, 645, 646, 647, 648, 649, 650, 651, 652, 653, 654, 655, 656, 657, 658, 659, 660, 661, 662, 663, 664, 665, 666, 667, 668, 669, 670, 671, 672, 673, 674, 675, 676, 677, 678, 679, 680, 681, 682, 683, 684, 685, 686, 687, 688, 689, 690, 691, 692, 693, 694, 695, 696, 697, 698, 699, 700, 701, 702, 703, 704, 705, 706, 707, 708, 709, 710, 711, 712, 713, 714, 715, 716, 717, 718, 719, 720, 721, 722, 723, 724, 725, 726, 727, 728, 729, 730, 731, 732, 733, 734, 735, 736, 737, 738, 739, 740, 741, 742, 743, 744, 745, 746, 747, 748, 749, 750, 751, 752, 753, 754, 755, 756, 757, 758, 759, 760, 761, 762, 763, 764, 765, 766, 767, 768, 769, 770, 771, 772, 773, 774, 775, 776, 777, 778, 779, 780, 781, 782, 783, 784, 785, 786, 787, 788, 789, 790, 791, 792, 793, 794, 795, 796, 797, 798, 799, 800, 801, 802, 803, 804, 805, 806, 807, 808, 809, 810, 811, 812, 813, 814, 815, 816, 817, 818, 819, 820, 821, 822, 823, 824, 825, 826, 827, 828, 829, 830, 831, 832, 833, 834, 835, 836, 837, 838, 839, 840, 841, 842, 843, 844, 845, 846, 847, 848, 849, 850, 851, 852, 853, 854, 855, 856, 857, 858, 859, 860, 861, 862, 863, 864, 865, 866, 867, 868, 869, 870, 871, 872],
      "AcquisitionTime": ["210447.415000", "210447.875000", "210448.335000", "210448.795000", "210449.255000", "210449.715000", "210450.175000", "210450.635000", "210451.095000", "210451.555000", "210452.015000", "210452.475000", "210452.935000", "210453.395000", "210453.855000", "210454.315000", "210454.775000", "210455.235000", "210455.695000", "210456.155000", "210456.615000", "210457.075000", "210457.535000", "210457.995000", "210458.455000", "210458.915000", "210459.375000", "210459.835000", "210500.295000", "210500.755000", "210501.215000", "210501.675000", "210502.135000", "210502.595000", "210503.055000", "210503.515000", "210503.975000", "210504.435000", "210504.895000", "210505.355000", "210505.815000", "210506.275000", "210506.735000", "210507.195000", "210507.655000", "210508.115000", "210508.575000", "210509.035000", "210509.495000", "210509.955000", "210510.415000", "210510.875000", "210511.335000", "210511.795000", "210512.255000", "210512.715000", "210513.175000", "210513.635000", "210514.095000", "210514.555000", "210515.015000", "210515.475000", "210515.935000", "210516.395000", "210516.855000", "210517.315000", "210517.775000", "210518.235000", "210518.695000", "210519.155000", "210519.615000", "210520.075000", "210520.535000", "210520.995000", "210521.455000", "210521.915000", "210522.375000", "210522.835000", "210523.295000", "210523.755000", "210524.215000", "210524.675000", "210525.135000", "210525.595000", "210526.055000", "210526.515000", "210526.975000", "210527.435000", "210527.895000", "210528.355000", "210528.815000", "210529.275000", "210529.735000", "210530.195000", "210530.655000", "210531.115000", "210531.575000", "210532.035000", "210532.495000", "210532.955000", "210533.415000", "210533.875000", "210534.335000", "210534.795000", "210535.255000", "210535.715000", "210536.175000", "210536.635000", "210537.095000", "210537.555000", "210538.015000", "210538.475000", "210538.935000", "210539.395000", "210539.855000", "210540.315000", "210540.775000", "210541.235000", "210541.695000", "210542.155000", "210542.615000", "210543.075000", "210543.535000", "210543.995000", "210544.455000", "210544.915000", "210545.375000", "210545.835000", "210546.295000", "210546.755000", "210547.215000", "210547.675000", "210548.135000", "210548.595000", "210549.055000", "210549.515000", "210549.975000", "210550.435000", "210550.895000", "210551.355000", "210551.815000", "210552.275000", "210552.735000", "210553.195000", "210553.655000", "210554.115000", "210554.575000", "210555.035000", "210555.495000", "210555.955000", "210556.415000", "210556.875000", "210557.335000", "210557.795000", "210558.255000", "210558.715000", "210559.175000", "210559.635000", "210600.095000", "210600.555000", "210601.015000", "210601.475000", "210601.935000", "210602.395000", "210602.855000", "210603.315000", "210603.775000", "210604.235000", "210604.695000", "210605.155000", "210605.615000", "210606.075000", "210606.535000", "210606.995000", "210607.455000", "210607.915000", "210608.375000", "210608.835000", "210609.295000", "210609.755000", "210610.215000", "210610.675000", "210611.135000", "210611.595000", "210612.055000", "210612.515000", "210612.975000", "210613.435000", "210613.895000", "210614.355000", "210614.815000", "210615.275000", "210615.735000", "210616.195000", "210616.655000", "210617.115000", "210617.575000", "210618.035000", "210618.495000", "210618.955000", "210619.415000", "210619.875000", "210620.335000", "210620.795000", "210621.255000", "210621.715000", "210622.175000", "210622.635000", "210623.095000", "210623.555000", "210624.015000", "210624.475000", "210624.935000", "210625.395000", "210625.855000", "210626.315000", "210626.775000", "210627.235000", "210627.695000", "210628.155000", "210628.615000", "210629.075000", "210629.535000", "210629.995000", "210630.455000", "210630.915000", "210631.375000", "210631.835000", "210632.295000", "210632.755000", "210633.215000", "210633.675000", "210634.135000", "210634.595000", "210635.055000", "210635.515000", "210635.975000", "210636.435000", "210636.895000", "210637.355000", "210637.815000", "210638.275000", "210638.735000", "210639.195000", "210639.655000", "210640.115000", "210640.575000", "210641.035000", "210641.495000", "210641.955000", "210642.415000", "210642.875000", "210643.335000", "210643.795000", "210644.255000", "210644.715000", "210645.175000", "210645.635000", "210646.095000", "210646.555000", "210647.015000", "210647.475000", "210647.935000", "210648.395000", "210648.855000", "210649.315000", "210649.775000", "210650.235000", "210650.695000", "210651.155000", "210651.615000", "210652.075000", "210652.535000", "210652.995000", "210653.455000", "210653.915000", "210654.375000", "210654.835000", "210655.295000", "210655.755000", "210656.215000", "210656.675000", "210657.135000", "210657.595000", "210658.055000", "210658.515000", "210658.975000", "210659.435000", "210659.895000", "210700.355000", "210700.815000", "210701.275000", "210701.735000", "210702.195000", "210702.655000", "210703.115000", "210703.575000", "210704.035000", "210704.495000", "210704.955000", "210705.415000", "210705.875000", "210706.335000", "210706.795000", "210707.255000", "210707.715000", "210708.175000", "210708.635000", "210709.095000", "210709.555000", "210710.015000", "210710.475000", "210710.935000", "210711.395000", "210711.855000", "210712.315000", "210712.775000", "210713.235000", "210713.695000", "210714.155000", "210714.615000", "210715.075000", "210715.535000", "210715.995000", "210716.455000", "210716.915000", "210717.375000", "210717.835000", "210718.295000", "210718.755000", "210719.215000", "210719.675000", "210720.135000", "210720.595000", "210721.055000", "210721.515000", "210721.975000", "210722.435000", "210722.895000", "210723.355000", "210723.815000", "210724.275000", "210724.735000", "210725.195000", "210725.655000", "210726.115000", "210726.575000", "210727.035000", "210727.495000", "210727.955000", "210728.415000", "210728.875000", "210729.335000", "210729.795000", "210730.255000", "210730.715000", "210731.175000", "210731.635000", "210732.095000", "210732.555000", "210733.015000", "210733.475000", "210733.935000", "210734.395000", "210734.855000", "210735.315000", "210735.775000", "210736.235000", "210736.695000", "210737.155000", "210737.615000", "210738.075000", "210738.535000", "210738.995000", "210739.455000", "210739.915000", "210740.375000", "210740.835000", "210741.295000", "210741.755000", "210742.215000", "210742.675000", "210743.135000", "210743.595000", "210744.055000", "210744.515000", "210744.975000", "210745.435000", "210745.895000", "210746.355000", "210746.815000", "210747.275000", "210747.735000", "210748.195000", "210748.655000", "210749.115000", "210749.575000", "210750.035000", "210750.495000", "210750.955000", "210751.415000", "210751.875000", "210752.335000", "210752.795000", "210753.255000", "210753.715000", "210754.175000", "210754.635000", "210755.095000", "210755.555000", "210756.015000", "210756.475000", "210756.935000", "210757.395000", "210757.855000", "210758.315000", "210758.775000", "210759.235000", "210759.695000", "210800.155000", "210800.615000", "210801.075000", "210801.535000", "210801.995000", "210802.455000", "210802.915000", "210803.375000", "210803.835000", "210804.295000", "210804.755000", "210805.215000", "210805.675000", "210806.135000", "210806.595000", "210807.055000", "210807.515000", "210807.975000", "210808.435000", "210808.895000", "210809.355000", "210809.815000", "210810.275000", "210810.735000", "210811.195000", "210811.655000", "210812.115000", "210812.575000", "210813.035000", "210813.495000", "210813.955000", "210814.415000", "210814.875000", "210815.335000", "210815.795000", "210816.255000", "210816.715000", "210817.175000", "210817.635000", "210818.095000", "210818.555000", "210819.015000", "210819.475000", "210819.935000", "210820.395000", "210820.855000", "210821.315000", "210821.775000", "210822.235000", "210822.695000", "210823.155000", "210823.615000", "210824.075000", "210824.535000", "210824.995000", "210825.455000", "210825.915000", "210826.375000", "210826.835000", "210827.295000", "210827.755000", "210828.215000", "210828.675000", "210829.135000", "210829.595000", "210830.055000", "210830.515000", "210830.975000", "210831.435000", "210831.895000", "210832.355000", "210832.815000", "210833.275000", "210833.735000", "210834.195000", "210834.655000", "210835.115000", "210835.575000", "210836.035000", "210836.495000", "210836.955000", "210837.415000", "210837.875000", "210838.335000", "210838.795000", "210839.255000", "210839.715000", "210840.175000", "210840.635000", "210841.095000", "210841.555000", "210842.015000", "210842.475000", "210842.935000", "210843.395000", "210843.855000", "210844.315000", "210844.775000", "210845.235000", "210845.695000", "210846.155000", "210846.615000", "210847.075000", "210847.535000", "210847.995000", "210848.455000", "210848.915000", "210849.375000", "210849.835000", "210850.295000", "210850.755000", "210851.215000", "210851.675000", "210852.135000", "210852.595000", "210853.055000", "210853.515000", "210853.975000", "210854.435000", "210854.895000", "210855.355000", "210855.815000", "210856.275000", "210856.735000", "210857.195000", "210857.655000", "210858.115000", "210858.575000", "210859.035000", "210859.495000", "210859.955000", "210900.415000", "210900.875000", "210901.335000", "210901.795000", "210902.255000", "210902.715000", "210903.175000", "210903.635000", "210904.095000", "210904.555000", "210905.015000", "210905.475000", "210905.935000", "210906.395000", "210906.855000", "210907.315000", "210907.775000", "210908.235000", "210908.695000", "210909.155000", "210909.615000", "210910.075000", "210910.535000", "210910.995000", "210911.455000", "210911.915000", "210912.375000", "210912.835000", "210913.295000", "210913.755000", "210914.215000", "210914.675000", "210915.135000", "210915.595000", "210916.055000", "210916.515000", "210916.975000", "210917.435000", "210917.895000", "210918.355000", "210918.815000", "210919.275000", "210919.735000", "210920.195000", "210920.655000", "210921.115000", "210921.575000", "210922.035000", "210922.495000", "210922.955000", "210923.415000", "210923.875000", "210924.335000", "210924.795000", "210925.255000", "210925.715000", "210926.175000", "210926.635000", "210927.095000", "210927.555000", "210928.015000", "210928.475000", "210928.935000", "210929.395000", "210929.855000", "210930.315000", "210930.775000", "210931.235000", "210931.695000", "210932.155000", "210932.615000", "210933.075000", "210933.535000", "210933.995000", "210934.455000", "210934.915000", "210935.375000", "210935.835000", "210936.295000", "210936.755000", "210937.215000", "210937.675000", "210938.135000", "210938.595000", "210939.055000", "210939.515000", "210939.975000", "210940.435000", "210940.895000", "210941.355000", "210941.815000", "210942.275000", "210942.735000", "210943.195000", "210943.655000", "210944.115000", "210944.575000", "210945.035000", "210945.495000", "210945.955000", "210946.415000", "210946.875000", "210947.335000", "210947.795000", "210948.255000", "210948.715000", "210949.175000", "210949.635000", "210950.095000", "210950.555000", "210951.015000", "210951.475000", "210951.935000", "210952.395000", "210952.855000", "210953.315000", "210953.775000", "210954.235000", "210954.695000", "210955.155000", "210955.615000", "210956.075000", "210956.535000", "210956.995000", "210957.455000", "210957.915000", "210958.375000", "210958.835000", "210959.295000", "210959.755000", "211000.215000", "211000.675000", "211001.135000", "211001.595000", "211002.055000", "211002.515000", "211002.975000", "211003.435000", "211003.895000", "211004.355000", "211004.815000", "211005.275000", "211005.735000", "211006.195000", "211006.655000", "211007.115000", "211007.575000", "211008.035000", "211008.495000", "211008.955000", "211009.415000", "211009.875000", "211010.335000", "211010.795000", "211011.255000", "211011.715000", "211012.175000", "211012.635000", "211013.095000", "211013.555000", "211014.015000", "211014.475000", "211014.935000", "211015.395000", "211015.855000", "211016.315000", "211016.775000", "211017.235000", "211017.695000", "211018.155000", "211018.615000", "211019.075000", "211019.535000", "211019.995000", "211020.455000", "211020.915000", "211021.375000", "211021.835000", "211022.295000", "211022.755000", "211023.215000", "211023.675000", "211024.135000", "211024.595000", "211025.055000", "211025.515000", "211025.975000", "211026.435000", "211026.895000", "211027.355000", "211027.815000", "211028.275000", "211028.735000", "211029.195000", "211029.655000", "211030.115000", "211030.575000", "211031.035000", "211031.495000", "211031.955000", "211032.415000", "211032.875000", "211033.335000", "211033.795000", "211034.255000", "211034.715000", "211035.175000", "211035.635000", "211036.095000", "211036.555000", "211037.015000", "211037.475000", "211037.935000", "211038.395000", "211038.855000", "211039.315000", "211039.775000", "211040.235000", "211040.695000", "211041.155000", "211041.615000", "211042.075000", "211042.535000", "211042.995000", "211043.455000", "211043.915000", "211044.375000", "211044.835000", "211045.295000", "211045.755000", "211046.215000", "211046.675000", "211047.135000", "211047.595000", "211048.055000", "211048.515000", "211048.975000", "211049.435000", "211049.895000", "211050.355000", "211050.815000", "211051.275000", "211051.735000", "211052.195000", "211052.655000", "211053.115000", "211053.575000", "211054.035000", "211054.495000", "211054.955000", "211055.415000", "211055.875000", "211056.335000", "211056.795000", "211057.255000", "211057.715000", "211058.175000", "211058.635000", "211059.095000", "211059.555000", "211100.015000", "211100.475000", "211100.935000", "211101.395000", "211101.855000", "211102.315000", "211102.775000", "211103.235000", "211103.695000", "211104.155000", "211104.615000", "211105.075000", "211105.535000", "211105.995000", "211106.455000", "211106.915000", "211107.375000", "211107.835000", "211108.295000", "211108.755000", "211109.215000", "211109.675000", "211110.135000", "211110.595000", "211111.055000", "211111.515000", "211111.975000", "211112.435000", "211112.895000", "211113.355000", "211113.815000", "211114.275000", "211114.735000", "211115.195000", "211115.655000", "211116.115000", "211116.575000", "211117.035000", "211117.495000", "211117.955000", "211118.415000", "211118.875000", "211119.335000", "211119.795000", "211120.255000", "211120.715000", "211121.175000", "211121.635000", "211122.095000", "211122.555000", "211123.015000", "211123.475000", "211123.935000", "211124.395000", "211124.855000", "211125.315000", "211125.775000", "211126.235000", "211126.695000", "211127.155000", "211127.615000", "211128.075000"],
