{
  "AcquisitionMatrixPE": 82,
  "AcquisitionNumber": 1,
  "AcquisitionTime": "21:35:6.992500",
  "BandwidthPerPixelPhaseEncode": 24.888,
  "BaseResolution": 82,
  "BodyPartExamined": "BRAIN",
  "ConsistencyInfo": "N4_VE11E_LATEST_20181129",
  "ConversionSoftware": "dcm2niix",
  "ConversionSoftwareVersion": "v1.0.20201102",
  "DerivedVendorReportedEchoSpacing": 0.00049,
  "DeviceSerialNumber": "66112",
  "DwellTime": 2e-06,
  "EchoTime": 0.0272,
  "EchoTrainLength": 82,
  "EffectiveEchoSpacing": 0.00049,
  "FlipAngle": 44,
  "ImageComments": "Unaliased MB8/PE3",
  "ImageOrientationPatientDICOM": [0.999706, 0.0201503, 0.0134922, -0.0157047, 0.961902, -0.272942],
  "ImageType": [
    "ORIGINAL",
    "PRIMARY",
    "M",
    "MB",
    "ND",
    "NORM",
    "MOSAIC"
],
  "ImagingFrequency": 123.252,
  "InPlanePhaseEncodingDirectionDICOM": "COL",
  "InstitutionAddress": "Maynard 3,Hanover,NH,US,03755",
  "InstitutionName": "Dartmouth College - PBS",
  "InstitutionalDepartmentName": "Department",
  "MRAcquisitionType": "2D",
  "MagneticFieldStrength": 3,
  "Manufacturer": "Siemens",
  "ManufacturersModelName": "Prisma",
  "Modality": "MR",
  "MultibandAccelerationFactor": 8,
  "PartialFourier": 1,
  "PatientPosition": "HFS",
  "PercentPhaseFOV": 100,
  "PercentSampling": 100,
  "PhaseEncodingDirection": "j-",
  "PhaseEncodingSteps": 82,
  "PhaseResolution": 1,
  "PixelBandwidth": 3050,
  "ProcedureStepDescription": "Wager_Wager^1076_spacetop",
  "ProtocolName": "func_run-06_task-social_acq-ap-mb8",
  "PulseSequenceDetails": "%CustomerSeq%\\cmrr_mbep2d_bold",
  "ReceiveCoilActiveElements": "HEA;HEP",
  "ReceiveCoilName": "Head_32",
  "ReconMatrixPE": 82,
  "RepetitionTime": 0.46,
  "SAR": 0.11903,
  "ScanOptions": "FS",
  "ScanningSequence": "EP",
  "SequenceName": "epfid2d1_82",
  "SequenceVariant": "SK\\SS",
  "SeriesDescription": "func_run-06_task-social_acq-ap-mb8",
  "SeriesNumber": 23,
  "ShimSetting": [4171, -7679, -7291, 548, -78, -162, -93, 64],
  "SliceThickness": 2.7,
  "SliceTiming": [0, 0.2525, 0.0625, 0.315, 0.1275, 0.3775, 0.19, 0, 0.2525, 0.0625, 0.315, 0.1275, 0.3775, 0.19, 0, 0.2525, 0.0625, 0.315, 0.1275, 0.3775, 0.19, 0, 0.2525, 0.0625, 0.315, 0.1275, 0.3775, 0.19, 0, 0.2525, 0.0625, 0.315, 0.1275, 0.3775, 0.19, 0, 0.2525, 0.0625, 0.315, 0.1275, 0.3775, 0.19, 0, 0.2525, 0.0625, 0.315, 0.1275, 0.3775, 0.19, 0, 0.2525, 0.0625, 0.315, 0.1275, 0.3775, 0.19],
  "SoftwareVersions": "syngo MR E11",
  "SpacingBetweenSlices": 2.7,
  "StationName": "AWP66112",
  "TaskName": "social",
  "TotalReadoutTime": 0.03969,
  "TxRefAmp": 274.136,
  "WipMemBlock": "9a16334a-ac98-4057-b93c-9d2d9d5516c4||Sequence: R016 ve11e/master r/434b28f1; Aug  7 2019 18:53:46 by eja",
  "dcmmeta_affine": [
    [-2.682137966156006, -0.042134467512369156, 0.0498906709253788, 112.83476257324219],
    [-0.05406179279088974, 2.580713987350464, -0.7361533045768738, -68.29856872558594],
    [0.03619856387376785, 0.7322821617126465, 2.597227096557617, -118.1077880859375],
    [0.0, 0.0, 0.0, 1.0]
],
  "dcmmeta_reorient_transform": [
    [0.0, -1.0, 0.0, 81.0],
    [1.0, 0.0, 0.0, 0.0],
    [0.0, 0.0, 1.0, 0.0],
    [0.0, 0.0, 0.0, 1.0]
],
  "dcmmeta_shape": [82, 82, 56, 872],
  "dcmmeta_slice_dim": 2,
  "dcmmeta_version": 0.6,
  "global": {
    "const": {
      "AccessionNumber": "A004209",
      "AcquisitionMatrix": [82, 0, 0, 82],
      "AngioFlag": "N",
      "BitsAllocated": 16,
      "BitsStored": 16,
      "BodyPartExamined": "BRAIN",
      "Columns": 656,
      "EchoNumbers": 1,
      "EchoTime": 27.2,
      "EchoTrainLength": 82,
      "FlipAngle": 44.0,
      "HighBit": 15,
      "ImageOrientationPatient": [0.99970591976691, 0.02015030371868, 0.0134921919287, -0.0157046652246, 0.96190243273488, -0.2729415200897],
      "ImagePositionPatient": [-867.10285598568, -896.91988006892, 140.98305491123],
      "ImageType": [
        "ORIGINAL",
        "PRIMARY",
        "M",
        "MB",
        "ND",
        "NORM",
        "MOSAIC"
],
      "ImagedNucleus": "1H",
      "ImagingFrequency": 123.252222,
      "InPlanePhaseEncodingDirection": "COL",
      "MRAcquisitionType": "2D",
      "MagneticFieldStrength": 3.0,
      "Manufacturer": "SIEMENS",
      "ManufacturerModelName": "Prisma",
      "Modality": "MR",
      "NumberOfAverages": 1.0,
      "NumberOfPhaseEncodingSteps": 82,
      "PercentPhaseFieldOfView": 100.0,
      "PercentSampling": 100.0,
      "PerformedProcedureStepStartTime": "202535.275000",
      "PhotometricInterpretation": "MONOCHROME2",
      "PixelBandwidth": 3050.0,
      "PixelRepresentation": 0,
      "PixelSpacing": [2.6829268932343, 2.6829268932343],
      "ProtocolName": "func_run-06_task-social_acq-ap-mb8",
      "RepetitionTime": 460.0,
      "Rows": 656,
      "SAR": 0.11902956012192,
      "SamplesPerPixel": 1,
      "ScanOptions": "FS",
      "ScanningSequence": "EP",
      "SequenceName": "epfid2d1_82",
      "SequenceVariant": [
        "SK",
        "SS"
],
      "SeriesDescription": "func_run-06_task-social_acq-ap-mb8",
      "SeriesNumber": 23,
      "SeriesTime": "213531.837000",
      "SliceLocation": -92.905606883138,
      "SliceThickness": 2.7000000476837,
      "SmallestImagePixelValue": 0,
      "SoftwareVersions": "syngo MR E11",
      "SpacingBetweenSlices": 2.6999999820118,
      "SpecificCharacterSet": "ISO_IR 100",
      "StudyID": "2",
      "StudyTime": "202535.211000",
      "TransmitCoilName": "Body",
      "VariableFlipAngleFlag": "N",
      "WindowCenterWidthExplanation": "Algo1"
    },
    "slices": {}
  },
  "time": {
    "samples": {
      "AcquisitionNumber": [1, 2, 3, 4, 5, 6, 7, 8, 9, 10, 11, 12, 13, 14, 15, 16, 17, 18, 19, 20, 21, 22, 23, 24, 25, 26, 27, 28, 29, 30, 31, 32, 33, 34, 35, 36, 37, 38, 39, 40, 41, 42, 43, 44, 45, 46, 47, 48, 49, 50, 51, 52, 53, 54, 55, 56, 57, 58, 59, 60, 61, 62, 63, 64, 65, 66, 67, 68, 69, 70, 71, 72, 73, 74, 75, 76, 77, 78, 79, 80, 81, 82, 83, 84, 85, 86, 87, 88, 89, 90, 91, 92, 93, 94, 95, 96, 97, 98, 99, 100, 101, 102, 103, 104, 105, 106, 107, 108, 109, 110, 111, 112, 113, 114, 115, 116, 117, 118, 119, 120, 121, 122, 123, 124, 125, 126, 127, 128, 129, 130, 131, 132, 133, 134, 135, 136, 137, 138, 139, 140, 141, 142, 143, 144, 145, 146, 147, 148, 149, 150, 151, 152, 153, 154, 155, 156, 157, 158, 159, 160, 161, 162, 163, 164, 165, 166, 167, 168, 169, 170, 171, 172, 173, 174, 175, 176, 177, 178, 179, 180, 181, 182, 183, 184, 185, 186, 187, 188, 189, 190, 191, 192, 193, 194, 195, 196, 197, 198, 199, 200, 201, 202, 203, 204, 205, 206, 207, 208, 209, 210, 211, 212, 213, 214, 215, 216, 217, 218, 219, 220, 221, 222, 223, 224, 225, 226, 227, 228, 229, 230, 231, 232, 233, 234, 235, 236, 237, 238, 239, 240, 241, 242, 243, 244, 245, 246, 247, 248, 249, 250, 251, 252, 253, 254, 255, 256, 257, 258, 259, 260, 261, 262, 263, 264, 265, 266, 267, 268, 269, 270, 271, 272, 273, 274, 275, 276, 277, 278, 279, 280, 281, 282, 283, 284, 285, 286, 287, 288, 289, 290, 291, 292, 293, 294, 295, 296, 297, 298, 299, 300, 301, 302, 303, 304, 305, 306, 307, 308, 309, 310, 311, 312, 313, 314, 315, 316, 317, 318, 319, 320, 321, 322, 323, 324, 325, 326, 327, 328, 329, 330, 331, 332, 333, 334, 335, 336, 337, 338, 339, 340, 341, 342, 343, 344, 345, 346, 347, 348, 349, 350, 351, 352, 353, 354, 355, 356, 357, 358, 359, 360, 361, 362, 363, 364, 365, 366, 367, 368, 369, 370, 371, 372, 373, 374, 375, 376, 377, 378, 379, 380, 381, 382, 383, 384, 385, 386, 387, 388, 389, 390, 391, 392, 393, 394, 395, 396, 397, 398, 399, 400, 401, 402, 403, 404, 405, 406, 407, 408, 409, 410, 411, 412, 413, 414, 415, 416, 417, 418, 419, 420, 421, 422, 423, 424, 425, 426, 427, 428, 429, 430, 431, 432, 433, 434, 435, 436, 437, 438, 439, 440, 441, 442, 443, 444, 445, 446, 447, 448, 449, 450, 451, 452, 453, 454, 455, 456, 457, 458, 459, 460, 461, 462, 463, 464, 465, 466, 467, 468, 469, 470, 471, 472, 473, 474, 475, 476, 477, 478, 479, 480, 481, 482, 483, 484, 485, 486, 487, 488, 489, 490, 491, 492, 493, 494, 495, 496, 497, 498, 499, 500, 501, 502, 503, 504, 505, 506, 507, 508, 509, 510, 511, 512, 513, 514, 515, 516, 517, 518, 519, 520, 521, 522, 523, 524, 525, 526, 527, 528, 529, 530, 531, 532, 533, 534, 535, 536, 537, 538, 539, 540, 541, 542, 543, 544, 545, 546, 547, 548, 549, 550, 551, 552, 553, 554, 555, 556, 557, 558, 559, 560, 561, 562, 563, 564, 565, 566, 567, 568, 569, 570, 571, 572, 573, 574, 575, 576, 577, 578, 579, 580, 581, 582, 583, 584, 585, 586, 587, 588, 589, 590, 591, 592, 593, 594, 595, 596, 597, 598, 599, 600, 601, 602, 603, 604, 605, 606, 607, 608, 609, 610, 611, 612, 613, 614, 615, 616, 617, 618, 619, 620, 621, 622, 623, 624, 625, 626, 627, 628, 629, 630, 631, 632, 633, 634, 635, 636, 637, 638, 639, 640, 641, 642, 643, 644, 645, 646, 647, 648, 649, 650, 651, 652, 653, 654, 655, 656, 657, 658, 659, 660, 661, 662, 663, 664, 665, 666, 667, 668, 669, 670, 671, 672, 673, 674, 675, 676, 677, 678, 679, 680, 681, 682, 683, 684, 685, 686, 687, 688, 689, 690, 691, 692, 693, 694, 695, 696, 697, 698, 699, 700, 701, 702, 703, 704, 705, 706, 707, 708, 709, 710, 711, 712, 713, 714, 715, 716, 717, 718, 719, 720, 721, 722, 723, 724, 725, 726, 727, 728, 729, 730, 731, 732, 733, 734, 735, 736, 737, 738, 739, 740, 741, 742, 743, 744, 745, 746, 747, 748, 749, 750, 751, 752, 753, 754, 755, 756, 757, 758, 759, 760, 761, 762, 763, 764, 765, 766, 767, 768, 769, 770, 771, 772, 773, 774, 775, 776, 777, 778, 779, 780, 781, 782, 783, 784, 785, 786, 787, 788, 789, 790, 791, 792, 793, 794, 795, 796, 797, 798, 799, 800, 801, 802, 803, 804, 805, 806, 807, 808, 809, 810, 811, 812, 813, 814, 815, 816, 817, 818, 819, 820, 821, 822, 823, 824, 825, 826, 827, 828, 829, 830, 831, 832, 833, 834, 835, 836, 837, 838, 839, 840, 841, 842, 843, 844, 845, 846, 847, 848, 849, 850, 851, 852, 853, 854, 855, 856, 857, 858, 859, 860, 861, 862, 863, 864, 865, 866, 867, 868, 869, 870, 871, 872],
      "AcquisitionTime": ["213506.992500", "213507.452500", "213507.912500", "213508.372500", "213508.832500", "213509.292500", "213509.752500", "213510.212500", "213510.672500", "213511.132500", "213511.592500", "213512.052500", "213512.512500", "213512.972500", "213513.432500", "213513.892500", "213514.352500", "213514.812500", "213515.272500", "213515.732500", "213516.192500", "213516.652500", "213517.112500", "213517.572500", "213518.032500", "213518.492500", "213518.952500", "213519.412500", "213519.872500", "213520.332500", "213520.792500", "213521.252500", "213521.712500", "213522.172500", "213522.632500", "213523.092500", "213523.552500", "213524.012500", "213524.472500", "213524.932500", "213525.392500", "213525.852500", "213526.312500", "213526.772500", "213527.232500", "213527.692500", "213528.152500", "213528.612500", "213529.072500", "213529.532500", "213529.992500", "213530.452500", "213530.912500", "213531.372500", "213531.832500", "213532.292500", "213532.752500", "213533.212500", "213533.672500", "213534.132500", "213534.592500", "213535.052500", "213535.512500", "213535.972500", "213536.432500", "213536.892500", "213537.352500", "213537.812500", "213538.272500", "213538.732500", "213539.192500", "213539.652500", "213540.112500", "213540.572500", "213541.032500", "213541.492500", "213541.952500", "213542.412500", "213542.872500", "213543.332500", "213543.792500", "213544.252500", "213544.712500", "213545.172500", "213545.632500", "213546.092500", "213546.552500", "213547.012500", "213547.472500", "213547.932500", "213548.392500", "213548.852500", "213549.312500", "213549.772500", "213550.232500", "213550.692500", "213551.152500", "213551.612500", "213552.072500", "213552.532500", "213552.992500", "213553.452500", "213553.912500", "213554.372500", "213554.832500", "213555.292500", "213555.752500", "213556.212500", "213556.672500", "213557.132500", "213557.592500", "213558.052500", "213558.512500", "213558.972500", "213559.432500", "213559.892500", "213600.352500", "213600.812500", "213601.272500", "213601.732500", "213602.192500", "213602.652500", "213603.112500", "213603.572500", "213604.032500", "213604.492500", "213604.952500", "213605.412500", "213605.872500", "213606.332500", "213606.792500", "213607.252500", "213607.712500", "213608.172500", "213608.632500", "213609.092500", "213609.552500", "213610.012500", "213610.472500", "213610.932500", "213611.392500", "213611.852500", "213612.312500", "213612.772500", "213613.232500", "213613.692500", "213614.152500", "213614.612500", "213615.072500", "213615.532500", "213615.992500", "213616.452500", "213616.912500", "213617.372500", "213617.832500", "213618.292500", "213618.752500", "213619.212500", "213619.672500", "213620.132500", "213620.592500", "213621.052500", "213621.512500", "213621.972500", "213622.432500", "213622.892500", "213623.352500", "213623.812500", "213624.272500", "213624.732500", "213625.192500", "213625.652500", "213626.112500", "213626.572500", "213627.032500", "213627.492500", "213627.952500", "213628.412500", "213628.872500", "213629.332500", "213629.792500", "213630.252500", "213630.712500", "213631.172500", "213631.632500", "213632.092500", "213632.552500", "213633.012500", "213633.472500", "213633.932500", "213634.392500", "213634.852500", "213635.312500", "213635.772500", "213636.232500", "213636.692500", "213637.152500", "213637.612500", "213638.072500", "213638.532500", "213638.992500", "213639.452500", "213639.912500", "213640.372500", "213640.832500", "213641.292500", "213641.752500", "213642.212500", "213642.672500", "213643.132500", "213643.592500", "213644.052500", "213644.512500", "213644.972500", "213645.432500", "213645.892500", "213646.352500", "213646.812500", "213647.272500", "213647.732500", "213648.192500", "213648.652500", "213649.112500", "213649.572500", "213650.032500", "213650.492500", "213650.952500", "213651.412500", "213651.872500", "213652.332500", "213652.792500", "213653.252500", "213653.712500", "213654.172500", "213654.632500", "213655.092500", "213655.552500", "213656.012500", "213656.472500", "213656.932500", "213657.392500", "213657.852500", "213658.312500", "213658.772500", "213659.232500", "213659.692500", "213700.152500", "213700.612500", "213701.072500", "213701.532500", "213701.992500", "213702.452500", "213702.912500", "213703.372500", "213703.832500", "213704.292500", "213704.752500", "213705.212500", "213705.672500", "213706.132500", "213706.592500", "213707.052500", "213707.512500", "213707.972500", "213708.432500", "213708.892500", "213709.352500", "213709.812500", "213710.272500", "213710.732500", "213711.192500", "213711.652500", "213712.112500", "213712.572500", "213713.032500", "213713.492500", "213713.952500", "213714.412500", "213714.872500", "213715.332500", "213715.792500", "213716.252500", "213716.712500", "213717.172500", "213717.632500", "213718.092500", "213718.552500", "213719.012500", "213719.472500", "213719.932500", "213720.392500", "213720.852500", "213721.312500", "213721.772500", "213722.232500", "213722.692500", "213723.152500", "213723.612500", "213724.072500", "213724.532500", "213724.992500", "213725.452500", "213725.912500", "213726.372500", "213726.832500", "213727.292500", "213727.752500", "213728.212500", "213728.672500", "213729.132500", "213729.592500", "213730.052500", "213730.512500", "213730.972500", "213731.432500", "213731.892500", "213732.352500", "213732.812500", "213733.272500", "213733.732500", "213734.192500", "213734.652500", "213735.112500", "213735.572500", "213736.032500", "213736.492500", "213736.952500", "213737.412500", "213737.872500", "213738.332500", "213738.792500", "213739.252500", "213739.712500", "213740.172500", "213740.632500", "213741.092500", "213741.552500", "213742.012500", "213742.472500", "213742.932500", "213743.392500", "213743.852500", "213744.312500", "213744.772500", "213745.232500", "213745.692500", "213746.152500", "213746.612500", "213747.072500", "213747.532500", "213747.992500", "213748.452500", "213748.912500", "213749.372500", "213749.832500", "213750.292500", "213750.752500", "213751.212500", "213751.672500", "213752.132500", "213752.592500", "213753.052500", "213753.512500", "213753.972500", "213754.432500", "213754.892500", "213755.352500", "213755.812500", "213756.272500", "213756.732500", "213757.192500", "213757.652500", "213758.112500", "213758.572500", "213759.032500", "213759.492500", "213759.952500", "213800.412500", "213800.872500", "213801.332500", "213801.792500", "213802.252500", "213802.712500", "213803.172500", "213803.632500", "213804.092500", "213804.552500", "213805.012500", "213805.472500", "213805.932500", "213806.392500", "213806.852500", "213807.312500", "213807.772500", "213808.232500", "213808.692500", "213809.152500", "213809.612500", "213810.072500", "213810.532500", "213810.992500", "213811.452500", "213811.912500", "213812.372500", "213812.832500", "213813.292500", "213813.752500", "213814.212500", "213814.672500", "213815.132500", "213815.592500", "213816.052500", "213816.512500", "213816.972500", "213817.432500", "213817.892500", "213818.352500", "213818.812500", "213819.272500", "213819.732500", "213820.192500", "213820.652500", "213821.112500", "213821.572500", "213822.032500", "213822.492500", "213822.952500", "213823.412500", "213823.872500", "213824.332500", "213824.792500", "213825.252500", "213825.712500", "213826.172500", "213826.632500", "213827.092500", "213827.552500", "213828.012500", "213828.472500", "213828.932500", "213829.392500", "213829.852500", "213830.312500", "213830.772500", "213831.232500", "213831.692500", "213832.152500", "213832.612500", "213833.072500", "213833.532500", "213833.992500", "213834.452500", "213834.912500", "213835.372500", "213835.832500", "213836.292500", "213836.752500", "213837.212500", "213837.672500", "213838.132500", "213838.592500", "213839.052500", "213839.512500", "213839.972500", "213840.432500", "213840.892500", "213841.352500", "213841.812500", "213842.272500", "213842.732500", "213843.192500", "213843.652500", "213844.112500", "213844.572500", "213845.032500", "213845.492500", "213845.952500", "213846.412500", "213846.872500", "213847.332500", "213847.792500", "213848.252500", "213848.712500", "213849.172500", "213849.632500", "213850.092500", "213850.552500", "213851.012500", "213851.472500", "213851.932500", "213852.392500", "213852.852500", "213853.312500", "213853.772500", "213854.232500", "213854.692500", "213855.152500", "213855.612500", "213856.072500", "213856.532500", "213856.992500", "213857.452500", "213857.912500", "213858.372500", "213858.832500", "213859.292500", "213859.752500", "213900.212500", "213900.672500", "213901.132500", "213901.592500", "213902.052500", "213902.512500", "213902.972500", "213903.432500", "213903.892500", "213904.352500", "213904.812500", "213905.272500", "213905.732500", "213906.192500", "213906.652500", "213907.112500", "213907.572500", "213908.032500", "213908.492500", "213908.952500", "213909.412500", "213909.872500", "213910.332500", "213910.792500", "213911.252500", "213911.712500", "213912.172500", "213912.632500", "213913.092500", "213913.552500", "213914.012500", "213914.472500", "213914.932500", "213915.392500", "213915.852500", "213916.312500", "213916.772500", "213917.232500", "213917.692500", "213918.152500", "213918.612500", "213919.072500", "213919.532500", "213919.992500", "213920.452500", "213920.912500", "213921.372500", "213921.832500", "213922.292500", "213922.752500", "213923.212500", "213923.672500", "213924.132500", "213924.592500", "213925.052500", "213925.512500", "213925.972500", "213926.432500", "213926.892500", "213927.352500", "213927.812500", "213928.272500", "213928.732500", "213929.192500", "213929.652500", "213930.112500", "213930.572500", "213931.032500", "213931.492500", "213931.952500", "213932.412500", "213932.872500", "213933.332500", "213933.792500", "213934.252500", "213934.712500", "213935.172500", "213935.632500", "213936.092500", "213936.552500", "213937.012500", "213937.472500", "213937.932500", "213938.392500", "213938.852500", "213939.312500", "213939.772500", "213940.232500", "213940.692500", "213941.152500", "213941.612500", "213942.072500", "213942.532500", "213942.992500", "213943.452500", "213943.912500", "213944.372500", "213944.832500", "213945.292500", "213945.752500", "213946.212500", "213946.672500", "213947.132500", "213947.592500", "213948.052500", "213948.512500", "213948.972500", "213949.432500", "213949.892500", "213950.352500", "213950.812500", "213951.272500", "213951.732500", "213952.192500", "213952.652500", "213953.112500", "213953.572500", "213954.032500", "213954.492500", "213954.952500", "213955.412500", "213955.872500", "213956.332500", "213956.792500", "213957.252500", "213957.712500", "213958.172500", "213958.632500", "213959.092500", "213959.552500", "214000.012500", "214000.472500", "214000.932500", "214001.392500", "214001.852500", "214002.312500", "214002.772500", "214003.232500", "214003.692500", "214004.152500", "214004.612500", "214005.072500", "214005.532500", "214005.992500", "214006.452500", "214006.912500", "214007.372500", "214007.832500", "214008.292500", "214008.752500", "214009.212500", "214009.672500", "214010.132500", "214010.592500", "214011.052500", "214011.512500", "214011.972500", "214012.432500", "214012.892500", "214013.352500", "214013.812500", "214014.272500", "214014.732500", "214015.192500", "214015.652500", "214016.112500", "214016.572500", "214017.032500", "214017.492500", "214017.952500", "214018.412500", "214018.872500", "214019.332500", "214019.792500", "214020.252500", "214020.712500", "214021.172500", "214021.632500", "214022.092500", "214022.552500", "214023.012500", "214023.472500", "214023.932500", "214024.392500", "214024.852500", "214025.312500", "214025.772500", "214026.232500", "214026.692500", "214027.152500", "214027.612500", "214028.072500", "214028.532500", "214028.992500", "214029.452500", "214029.912500", "214030.372500", "214030.832500", "214031.292500", "214031.752500", "214032.212500", "214032.672500", "214033.132500", "214033.592500", "214034.052500", "214034.512500", "214034.972500", "214035.432500", "214035.892500", "214036.352500", "214036.812500", "214037.272500", "214037.732500", "214038.192500", "214038.652500", "214039.112500", "214039.572500", "214040.032500", "214040.492500", "214040.952500", "214041.412500", "214041.872500", "214042.332500", "214042.792500", "214043.252500", "214043.712500", "214044.172500", "214044.632500", "214045.092500", "214045.552500", "214046.012500", "214046.472500", "214046.932500", "214047.392500", "214047.852500", "214048.312500", "214048.772500", "214049.232500", "214049.692500", "214050.152500", "214050.612500", "214051.072500", "214051.532500", "214051.992500", "214052.452500", "214052.912500", "214053.372500", "214053.832500", "214054.292500", "214054.752500", "214055.212500", "214055.672500", "214056.132500", "214056.592500", "214057.052500", "214057.512500", "214057.972500", "214058.432500", "214058.892500", "214059.352500", "214059.812500", "214100.272500", "214100.732500", "214101.192500", "214101.652500", "214102.112500", "214102.572500", "214103.032500", "214103.492500", "214103.952500", "214104.412500", "214104.872500", "214105.332500", "214105.792500", "214106.252500", "214106.712500", "214107.172500", "214107.632500", "214108.092500", "214108.552500", "214109.012500", "214109.472500", "214109.932500", "214110.392500", "214110.852500", "214111.312500", "214111.772500", "214112.232500", "214112.692500", "214113.152500", "214113.612500", "214114.072500", "214114.532500", "214114.992500", "214115.452500", "214115.912500", "214116.372500", "214116.832500", "214117.292500", "214117.752500", "214118.212500", "214118.672500", "214119.132500", "214119.592500", "214120.052500", "214120.512500", "214120.972500", "214121.432500", "214121.892500", "214122.352500", "214122.812500", "214123.272500", "214123.732500", "214124.192500", "214124.652500", "214125.112500", "214125.572500", "214126.032500", "214126.492500", "214126.952500", "214127.412500", "214127.872500", "214128.332500", "214128.792500", "214129.252500", "214129.712500", "214130.172500", "214130.632500", "214131.092500", "214131.552500", "214132.012500", "214132.472500", "214132.932500", "214133.392500", "214133.852500", "214134.312500", "214134.772500", "214135.232500", "214135.692500", "214136.152500", "214136.612500", "214137.072500", "214137.532500", "214137.992500", "214138.452500", "214138.912500", "214139.372500", "214139.832500", "214140.292500", "214140.752500", "214141.212500", "214141.672500", "214142.132500", "214142.592500", "214143.052500", "214143.512500", "214143.972500", "214144.432500", "214144.892500", "214145.352500", "214145.812500", "214146.272500", "214146.732500", "214147.192500", "214147.652500"],
