{
  "AcquisitionMatrixPE": 140,
  "AcquisitionNumber": 1,
  "AcquisitionTime": "16:32:5.005000",
  "BandwidthPerPixelPhaseEncode": 10.352,
  "BaseResolution": 140,
  "BodyPartExamined": "BRAIN",
  "ConsistencyInfo": "N4_VE11E_LATEST_20181129",
  "ConversionSoftware": "dcm2niix",
  "ConversionSoftwareVersion": "v1.0.20201102",
  "DerivedVendorReportedEchoSpacing": 0.000689998,
  "DeviceSerialNumber": "66112",
  "DiffusionScheme": "Monopolar",
  "DwellTime": 2.1e-06,
  "EchoTime": 0.088,
  "EchoTrainLength": 105,
  "EffectiveEchoSpacing": 0.000689998,
  "FlipAngle": 90,
  "ImageComments": "Unaliased MB3/PE3",
  "ImageOrientationPatientDICOM": [0.999148, 0.0130955, 0.0391296, -0.0259891, 0.936289, 0.350267],
  "ImageType": [
    "ORIGINAL",
    "PRIMARY",
    "DIFFUSION",
    "NONE",
    "MB",
    "ND"
],
  "ImagingFrequency": 123.252,
  "InPlanePhaseEncodingDirectionDICOM": "COL",
  "InstitutionAddress": "Maynard 3,Hanover,NH,US,03755",
  "InstitutionName": "Dartmouth College - PBS",
  "InstitutionalDepartmentName": "Department",
  "IntendedFor": [
    "ses-01/dwi/sub-0068_ses-01_acq-96dirX6b0Xmb_dwi.nii.gz"
],
  "MRAcquisitionType": "2D",
  "MagneticFieldStrength": 3,
  "Manufacturer": "Siemens",
  "ManufacturersModelName": "Prisma",
  "Modality": "MR",
  "MultibandAccelerationFactor": 3,
  "PartialFourier": 0.75,
  "PatientPosition": "HFS",
  "PercentPhaseFOV": 100,
  "PercentSampling": 100,
  "PhaseEncodingDirection": "j-",
  "PhaseEncodingSteps": 105,
  "PhaseResolution": 1,
  "PixelBandwidth": 1700,
  "ProcedureStepDescription": "Wager_Wager^1076_spacetop",
  "ProtocolName": "dwi_acq-discorr-AP",
  "PulseSequenceDetails": "%CustomerSeq%\\cmrr_mbep2d_diff",
  "ReceiveCoilActiveElements": "HEA;HEP",
  "ReceiveCoilName": "Head_32",
  "ReconMatrixPE": 140,
  "RepetitionTime": 4.1,
  "SAR": 0.148225,
  "ScanOptions": "PFP\\FS",
  "ScanningSequence": "EP",
  "SequenceName": "ep_b0",
  "SequenceVariant": "SK\\SS",
  "SeriesDescription": "dwi_acq-discorr-AP",
  "SeriesNumber": 7,
  "ShimSetting": [4145, -7779, -7281, 451, -71, -192, 79, 69],
  "SliceThickness": 1.7,
  "SliceTiming": [0, 2.125, 0.15625, 2.26562, 0.3125, 2.42188, 0.45312, 2.57812, 0.60938, 2.71875, 0.76562, 2.875, 0.90625, 3.03125, 1.0625, 3.17188, 1.21875, 3.32812, 1.35938, 3.48438, 1.51562, 3.625, 1.67188, 3.78125, 1.8125, 3.9375, 1.96875, 0, 2.125, 0.15625, 2.26562, 0.3125, 2.42188, 0.45312, 2.57812, 0.60938, 2.71875, 0.76562, 2.875, 0.90625, 3.03125, 1.0625, 3.17188, 1.21875, 3.32812, 1.35938, 3.48438, 1.51562, 3.625, 1.67188, 3.78125, 1.8125, 3.9375, 1.96875, 0, 2.125, 0.15625, 2.26562, 0.3125, 2.42188, 0.45312, 2.57812, 0.60938, 2.71875, 0.76562, 2.875, 0.90625, 3.03125, 1.0625, 3.17188, 1.21875, 3.32812, 1.35938, 3.48438, 1.51562, 3.625, 1.67188, 3.78125, 1.8125, 3.9375, 1.96875],
  "SoftwareVersions": "syngo MR E11",
  "SpacingBetweenSlices": 1.7,
  "StationName": "AWP66112",
  "TotalReadoutTime": 0.0959097,
  "TxRefAmp": 249.475,
  "WipMemBlock": "ff85722c-8e96-419b-8765-c72480079d5a||Sequence: R016 ve11e/master r/434b28f1; Aug  7 2019 19:06:17 by eja",
  "dcmmeta_affine": [
    [-1.7128257751464844, -0.0445527657866478, 0.05448436737060547, 125.70108795166016],
    [-0.02244943380355835, 1.605067253112793, 0.5966758728027344, -105.62347412109375],
    [0.06707926094532013, -0.6004579067230225, 1.5909194946289062, -14.946826934814453],
    [0.0, 0.0, 0.0, 1.0]
],
  "dcmmeta_reorient_transform": [
    [0.0, -1.0, 0.0, 139.0],
    [1.0, 0.0, 0.0, 0.0],
    [0.0, 0.0, -1.0, 80.0],
    [0.0, 0.0, 0.0, 1.0]
],
  "dcmmeta_shape": [140, 140, 81],
  "dcmmeta_slice_dim": 2,
  "dcmmeta_version": 0.6,
  "global": {
    "const": {
      "AccessionNumber": "A003974",
      "AcquisitionMatrix": [140, 0, 0, 140],
      "AcquisitionNumber": 1,
      "AngioFlag": "N",
      "BitsAllocated": 16,
      "BitsStored": 16,
      "BodyPartExamined": "BRAIN",
      "Columns": 140,
      "EchoNumbers": 1,
      "EchoTime": 88.0,
      "EchoTrainLength": 105,
      "FlipAngle": 90.0,
      "HighBit": 15,
      "ImageOrientationPatient": [0.99914832968667, 0.01309550265908, 0.03912956803295, -0.0259891134639, 0.93628922178407, 0.35026712542335],
      "ImageType": [
        "ORIGINAL",
        "PRIMARY",
        "DIFFUSION",
        "NONE",
        "MB",
        "ND"
],
      "ImagedNucleus": "1H",
      "ImagingFrequency": 123.25218,
      "InPlanePhaseEncodingDirection": "COL",
      "MRAcquisitionType": "2D",
      "MagneticFieldStrength": 3.0,
      "Manufacturer": "SIEMENS",
      "ManufacturerModelName": "Prisma",
      "Modality": "MR",
      "NumberOfAverages": 1.0,
      "NumberOfPhaseEncodingSteps": 105,
      "PercentPhaseFieldOfView": 100.0,
      "PercentSampling": 100.0,
      "PerformedProcedureStepStartTime": "161039.773000",
      "PhotometricInterpretation": "MONOCHROME2",
      "PixelBandwidth": 1700.0,
      "PixelRepresentation": 0,
      "PixelSpacing": [1.7142857313156, 1.7142857313156],
      "ProtocolName": "dwi_acq-discorr-AP",
      "RepetitionTime": 4100.0,
      "Rows": 140,
      "SAR": 0.14822517599425,
      "SamplesPerPixel": 1,
      "ScanOptions": [
        "PFP",
        "FS"
],
      "ScanningSequence": "EP",
      "SequenceName": "ep_b0",
      "SequenceVariant": [
        "SK",
        "SS"
],
      "SeriesDescription": "dwi_acq-discorr-AP",
      "SeriesNumber": 7,
      "SeriesTime": "163210.061000",
      "SliceThickness": 1.7000000476837,
      "SmallestImagePixelValue": 0,
      "SoftwareVersions": "syngo MR E11",
      "SpacingBetweenSlices": 1.7,
      "SpecificCharacterSet": "ISO_IR 100",
      "StudyID": "1",
      "StudyTime": "161039.662000",
      "TransmitCoilName": "Body",
      "VariableFlipAngleFlag": "N",
      "WindowCenterWidthExplanation": "Algo1"
    },
    "slices": {
      "AcquisitionTime": ["163205.005000", "163207.120000", "163205.155000", "163207.272500", "163205.307500", "163207.422500", "163205.457500", "163207.572500", "163205.610000", "163207.725000", "163205.760000", "163207.875000", "163205.912500", "163208.027500", "163206.062500", "163208.177500", "163206.212500", "163208.330000", "163206.365000", "163208.480000", "163206.515000", "163208.632500", "163206.667500", "163208.782500", "163206.817500", "163208.932500", "163206.970000", "163205.005000", "163207.120000", "163205.155000", "163207.272500", "163205.307500", "163207.422500", "163205.457500", "163207.572500", "163205.610000", "163207.725000", "163205.760000", "163207.875000", "163205.912500", "163208.027500", "163206.062500", "163208.177500", "163206.212500", "163208.330000", "163206.365000", "163208.480000", "163206.515000", "163208.632500", "163206.667500", "163208.782500", "163206.817500", "163208.932500", "163206.970000", "163205.005000", "163207.120000", "163205.155000", "163207.272500", "163205.307500", "163207.422500", "163205.457500", "163207.572500", "163205.610000", "163207.725000", "163205.760000", "163207.875000", "163205.912500", "163208.027500", "163206.062500", "163208.177500", "163206.212500", "163208.330000", "163206.365000", "163208.480000", "163206.515000", "163208.632500", "163206.667500", "163208.782500", "163206.817500", "163208.932500", "163206.970000"],
      "ContentTime": ["163210.064000", "163210.155000", "163210.071000", "163210.162000", "163210.077000", "163210.168000", "163210.083000", "163210.175000", "163210.089000", "163210.181000", "163210.095000", "163210.193000", "163210.106000", "163210.200000", "163210.112000", "163210.212000", "163210.118000", "163210.218000", "163210.124000", "163210.224000", "163210.130000", "163210.232000", "163210.136000", "163210.241000", "163210.142000", "163210.259000", "163210.148000", "163210.066000", "163210.157000", "163210.073000", "163210.164000", "163210.079000", "163210.171000", "163210.085000", "163210.177000", "163210.091000", "163210.184000", "163210.097000", "163210.196000", "163210.108000", "163210.202000", "163210.114000", "163210.214000", "163210.120000", "163210.220000", "163210.126000", "163210.227000", "163210.132000", "163210.235000", "163210.138000", "163210.254000", "163210.144000", "163210.261000", "163210.150000", "163210.069000", "163210.159000", "163210.075000", "163210.166000", "163210.081000", "163210.173000", "163210.087000", "163210.179000", "163210.093000", "163210.186000", "163210.099000", "163210.198000", "163210.110000", "163210.210000", "163210.116000", "163210.216000", "163210.122000", "163210.222000", "163210.128000", "163210.229000", "163210.134000", "163210.238000", "163210.140000", "163210.256000", "163210.146000", "163210.263000", "163210.152000"],
      "CsaImage.GSWDDataType": [
        "predicted",
        "predicted",
        "predicted",
        "predicted",
        "predicted",
        "predicted",
        "predicted",
        "predicted",
        "predicted",
        "predicted",
        "predicted",
        "predicted",
        "predicted",
        "predicted",
        "predicted",
        "predicted",
        "predicted",
        "predicted",
        "predicted",
        "predicted",
        "predicted",
        "predicted",
        "predicted",
        "measured",
        "predicted",
        "measured",
        "predicted",
        "predicted",
        "predicted",
        "predicted",
        "predicted",
        "predicted",
        "predicted",
        "predicted",
        "predicted",
        "predicted",
        "predicted",
        "predicted",
        "predicted",
        "predicted",
        "predicted",
        "predicted",
        "predicted",
        "predicted",
        "predicted",
        "predicted",
        "predicted",
        "predicted",
        "predicted",
        "predicted",
        "measured",
        "predicted",
        "measured",
        "predicted",
        "predicted",
        "predicted",
        "predicted",
        "predicted",
        "predicted",
        "predicted",
        "predicted",
        "predicted",
        "predicted",
        "predicted",
        "predicted",
        "predicted",
        "predicted",
        "predicted",
        "predicted",
        "predicted",
        "predicted",
        "predicted",
        "predicted",
        "predicted",
        "predicted",
        "predicted",
        "predicted",
        "measured",
        "predicted",
        "measured",
        "predicted"
],
      "CsaImage.ICE_Dims": [
        "X_1_1_1_1_1_1_1_1_1_1_1_165",
        "X_1_1_1_1_1_1_42_1_1_2_1_165",
        "X_1_1_1_1_1_1_2_1_1_3_1_165",
        "X_1_1_1_1_1_1_43_1_1_4_1_165",
        "X_1_1_1_1_1_1_3_1_1_5_1_165",
        "X_1_1_1_1_1_1_44_1_1_6_1_165",
        "X_1_1_1_1_1_1_4_1_1_7_1_165",
        "X_1_1_1_1_1_1_45_1_1_8_1_165",
        "X_1_1_1_1_1_1_5_1_1_9_1_165",
        "X_1_1_1_1_1_1_46_1_1_10_1_165",
        "X_1_1_1_1_1_1_6_1_1_11_1_165",
        "X_1_1_1_1_1_1_47_1_1_12_1_165",
        "X_1_1_1_1_1_1_7_1_1_13_1_165",
        "X_1_1_1_1_1_1_48_1_1_14_1_165",
        "X_1_1_1_1_1_1_8_1_1_15_1_165",
        "X_1_1_1_1_1_1_49_1_1_16_1_165",
        "X_1_1_1_1_1_1_9_1_1_17_1_165",
        "X_1_1_1_1_1_1_50_1_1_18_1_165",
        "X_1_1_1_1_1_1_10_1_1_19_1_165",
        "X_1_1_1_1_1_1_51_1_1_20_1_165",
        "X_1_1_1_1_1_1_11_1_1_21_1_165",
        "X_1_1_1_1_1_1_52_1_1_22_1_165",
        "X_1_1_1_1_1_1_12_1_1_23_1_165",
        "X_1_1_1_1_1_1_53_1_1_24_1_165",
        "X_1_1_1_1_1_1_13_1_1_25_1_165",
        "X_1_1_1_1_1_1_54_1_1_26_1_165",
        "X_1_1_1_1_1_1_14_1_1_27_1_165",
        "X_1_1_1_1_1_1_55_1_1_28_1_165",
        "X_1_1_1_1_1_1_15_1_1_29_1_165",
        "X_1_1_1_1_1_1_56_1_1_30_1_165",
        "X_1_1_1_1_1_1_16_1_1_31_1_165",
        "X_1_1_1_1_1_1_57_1_1_32_1_165",
        "X_1_1_1_1_1_1_17_1_1_33_1_165",
        "X_1_1_1_1_1_1_58_1_1_34_1_165",
        "X_1_1_1_1_1_1_18_1_1_35_1_165",
        "X_1_1_1_1_1_1_59_1_1_36_1_165",
        "X_1_1_1_1_1_1_19_1_1_37_1_165",
        "X_1_1_1_1_1_1_60_1_1_38_1_165",
        "X_1_1_1_1_1_1_20_1_1_39_1_165",
        "X_1_1_1_1_1_1_61_1_1_40_1_165",
        "X_1_1_1_1_1_1_21_1_1_41_1_165",
        "X_1_1_1_1_1_1_62_1_1_42_1_165",
        "X_1_1_1_1_1_1_22_1_1_43_1_165",
        "X_1_1_1_1_1_1_63_1_1_44_1_165",
        "X_1_1_1_1_1_1_23_1_1_45_1_165",
        "X_1_1_1_1_1_1_64_1_1_46_1_165",
        "X_1_1_1_1_1_1_24_1_1_47_1_165",
        "X_1_1_1_1_1_1_65_1_1_48_1_165",
        "X_1_1_1_1_1_1_25_1_1_49_1_165",
        "X_1_1_1_1_1_1_66_1_1_50_1_165",
        "X_1_1_1_1_1_1_26_1_1_51_1_165",
        "X_1_1_1_1_1_1_67_1_1_52_1_165",
        "X_1_1_1_1_1_1_27_1_1_53_1_165",
        "X_1_1_1_1_1_1_68_1_1_54_1_165",
        "X_1_1_1_1_1_1_28_1_1_55_1_165",
        "X_1_1_1_1_1_1_69_1_1_56_1_165",
        "X_1_1_1_1_1_1_29_1_1_57_1_165",
        "X_1_1_1_1_1_1_70_1_1_58_1_165",
        "X_1_1_1_1_1_1_30_1_1_59_1_165",
        "X_1_1_1_1_1_1_71_1_1_60_1_165",
        "X_1_1_1_1_1_1_31_1_1_61_1_165",
        "X_1_1_1_1_1_1_72_1_1_62_1_165",
        "X_1_1_1_1_1_1_32_1_1_63_1_165",
        "X_1_1_1_1_1_1_73_1_1_64_1_165",
        "X_1_1_1_1_1_1_33_1_1_65_1_165",
        "X_1_1_1_1_1_1_74_1_1_66_1_165",
        "X_1_1_1_1_1_1_34_1_1_67_1_165",
        "X_1_1_1_1_1_1_75_1_1_68_1_165",
        "X_1_1_1_1_1_1_35_1_1_69_1_165",
        "X_1_1_1_1_1_1_76_1_1_70_1_165",
        "X_1_1_1_1_1_1_36_1_1_71_1_165",
        "X_1_1_1_1_1_1_77_1_1_72_1_165",
        "X_1_1_1_1_1_1_37_1_1_73_1_165",
        "X_1_1_1_1_1_1_78_1_1_74_1_165",
        "X_1_1_1_1_1_1_38_1_1_75_1_165",
        "X_1_1_1_1_1_1_79_1_1_76_1_165",
        "X_1_1_1_1_1_1_39_1_1_77_1_165",
        "X_1_1_1_1_1_1_80_1_1_78_1_165",
        "X_1_1_1_1_1_1_40_1_1_79_1_165",
        "X_1_1_1_1_1_1_81_1_1_80_1_165",
        "X_1_1_1_1_1_1_41_1_1_81_1_165"
],
      "CsaImage.ProtocolSliceNumber": [0, 1, 2, 3, 4, 5, 6, 7, 8, 9, 10, 11, 12, 13, 14, 15, 16, 17, 18, 19, 20, 21, 22, 23, 24, 25, 26, 27, 28, 29, 30, 31, 32, 33, 34, 35, 36, 37, 38, 39, 40, 41, 42, 43, 44, 45, 46, 47, 48, 49, 50, 51, 52, 53, 54, 55, 56, 57, 58, 59, 60, 61, 62, 63, 64, 65, 66, 67, 68, 69, 70, 71, 72, 73, 74, 75, 76, 77, 78, 79, 80],
      "CsaImage.RFSWDDataType": [
        "predicted",
        "predicted",
        "predicted",
        "predicted",
        "predicted",
        "predicted",
        "predicted",
        "predicted",
        "predicted",
        "predicted",
        "predicted",
        "predicted",
        "predicted",
        "predicted",
        "predicted",
        "predicted",
        "predicted",
        "predicted",
        "predicted",
        "predicted",
        "predicted",
        "predicted",
        "predicted",
        "measured",
        "predicted",
        "measured",
        "predicted",
        "predicted",
        "predicted",
        "predicted",
        "predicted",
        "predicted",
        "predicted",
        "predicted",
        "predicted",
        "predicted",
        "predicted",
        "predicted",
        "predicted",
        "predicted",
        "predicted",
        "predicted",
        "predicted",
        "predicted",
        "predicted",
        "predicted",
        "predicted",
        "predicted",
        "predicted",
        "predicted",
        "measured",
        "predicted",
        "measured",
        "predicted",
        "predicted",
        "predicted",
        "predicted",
        "predicted",
        "predicted",
        "predicted",
        "predicted",
        "predicted",
        "predicted",
        "predicted",
        "predicted",
        "predicted",
        "predicted",
        "predicted",
        "predicted",
        "predicted",
        "predicted",
        "predicted",
        "predicted",
        "predicted",
        "predicted",
        "predicted",
        "predicted",
        "measured",
        "predicted",
        "measured",
        "predicted"
],
      "CsaImage.SlicePosition_PCS": [
        [-119.50825049, -117.48088084, -98.4100988],
        [-119.56273486, -118.07755671, -96.81918312],
        [-119.61721946, -118.67423211, -95.22826744],
        [-119.67170383, -119.27090798, -93.63735176],
        [-119.7261882, -119.86758385, -92.04643989],
        [-119.7806728, -120.46425972, -90.45552421],
        [-119.83515717, -121.0609356, -88.86460853],
        [-119.88964154, -121.65761147, -87.27369285],
        [-119.9441259, -122.25428734, -85.68278099],
        [-119.99861051, -122.85096322, -84.09186531],
        [-120.05309488, -123.44763909, -82.50094963],
        [-120.10757924, -124.04431401, -80.91003395],
        [-120.16206361, -124.64098988, -79.31912208],
        [-120.21654822, -125.23766575, -77.7282064],
        [-120.27103258, -125.83434163, -76.13729072],
        [-120.32551695, -126.4310175, -74.54637695],
        [-120.38000156, -127.02769337, -72.95546318],
        [-120.43448593, -127.62436924, -71.3645475],
        [-120.48897029, -128.22104512, -69.77363372],
        [-120.54345466, -128.81772099, -68.18271804],
        [-120.59793927, -129.41439686, -66.59180427],
        [-120.65242363, -130.01107178, -65.00088859],
        [-120.706908, -130.60774765, -63.40997482],
        [-120.76139261, -131.20442353, -61.81906009],
        [-120.81587697, -131.8010994, -60.22814537],
        [-120.87036134, -132.39777527, -58.63723064],
        [-120.92484571, -132.99445115, -57.04631591],
        [-120.97933008, -133.59112702, -55.45540119],
        [-121.03381444, -134.18780289, -53.86448646],
        [-121.08829929, -134.78447876, -52.27357173],
        [-121.14278365, -135.38115464, -50.68265701],
        [-121.19726802, -135.97783051, -49.09174252],
        [-121.25175239, -136.57450638, -47.50082779],
        [-121.30623676, -137.17118226, -45.90991313],
        [-121.36072112, -137.76785813, -44.31899858],
        [-121.41520549, -138.364534, -42.72808385],
        [-121.46969034, -138.96120987, -41.13716913],
        [-121.5241747, -139.55788575, -39.5462544],
        [-121.57865907, -140.15455971, -37.95534015],
        [-121.63314344, -140.75123559, -36.36442543],
        [-121.68762781, -141.34791146, -34.7735107],
        [-121.74211217, -141.94458733, -33.18259597],
        [-121.79659654, -142.5412632, -31.59168125],
        [-121.85108138, -143.13793908, -30.00076652],
        [-121.90556575, -143.73461495, -28.40985275],
        [-121.96005012, -144.33129082, -26.81893707],
        [-122.01453449, -144.92796669, -25.2280233],
        [-122.06901885, -145.52464257, -23.63710762],
        [-122.12350322, -146.12132035, -22.04619384],
        [-122.17798759, -146.71799241, -20.45527816],
        [-122.23247243, -147.31466828, -18.86436439],
        [-122.2869568, -147.91134415, -17.27344871],
        [-122.34144117, -148.50802002, -15.68253494],
        [-122.39592553, -149.1046959, -14.09162117],
        [-122.4504099, -149.70137177, -12.50070549],
        [-122.50489427, -150.29804764, -10.90978981],
        [-122.55937864, -150.89472352, -9.31887413],
        [-122.61386348, -151.49139939, -7.72796226],
        [-122.66834785, -152.08807526, -6.13704658],
        [-122.72283222, -152.68475113, -4.5461309],
        [-122.77731658, -153.28142701, -2.95521904],
        [-122.83180095, -153.87810288, -1.36430336],
        [-122.88628532, -154.47477875, 0.22661232],
        [-122.94076969, -155.07145462, 1.817528],
        [-122.99525453, -155.6681305, 3.40843987],
        [-123.0497389, -156.26480637, 4.99935555],
        [-123.10422326, -156.86148224, 6.59027123],
        [-123.15870763, -157.45815812, 8.18118691],
        [-123.213192, -158.05483399, 9.77209877],
        [-123.26767637, -158.65150986, 11.36301445],
        [-123.32216073, -159.24818573, 12.95393013],
        [-123.37664558, -159.84486161, 14.54484581],
        [-123.43112995, -160.44153748, 16.13575768],
        [-123.48561431, -161.03821335, 17.72667336],
        [-123.54009868, -161.63488923, 19.31758522],
        [-123.59458305, -162.2315651, 20.90850472],
        [-123.64906741, -162.82824097, 22.49941658],
        [-123.70355178, -163.42491684, 24.09032845],
        [-123.75803663, -164.02159272, 25.68124794],
        [-123.81252099, -164.61826859, 27.27215981],
        [-123.86700536, -165.21494446, 28.8630793]
],
      "CsaImage.TimeAfterStart": [16.4, 18.515, 16.55, 18.665, 16.7025, 18.8175, 16.8525, 18.9675, 17.0025, 19.12, 17.155, 19.27, 17.305, 19.4225, 17.4575, 19.5725, 17.6075, 19.7225, 17.76, 19.875, 17.91, 20.025, 18.0625, 20.1775, 18.2125, 20.3275, 18.3625, 16.4, 18.515, 16.55, 18.665, 16.7025, 18.8175, 16.8525, 18.9675, 17.0025, 19.12, 17.155, 19.27, 17.305, 19.4225, 17.4575, 19.5725, 17.6075, 19.7225, 17.76, 19.875, 17.91, 20.025, 18.0625, 20.1775, 18.2125, 20.3275, 18.3625, 16.4, 18.515, 16.55, 18.665, 16.7025, 18.8175, 16.8525, 18.9675, 17.0025, 19.12, 17.155, 19.27, 17.305, 19.4225, 17.4575, 19.5725, 17.6075, 19.7225, 17.76, 19.875, 17.91, 20.025, 18.0625, 20.1775, 18.2125, 20.3275, 18.3625],
      "ImagePositionPatient": [
        [-119.50825048795, -117.4808808373, -98.41009879614],
        [-119.56273485532, -118.0775567101, -96.819183116208],
        [-119.61721946111, -118.67423210607, -95.228267436277],
        [-119.67170382848, -119.27090797887, -93.637351756345],
        [-119.72618819585, -119.86758385168, -92.046439891111],
        [-119.78067280164, -120.46425972448, -90.455524211179],
        [-119.83515716901, -121.06093559728, -88.864608531247],
        [-119.88964153638, -121.65761147008, -87.273692851316],
        [-119.94412590375, -122.25428734289, -85.682780986081],
        [-119.99861050954, -122.85096321569, -84.09186530615],
        [-120.05309487691, -123.44763908849, -82.500949626218],
        [-120.10757924428, -124.04431400762, -80.910033946287],
        [-120.16206361165, -124.64098988042, -79.319122081052],
        [-120.21654821744, -125.23766575323, -77.728206401121],
        [-120.27103258481, -125.83434162603, -76.137290721189],
        [-120.32551695218, -126.43101749883, -74.546376948606],
        [-120.38000155797, -127.02769337163, -72.955463176023],
        [-120.43448592534, -127.62436924444, -71.364547496091],
        [-120.48897029271, -128.22104511724, -69.773633723508],
        [-120.54345466008, -128.81772099004, -68.182718043577],
        [-120.59793926587, -129.41439686284, -66.591804270994],
        [-120.65242363324, -130.01107178197, -65.000888591062],
        [-120.70690800061, -130.60774765478, -63.409974818479],
        [-120.7613926064, -131.20442352758, -61.819060092222],
        [-120.81587697377, -131.80109940038, -60.228145365964],
        [-120.87036134114, -132.39777527318, -58.637230639707],
        [-120.92484570851, -132.99445114599, -57.04631591345],
        [-120.97933007588, -133.59112701879, -55.455401187192],
        [-121.03381444325, -134.18780289159, -53.864486460935],
        [-121.08829928746, -134.7844787644, -52.273571734678],
        [-121.14278365483, -135.3811546372, -50.68265700842],
        [-121.1972680222, -135.97783051, -49.091742520582],
        [-121.25175238957, -136.5745063828, -47.500827794324],
        [-121.30623675694, -137.17118225561, -45.909913127672],
        [-121.36072112432, -137.76785812841, -44.318998580228],
        [-121.41520549169, -138.36453400121, -42.728083853971],
        [-121.46969033589, -138.96120987401, -41.137169127714],
        [-121.52417470326, -139.55788574682, -39.546254401456],
        [-121.57865907063, -140.15455971227, -37.955340152036],
        [-121.63314343801, -140.75123558507, -36.364425425779],
        [-121.68762780538, -141.34791145788, -34.773510699521],
        [-121.74211217275, -141.94458733068, -33.182595973264],
        [-121.79659654012, -142.54126320348, -31.591681247007],
        [-121.85108138432, -143.13793907628, -30.000766520749],
        [-121.9055657517, -143.73461494909, -28.409852748166],
        [-121.96005011907, -144.33129082189, -26.818937068235],
        [-122.01453448644, -144.92796669469, -25.228023295652],
        [-122.06901885381, -145.5246425675, -23.63710761572],
        [-122.12350322118, -146.12132034765, -22.046193843137],
        [-122.17798758855, -146.71799240575, -20.455278163205],
        [-122.23247243276, -147.31466827856, -18.864364390622],
        [-122.28695680013, -147.91134415136, -17.273448710691],
        [-122.3414411675, -148.50802002416, -15.682534938108],
        [-122.39592553487, -149.10469589696, -14.091621165525],
        [-122.45040990224, -149.70137176977, -12.500705485593],
        [-122.50489426961, -150.29804764257, -10.909789805662],
        [-122.55937863698, -150.89472351537, -9.3188741257299],
        [-122.61386348119, -151.49139938817, -7.7279622604955],
        [-122.66834784856, -152.08807526098, -6.1370465805639],
        [-122.72283221593, -152.68475113378, -4.5461309006322],
        [-122.7773165833, -153.28142700658, -2.9552190353979],
        [-122.83180095067, -153.87810287939, -1.3643033554662],
        [-122.88628531804, -154.47477875219, 0.22661232446542],
        [-122.94076968541, -155.07145462499, 1.8175280043971],
        [-122.99525452962, -155.66813049779, 3.4084398696314],
        [-123.04973889699, -156.2648063706, 4.9993555495631],
        [-123.10422326436, -156.8614822434, 6.5902712294947],
        [-123.15870763173, -157.4581581162, 8.1811869094264],
        [-123.2131919991, -158.054833989, 9.7720987746607],
        [-123.26767636647, -158.65150986181, 11.363014454592],
        [-123.32216073384, -159.24818573461, 12.953930134524],
        [-123.37664557805, -159.84486160741, 14.544845814456],
        [-123.43112994542, -160.44153748022, 16.13575767969],
        [-123.48561431279, -161.03821335302, 17.726673359622],
        [-123.54009868016, -161.63488922582, 19.317585224856],
        [-123.59458304753, -162.23156509862, 20.908504719485],
        [-123.6490674149, -162.82824097143, 22.499416584719],
        [-123.70355178227, -163.42491684423, 24.090328449954],
        [-123.75803662648, -164.02159271703, 25.681247944583],
        [-123.81252099385, -164.61826858983, 27.272159809817],
        [-123.86700536122, -165.21494446264, 28.863079304446]
],
      "InstanceCreationTime": ["163210.064000", "163210.155000", "163210.071000", "163210.162000", "163210.077000", "163210.168000", "163210.083000", "163210.175000", "163210.089000", "163210.181000", "163210.095000", "163210.193000", "163210.106000", "163210.200000", "163210.112000", "163210.212000", "163210.118000", "163210.218000", "163210.124000", "163210.224000", "163210.130000", "163210.232000", "163210.136000", "163210.241000", "163210.142000", "163210.259000", "163210.148000", "163210.066000", "163210.157000", "163210.073000", "163210.164000", "163210.079000", "163210.171000", "163210.085000", "163210.177000", "163210.091000", "163210.184000", "163210.097000", "163210.196000", "163210.108000", "163210.202000", "163210.114000", "163210.214000", "163210.120000", "163210.220000", "163210.126000", "163210.227000", "163210.132000", "163210.235000", "163210.138000", "163210.254000", "163210.144000", "163210.261000", "163210.150000", "163210.069000", "163210.159000", "163210.075000", "163210.166000", "163210.081000", "163210.173000", "163210.087000", "163210.179000", "163210.093000", "163210.186000", "163210.099000", "163210.198000", "163210.110000", "163210.210000", "163210.116000", "163210.216000", "163210.122000", "163210.222000", "163210.128000", "163210.229000", "163210.134000", "163210.238000", "163210.140000", "163210.256000", "163210.146000", "163210.263000", "163210.152000"],
      "InstanceNumber": [1, 2, 3, 4, 5, 6, 7, 8, 9, 10, 11, 12, 13, 14, 15, 16, 17, 18, 19, 20, 21, 22, 23, 24, 25, 26, 27, 28, 29, 30, 31, 32, 33, 34, 35, 36, 37, 38, 39, 40, 41, 42, 43, 44, 45, 46, 47, 48, 49, 50, 51, 52, 53, 54, 55, 56, 57, 58, 59, 60, 61, 62, 63, 64, 65, 66, 67, 68, 69, 70, 71, 72, 73, 74, 75, 76, 77, 78, 79, 80, 81],
      "LargestImagePixelValue": [20854, 28637, 25743, 18743, 14399, 13812, 14759, 31361, 35802, 38617, 34286, 35656, 26167, 25445, 25067, 26062, 31251, 29111, 29228, 43191, 52201, 65535, 65535, 56061, 50354, 52443, 40278, 32870, 42962, 40260, 45234, 47502, 51741, 57130, 41871, 49050, 37550, 40801, 35239, 35993, 41269, 37105, 31913, 30455, 34879, 41628, 46856, 41523, 43244, 38350, 43369, 52907, 47971, 52549, 54171, 47929, 46205, 42555, 50334, 49340, 46438, 46626, 46247, 49962, 54041, 47533, 46927, 46636, 57077, 50154, 48831, 44615, 45899, 49721, 48397, 44416, 62314, 49383, 45348, 37055, 10263],
      "SliceLocation": [-47.031018963472, -45.331017979906, -43.631017156062, -41.931016172496, -40.231018758847, -38.53101776764, -36.831016784074, -35.131015800508, -33.431018386858, -31.731017395651, -30.031016412085, -28.331015763246, -26.631018349596, -24.931017358389, -23.231016374823, -21.531017176215, -19.831017969966, -18.131016986401, -16.431017787793, -14.731016804227, -13.031017597978, -11.331016949138, -9.6310177505306, -7.9310176518026, -6.2310175607158, -4.531017469629, -2.8310173785422, -1.1310172874555, 0.56898280363133, 2.2689829100006, 3.9689830010874, 5.6689828690544, 7.3689829601412, 9.068982995448, 10.768982919195, 12.468983010282, 14.168983116651, 15.868983207738, 17.568982183133, 19.26898227422, 20.968982365306, 22.668982456393, 24.36898254748, 26.068982653849, 27.768981852457, 29.468982836023, 31.168982034631, 32.868983018196, 34.568982886256, 36.268982530918, 37.968981744808, 39.668982728374, 41.368981926982, 43.068981125589, 44.768982109155, 46.468983092721, 48.168984076287, 49.868981505219, 51.568982488785, 53.268983472351, 54.968980886, 56.668981869566, 58.368982853132, 60.068983836698, 61.76898126563, 63.468982249196, 65.168983232762, 66.868984216327, 68.568981629977, 70.268982613543, 71.968983597109, 73.668984595957, 75.368982009607, 77.068982993172, 78.768980406822, 80.468984960304, 82.168982373954, 83.868979787603, 85.568984356368, 87.268981770017, 88.9689863235],
