{
  "AcquisitionMatrixPE": 140,
  "AcquisitionNumber": 1,
  "AcquisitionTime": "14:37:50.030000",
  "BandwidthPerPixelPhaseEncode": 10.352,
  "BaseResolution": 140,
  "BodyPartExamined": "BRAIN",
  "ConsistencyInfo": "N4_VE11E_LATEST_20181129",
  "ConversionSoftware": "dcm2niix",
  "ConversionSoftwareVersion": "v1.0.20201102",
  "DerivedVendorReportedEchoSpacing": 0.000689998,
  "DeviceSerialNumber": "66112",
  "DiffusionScheme": "Monopolar",
  "DwellTime": 2.1e-06,
  "EchoTime": 0.088,
  "EchoTrainLength": 105,
  "EffectiveEchoSpacing": 0.000689998,
  "FlipAngle": 90,
  "ImageComments": "Unaliased MB3/PE3",
  "ImageOrientationPatientDICOM": [0.992656, 0.0400876, -0.114132, -0.0261671, 0.992313, 0.120952],
  "ImageType": [
    "ORIGINAL",
    "PRIMARY",
    "DIFFUSION",
    "NONE",
    "MB",
    "ND"
],
  "ImagingFrequency": 123.252,
  "InPlanePhaseEncodingDirectionDICOM": "COL",
  "InstitutionAddress": "Maynard 3,Hanover,NH,US,03755",
  "InstitutionName": "Dartmouth College - PBS",
  "InstitutionalDepartmentName": "Department",
  "IntendedFor": [
    "ses-01/dwi/sub-0053_ses-01_acq-96dirX6b0Xmb_dwi.nii.gz"
],
  "MRAcquisitionType": "2D",
  "MagneticFieldStrength": 3,
  "Manufacturer": "Siemens",
  "ManufacturersModelName": "Prisma",
  "Modality": "MR",
  "MultibandAccelerationFactor": 3,
  "PartialFourier": 0.75,
  "PatientPosition": "HFS",
  "PercentPhaseFOV": 100,
  "PercentSampling": 100,
  "PhaseEncodingDirection": "j-",
  "PhaseEncodingSteps": 105,
  "PhaseResolution": 1,
  "PixelBandwidth": 1700,
  "ProcedureStepDescription": "Wager_Wager^1076_spacetop",
  "ProtocolName": "dwi_acq-discorr-AP",
  "PulseSequenceDetails": "%CustomerSeq%\\cmrr_mbep2d_diff",
  "ReceiveCoilActiveElements": "HEA;HEP",
  "ReceiveCoilName": "Head_32",
  "ReconMatrixPE": 140,
  "RepetitionTime": 4.1,
  "SAR": 0.145504,
  "ScanOptions": "PFP\\FS",
  "ScanningSequence": "EP",
  "SequenceName": "ep_b0",
  "SequenceVariant": "SK\\SS",
  "SeriesDescription": "dwi_acq-discorr-AP",
  "SeriesNumber": 7,
  "ShimSetting": [4116, -7709, -7308, 530, -37, -43, -110, 101],
  "SliceThickness": 1.7,
  "SliceTiming": [0, 2.10938, 0.15625, 2.26562, 0.29688, 2.42188, 0.45312, 2.5625, 0.60938, 2.71875, 0.75, 2.875, 0.90625, 3.01562, 1.0625, 3.17188, 1.20312, 3.32812, 1.35938, 3.46875, 1.51562, 3.625, 1.65625, 3.78125, 1.8125, 3.92188, 1.96875, 0, 2.10938, 0.15625, 2.26562, 0.29688, 2.42188, 0.45312, 2.5625, 0.60938, 2.71875, 0.75, 2.875, 0.90625, 3.01562, 1.0625, 3.17188, 1.20312, 3.32812, 1.35938, 3.46875, 1.51562, 3.625, 1.65625, 3.78125, 1.8125, 3.92188, 1.96875, 0, 2.10938, 0.15625, 2.26562, 0.29688, 2.42188, 0.45312, 2.5625, 0.60938, 2.71875, 0.75, 2.875, 0.90625, 3.01562, 1.0625, 3.17188, 1.20312, 3.32812, 1.35938, 3.46875, 1.51562, 3.625, 1.65625, 3.78125, 1.8125, 3.92188, 1.96875],
  "SoftwareVersions": "syngo MR E11",
  "SpacingBetweenSlices": 1.7,
  "StationName": "AWP66112",
  "TotalReadoutTime": 0.0959097,
  "TxRefAmp": 256.632,
  "WipMemBlock": "37af222e-3f03-40eb-ba03-7b2a6a0a117a||Sequence: R016 ve11e/master r/434b28f1; Aug  7 2019 19:06:17 by eja",
  "dcmmeta_affine": [
    [-1.701696753501892, -0.044857803732156754, -0.2007765769958496, 133.34112548828125],
    [-0.06872159242630005, 1.701108694076538, 0.19903182983398438, -106.69294738769531],
    [-0.19565565884113312, -0.20734652876853943, 1.6763267517089844, -58.66899871826172],
    [0.0, 0.0, 0.0, 1.0]
],
  "dcmmeta_reorient_transform": [
    [0.0, -1.0, 0.0, 139.0],
    [1.0, 0.0, 0.0, 0.0],
    [0.0, 0.0, -1.0, 80.0],
    [0.0, 0.0, 0.0, 1.0]
],
  "dcmmeta_shape": [140, 140, 81],
  "dcmmeta_slice_dim": 2,
  "dcmmeta_version": 0.6,
  "global": {
    "const": {
      "AccessionNumber": "A003891",
      "AcquisitionMatrix": [140, 0, 0, 140],
      "AcquisitionNumber": 1,
      "AngioFlag": "N",
      "BitsAllocated": 16,
      "BitsStored": 16,
      "BodyPartExamined": "BRAIN",
      "Columns": 140,
      "EchoNumbers": 1,
      "EchoTime": 88.0,
      "EchoTrainLength": 105,
      "FlipAngle": 90.0,
      "HighBit": 15,
      "ImageOrientationPatient": [0.99265641844286, 0.04008759584621, -0.1141324650722, -0.0261670521087, 0.99231339058927, 0.1209521402918],
      "ImageType": [
        "ORIGINAL",
        "PRIMARY",
        "DIFFUSION",
        "NONE",
        "MB",
        "ND"
],
      "ImagedNucleus": "1H",
      "ImagingFrequency": 123.252229,
      "InPlanePhaseEncodingDirection": "COL",
      "MRAcquisitionType": "2D",
      "MagneticFieldStrength": 3.0,
      "Manufacturer": "SIEMENS",
      "ManufacturerModelName": "Prisma",
      "Modality": "MR",
      "NumberOfAverages": 1.0,
      "NumberOfPhaseEncodingSteps": 105,
      "PercentPhaseFieldOfView": 100.0,
      "PercentSampling": 100.0,
      "PerformedProcedureStepStartTime": "141327.636000",
      "PhotometricInterpretation": "MONOCHROME2",
      "PixelBandwidth": 1700.0,
      "PixelRepresentation": 0,
      "PixelSpacing": [1.7142857313156, 1.7142857313156],
      "ProtocolName": "dwi_acq-discorr-AP",
      "RepetitionTime": 4100.0,
      "Rows": 140,
      "SAR": 0.14550379272281,
      "SamplesPerPixel": 1,
      "ScanOptions": [
        "PFP",
        "FS"
],
      "ScanningSequence": "EP",
      "SequenceName": "ep_b0",
      "SequenceVariant": [
        "SK",
        "SS"
],
      "SeriesDescription": "dwi_acq-discorr-AP",
      "SeriesNumber": 7,
      "SeriesTime": "143755.080000",
      "SliceThickness": 1.7000000476837,
      "SmallestImagePixelValue": 0,
      "SoftwareVersions": "syngo MR E11",
      "SpacingBetweenSlices": 1.7,
      "SpecificCharacterSet": "ISO_IR 100",
      "StudyID": "1",
      "StudyTime": "141327.556000",
      "TransmitCoilName": "Body",
      "VariableFlipAngleFlag": "N",
      "WindowCenterWidthExplanation": "Algo1"
    },
    "slices": {
      "AcquisitionTime": ["143750.030000", "143752.145000", "143750.180000", "143752.297500", "143750.332500", "143752.447500", "143750.482500", "143752.597500", "143750.635000", "143752.750000", "143750.785000", "143752.900000", "143750.937500", "143753.052500", "143751.087500", "143753.202500", "143751.237500", "143753.355000", "143751.390000", "143753.505000", "143751.540000", "143753.657500", "143751.692500", "143753.807500", "143751.842500", "143753.957500", "143751.995000", "143750.030000", "143752.145000", "143750.180000", "143752.297500", "143750.332500", "143752.447500", "143750.482500", "143752.597500", "143750.635000", "143752.750000", "143750.785000", "143752.900000", "143750.937500", "143753.052500", "143751.087500", "143753.202500", "143751.237500", "143753.355000", "143751.390000", "143753.505000", "143751.540000", "143753.657500", "143751.692500", "143753.807500", "143751.842500", "143753.957500", "143751.995000", "143750.030000", "143752.145000", "143750.180000", "143752.297500", "143750.332500", "143752.447500", "143750.482500", "143752.597500", "143750.635000", "143752.750000", "143750.785000", "143752.900000", "143750.937500", "143753.052500", "143751.087500", "143753.202500", "143751.237500", "143753.355000", "143751.390000", "143753.505000", "143751.540000", "143753.657500", "143751.692500", "143753.807500", "143751.842500", "143753.957500", "143751.995000"],
      "ContentTime": ["143755.083000", "143755.170000", "143755.089000", "143755.179000", "143755.095000", "143755.185000", "143755.105000", "143755.191000", "143755.111000", "143755.197000", "143755.117000", "143755.204000", "143755.123000", "143755.210000", "143755.129000", "143755.217000", "143755.135000", "143755.224000", "143755.141000", "143755.230000", "143755.146000", "143755.236000", "143755.152000", "143755.242000", "143755.158000", "143755.248000", "143755.164000", "143755.085000", "143755.172000", "143755.091000", "143755.181000", "143755.101000", "143755.187000", "143755.107000", "143755.193000", "143755.113000", "143755.199000", "143755.119000", "143755.206000", "143755.125000", "143755.213000", "143755.131000", "143755.219000", "143755.137000", "143755.226000", "143755.143000", "143755.232000", "143755.148000", "143755.238000", "143755.154000", "143755.244000", "143755.160000", "143755.250000", "143755.166000", "143755.087000", "143755.174000", "143755.093000", "143755.183000", "143755.103000", "143755.189000", "143755.109000", "143755.195000", "143755.115000", "143755.202000", "143755.121000", "143755.208000", "143755.127000", "143755.215000", "143755.133000", "143755.221000", "143755.139000", "143755.228000", "143755.144000", "143755.234000", "143755.150000", "143755.240000", "143755.156000", "143755.246000", "143755.162000", "143755.252000", "143755.168000"],
      "CsaImage.GSWDDataType": [
        "predicted",
        "predicted",
        "predicted",
        "predicted",
        "predicted",
        "predicted",
        "predicted",
        "predicted",
        "predicted",
        "predicted",
        "predicted",
        "predicted",
        "predicted",
        "predicted",
        "predicted",
        "predicted",
        "predicted",
        "predicted",
        "predicted",
        "predicted",
        "predicted",
        "predicted",
        "predicted",
        "measured",
        "predicted",
        "measured",
        "predicted",
        "predicted",
        "predicted",
        "predicted",
        "predicted",
        "predicted",
        "predicted",
        "predicted",
        "predicted",
        "predicted",
        "predicted",
        "predicted",
        "predicted",
        "predicted",
        "predicted",
        "predicted",
        "predicted",
        "predicted",
        "predicted",
        "predicted",
        "predicted",
        "predicted",
        "predicted",
        "predicted",
        "measured",
        "predicted",
        "measured",
        "predicted",
        "predicted",
        "predicted",
        "predicted",
        "predicted",
        "predicted",
        "predicted",
        "predicted",
        "predicted",
        "predicted",
        "predicted",
        "predicted",
        "predicted",
        "predicted",
        "predicted",
        "predicted",
        "predicted",
        "predicted",
        "predicted",
        "predicted",
        "predicted",
        "predicted",
        "predicted",
        "predicted",
        "measured",
        "predicted",
        "measured",
        "predicted"
],
      "CsaImage.ICE_Dims": [
        "X_1_1_1_1_1_1_1_1_1_1_1_123",
        "X_1_1_1_1_1_1_42_1_1_2_1_123",
        "X_1_1_1_1_1_1_2_1_1_3_1_123",
        "X_1_1_1_1_1_1_43_1_1_4_1_123",
        "X_1_1_1_1_1_1_3_1_1_5_1_123",
        "X_1_1_1_1_1_1_44_1_1_6_1_123",
        "X_1_1_1_1_1_1_4_1_1_7_1_123",
        "X_1_1_1_1_1_1_45_1_1_8_1_123",
        "X_1_1_1_1_1_1_5_1_1_9_1_123",
        "X_1_1_1_1_1_1_46_1_1_10_1_123",
        "X_1_1_1_1_1_1_6_1_1_11_1_123",
        "X_1_1_1_1_1_1_47_1_1_12_1_123",
        "X_1_1_1_1_1_1_7_1_1_13_1_123",
        "X_1_1_1_1_1_1_48_1_1_14_1_123",
        "X_1_1_1_1_1_1_8_1_1_15_1_123",
        "X_1_1_1_1_1_1_49_1_1_16_1_123",
        "X_1_1_1_1_1_1_9_1_1_17_1_123",
        "X_1_1_1_1_1_1_50_1_1_18_1_123",
        "X_1_1_1_1_1_1_10_1_1_19_1_123",
        "X_1_1_1_1_1_1_51_1_1_20_1_123",
        "X_1_1_1_1_1_1_11_1_1_21_1_123",
        "X_1_1_1_1_1_1_52_1_1_22_1_123",
        "X_1_1_1_1_1_1_12_1_1_23_1_123",
        "X_1_1_1_1_1_1_53_1_1_24_1_123",
        "X_1_1_1_1_1_1_13_1_1_25_1_123",
        "X_1_1_1_1_1_1_54_1_1_26_1_123",
        "X_1_1_1_1_1_1_14_1_1_27_1_123",
        "X_1_1_1_1_1_1_55_1_1_28_1_123",
        "X_1_1_1_1_1_1_15_1_1_29_1_123",
        "X_1_1_1_1_1_1_56_1_1_30_1_123",
        "X_1_1_1_1_1_1_16_1_1_31_1_123",
        "X_1_1_1_1_1_1_57_1_1_32_1_123",
        "X_1_1_1_1_1_1_17_1_1_33_1_123",
        "X_1_1_1_1_1_1_58_1_1_34_1_123",
        "X_1_1_1_1_1_1_18_1_1_35_1_123",
        "X_1_1_1_1_1_1_59_1_1_36_1_123",
        "X_1_1_1_1_1_1_19_1_1_37_1_123",
        "X_1_1_1_1_1_1_60_1_1_38_1_123",
        "X_1_1_1_1_1_1_20_1_1_39_1_123",
        "X_1_1_1_1_1_1_61_1_1_40_1_123",
        "X_1_1_1_1_1_1_21_1_1_41_1_123",
        "X_1_1_1_1_1_1_62_1_1_42_1_123",
        "X_1_1_1_1_1_1_22_1_1_43_1_123",
        "X_1_1_1_1_1_1_63_1_1_44_1_123",
        "X_1_1_1_1_1_1_23_1_1_45_1_123",
        "X_1_1_1_1_1_1_64_1_1_46_1_123",
        "X_1_1_1_1_1_1_24_1_1_47_1_123",
        "X_1_1_1_1_1_1_65_1_1_48_1_123",
        "X_1_1_1_1_1_1_25_1_1_49_1_123",
        "X_1_1_1_1_1_1_66_1_1_50_1_123",
        "X_1_1_1_1_1_1_26_1_1_51_1_123",
        "X_1_1_1_1_1_1_67_1_1_52_1_123",
        "X_1_1_1_1_1_1_27_1_1_53_1_123",
        "X_1_1_1_1_1_1_68_1_1_54_1_123",
        "X_1_1_1_1_1_1_28_1_1_55_1_123",
        "X_1_1_1_1_1_1_69_1_1_56_1_123",
        "X_1_1_1_1_1_1_29_1_1_57_1_123",
        "X_1_1_1_1_1_1_70_1_1_58_1_123",
        "X_1_1_1_1_1_1_30_1_1_59_1_123",
        "X_1_1_1_1_1_1_71_1_1_60_1_123",
        "X_1_1_1_1_1_1_31_1_1_61_1_123",
        "X_1_1_1_1_1_1_72_1_1_62_1_123",
        "X_1_1_1_1_1_1_32_1_1_63_1_123",
        "X_1_1_1_1_1_1_73_1_1_64_1_123",
        "X_1_1_1_1_1_1_33_1_1_65_1_123",
        "X_1_1_1_1_1_1_74_1_1_66_1_123",
        "X_1_1_1_1_1_1_34_1_1_67_1_123",
        "X_1_1_1_1_1_1_75_1_1_68_1_123",
        "X_1_1_1_1_1_1_35_1_1_69_1_123",
        "X_1_1_1_1_1_1_76_1_1_70_1_123",
        "X_1_1_1_1_1_1_36_1_1_71_1_123",
        "X_1_1_1_1_1_1_77_1_1_72_1_123",
        "X_1_1_1_1_1_1_37_1_1_73_1_123",
        "X_1_1_1_1_1_1_78_1_1_74_1_123",
        "X_1_1_1_1_1_1_38_1_1_75_1_123",
        "X_1_1_1_1_1_1_79_1_1_76_1_123",
        "X_1_1_1_1_1_1_39_1_1_77_1_123",
        "X_1_1_1_1_1_1_80_1_1_78_1_123",
        "X_1_1_1_1_1_1_40_1_1_79_1_123",
        "X_1_1_1_1_1_1_81_1_1_80_1_123",
        "X_1_1_1_1_1_1_41_1_1_81_1_123"
],
      "CsaImage.ProtocolSliceNumber": [0, 1, 2, 3, 4, 5, 6, 7, 8, 9, 10, 11, 12, 13, 14, 15, 16, 17, 18, 19, 20, 21, 22, 23, 24, 25, 26, 27, 28, 29, 30, 31, 32, 33, 34, 35, 36, 37, 38, 39, 40, 41, 42, 43, 44, 45, 46, 47, 48, 49, 50, 51, 52, 53, 54, 55, 56, 57, 58, 59, 60, 61, 62, 63, 64, 65, 66, 67, 68, 69, 70, 71, 72, 73, 74, 75, 76, 77, 78, 79, 80],
      "CsaImage.RFSWDDataType": [
        "predicted",
        "predicted",
        "predicted",
        "predicted",
        "predicted",
        "predicted",
        "predicted",
        "predicted",
        "predicted",
        "predicted",
        "predicted",
        "predicted",
        "predicted",
        "predicted",
        "predicted",
        "predicted",
        "predicted",
        "predicted",
        "predicted",
        "predicted",
        "predicted",
        "predicted",
        "predicted",
        "measured",
        "predicted",
        "measured",
        "predicted",
        "predicted",
        "predicted",
        "predicted",
        "predicted",
        "predicted",
        "predicted",
        "predicted",
        "predicted",
        "predicted",
        "predicted",
        "predicted",
        "predicted",
        "predicted",
        "predicted",
        "predicted",
        "predicted",
        "predicted",
        "predicted",
        "predicted",
        "predicted",
        "predicted",
        "predicted",
        "predicted",
        "measured",
        "predicted",
        "measured",
        "predicted",
        "predicted",
        "predicted",
        "predicted",
        "predicted",
        "predicted",
        "predicted",
        "predicted",
        "predicted",
        "predicted",
        "predicted",
        "predicted",
        "predicted",
        "predicted",
        "predicted",
        "predicted",
        "predicted",
        "predicted",
        "predicted",
        "predicted",
        "predicted",
        "predicted",
        "predicted",
        "predicted",
        "measured",
        "predicted",
        "measured",
        "predicted"
],
      "CsaImage.SlicePosition_PCS": [
        [-127.10589091, -129.76117983, -87.49025892],
        [-126.90511481, -129.96021118, -85.81392836],
        [-126.70433775, -130.15924301, -84.13759779],
        [-126.50356165, -130.35827437, -82.46127485],
        [-126.30278555, -130.5573062, -80.78494429],
        [-126.1020085, -130.75633755, -79.10862135],
        [-125.9012324, -130.95536938, -77.43229078],
        [-125.70045534, -131.15440073, -75.75596022],
        [-125.49967924, -131.35343256, -74.07963728],
        [-125.29890219, -131.55246391, -72.40330671],
        [-125.09812609, -131.75149574, -70.72697615],
        [-124.89734904, -131.9505271, -69.05065321],
        [-124.69657294, -132.14955893, -67.37432264],
        [-124.49579588, -132.34859076, -65.69799208],
        [-124.29501978, -132.54762163, -64.02166533],
        [-124.09424273, -132.74665346, -62.34533857],
        [-123.89346663, -132.94568529, -60.66901182],
        [-123.69269005, -133.14471712, -58.99268507],
        [-123.49191347, -133.343748, -57.3163545],
        [-123.2911369, -133.54277983, -55.64002775],
        [-123.09036032, -133.74181166, -53.963701],
        [-122.88958374, -133.94084349, -52.28737043],
        [-122.68880764, -134.13987436, -50.61104368],
        [-122.48803107, -134.33890619, -48.93471693],
        [-122.28725449, -134.53793802, -47.25838636],
        [-122.08647791, -134.73696985, -45.58205961],
        [-121.88570134, -134.93600073, -43.90573286],
        [-121.68492476, -135.13503256, -42.22940611],
        [-121.48414818, -135.33406439, -40.55307554],
        [-121.2833716, -135.53309622, -38.87674879],
        [-121.08259503, -135.7321271, -37.20042204],
        [-120.88181845, -135.93115892, -35.52409147],
        [-120.68104187, -136.13019075, -33.84776472],
        [-120.4802653, -136.32922258, -32.17143606],
        [-120.2794892, -136.52825346, -30.49510931],
        [-120.07871262, -136.72728529, -28.81878065],
        [-119.8779358, -136.92631712, -27.1424539],
        [-119.67715947, -137.12534895, -25.46612524],
        [-119.47638289, -137.32437983, -23.78979658],
        [-119.27560631, -137.52341166, -22.11346983],
        [-119.07482973, -137.72244349, -20.43714117],
        [-118.87405316, -137.92147532, -18.76081442],
        [-118.67327658, -138.12050619, -17.08448576],
        [-118.47250024, -138.31953802, -15.40815805],
        [-118.27172366, -138.51856985, -13.73183035],
        [-118.07094709, -138.71760168, -12.05550264],
        [-117.87017051, -138.91663256, -10.37917398],
        [-117.66939393, -139.11566439, -8.70284628],
        [-117.46861748, -139.31469622, -7.02651857],
        [-117.2678409, -139.51372805, -5.35019039],
        [-117.06706432, -139.71275892, -3.67386269],
        [-116.8662878, -139.91179171, -1.99753486],
        [-116.66551129, -140.11082163, -0.32120692],
        [-116.46473477, -140.30985346, 1.35512091],
        [-116.26395822, -140.50888529, 3.03144885],
        [-116.06318168, -140.70791712, 4.70777679],
        [-115.86240514, -140.90694895, 6.3841045],
        [-115.66162861, -141.10598078, 8.06043268],
        [-115.46085206, -141.30501261, 9.73676039],
        [-115.26007555, -141.50404444, 11.41308809],
        [-115.05929897, -141.70307436, 13.0894158],
        [-114.85852245, -141.90210619, 14.76574446],
        [-114.65774587, -142.10113802, 16.44207216],
        [-114.45696942, -142.30016985, 18.11840082],
        [-114.25619284, -142.49920168, 19.79472757],
        [-114.05541626, -142.69823351, 21.47105623],
        [-113.85463969, -142.89726534, 23.14738298],
        [-113.65386335, -143.09629717, 24.82371164],
        [-113.45308677, -143.295329, 26.5000403],
        [-113.25231019, -143.49435892, 28.17636705],
        [-113.05153362, -143.69339075, 29.85269571],
        [-112.85075704, -143.89242258, 31.52902437],
        [-112.64998046, -144.09145441, 33.20535112],
        [-112.44920389, -144.29048624, 34.88167788],
        [-112.24842755, -144.48951807, 36.55800844],
        [-112.04765097, -144.6885499, 38.23433519],
        [-111.84687439, -144.88758173, 39.91066195],
        [-111.64609782, -145.08661165, 41.5869887],
        [-111.44532124, -145.28564348, 43.26331926],
        [-111.24454466, -145.48467531, 44.93964602],
        [-111.04376808, -145.68370714, 46.61597277]
],
      "CsaImage.TimeAfterStart": [16.4, 18.515, 16.55, 18.665, 16.7025, 18.8175, 16.8525, 18.9675, 17.0025, 19.12, 17.155, 19.27, 17.305, 19.4225, 17.4575, 19.5725, 17.6075, 19.7225, 17.76, 19.875, 17.91, 20.025, 18.0625, 20.1775, 18.2125, 20.3275, 18.3625, 16.4, 18.515, 16.55, 18.665, 16.7025, 18.8175, 16.8525, 18.9675, 17.0025, 19.12, 17.155, 19.27, 17.305, 19.4225, 17.4575, 19.5725, 17.6075, 19.7225, 17.76, 19.875, 17.91, 20.025, 18.0625, 20.1775, 18.2125, 20.3275, 18.3625, 16.4, 18.515, 16.55, 18.665, 16.7025, 18.8175, 16.8525, 18.9675, 17.0025, 19.12, 17.155, 19.27, 17.305, 19.4225, 17.4575, 19.5725, 17.6075, 19.7225, 17.76, 19.875, 17.91, 20.025, 18.0625, 20.1775, 18.2125, 20.3275, 18.3625],
      "ImagePositionPatient": [
        [-127.10589090661, -129.76117982942, -87.490258922664],
        [-126.90511480645, -129.96021118241, -85.813928356258],
        [-126.70433775262, -130.15924301225, -84.137597789852],
        [-126.50356165246, -130.35827436524, -82.46127485284],
        [-126.3027855523, -130.55730619508, -80.784944286434],
        [-126.10200849847, -130.75633754807, -79.108621349422],
        [-125.90123239831, -130.95536937791, -77.432290783016],
        [-125.70045534448, -131.15440073091, -75.755960216609],
        [-125.49967924432, -131.35343256074, -74.079637279598],
        [-125.29890219049, -131.55246391374, -72.403306713191],
        [-125.09812609033, -131.75149574357, -70.726976146785],
        [-124.8973490365, -131.95052709657, -69.050653209773],
        [-124.69657293634, -132.1495589264, -67.374322643367],
        [-124.4957958825, -132.34859075623, -65.697992076961],
        [-124.29501978235, -132.54762163239, -64.021665325252],
        [-124.09424272851, -132.74665346223, -62.345338573543],
        [-123.89346662835, -132.94568529206, -60.669011821834],
        [-123.69269005136, -133.1447171219, -58.992685070125],
        [-123.49191347436, -133.34374799806, -57.316354503719],
        [-123.29113689737, -133.54277982789, -55.64002775201],
        [-123.09036032037, -133.74181165772, -53.963701000301],
        [-122.88958374337, -133.94084348756, -52.287370433895],
        [-122.68880764322, -134.13987436372, -50.611043682186],
        [-122.48803106622, -134.33890619355, -48.934716930477],
        [-122.28725448922, -134.53793802339, -47.25838636407],
        [-122.08647791223, -134.73696985322, -45.582059612361],
        [-121.88570133523, -134.93600072938, -43.905732860652],
        [-121.68492475824, -135.13503255921, -42.229406108943],
        [-121.48414818124, -135.33406438905, -40.553075542537],
        [-121.28337160424, -135.53309621888, -38.876748790828],
        [-121.08259502725, -135.73212709504, -37.200422039119],
        [-120.88181845025, -135.93115892488, -35.524091472713],
        [-120.68104187326, -136.13019075471, -33.847764721004],
        [-120.48026529626, -136.32922258454, -32.171436061946],
        [-120.2794891961, -136.5282534607, -30.495109310237],
        [-120.07871261911, -136.72728529054, -28.81878065118],
        [-119.87793580369, -136.92631712037, -27.142453899471],
        [-119.67715946511, -137.1253489502, -25.466125240413],
        [-119.47638288812, -137.32437982636, -23.789796581355],
        [-119.27560631112, -137.5234116562, -22.113469829647],
        [-119.07482973413, -137.72244348603, -20.437141170589],
        [-118.87405315713, -137.92147531587, -18.76081441888],
        [-118.67327658014, -138.12050619203, -17.084485759822],
        [-118.47250024156, -138.31953802186, -15.408158054439],
        [-118.27172366456, -138.51856985169, -13.731830349056],
        [-118.07094708757, -138.71760168153, -12.055502643672],
        [-117.87017051057, -138.91663255769, -10.379173984615],
        [-117.66939393358, -139.11566438752, -8.7028462792315],
        [-117.46861747579, -139.31469621736, -7.0265185738482],
        [-117.26784089879, -139.51372804719, -5.3501903916277],
        [-117.0670643218, -139.71275892335, -3.6738626862444],
        [-116.86628780441, -139.91179170686, -1.9975348616518],
        [-116.66551128701, -140.11082162934, -0.3212069178499],
        [-116.46473476962, -140.30985345918, 1.3551209067427],
        [-116.26395822243, -140.50888528901, 3.0314488505445],
        [-116.06318168269, -140.70791711884, 4.7077767943464],
        [-115.86240514294, -140.90694894868, 6.3841044997297],
        [-115.66162861065, -141.10598077851, 8.0604326819502],
        [-115.46085206346, -141.30501260835, 9.7367603873335],
        [-115.26007554607, -141.50404443818, 11.413088092717],
        [-115.05929896907, -141.70307436067, 13.0894157981],
        [-114.85852245168, -141.9021061905, 14.765744457158],
        [-114.65774587468, -142.10113802033, 16.442072162541],
        [-114.4569694169, -142.30016985017, 18.118400821599],
        [-114.2561928399, -142.49920168, 19.794727573308],
        [-114.05541626291, -142.69823350984, 21.471056232365],
        [-113.85463968591, -142.89726533967, 23.147382984074],
        [-113.65386334733, -143.0962971695, 24.823711643132],
        [-113.45308677034, -143.29532899934, 26.500040302189],
        [-113.25231019334, -143.49435892182, 28.176367053898],
        [-113.05153361634, -143.69339075166, 29.852695712956],
        [-112.85075703935, -143.89242258149, 31.529024372014],
        [-112.64998046235, -144.09145441133, 33.205351123723],
        [-112.44920388536, -144.29048624116, 34.881677875432],
        [-112.24842754678, -144.48951807099, 36.558008441838],
        [-112.04765096978, -144.68854990083, 38.234335193547],
        [-111.84687439279, -144.88758173066, 39.910661945256],
        [-111.64609781579, -145.08661165315, 41.586988696965],
        [-111.4453212388, -145.28564348298, 43.263319263371],
        [-111.2445446618, -145.48467531281, 44.93964601508],
        [-111.0437680848, -145.68370714265, 46.615972766789]
],
      "InstanceCreationTime": ["143755.083000", "143755.170000", "143755.089000", "143755.179000", "143755.095000", "143755.185000", "143755.105000", "143755.191000", "143755.111000", "143755.197000", "143755.117000", "143755.204000", "143755.123000", "143755.210000", "143755.129000", "143755.217000", "143755.135000", "143755.224000", "143755.141000", "143755.230000", "143755.146000", "143755.236000", "143755.152000", "143755.242000", "143755.158000", "143755.248000", "143755.164000", "143755.085000", "143755.172000", "143755.091000", "143755.181000", "143755.101000", "143755.187000", "143755.107000", "143755.193000", "143755.113000", "143755.199000", "143755.119000", "143755.206000", "143755.125000", "143755.213000", "143755.131000", "143755.219000", "143755.137000", "143755.226000", "143755.143000", "143755.232000", "143755.148000", "143755.238000", "143755.154000", "143755.244000", "143755.160000", "143755.250000", "143755.166000", "143755.087000", "143755.174000", "143755.093000", "143755.183000", "143755.103000", "143755.189000", "143755.109000", "143755.195000", "143755.115000", "143755.202000", "143755.121000", "143755.208000", "143755.127000", "143755.215000", "143755.133000", "143755.221000", "143755.139000", "143755.228000", "143755.144000", "143755.234000", "143755.150000", "143755.240000", "143755.156000", "143755.246000", "143755.162000", "143755.252000", "143755.168000"],
      "InstanceNumber": [1, 2, 3, 4, 5, 6, 7, 8, 9, 10, 11, 12, 13, 14, 15, 16, 17, 18, 19, 20, 21, 22, 23, 24, 25, 26, 27, 28, 29, 30, 31, 32, 33, 34, 35, 36, 37, 38, 39, 40, 41, 42, 43, 44, 45, 46, 47, 48, 49, 50, 51, 52, 53, 54, 55, 56, 57, 58, 59, 60, 61, 62, 63, 64, 65, 66, 67, 68, 69, 70, 71, 72, 73, 74, 75, 76, 77, 78, 79, 80, 81],
      "LargestImagePixelValue": [23640, 27037, 20962, 19428, 12587, 11614, 17725, 22455, 18966, 17366, 19040, 22299, 22437, 23278, 29331, 32451, 21100, 23478, 19964, 25698, 23281, 27423, 26547, 32162, 45739, 61666, 65535, 61489, 65169, 60536, 63060, 50700, 43859, 37245, 36444, 40416, 43972, 35303, 42044, 44075, 41480, 36420, 38913, 36884, 40517, 40767, 44732, 36919, 40130, 47472, 52493, 46926, 43040, 47029, 46445, 47190, 49088, 43926, 47500, 50455, 49777, 56166, 55777, 50859, 40675, 39515, 50412, 40324, 43881, 33075, 32659, 30472, 47719, 44531, 32600, 32650, 40230, 38263, 35840, 37582, 12703],
      "SliceLocation": [-86.091570180375, -84.391567624572, -82.691564900309, -80.991569867663, -79.291567256033, -77.591572110754, -75.891569499124, -74.191566830688, -72.491571742215, -70.791569073779, -69.091566462149, -67.39157131687, -65.69156870524, -63.991565980977, -62.291567242579, -60.591568279895, -58.891569429843, -57.191570523475, -55.491567967182, -53.791569060814, -52.091570154447, -50.3915674865, -48.691568748102, -46.991569841734, -45.291567173788, -43.59156826742, -41.891569472706, -40.191570566338, -38.491567898391, -36.791568992023, -35.091570197309, -33.391567529362, -31.691568622995, -29.991567835837, -28.291569097439, -26.591568310282, -24.891569375756, -23.191568616757, -21.491567941253, -19.791569034886, -18.091568247728, -16.39156934136, -14.691568665857, -12.991568847252, -11.29156900049, -9.5915691537273, -7.8915684782238, -6.1915686314612, -4.4915687987777, -2.7915684818178, -1.0915687467089, 0.60843132221716, 2.3084311737314, 4.0084311310038, 5.7084312093453, 7.4084312868068, 9.1084311291697, 10.80843144085, 12.508431284093, 14.208431123816, 15.908430747271, 17.608431527389, 19.308431374151, 21.008432147229, 22.708431053597, 24.408431840754, 26.108430747122, 27.808431506121, 29.508432293279, 31.208430976339, 32.908431763496, 34.608432550654, 36.308431457022, 38.00843036339, 39.708433003178, 41.408431909546, 43.108430815914, 44.808429498974, 46.508432166921, 48.208431073289, 49.908429979657],
