{
  "AcquisitionMatrixPE": 82,
  "AcquisitionNumber": 1,
  "AcquisitionTime": "17:48:44.307500",
  "BandwidthPerPixelPhaseEncode": 24.888,
  "BaseResolution": 82,
  "BodyPartExamined": "BRAIN",
  "ConsistencyInfo": "N4_VE11E_LATEST_20181129",
  "ConversionSoftware": "dcm2niix",
  "ConversionSoftwareVersion": "v1.0.20201102",
  "DerivedVendorReportedEchoSpacing": 0.00049,
  "DeviceSerialNumber": "66112",
  "DwellTime": 2e-06,
  "EchoTime": 0.0272,
  "EchoTrainLength": 82,
  "EffectiveEchoSpacing": 0.00049,
  "FlipAngle": 44,
  "ImageComments": "Unaliased MB8/PE3",
  "ImageOrientationPatientDICOM": [0.991789, -0.127781, -0.00522868, 0.126875, 0.977974, 0.165739],
  "ImageType": [
    "ORIGINAL",
    "PRIMARY",
    "M",
    "MB",
    "ND",
    "NORM",
    "MOSAIC"
],
  "ImagingFrequency": 123.252,
  "InPlanePhaseEncodingDirectionDICOM": "COL",
  "InstitutionAddress": "Maynard 3,Hanover,NH,US,03755",
  "InstitutionName": "Dartmouth College - PBS",
  "InstitutionalDepartmentName": "Department",
  "MRAcquisitionType": "2D",
  "MagneticFieldStrength": 3,
  "Manufacturer": "Siemens",
  "ManufacturersModelName": "Prisma",
  "Modality": "MR",
  "MultibandAccelerationFactor": 8,
  "PartialFourier": 1,
  "PatientPosition": "HFS",
  "PercentPhaseFOV": 100,
  "PercentSampling": 100,
  "PhaseEncodingDirection": "j-",
  "PhaseEncodingSteps": 82,
  "PhaseResolution": 1,
  "PixelBandwidth": 3050,
  "ProcedureStepDescription": "Wager_Wager^1076_spacetop",
  "ProtocolName": "func_run-03_task-social_acq-ap-mb8",
  "PulseSequenceDetails": "%CustomerSeq%\\cmrr_mbep2d_bold",
  "ReceiveCoilActiveElements": "HEA;HEP",
  "ReceiveCoilName": "Head_32",
  "ReconMatrixPE": 82,
  "RepetitionTime": 0.46,
  "SAR": 0.0903396,
  "ScanOptions": "FS",
  "ScanningSequence": "EP",
  "SequenceName": "epfid2d1_82",
  "SequenceVariant": "SK\\SS",
  "SeriesDescription": "func_run-03_task-social_acq-ap-mb8",
  "SeriesNumber": 16,
  "ShimSetting": [4150, -7762, -7254, 623, -9, -193, 40, 95],
  "SliceThickness": 2.7,
  "SliceTiming": [0, 0.2525, 0.065, 0.315, 0.1275, 0.3775, 0.19, 0, 0.2525, 0.065, 0.315, 0.1275, 0.3775, 0.19, 0, 0.2525, 0.065, 0.315, 0.1275, 0.3775, 0.19, 0, 0.2525, 0.065, 0.315, 0.1275, 0.3775, 0.19, 0, 0.2525, 0.065, 0.315, 0.1275, 0.3775, 0.19, 0, 0.2525, 0.065, 0.315, 0.1275, 0.3775, 0.19, 0, 0.2525, 0.065, 0.315, 0.1275, 0.3775, 0.19, 0, 0.2525, 0.065, 0.315, 0.1275, 0.3775, 0.19],
  "SoftwareVersions": "syngo MR E11",
  "SpacingBetweenSlices": 2.7,
  "StationName": "AWP66112",
  "TaskName": "social",
  "TotalReadoutTime": 0.03969,
  "TxRefAmp": 238.78,
  "WipMemBlock": "91f601fd-ba48-46d6-b566-875673546bf7||Sequence: R016 ve11e/master r/434b28f1; Aug  7 2019 18:53:46 by eja",
  "dcmmeta_affine": [
    [-2.6608963012695312, 0.3403964936733246, 0.04337506368756294, 95.29408264160156],
    [0.3428274393081665, 2.623832941055298, 0.44561266899108887, -113.39225769042969],
    [-0.014028175733983517, -0.44466638565063477, 2.6626205444335938, -45.355628967285156],
    [0.0, 0.0, 0.0, 1.0]
],
  "dcmmeta_reorient_transform": [
    [0.0, -1.0, 0.0, 81.0],
    [1.0, 0.0, 0.0, 0.0],
    [0.0, 0.0, 1.0, 0.0],
    [0.0, 0.0, 0.0, 1.0]
],
  "dcmmeta_shape": [82, 82, 56, 872],
  "dcmmeta_slice_dim": 2,
  "dcmmeta_version": 0.6,
  "global": {
    "const": {
      "AccessionNumber": "A003879",
      "AcquisitionMatrix": [82, 0, 0, 82],
      "AngioFlag": "N",
      "BitsAllocated": 16,
      "BitsStored": 16,
      "BodyPartExamined": "BRAIN",
      "Columns": 656,
      "EchoNumbers": 1,
      "EchoTime": 27.2,
      "EchoTrainLength": 82,
      "FlipAngle": 44.0,
      "HighBit": 15,
      "ImageOrientationPatient": [0.99178860749611, -0.1277811367443, -0.0052286837028, 0.12687505279851, 0.97797403280567, 0.16573928965455],
      "ImagePositionPatient": [-984.2372405034, -753.78674930863, -204.96677816406],
      "ImageType": [
        "ORIGINAL",
        "PRIMARY",
        "M",
        "MB",
        "ND",
        "NORM",
        "MOSAIC"
],
      "ImagedNucleus": "1H",
      "ImagingFrequency": 123.252201,
      "InPlanePhaseEncodingDirection": "COL",
      "MRAcquisitionType": "2D",
      "MagneticFieldStrength": 3.0,
      "Manufacturer": "SIEMENS",
      "ManufacturerModelName": "Prisma",
      "Modality": "MR",
      "NumberOfAverages": 1.0,
      "NumberOfPhaseEncodingSteps": 82,
      "PercentPhaseFieldOfView": 100.0,
      "PercentSampling": 100.0,
      "PerformedProcedureStepStartTime": "170614.904000",
      "PhotometricInterpretation": "MONOCHROME2",
      "PixelBandwidth": 3050.0,
      "PixelRepresentation": 0,
      "PixelSpacing": [2.6829268932343, 2.6829268932343],
      "ProtocolName": "func_run-03_task-social_acq-ap-mb8",
      "RepetitionTime": 460.0,
      "Rows": 656,
      "SAR": 0.09033961089673,
      "SamplesPerPixel": 1,
      "ScanOptions": "FS",
      "ScanningSequence": "EP",
      "SequenceName": "epfid2d1_82",
      "SequenceVariant": [
        "SK",
        "SS"
],
      "SeriesDescription": "func_run-03_task-social_acq-ap-mb8",
      "SeriesNumber": 16,
      "SeriesTime": "174910.624000",
      "SliceLocation": -61.911285301033,
      "SliceThickness": 2.7000000476837,
      "SmallestImagePixelValue": 0,
      "SoftwareVersions": "syngo MR E11",
      "SpacingBetweenSlices": 2.6999999686357,
      "SpecificCharacterSet": "ISO_IR 100",
      "StudyID": "1",
      "StudyTime": "170614.788000",
      "TransmitCoilName": "Body",
      "VariableFlipAngleFlag": "N",
      "WindowCenterWidthExplanation": "Algo1"
    },
    "slices": {}
  },
  "time": {
    "samples": {
      "AcquisitionNumber": [1, 2, 3, 4, 5, 6, 7, 8, 9, 10, 11, 12, 13, 14, 15, 16, 17, 18, 19, 20, 21, 22, 23, 24, 25, 26, 27, 28, 29, 30, 31, 32, 33, 34, 35, 36, 37, 38, 39, 40, 41, 42, 43, 44, 45, 46, 47, 48, 49, 50, 51, 52, 53, 54, 55, 56, 57, 58, 59, 60, 61, 62, 63, 64, 65, 66, 67, 68, 69, 70, 71, 72, 73, 74, 75, 76, 77, 78, 79, 80, 81, 82, 83, 84, 85, 86, 87, 88, 89, 90, 91, 92, 93, 94, 95, 96, 97, 98, 99, 100, 101, 102, 103, 104, 105, 106, 107, 108, 109, 110, 111, 112, 113, 114, 115, 116, 117, 118, 119, 120, 121, 122, 123, 124, 125, 126, 127, 128, 129, 130, 131, 132, 133, 134, 135, 136, 137, 138, 139, 140, 141, 142, 143, 144, 145, 146, 147, 148, 149, 150, 151, 152, 153, 154, 155, 156, 157, 158, 159, 160, 161, 162, 163, 164, 165, 166, 167, 168, 169, 170, 171, 172, 173, 174, 175, 176, 177, 178, 179, 180, 181, 182, 183, 184, 185, 186, 187, 188, 189, 190, 191, 192, 193, 194, 195, 196, 197, 198, 199, 200, 201, 202, 203, 204, 205, 206, 207, 208, 209, 210, 211, 212, 213, 214, 215, 216, 217, 218, 219, 220, 221, 222, 223, 224, 225, 226, 227, 228, 229, 230, 231, 232, 233, 234, 235, 236, 237, 238, 239, 240, 241, 242, 243, 244, 245, 246, 247, 248, 249, 250, 251, 252, 253, 254, 255, 256, 257, 258, 259, 260, 261, 262, 263, 264, 265, 266, 267, 268, 269, 270, 271, 272, 273, 274, 275, 276, 277, 278, 279, 280, 281, 282, 283, 284, 285, 286, 287, 288, 289, 290, 291, 292, 293, 294, 295, 296, 297, 298, 299, 300, 301, 302, 303, 304, 305, 306, 307, 308, 309, 310, 311, 312, 313, 314, 315, 316, 317, 318, 319, 320, 321, 322, 323, 324, 325, 326, 327, 328, 329, 330, 331, 332, 333, 334, 335, 336, 337, 338, 339, 340, 341, 342, 343, 344, 345, 346, 347, 348, 349, 350, 351, 352, 353, 354, 355, 356, 357, 358, 359, 360, 361, 362, 363, 364, 365, 366, 367, 368, 369, 370, 371, 372, 373, 374, 375, 376, 377, 378, 379, 380, 381, 382, 383, 384, 385, 386, 387, 388, 389, 390, 391, 392, 393, 394, 395, 396, 397, 398, 399, 400, 401, 402, 403, 404, 405, 406, 407, 408, 409, 410, 411, 412, 413, 414, 415, 416, 417, 418, 419, 420, 421, 422, 423, 424, 425, 426, 427, 428, 429, 430, 431, 432, 433, 434, 435, 436, 437, 438, 439, 440, 441, 442, 443, 444, 445, 446, 447, 448, 449, 450, 451, 452, 453, 454, 455, 456, 457, 458, 459, 460, 461, 462, 463, 464, 465, 466, 467, 468, 469, 470, 471, 472, 473, 474, 475, 476, 477, 478, 479, 480, 481, 482, 483, 484, 485, 486, 487, 488, 489, 490, 491, 492, 493, 494, 495, 496, 497, 498, 499, 500, 501, 502, 503, 504, 505, 506, 507, 508, 509, 510, 511, 512, 513, 514, 515, 516, 517, 518, 519, 520, 521, 522, 523, 524, 525, 526, 527, 528, 529, 530, 531, 532, 533, 534, 535, 536, 537, 538, 539, 540, 541, 542, 543, 544, 545, 546, 547, 548, 549, 550, 551, 552, 553, 554, 555, 556, 557, 558, 559, 560, 561, 562, 563, 564, 565, 566, 567, 568, 569, 570, 571, 572, 573, 574, 575, 576, 577, 578, 579, 580, 581, 582, 583, 584, 585, 586, 587, 588, 589, 590, 591, 592, 593, 594, 595, 596, 597, 598, 599, 600, 601, 602, 603, 604, 605, 606, 607, 608, 609, 610, 611, 612, 613, 614, 615, 616, 617, 618, 619, 620, 621, 622, 623, 624, 625, 626, 627, 628, 629, 630, 631, 632, 633, 634, 635, 636, 637, 638, 639, 640, 641, 642, 643, 644, 645, 646, 647, 648, 649, 650, 651, 652, 653, 654, 655, 656, 657, 658, 659, 660, 661, 662, 663, 664, 665, 666, 667, 668, 669, 670, 671, 672, 673, 674, 675, 676, 677, 678, 679, 680, 681, 682, 683, 684, 685, 686, 687, 688, 689, 690, 691, 692, 693, 694, 695, 696, 697, 698, 699, 700, 701, 702, 703, 704, 705, 706, 707, 708, 709, 710, 711, 712, 713, 714, 715, 716, 717, 718, 719, 720, 721, 722, 723, 724, 725, 726, 727, 728, 729, 730, 731, 732, 733, 734, 735, 736, 737, 738, 739, 740, 741, 742, 743, 744, 745, 746, 747, 748, 749, 750, 751, 752, 753, 754, 755, 756, 757, 758, 759, 760, 761, 762, 763, 764, 765, 766, 767, 768, 769, 770, 771, 772, 773, 774, 775, 776, 777, 778, 779, 780, 781, 782, 783, 784, 785, 786, 787, 788, 789, 790, 791, 792, 793, 794, 795, 796, 797, 798, 799, 800, 801, 802, 803, 804, 805, 806, 807, 808, 809, 810, 811, 812, 813, 814, 815, 816, 817, 818, 819, 820, 821, 822, 823, 824, 825, 826, 827, 828, 829, 830, 831, 832, 833, 834, 835, 836, 837, 838, 839, 840, 841, 842, 843, 844, 845, 846, 847, 848, 849, 850, 851, 852, 853, 854, 855, 856, 857, 858, 859, 860, 861, 862, 863, 864, 865, 866, 867, 868, 869, 870, 871, 872],
      "AcquisitionTime": ["174844.307500", "174844.767500", "174845.227500", "174845.687500", "174846.147500", "174846.607500", "174847.067500", "174847.527500", "174847.987500", "174848.447500", "174848.907500", "174849.367500", "174849.827500", "174850.287500", "174850.747500", "174851.207500", "174851.667500", "174852.127500", "174852.587500", "174853.047500", "174853.507500", "174853.967500", "174854.427500", "174854.887500", "174855.347500", "174855.807500", "174856.267500", "174856.727500", "174857.187500", "174857.647500", "174858.107500", "174858.567500", "174859.027500", "174859.487500", "174859.947500", "174900.407500", "174900.867500", "174901.327500", "174901.787500", "174902.247500", "174902.707500", "174903.167500", "174903.627500", "174904.087500", "174904.547500", "174905.007500", "174905.467500", "174905.927500", "174906.387500", "174906.847500", "174907.307500", "174907.767500", "174908.227500", "174908.687500", "174909.147500", "174909.607500", "174910.067500", "174910.527500", "174910.987500", "174911.447500", "174911.907500", "174912.367500", "174912.827500", "174913.287500", "174913.747500", "174914.207500", "174914.667500", "174915.127500", "174915.587500", "174916.047500", "174916.507500", "174916.967500", "174917.427500", "174917.887500", "174918.347500", "174918.807500", "174919.267500", "174919.727500", "174920.187500", "174920.647500", "174921.107500", "174921.567500", "174922.027500", "174922.487500", "174922.947500", "174923.407500", "174923.867500", "174924.327500", "174924.787500", "174925.247500", "174925.707500", "174926.167500", "174926.627500", "174927.087500", "174927.547500", "174928.007500", "174928.467500", "174928.927500", "174929.387500", "174929.847500", "174930.307500", "174930.767500", "174931.227500", "174931.687500", "174932.147500", "174932.607500", "174933.067500", "174933.527500", "174933.987500", "174934.447500", "174934.907500", "174935.367500", "174935.827500", "174936.287500", "174936.747500", "174937.207500", "174937.667500", "174938.127500", "174938.587500", "174939.047500", "174939.507500", "174939.967500", "174940.427500", "174940.887500", "174941.347500", "174941.807500", "174942.267500", "174942.727500", "174943.187500", "174943.647500", "174944.107500", "174944.567500", "174945.027500", "174945.487500", "174945.947500", "174946.407500", "174946.867500", "174947.327500", "174947.787500", "174948.247500", "174948.707500", "174949.167500", "174949.627500", "174950.087500", "174950.547500", "174951.007500", "174951.467500", "174951.927500", "174952.387500", "174952.847500", "174953.307500", "174953.767500", "174954.227500", "174954.687500", "174955.147500", "174955.607500", "174956.067500", "174956.527500", "174956.987500", "174957.447500", "174957.907500", "174958.367500", "174958.827500", "174959.287500", "174959.747500", "175000.207500", "175000.667500", "175001.127500", "175001.587500", "175002.047500", "175002.507500", "175002.967500", "175003.427500", "175003.887500", "175004.347500", "175004.807500", "175005.267500", "175005.727500", "175006.187500", "175006.647500", "175007.107500", "175007.567500", "175008.027500", "175008.487500", "175008.947500", "175009.407500", "175009.867500", "175010.327500", "175010.787500", "175011.247500", "175011.707500", "175012.167500", "175012.627500", "175013.087500", "175013.547500", "175014.007500", "175014.467500", "175014.927500", "175015.387500", "175015.847500", "175016.307500", "175016.767500", "175017.227500", "175017.687500", "175018.147500", "175018.607500", "175019.067500", "175019.527500", "175019.987500", "175020.447500", "175020.907500", "175021.367500", "175021.827500", "175022.287500", "175022.747500", "175023.207500", "175023.667500", "175024.127500", "175024.587500", "175025.047500", "175025.507500", "175025.967500", "175026.427500", "175026.887500", "175027.347500", "175027.807500", "175028.267500", "175028.727500", "175029.187500", "175029.647500", "175030.107500", "175030.567500", "175031.027500", "175031.487500", "175031.947500", "175032.407500", "175032.867500", "175033.327500", "175033.787500", "175034.247500", "175034.707500", "175035.167500", "175035.627500", "175036.087500", "175036.547500", "175037.007500", "175037.467500", "175037.927500", "175038.387500", "175038.847500", "175039.307500", "175039.767500", "175040.227500", "175040.687500", "175041.147500", "175041.607500", "175042.067500", "175042.527500", "175042.987500", "175043.447500", "175043.907500", "175044.367500", "175044.827500", "175045.287500", "175045.747500", "175046.207500", "175046.667500", "175047.127500", "175047.587500", "175048.047500", "175048.507500", "175048.967500", "175049.427500", "175049.887500", "175050.347500", "175050.807500", "175051.267500", "175051.727500", "175052.187500", "175052.647500", "175053.107500", "175053.567500", "175054.027500", "175054.487500", "175054.947500", "175055.407500", "175055.867500", "175056.327500", "175056.787500", "175057.247500", "175057.707500", "175058.167500", "175058.627500", "175059.087500", "175059.547500", "175100.007500", "175100.467500", "175100.927500", "175101.387500", "175101.847500", "175102.307500", "175102.767500", "175103.227500", "175103.687500", "175104.147500", "175104.607500", "175105.067500", "175105.527500", "175105.987500", "175106.447500", "175106.907500", "175107.367500", "175107.827500", "175108.287500", "175108.747500", "175109.207500", "175109.667500", "175110.127500", "175110.587500", "175111.047500", "175111.507500", "175111.967500", "175112.427500", "175112.887500", "175113.347500", "175113.807500", "175114.267500", "175114.727500", "175115.187500", "175115.647500", "175116.107500", "175116.567500", "175117.027500", "175117.487500", "175117.947500", "175118.407500", "175118.867500", "175119.327500", "175119.787500", "175120.247500", "175120.707500", "175121.167500", "175121.627500", "175122.087500", "175122.547500", "175123.007500", "175123.467500", "175123.927500", "175124.387500", "175124.847500", "175125.307500", "175125.767500", "175126.227500", "175126.687500", "175127.147500", "175127.607500", "175128.067500", "175128.527500", "175128.987500", "175129.447500", "175129.907500", "175130.367500", "175130.827500", "175131.287500", "175131.747500", "175132.207500", "175132.667500", "175133.127500", "175133.587500", "175134.047500", "175134.507500", "175134.967500", "175135.427500", "175135.887500", "175136.347500", "175136.807500", "175137.267500", "175137.727500", "175138.187500", "175138.647500", "175139.107500", "175139.567500", "175140.027500", "175140.487500", "175140.947500", "175141.407500", "175141.867500", "175142.327500", "175142.787500", "175143.247500", "175143.707500", "175144.167500", "175144.627500", "175145.087500", "175145.547500", "175146.007500", "175146.467500", "175146.927500", "175147.387500", "175147.847500", "175148.307500", "175148.767500", "175149.227500", "175149.687500", "175150.147500", "175150.607500", "175151.067500", "175151.527500", "175151.987500", "175152.447500", "175152.907500", "175153.367500", "175153.827500", "175154.287500", "175154.747500", "175155.207500", "175155.667500", "175156.127500", "175156.587500", "175157.047500", "175157.507500", "175157.967500", "175158.427500", "175158.887500", "175159.347500", "175159.807500", "175200.267500", "175200.727500", "175201.187500", "175201.647500", "175202.107500", "175202.567500", "175203.027500", "175203.487500", "175203.947500", "175204.407500", "175204.867500", "175205.327500", "175205.787500", "175206.247500", "175206.707500", "175207.167500", "175207.627500", "175208.087500", "175208.547500", "175209.007500", "175209.467500", "175209.927500", "175210.387500", "175210.847500", "175211.307500", "175211.767500", "175212.227500", "175212.687500", "175213.147500", "175213.607500", "175214.067500", "175214.527500", "175214.987500", "175215.447500", "175215.907500", "175216.367500", "175216.827500", "175217.287500", "175217.747500", "175218.207500", "175218.667500", "175219.127500", "175219.587500", "175220.047500", "175220.507500", "175220.967500", "175221.427500", "175221.887500", "175222.347500", "175222.807500", "175223.267500", "175223.727500", "175224.187500", "175224.647500", "175225.107500", "175225.567500", "175226.027500", "175226.487500", "175226.947500", "175227.407500", "175227.867500", "175228.327500", "175228.787500", "175229.247500", "175229.707500", "175230.167500", "175230.627500", "175231.087500", "175231.547500", "175232.007500", "175232.467500", "175232.927500", "175233.387500", "175233.847500", "175234.307500", "175234.767500", "175235.227500", "175235.687500", "175236.147500", "175236.607500", "175237.067500", "175237.527500", "175237.987500", "175238.447500", "175238.907500", "175239.367500", "175239.827500", "175240.287500", "175240.747500", "175241.207500", "175241.667500", "175242.127500", "175242.587500", "175243.047500", "175243.507500", "175243.967500", "175244.427500", "175244.887500", "175245.347500", "175245.807500", "175246.267500", "175246.727500", "175247.187500", "175247.647500", "175248.107500", "175248.567500", "175249.027500", "175249.487500", "175249.947500", "175250.407500", "175250.867500", "175251.327500", "175251.787500", "175252.247500", "175252.707500", "175253.167500", "175253.627500", "175254.087500", "175254.547500", "175255.007500", "175255.467500", "175255.927500", "175256.387500", "175256.847500", "175257.307500", "175257.767500", "175258.227500", "175258.687500", "175259.147500", "175259.607500", "175300.067500", "175300.527500", "175300.987500", "175301.447500", "175301.907500", "175302.367500", "175302.827500", "175303.287500", "175303.747500", "175304.207500", "175304.667500", "175305.127500", "175305.587500", "175306.047500", "175306.507500", "175306.967500", "175307.427500", "175307.887500", "175308.347500", "175308.807500", "175309.267500", "175309.727500", "175310.187500", "175310.647500", "175311.107500", "175311.567500", "175312.027500", "175312.487500", "175312.947500", "175313.407500", "175313.867500", "175314.327500", "175314.787500", "175315.247500", "175315.707500", "175316.167500", "175316.627500", "175317.087500", "175317.547500", "175318.007500", "175318.467500", "175318.927500", "175319.387500", "175319.847500", "175320.307500", "175320.767500", "175321.227500", "175321.687500", "175322.147500", "175322.607500", "175323.067500", "175323.527500", "175323.987500", "175324.447500", "175324.907500", "175325.367500", "175325.827500", "175326.287500", "175326.747500", "175327.207500", "175327.667500", "175328.127500", "175328.587500", "175329.047500", "175329.507500", "175329.967500", "175330.427500", "175330.887500", "175331.347500", "175331.807500", "175332.267500", "175332.727500", "175333.187500", "175333.647500", "175334.107500", "175334.567500", "175335.027500", "175335.487500", "175335.947500", "175336.407500", "175336.867500", "175337.327500", "175337.787500", "175338.247500", "175338.707500", "175339.167500", "175339.627500", "175340.087500", "175340.547500", "175341.007500", "175341.467500", "175341.927500", "175342.387500", "175342.847500", "175343.307500", "175343.767500", "175344.227500", "175344.687500", "175345.147500", "175345.607500", "175346.067500", "175346.527500", "175346.987500", "175347.447500", "175347.907500", "175348.367500", "175348.827500", "175349.287500", "175349.747500", "175350.207500", "175350.667500", "175351.127500", "175351.587500", "175352.047500", "175352.507500", "175352.967500", "175353.427500", "175353.887500", "175354.347500", "175354.807500", "175355.267500", "175355.727500", "175356.187500", "175356.647500", "175357.107500", "175357.567500", "175358.027500", "175358.487500", "175358.947500", "175359.407500", "175359.867500", "175400.327500", "175400.787500", "175401.247500", "175401.707500", "175402.167500", "175402.627500", "175403.087500", "175403.547500", "175404.007500", "175404.467500", "175404.927500", "175405.387500", "175405.847500", "175406.307500", "175406.767500", "175407.227500", "175407.687500", "175408.147500", "175408.607500", "175409.067500", "175409.527500", "175409.987500", "175410.447500", "175410.907500", "175411.367500", "175411.827500", "175412.287500", "175412.747500", "175413.207500", "175413.667500", "175414.127500", "175414.587500", "175415.047500", "175415.507500", "175415.967500", "175416.427500", "175416.887500", "175417.347500", "175417.807500", "175418.267500", "175418.727500", "175419.187500", "175419.647500", "175420.107500", "175420.567500", "175421.027500", "175421.487500", "175421.947500", "175422.407500", "175422.867500", "175423.327500", "175423.787500", "175424.247500", "175424.707500", "175425.167500", "175425.627500", "175426.087500", "175426.547500", "175427.007500", "175427.467500", "175427.927500", "175428.387500", "175428.847500", "175429.307500", "175429.767500", "175430.227500", "175430.687500", "175431.147500", "175431.607500", "175432.067500", "175432.527500", "175432.987500", "175433.447500", "175433.907500", "175434.367500", "175434.827500", "175435.287500", "175435.747500", "175436.207500", "175436.667500", "175437.127500", "175437.587500", "175438.047500", "175438.507500", "175438.967500", "175439.427500", "175439.887500", "175440.347500", "175440.807500", "175441.267500", "175441.727500", "175442.187500", "175442.647500", "175443.107500", "175443.567500", "175444.027500", "175444.487500", "175444.947500", "175445.407500", "175445.867500", "175446.327500", "175446.787500", "175447.247500", "175447.707500", "175448.167500", "175448.627500", "175449.087500", "175449.547500", "175450.007500", "175450.467500", "175450.927500", "175451.387500", "175451.847500", "175452.307500", "175452.767500", "175453.227500", "175453.687500", "175454.147500", "175454.607500", "175455.067500", "175455.527500", "175455.987500", "175456.447500", "175456.907500", "175457.367500", "175457.827500", "175458.287500", "175458.747500", "175459.207500", "175459.667500", "175500.127500", "175500.587500", "175501.047500", "175501.507500", "175501.967500", "175502.427500", "175502.887500", "175503.347500", "175503.807500", "175504.267500", "175504.727500", "175505.187500", "175505.647500", "175506.107500", "175506.567500", "175507.027500", "175507.487500", "175507.947500", "175508.407500", "175508.867500", "175509.327500", "175509.787500", "175510.247500", "175510.707500", "175511.167500", "175511.627500", "175512.087500", "175512.547500", "175513.007500", "175513.467500", "175513.927500", "175514.387500", "175514.847500", "175515.307500", "175515.767500", "175516.227500", "175516.687500", "175517.147500", "175517.607500", "175518.067500", "175518.527500", "175518.987500", "175519.447500", "175519.907500", "175520.367500", "175520.827500", "175521.287500", "175521.747500", "175522.207500", "175522.667500", "175523.127500", "175523.587500", "175524.047500", "175524.507500", "175524.967500"],
