{
  "AcquisitionMatrixPE": 82,
  "AcquisitionNumber": 1,
  "AcquisitionTime": "18:04:13.120000",
  "BandwidthPerPixelPhaseEncode": 24.888,
  "BaseResolution": 82,
  "BodyPartExamined": "BRAIN",
  "ConsistencyInfo": "N4_VE11E_LATEST_20181129",
  "ConversionSoftware": "dcm2niix",
  "ConversionSoftwareVersion": "v1.0.20201102",
  "DerivedVendorReportedEchoSpacing": 0.00049,
  "DeviceSerialNumber": "66112",
  "DwellTime": 2e-06,
  "EchoTime": 0.0272,
  "EchoTrainLength": 82,
  "EffectiveEchoSpacing": 0.00049,
  "FlipAngle": 44,
  "ImageComments": "Unaliased MB8/PE3",
  "ImageOrientationPatientDICOM": [0.991789, -0.127781, -0.00522868, 0.126875, 0.977974, 0.165739],
  "ImageType": [
    "ORIGINAL",
    "PRIMARY",
    "M",
    "MB",
    "ND",
    "NORM",
    "MOSAIC"
],
  "ImagingFrequency": 123.252,
  "InPlanePhaseEncodingDirectionDICOM": "COL",
  "InstitutionAddress": "Maynard 3,Hanover,NH,US,03755",
  "InstitutionName": "Dartmouth College - PBS",
  "InstitutionalDepartmentName": "Department",
  "MRAcquisitionType": "2D",
  "MagneticFieldStrength": 3,
  "Manufacturer": "Siemens",
  "ManufacturersModelName": "Prisma",
  "Modality": "MR",
  "MultibandAccelerationFactor": 8,
  "PartialFourier": 1,
  "PatientPosition": "HFS",
  "PercentPhaseFOV": 100,
  "PercentSampling": 100,
  "PhaseEncodingDirection": "j-",
  "PhaseEncodingSteps": 82,
  "PhaseResolution": 1,
  "PixelBandwidth": 3050,
  "ProcedureStepDescription": "Wager_Wager^1076_spacetop",
  "ProtocolName": "func_run-05_task-social_acq-ap-mb8",
  "PulseSequenceDetails": "%CustomerSeq%\\cmrr_mbep2d_bold",
  "ReceiveCoilActiveElements": "HEA;HEP",
  "ReceiveCoilName": "Head_32",
  "ReconMatrixPE": 82,
  "RepetitionTime": 0.46,
  "SAR": 0.0903396,
  "ScanOptions": "FS",
  "ScanningSequence": "EP",
  "SequenceName": "epfid2d1_82",
  "SequenceVariant": "SK\\SS",
  "SeriesDescription": "func_run-05_task-social_acq-ap-mb8",
  "SeriesNumber": 20,
  "ShimSetting": [4150, -7762, -7254, 623, -9, -193, 40, 95],
  "SliceThickness": 2.7,
  "SliceTiming": [0, 0.25, 0.0625, 0.315, 0.125, 0.3775, 0.1875, 0, 0.25, 0.0625, 0.315, 0.125, 0.3775, 0.1875, 0, 0.25, 0.0625, 0.315, 0.125, 0.3775, 0.1875, 0, 0.25, 0.0625, 0.315, 0.125, 0.3775, 0.1875, 0, 0.25, 0.0625, 0.315, 0.125, 0.3775, 0.1875, 0, 0.25, 0.0625, 0.315, 0.125, 0.3775, 0.1875, 0, 0.25, 0.0625, 0.315, 0.125, 0.3775, 0.1875, 0, 0.25, 0.0625, 0.315, 0.125, 0.3775, 0.1875],
  "SoftwareVersions": "syngo MR E11",
  "SpacingBetweenSlices": 2.7,
  "StationName": "AWP66112",
  "TaskName": "social",
  "TotalReadoutTime": 0.03969,
  "TxRefAmp": 238.78,
  "WipMemBlock": "bfd7b35b-c506-45cb-8dc4-e787821cebfc||Sequence: R016 ve11e/master r/434b28f1; Aug  7 2019 18:53:46 by eja",
  "dcmmeta_affine": [
    [-2.6608963012695312, 0.3403964936733246, 0.04337506368756294, 95.29408264160156],
    [0.3428274393081665, 2.623832941055298, 0.44561266899108887, -113.39225769042969],
    [-0.014028175733983517, -0.44466638565063477, 2.6626205444335938, -45.355628967285156],
    [0.0, 0.0, 0.0, 1.0]
],
  "dcmmeta_reorient_transform": [
    [0.0, -1.0, 0.0, 81.0],
    [1.0, 0.0, 0.0, 0.0],
    [0.0, 0.0, 1.0, 0.0],
    [0.0, 0.0, 0.0, 1.0]
],
  "dcmmeta_shape": [82, 82, 56, 872],
  "dcmmeta_slice_dim": 2,
  "dcmmeta_version": 0.6,
  "global": {
    "const": {
      "AccessionNumber": "A003879",
      "AcquisitionMatrix": [82, 0, 0, 82],
      "AngioFlag": "N",
      "BitsAllocated": 16,
      "BitsStored": 16,
      "BodyPartExamined": "BRAIN",
      "Columns": 656,
      "EchoNumbers": 1,
      "EchoTime": 27.2,
      "EchoTrainLength": 82,
      "FlipAngle": 44.0,
      "HighBit": 15,
      "ImageOrientationPatient": [0.99178860749611, -0.1277811367443, -0.0052286837028, 0.12687505279851, 0.97797403280567, 0.16573928965455],
      "ImagePositionPatient": [-984.2372405034, -753.78674930863, -204.96677816406],
      "ImageType": [
        "ORIGINAL",
        "PRIMARY",
        "M",
        "MB",
        "ND",
        "NORM",
        "MOSAIC"
],
      "ImagedNucleus": "1H",
      "ImagingFrequency": 123.252205,
      "InPlanePhaseEncodingDirection": "COL",
      "MRAcquisitionType": "2D",
      "MagneticFieldStrength": 3.0,
      "Manufacturer": "SIEMENS",
      "ManufacturerModelName": "Prisma",
      "Modality": "MR",
      "NumberOfAverages": 1.0,
      "NumberOfPhaseEncodingSteps": 82,
      "PercentPhaseFieldOfView": 100.0,
      "PercentSampling": 100.0,
      "PerformedProcedureStepStartTime": "170614.904000",
      "PhotometricInterpretation": "MONOCHROME2",
      "PixelBandwidth": 3050.0,
      "PixelRepresentation": 0,
      "PixelSpacing": [2.6829268932343, 2.6829268932343],
      "ProtocolName": "func_run-05_task-social_acq-ap-mb8",
      "RepetitionTime": 460.0,
      "Rows": 656,
      "SAR": 0.09033961089673,
      "SamplesPerPixel": 1,
      "ScanOptions": "FS",
      "ScanningSequence": "EP",
      "SequenceName": "epfid2d1_82",
      "SequenceVariant": [
        "SK",
        "SS"
],
      "SeriesDescription": "func_run-05_task-social_acq-ap-mb8",
      "SeriesNumber": 20,
      "SeriesTime": "180430.543000",
      "SliceLocation": -61.911285301033,
      "SliceThickness": 2.7000000476837,
      "SmallestImagePixelValue": 0,
      "SoftwareVersions": "syngo MR E11",
      "SpacingBetweenSlices": 2.6999999686357,
      "SpecificCharacterSet": "ISO_IR 100",
      "StudyID": "1",
      "StudyTime": "170614.788000",
      "TransmitCoilName": "Body",
      "VariableFlipAngleFlag": "N",
      "WindowCenterWidthExplanation": "Algo1"
    },
    "slices": {}
  },
  "time": {
    "samples": {
      "AcquisitionNumber": [1, 2, 3, 4, 5, 6, 7, 8, 9, 10, 11, 12, 13, 14, 15, 16, 17, 18, 19, 20, 21, 22, 23, 24, 25, 26, 27, 28, 29, 30, 31, 32, 33, 34, 35, 36, 37, 38, 39, 40, 41, 42, 43, 44, 45, 46, 47, 48, 49, 50, 51, 52, 53, 54, 55, 56, 57, 58, 59, 60, 61, 62, 63, 64, 65, 66, 67, 68, 69, 70, 71, 72, 73, 74, 75, 76, 77, 78, 79, 80, 81, 82, 83, 84, 85, 86, 87, 88, 89, 90, 91, 92, 93, 94, 95, 96, 97, 98, 99, 100, 101, 102, 103, 104, 105, 106, 107, 108, 109, 110, 111, 112, 113, 114, 115, 116, 117, 118, 119, 120, 121, 122, 123, 124, 125, 126, 127, 128, 129, 130, 131, 132, 133, 134, 135, 136, 137, 138, 139, 140, 141, 142, 143, 144, 145, 146, 147, 148, 149, 150, 151, 152, 153, 154, 155, 156, 157, 158, 159, 160, 161, 162, 163, 164, 165, 166, 167, 168, 169, 170, 171, 172, 173, 174, 175, 176, 177, 178, 179, 180, 181, 182, 183, 184, 185, 186, 187, 188, 189, 190, 191, 192, 193, 194, 195, 196, 197, 198, 199, 200, 201, 202, 203, 204, 205, 206, 207, 208, 209, 210, 211, 212, 213, 214, 215, 216, 217, 218, 219, 220, 221, 222, 223, 224, 225, 226, 227, 228, 229, 230, 231, 232, 233, 234, 235, 236, 237, 238, 239, 240, 241, 242, 243, 244, 245, 246, 247, 248, 249, 250, 251, 252, 253, 254, 255, 256, 257, 258, 259, 260, 261, 262, 263, 264, 265, 266, 267, 268, 269, 270, 271, 272, 273, 274, 275, 276, 277, 278, 279, 280, 281, 282, 283, 284, 285, 286, 287, 288, 289, 290, 291, 292, 293, 294, 295, 296, 297, 298, 299, 300, 301, 302, 303, 304, 305, 306, 307, 308, 309, 310, 311, 312, 313, 314, 315, 316, 317, 318, 319, 320, 321, 322, 323, 324, 325, 326, 327, 328, 329, 330, 331, 332, 333, 334, 335, 336, 337, 338, 339, 340, 341, 342, 343, 344, 345, 346, 347, 348, 349, 350, 351, 352, 353, 354, 355, 356, 357, 358, 359, 360, 361, 362, 363, 364, 365, 366, 367, 368, 369, 370, 371, 372, 373, 374, 375, 376, 377, 378, 379, 380, 381, 382, 383, 384, 385, 386, 387, 388, 389, 390, 391, 392, 393, 394, 395, 396, 397, 398, 399, 400, 401, 402, 403, 404, 405, 406, 407, 408, 409, 410, 411, 412, 413, 414, 415, 416, 417, 418, 419, 420, 421, 422, 423, 424, 425, 426, 427, 428, 429, 430, 431, 432, 433, 434, 435, 436, 437, 438, 439, 440, 441, 442, 443, 444, 445, 446, 447, 448, 449, 450, 451, 452, 453, 454, 455, 456, 457, 458, 459, 460, 461, 462, 463, 464, 465, 466, 467, 468, 469, 470, 471, 472, 473, 474, 475, 476, 477, 478, 479, 480, 481, 482, 483, 484, 485, 486, 487, 488, 489, 490, 491, 492, 493, 494, 495, 496, 497, 498, 499, 500, 501, 502, 503, 504, 505, 506, 507, 508, 509, 510, 511, 512, 513, 514, 515, 516, 517, 518, 519, 520, 521, 522, 523, 524, 525, 526, 527, 528, 529, 530, 531, 532, 533, 534, 535, 536, 537, 538, 539, 540, 541, 542, 543, 544, 545, 546, 547, 548, 549, 550, 551, 552, 553, 554, 555, 556, 557, 558, 559, 560, 561, 562, 563, 564, 565, 566, 567, 568, 569, 570, 571, 572, 573, 574, 575, 576, 577, 578, 579, 580, 581, 582, 583, 584, 585, 586, 587, 588, 589, 590, 591, 592, 593, 594, 595, 596, 597, 598, 599, 600, 601, 602, 603, 604, 605, 606, 607, 608, 609, 610, 611, 612, 613, 614, 615, 616, 617, 618, 619, 620, 621, 622, 623, 624, 625, 626, 627, 628, 629, 630, 631, 632, 633, 634, 635, 636, 637, 638, 639, 640, 641, 642, 643, 644, 645, 646, 647, 648, 649, 650, 651, 652, 653, 654, 655, 656, 657, 658, 659, 660, 661, 662, 663, 664, 665, 666, 667, 668, 669, 670, 671, 672, 673, 674, 675, 676, 677, 678, 679, 680, 681, 682, 683, 684, 685, 686, 687, 688, 689, 690, 691, 692, 693, 694, 695, 696, 697, 698, 699, 700, 701, 702, 703, 704, 705, 706, 707, 708, 709, 710, 711, 712, 713, 714, 715, 716, 717, 718, 719, 720, 721, 722, 723, 724, 725, 726, 727, 728, 729, 730, 731, 732, 733, 734, 735, 736, 737, 738, 739, 740, 741, 742, 743, 744, 745, 746, 747, 748, 749, 750, 751, 752, 753, 754, 755, 756, 757, 758, 759, 760, 761, 762, 763, 764, 765, 766, 767, 768, 769, 770, 771, 772, 773, 774, 775, 776, 777, 778, 779, 780, 781, 782, 783, 784, 785, 786, 787, 788, 789, 790, 791, 792, 793, 794, 795, 796, 797, 798, 799, 800, 801, 802, 803, 804, 805, 806, 807, 808, 809, 810, 811, 812, 813, 814, 815, 816, 817, 818, 819, 820, 821, 822, 823, 824, 825, 826, 827, 828, 829, 830, 831, 832, 833, 834, 835, 836, 837, 838, 839, 840, 841, 842, 843, 844, 845, 846, 847, 848, 849, 850, 851, 852, 853, 854, 855, 856, 857, 858, 859, 860, 861, 862, 863, 864, 865, 866, 867, 868, 869, 870, 871, 872],
      "AcquisitionTime": ["180413.120000", "180413.580000", "180414.040000", "180414.500000", "180414.960000", "180415.420000", "180415.880000", "180416.340000", "180416.800000", "180417.260000", "180417.720000", "180418.180000", "180418.640000", "180419.100000", "180419.560000", "180420.020000", "180420.480000", "180420.940000", "180421.400000", "180421.860000", "180422.320000", "180422.780000", "180423.240000", "180423.700000", "180424.160000", "180424.620000", "180425.080000", "180425.540000", "180426.000000", "180426.460000", "180426.920000", "180427.380000", "180427.840000", "180428.300000", "180428.760000", "180429.220000", "180429.680000", "180430.140000", "180430.600000", "180431.060000", "180431.520000", "180431.980000", "180432.440000", "180432.900000", "180433.360000", "180433.820000", "180434.280000", "180434.740000", "180435.200000", "180435.660000", "180436.120000", "180436.580000", "180437.040000", "180437.500000", "180437.960000", "180438.420000", "180438.880000", "180439.340000", "180439.800000", "180440.260000", "180440.720000", "180441.180000", "180441.640000", "180442.100000", "180442.560000", "180443.020000", "180443.480000", "180443.940000", "180444.400000", "180444.860000", "180445.320000", "180445.780000", "180446.240000", "180446.700000", "180447.160000", "180447.620000", "180448.080000", "180448.540000", "180449.000000", "180449.460000", "180449.920000", "180450.380000", "180450.840000", "180451.300000", "180451.760000", "180452.220000", "180452.680000", "180453.140000", "180453.600000", "180454.060000", "180454.520000", "180454.980000", "180455.440000", "180455.900000", "180456.360000", "180456.820000", "180457.280000", "180457.740000", "180458.200000", "180458.660000", "180459.120000", "180459.580000", "180500.040000", "180500.500000", "180500.960000", "180501.420000", "180501.880000", "180502.340000", "180502.800000", "180503.260000", "180503.720000", "180504.180000", "180504.640000", "180505.100000", "180505.560000", "180506.020000", "180506.480000", "180506.940000", "180507.400000", "180507.860000", "180508.320000", "180508.780000", "180509.240000", "180509.700000", "180510.160000", "180510.620000", "180511.080000", "180511.540000", "180512.000000", "180512.460000", "180512.920000", "180513.380000", "180513.840000", "180514.300000", "180514.760000", "180515.220000", "180515.680000", "180516.140000", "180516.600000", "180517.060000", "180517.520000", "180517.980000", "180518.440000", "180518.900000", "180519.360000", "180519.820000", "180520.280000", "180520.740000", "180521.200000", "180521.660000", "180522.120000", "180522.580000", "180523.040000", "180523.500000", "180523.960000", "180524.420000", "180524.880000", "180525.340000", "180525.800000", "180526.260000", "180526.720000", "180527.180000", "180527.640000", "180528.100000", "180528.560000", "180529.020000", "180529.480000", "180529.940000", "180530.400000", "180530.860000", "180531.320000", "180531.780000", "180532.240000", "180532.700000", "180533.160000", "180533.620000", "180534.080000", "180534.540000", "180535.000000", "180535.460000", "180535.920000", "180536.380000", "180536.840000", "180537.300000", "180537.760000", "180538.220000", "180538.680000", "180539.140000", "180539.600000", "180540.060000", "180540.520000", "180540.980000", "180541.440000", "180541.900000", "180542.360000", "180542.820000", "180543.280000", "180543.740000", "180544.200000", "180544.660000", "180545.120000", "180545.580000", "180546.040000", "180546.500000", "180546.960000", "180547.420000", "180547.880000", "180548.340000", "180548.800000", "180549.260000", "180549.720000", "180550.180000", "180550.640000", "180551.100000", "180551.560000", "180552.020000", "180552.480000", "180552.940000", "180553.400000", "180553.860000", "180554.320000", "180554.780000", "180555.240000", "180555.700000", "180556.160000", "180556.620000", "180557.080000", "180557.540000", "180558.000000", "180558.460000", "180558.920000", "180559.380000", "180559.840000", "180600.300000", "180600.760000", "180601.220000", "180601.680000", "180602.140000", "180602.600000", "180603.060000", "180603.520000", "180603.980000", "180604.440000", "180604.900000", "180605.360000", "180605.820000", "180606.280000", "180606.740000", "180607.200000", "180607.660000", "180608.120000", "180608.580000", "180609.040000", "180609.500000", "180609.960000", "180610.420000", "180610.880000", "180611.340000", "180611.800000", "180612.260000", "180612.720000", "180613.180000", "180613.640000", "180614.100000", "180614.560000", "180615.020000", "180615.480000", "180615.940000", "180616.400000", "180616.860000", "180617.320000", "180617.780000", "180618.240000", "180618.700000", "180619.160000", "180619.620000", "180620.080000", "180620.540000", "180621.000000", "180621.460000", "180621.920000", "180622.380000", "180622.840000", "180623.300000", "180623.760000", "180624.220000", "180624.680000", "180625.140000", "180625.600000", "180626.060000", "180626.520000", "180626.980000", "180627.440000", "180627.900000", "180628.360000", "180628.820000", "180629.280000", "180629.740000", "180630.200000", "180630.660000", "180631.120000", "180631.580000", "180632.040000", "180632.500000", "180632.960000", "180633.420000", "180633.880000", "180634.340000", "180634.800000", "180635.260000", "180635.720000", "180636.180000", "180636.640000", "180637.100000", "180637.560000", "180638.020000", "180638.480000", "180638.940000", "180639.400000", "180639.860000", "180640.320000", "180640.780000", "180641.240000", "180641.700000", "180642.160000", "180642.620000", "180643.080000", "180643.540000", "180644.000000", "180644.460000", "180644.920000", "180645.380000", "180645.840000", "180646.300000", "180646.760000", "180647.220000", "180647.680000", "180648.140000", "180648.600000", "180649.060000", "180649.520000", "180649.980000", "180650.440000", "180650.900000", "180651.360000", "180651.820000", "180652.280000", "180652.740000", "180653.200000", "180653.660000", "180654.120000", "180654.580000", "180655.040000", "180655.500000", "180655.960000", "180656.420000", "180656.880000", "180657.340000", "180657.800000", "180658.260000", "180658.720000", "180659.180000", "180659.640000", "180700.100000", "180700.560000", "180701.020000", "180701.480000", "180701.940000", "180702.400000", "180702.860000", "180703.320000", "180703.780000", "180704.240000", "180704.700000", "180705.160000", "180705.620000", "180706.080000", "180706.540000", "180707.000000", "180707.460000", "180707.920000", "180708.380000", "180708.840000", "180709.300000", "180709.760000", "180710.220000", "180710.680000", "180711.140000", "180711.600000", "180712.060000", "180712.520000", "180712.980000", "180713.440000", "180713.900000", "180714.360000", "180714.820000", "180715.280000", "180715.740000", "180716.200000", "180716.660000", "180717.120000", "180717.580000", "180718.040000", "180718.500000", "180718.960000", "180719.420000", "180719.880000", "180720.340000", "180720.800000", "180721.260000", "180721.720000", "180722.180000", "180722.640000", "180723.100000", "180723.560000", "180724.020000", "180724.480000", "180724.940000", "180725.400000", "180725.860000", "180726.320000", "180726.780000", "180727.240000", "180727.700000", "180728.160000", "180728.620000", "180729.080000", "180729.540000", "180730.000000", "180730.460000", "180730.920000", "180731.380000", "180731.840000", "180732.300000", "180732.760000", "180733.220000", "180733.680000", "180734.140000", "180734.600000", "180735.060000", "180735.520000", "180735.980000", "180736.440000", "180736.900000", "180737.360000", "180737.820000", "180738.280000", "180738.740000", "180739.200000", "180739.660000", "180740.120000", "180740.580000", "180741.040000", "180741.500000", "180741.960000", "180742.420000", "180742.880000", "180743.340000", "180743.800000", "180744.260000", "180744.720000", "180745.180000", "180745.640000", "180746.100000", "180746.560000", "180747.020000", "180747.480000", "180747.940000", "180748.400000", "180748.860000", "180749.320000", "180749.780000", "180750.240000", "180750.700000", "180751.160000", "180751.620000", "180752.080000", "180752.540000", "180753.000000", "180753.460000", "180753.920000", "180754.380000", "180754.840000", "180755.300000", "180755.760000", "180756.220000", "180756.680000", "180757.140000", "180757.600000", "180758.060000", "180758.520000", "180758.980000", "180759.440000", "180759.900000", "180800.360000", "180800.820000", "180801.280000", "180801.740000", "180802.200000", "180802.660000", "180803.120000", "180803.580000", "180804.040000", "180804.500000", "180804.960000", "180805.420000", "180805.880000", "180806.340000", "180806.800000", "180807.260000", "180807.720000", "180808.180000", "180808.640000", "180809.100000", "180809.560000", "180810.020000", "180810.480000", "180810.940000", "180811.400000", "180811.860000", "180812.320000", "180812.780000", "180813.240000", "180813.700000", "180814.160000", "180814.620000", "180815.080000", "180815.540000", "180816.000000", "180816.460000", "180816.920000", "180817.380000", "180817.840000", "180818.300000", "180818.760000", "180819.220000", "180819.680000", "180820.140000", "180820.600000", "180821.060000", "180821.520000", "180821.980000", "180822.440000", "180822.900000", "180823.360000", "180823.820000", "180824.280000", "180824.740000", "180825.200000", "180825.660000", "180826.120000", "180826.580000", "180827.040000", "180827.500000", "180827.960000", "180828.420000", "180828.880000", "180829.340000", "180829.800000", "180830.260000", "180830.720000", "180831.180000", "180831.640000", "180832.100000", "180832.560000", "180833.020000", "180833.480000", "180833.940000", "180834.400000", "180834.860000", "180835.320000", "180835.780000", "180836.240000", "180836.700000", "180837.160000", "180837.620000", "180838.080000", "180838.540000", "180839.000000", "180839.460000", "180839.920000", "180840.380000", "180840.840000", "180841.300000", "180841.760000", "180842.220000", "180842.680000", "180843.140000", "180843.600000", "180844.060000", "180844.520000", "180844.980000", "180845.440000", "180845.900000", "180846.360000", "180846.820000", "180847.280000", "180847.740000", "180848.200000", "180848.660000", "180849.120000", "180849.580000", "180850.040000", "180850.500000", "180850.960000", "180851.420000", "180851.880000", "180852.340000", "180852.800000", "180853.260000", "180853.720000", "180854.180000", "180854.640000", "180855.100000", "180855.560000", "180856.020000", "180856.480000", "180856.940000", "180857.400000", "180857.860000", "180858.320000", "180858.780000", "180859.240000", "180859.700000", "180900.160000", "180900.620000", "180901.080000", "180901.540000", "180902.000000", "180902.460000", "180902.920000", "180903.380000", "180903.840000", "180904.300000", "180904.760000", "180905.220000", "180905.680000", "180906.140000", "180906.600000", "180907.060000", "180907.520000", "180907.980000", "180908.440000", "180908.900000", "180909.360000", "180909.820000", "180910.280000", "180910.740000", "180911.200000", "180911.660000", "180912.120000", "180912.580000", "180913.040000", "180913.500000", "180913.960000", "180914.420000", "180914.880000", "180915.340000", "180915.800000", "180916.260000", "180916.720000", "180917.180000", "180917.640000", "180918.100000", "180918.560000", "180919.020000", "180919.480000", "180919.940000", "180920.400000", "180920.860000", "180921.320000", "180921.780000", "180922.240000", "180922.700000", "180923.160000", "180923.620000", "180924.080000", "180924.540000", "180925.000000", "180925.460000", "180925.920000", "180926.380000", "180926.840000", "180927.300000", "180927.760000", "180928.220000", "180928.680000", "180929.140000", "180929.600000", "180930.060000", "180930.520000", "180930.980000", "180931.440000", "180931.900000", "180932.360000", "180932.820000", "180933.280000", "180933.740000", "180934.200000", "180934.660000", "180935.120000", "180935.580000", "180936.040000", "180936.500000", "180936.960000", "180937.420000", "180937.880000", "180938.340000", "180938.800000", "180939.260000", "180939.720000", "180940.180000", "180940.640000", "180941.100000", "180941.560000", "180942.020000", "180942.480000", "180942.940000", "180943.400000", "180943.860000", "180944.320000", "180944.780000", "180945.240000", "180945.700000", "180946.160000", "180946.620000", "180947.080000", "180947.540000", "180948.000000", "180948.460000", "180948.920000", "180949.380000", "180949.840000", "180950.300000", "180950.760000", "180951.220000", "180951.680000", "180952.140000", "180952.600000", "180953.060000", "180953.520000", "180953.980000", "180954.440000", "180954.900000", "180955.360000", "180955.820000", "180956.280000", "180956.740000", "180957.200000", "180957.660000", "180958.120000", "180958.580000", "180959.040000", "180959.500000", "180959.960000", "181000.420000", "181000.880000", "181001.340000", "181001.800000", "181002.260000", "181002.720000", "181003.180000", "181003.640000", "181004.100000", "181004.560000", "181005.020000", "181005.480000", "181005.940000", "181006.400000", "181006.860000", "181007.320000", "181007.780000", "181008.240000", "181008.700000", "181009.160000", "181009.620000", "181010.080000", "181010.540000", "181011.000000", "181011.460000", "181011.920000", "181012.380000", "181012.840000", "181013.300000", "181013.760000", "181014.220000", "181014.680000", "181015.140000", "181015.600000", "181016.060000", "181016.520000", "181016.980000", "181017.440000", "181017.900000", "181018.360000", "181018.820000", "181019.280000", "181019.740000", "181020.200000", "181020.660000", "181021.120000", "181021.580000", "181022.040000", "181022.500000", "181022.960000", "181023.420000", "181023.880000", "181024.340000", "181024.800000", "181025.260000", "181025.720000", "181026.180000", "181026.640000", "181027.100000", "181027.560000", "181028.020000", "181028.480000", "181028.940000", "181029.400000", "181029.860000", "181030.320000", "181030.780000", "181031.240000", "181031.700000", "181032.160000", "181032.620000", "181033.080000", "181033.540000", "181034.000000", "181034.460000", "181034.920000", "181035.380000", "181035.840000", "181036.300000", "181036.760000", "181037.220000", "181037.680000", "181038.140000", "181038.600000", "181039.060000", "181039.520000", "181039.980000", "181040.440000", "181040.900000", "181041.360000", "181041.820000", "181042.280000", "181042.740000", "181043.200000", "181043.660000", "181044.120000", "181044.580000", "181045.040000", "181045.500000", "181045.960000", "181046.420000", "181046.880000", "181047.340000", "181047.800000", "181048.260000", "181048.720000", "181049.180000", "181049.640000", "181050.100000", "181050.560000", "181051.020000", "181051.480000", "181051.940000", "181052.400000", "181052.860000", "181053.320000", "181053.780000"],
