{
  "AcquisitionMatrixPE": 82,
  "AcquisitionNumber": 1,
  "AcquisitionTime": "17:55:48.120000",
  "BandwidthPerPixelPhaseEncode": 24.888,
  "BaseResolution": 82,
  "BodyPartExamined": "BRAIN",
  "ConsistencyInfo": "N4_VE11E_LATEST_20181129",
  "ConversionSoftware": "dcm2niix",
  "ConversionSoftwareVersion": "v1.0.20201102",
  "DerivedVendorReportedEchoSpacing": 0.00049,
  "DeviceSerialNumber": "66112",
  "DwellTime": 2e-06,
  "EchoTime": 0.0272,
  "EchoTrainLength": 82,
  "EffectiveEchoSpacing": 0.00049,
  "FlipAngle": 44,
  "ImageComments": "Unaliased MB8/PE3",
  "ImageOrientationPatientDICOM": [0.991789, -0.127781, -0.00522868, 0.126875, 0.977974, 0.165739],
  "ImageType": [
    "ORIGINAL",
    "PRIMARY",
    "M",
    "MB",
    "ND",
    "NORM",
    "MOSAIC"
],
  "ImagingFrequency": 123.252,
  "InPlanePhaseEncodingDirectionDICOM": "COL",
  "InstitutionAddress": "Maynard 3,Hanover,NH,US,03755",
  "InstitutionName": "Dartmouth College - PBS",
  "InstitutionalDepartmentName": "Department",
  "MRAcquisitionType": "2D",
  "MagneticFieldStrength": 3,
  "Manufacturer": "Siemens",
  "ManufacturersModelName": "Prisma",
  "Modality": "MR",
  "MultibandAccelerationFactor": 8,
  "PartialFourier": 1,
  "PatientPosition": "HFS",
  "PercentPhaseFOV": 100,
  "PercentSampling": 100,
  "PhaseEncodingDirection": "j-",
  "PhaseEncodingSteps": 82,
  "PhaseResolution": 1,
  "PixelBandwidth": 3050,
  "ProcedureStepDescription": "Wager_Wager^1076_spacetop",
  "ProtocolName": "func_run-04_task-social_acq-ap-mb8",
  "PulseSequenceDetails": "%CustomerSeq%\\cmrr_mbep2d_bold",
  "ReceiveCoilActiveElements": "HEA;HEP",
  "ReceiveCoilName": "Head_32",
  "ReconMatrixPE": 82,
  "RepetitionTime": 0.46,
  "SAR": 0.0903396,
  "ScanOptions": "FS",
  "ScanningSequence": "EP",
  "SequenceName": "epfid2d1_82",
  "SequenceVariant": "SK\\SS",
  "SeriesDescription": "func_run-04_task-social_acq-ap-mb8",
  "SeriesNumber": 18,
  "ShimSetting": [4150, -7762, -7254, 623, -9, -193, 40, 95],
  "SliceThickness": 2.7,
  "SliceTiming": [0, 0.2525, 0.0625, 0.315, 0.125, 0.3775, 0.19, 0, 0.2525, 0.0625, 0.315, 0.125, 0.3775, 0.19, 0, 0.2525, 0.0625, 0.315, 0.125, 0.3775, 0.19, 0, 0.2525, 0.0625, 0.315, 0.125, 0.3775, 0.19, 0, 0.2525, 0.0625, 0.315, 0.125, 0.3775, 0.19, 0, 0.2525, 0.0625, 0.315, 0.125, 0.3775, 0.19, 0, 0.2525, 0.0625, 0.315, 0.125, 0.3775, 0.19, 0, 0.2525, 0.0625, 0.315, 0.125, 0.3775, 0.19],
  "SoftwareVersions": "syngo MR E11",
  "SpacingBetweenSlices": 2.7,
  "StationName": "AWP66112",
  "TaskName": "social",
  "TotalReadoutTime": 0.03969,
  "TxRefAmp": 238.78,
  "WipMemBlock": "a8bd2f0e-28b6-4b91-b411-690e12ae3e44||Sequence: R016 ve11e/master r/434b28f1; Aug  7 2019 18:53:46 by eja",
  "dcmmeta_affine": [
    [-2.6608963012695312, 0.3403964936733246, 0.04337506368756294, 95.29408264160156],
    [0.3428274393081665, 2.623832941055298, 0.44561266899108887, -113.39225769042969],
    [-0.014028175733983517, -0.44466638565063477, 2.6626205444335938, -45.355628967285156],
    [0.0, 0.0, 0.0, 1.0]
],
  "dcmmeta_reorient_transform": [
    [0.0, -1.0, 0.0, 81.0],
    [1.0, 0.0, 0.0, 0.0],
    [0.0, 0.0, 1.0, 0.0],
    [0.0, 0.0, 0.0, 1.0]
],
  "dcmmeta_shape": [82, 82, 56, 872],
  "dcmmeta_slice_dim": 2,
  "dcmmeta_version": 0.6,
  "global": {
    "const": {
      "AccessionNumber": "A003879",
      "AcquisitionMatrix": [82, 0, 0, 82],
      "AngioFlag": "N",
      "BitsAllocated": 16,
      "BitsStored": 16,
      "BodyPartExamined": "BRAIN",
      "Columns": 656,
      "EchoNumbers": 1,
      "EchoTime": 27.2,
      "EchoTrainLength": 82,
      "FlipAngle": 44.0,
      "HighBit": 15,
      "ImageOrientationPatient": [0.99178860749611, -0.1277811367443, -0.0052286837028, 0.12687505279851, 0.97797403280567, 0.16573928965455],
      "ImagePositionPatient": [-984.2372405034, -753.78674930863, -204.96677816406],
      "ImageType": [
        "ORIGINAL",
        "PRIMARY",
        "M",
        "MB",
        "ND",
        "NORM",
        "MOSAIC"
],
      "ImagedNucleus": "1H",
      "ImagingFrequency": 123.252203,
      "InPlanePhaseEncodingDirection": "COL",
      "MRAcquisitionType": "2D",
      "MagneticFieldStrength": 3.0,
      "Manufacturer": "SIEMENS",
      "ManufacturerModelName": "Prisma",
      "Modality": "MR",
      "NumberOfAverages": 1.0,
      "NumberOfPhaseEncodingSteps": 82,
      "PercentPhaseFieldOfView": 100.0,
      "PercentSampling": 100.0,
      "PerformedProcedureStepStartTime": "170614.904000",
      "PhotometricInterpretation": "MONOCHROME2",
      "PixelBandwidth": 3050.0,
      "PixelRepresentation": 0,
      "PixelSpacing": [2.6829268932343, 2.6829268932343],
      "ProtocolName": "func_run-04_task-social_acq-ap-mb8",
      "RepetitionTime": 460.0,
      "Rows": 656,
      "SAR": 0.09033961089673,
      "SamplesPerPixel": 1,
      "ScanOptions": "FS",
      "ScanningSequence": "EP",
      "SequenceName": "epfid2d1_82",
      "SequenceVariant": [
        "SK",
        "SS"
],
      "SeriesDescription": "func_run-04_task-social_acq-ap-mb8",
      "SeriesNumber": 18,
      "SeriesTime": "175610.705000",
      "SliceLocation": -61.911285301033,
      "SliceThickness": 2.7000000476837,
      "SmallestImagePixelValue": 0,
      "SoftwareVersions": "syngo MR E11",
      "SpacingBetweenSlices": 2.6999999686357,
      "SpecificCharacterSet": "ISO_IR 100",
      "StudyID": "1",
      "StudyTime": "170614.788000",
      "TransmitCoilName": "Body",
      "VariableFlipAngleFlag": "N",
      "WindowCenterWidthExplanation": "Algo1"
    },
    "slices": {}
  },
  "time": {
    "samples": {
      "AcquisitionNumber": [1, 2, 3, 4, 5, 6, 7, 8, 9, 10, 11, 12, 13, 14, 15, 16, 17, 18, 19, 20, 21, 22, 23, 24, 25, 26, 27, 28, 29, 30, 31, 32, 33, 34, 35, 36, 37, 38, 39, 40, 41, 42, 43, 44, 45, 46, 47, 48, 49, 50, 51, 52, 53, 54, 55, 56, 57, 58, 59, 60, 61, 62, 63, 64, 65, 66, 67, 68, 69, 70, 71, 72, 73, 74, 75, 76, 77, 78, 79, 80, 81, 82, 83, 84, 85, 86, 87, 88, 89, 90, 91, 92, 93, 94, 95, 96, 97, 98, 99, 100, 101, 102, 103, 104, 105, 106, 107, 108, 109, 110, 111, 112, 113, 114, 115, 116, 117, 118, 119, 120, 121, 122, 123, 124, 125, 126, 127, 128, 129, 130, 131, 132, 133, 134, 135, 136, 137, 138, 139, 140, 141, 142, 143, 144, 145, 146, 147, 148, 149, 150, 151, 152, 153, 154, 155, 156, 157, 158, 159, 160, 161, 162, 163, 164, 165, 166, 167, 168, 169, 170, 171, 172, 173, 174, 175, 176, 177, 178, 179, 180, 181, 182, 183, 184, 185, 186, 187, 188, 189, 190, 191, 192, 193, 194, 195, 196, 197, 198, 199, 200, 201, 202, 203, 204, 205, 206, 207, 208, 209, 210, 211, 212, 213, 214, 215, 216, 217, 218, 219, 220, 221, 222, 223, 224, 225, 226, 227, 228, 229, 230, 231, 232, 233, 234, 235, 236, 237, 238, 239, 240, 241, 242, 243, 244, 245, 246, 247, 248, 249, 250, 251, 252, 253, 254, 255, 256, 257, 258, 259, 260, 261, 262, 263, 264, 265, 266, 267, 268, 269, 270, 271, 272, 273, 274, 275, 276, 277, 278, 279, 280, 281, 282, 283, 284, 285, 286, 287, 288, 289, 290, 291, 292, 293, 294, 295, 296, 297, 298, 299, 300, 301, 302, 303, 304, 305, 306, 307, 308, 309, 310, 311, 312, 313, 314, 315, 316, 317, 318, 319, 320, 321, 322, 323, 324, 325, 326, 327, 328, 329, 330, 331, 332, 333, 334, 335, 336, 337, 338, 339, 340, 341, 342, 343, 344, 345, 346, 347, 348, 349, 350, 351, 352, 353, 354, 355, 356, 357, 358, 359, 360, 361, 362, 363, 364, 365, 366, 367, 368, 369, 370, 371, 372, 373, 374, 375, 376, 377, 378, 379, 380, 381, 382, 383, 384, 385, 386, 387, 388, 389, 390, 391, 392, 393, 394, 395, 396, 397, 398, 399, 400, 401, 402, 403, 404, 405, 406, 407, 408, 409, 410, 411, 412, 413, 414, 415, 416, 417, 418, 419, 420, 421, 422, 423, 424, 425, 426, 427, 428, 429, 430, 431, 432, 433, 434, 435, 436, 437, 438, 439, 440, 441, 442, 443, 444, 445, 446, 447, 448, 449, 450, 451, 452, 453, 454, 455, 456, 457, 458, 459, 460, 461, 462, 463, 464, 465, 466, 467, 468, 469, 470, 471, 472, 473, 474, 475, 476, 477, 478, 479, 480, 481, 482, 483, 484, 485, 486, 487, 488, 489, 490, 491, 492, 493, 494, 495, 496, 497, 498, 499, 500, 501, 502, 503, 504, 505, 506, 507, 508, 509, 510, 511, 512, 513, 514, 515, 516, 517, 518, 519, 520, 521, 522, 523, 524, 525, 526, 527, 528, 529, 530, 531, 532, 533, 534, 535, 536, 537, 538, 539, 540, 541, 542, 543, 544, 545, 546, 547, 548, 549, 550, 551, 552, 553, 554, 555, 556, 557, 558, 559, 560, 561, 562, 563, 564, 565, 566, 567, 568, 569, 570, 571, 572, 573, 574, 575, 576, 577, 578, 579, 580, 581, 582, 583, 584, 585, 586, 587, 588, 589, 590, 591, 592, 593, 594, 595, 596, 597, 598, 599, 600, 601, 602, 603, 604, 605, 606, 607, 608, 609, 610, 611, 612, 613, 614, 615, 616, 617, 618, 619, 620, 621, 622, 623, 624, 625, 626, 627, 628, 629, 630, 631, 632, 633, 634, 635, 636, 637, 638, 639, 640, 641, 642, 643, 644, 645, 646, 647, 648, 649, 650, 651, 652, 653, 654, 655, 656, 657, 658, 659, 660, 661, 662, 663, 664, 665, 666, 667, 668, 669, 670, 671, 672, 673, 674, 675, 676, 677, 678, 679, 680, 681, 682, 683, 684, 685, 686, 687, 688, 689, 690, 691, 692, 693, 694, 695, 696, 697, 698, 699, 700, 701, 702, 703, 704, 705, 706, 707, 708, 709, 710, 711, 712, 713, 714, 715, 716, 717, 718, 719, 720, 721, 722, 723, 724, 725, 726, 727, 728, 729, 730, 731, 732, 733, 734, 735, 736, 737, 738, 739, 740, 741, 742, 743, 744, 745, 746, 747, 748, 749, 750, 751, 752, 753, 754, 755, 756, 757, 758, 759, 760, 761, 762, 763, 764, 765, 766, 767, 768, 769, 770, 771, 772, 773, 774, 775, 776, 777, 778, 779, 780, 781, 782, 783, 784, 785, 786, 787, 788, 789, 790, 791, 792, 793, 794, 795, 796, 797, 798, 799, 800, 801, 802, 803, 804, 805, 806, 807, 808, 809, 810, 811, 812, 813, 814, 815, 816, 817, 818, 819, 820, 821, 822, 823, 824, 825, 826, 827, 828, 829, 830, 831, 832, 833, 834, 835, 836, 837, 838, 839, 840, 841, 842, 843, 844, 845, 846, 847, 848, 849, 850, 851, 852, 853, 854, 855, 856, 857, 858, 859, 860, 861, 862, 863, 864, 865, 866, 867, 868, 869, 870, 871, 872],
      "AcquisitionTime": ["175548.120000", "175548.580000", "175549.040000", "175549.500000", "175549.960000", "175550.420000", "175550.880000", "175551.340000", "175551.800000", "175552.260000", "175552.720000", "175553.180000", "175553.640000", "175554.100000", "175554.560000", "175555.020000", "175555.480000", "175555.940000", "175556.400000", "175556.860000", "175557.320000", "175557.780000", "175558.240000", "175558.700000", "175559.160000", "175559.620000", "175600.080000", "175600.540000", "175601.000000", "175601.460000", "175601.920000", "175602.380000", "175602.840000", "175603.300000", "175603.760000", "175604.220000", "175604.680000", "175605.140000", "175605.600000", "175606.060000", "175606.520000", "175606.980000", "175607.440000", "175607.900000", "175608.360000", "175608.820000", "175609.280000", "175609.740000", "175610.200000", "175610.660000", "175611.120000", "175611.580000", "175612.040000", "175612.500000", "175612.960000", "175613.420000", "175613.880000", "175614.340000", "175614.800000", "175615.260000", "175615.720000", "175616.180000", "175616.640000", "175617.100000", "175617.560000", "175618.020000", "175618.480000", "175618.940000", "175619.400000", "175619.860000", "175620.320000", "175620.780000", "175621.240000", "175621.700000", "175622.160000", "175622.620000", "175623.080000", "175623.540000", "175624.000000", "175624.460000", "175624.920000", "175625.380000", "175625.840000", "175626.300000", "175626.760000", "175627.220000", "175627.680000", "175628.140000", "175628.600000", "175629.060000", "175629.520000", "175629.980000", "175630.440000", "175630.900000", "175631.360000", "175631.820000", "175632.280000", "175632.740000", "175633.200000", "175633.660000", "175634.120000", "175634.580000", "175635.040000", "175635.500000", "175635.960000", "175636.420000", "175636.880000", "175637.340000", "175637.800000", "175638.260000", "175638.720000", "175639.180000", "175639.640000", "175640.100000", "175640.560000", "175641.020000", "175641.480000", "175641.940000", "175642.400000", "175642.860000", "175643.320000", "175643.780000", "175644.240000", "175644.700000", "175645.160000", "175645.620000", "175646.080000", "175646.540000", "175647.000000", "175647.460000", "175647.920000", "175648.380000", "175648.840000", "175649.300000", "175649.760000", "175650.220000", "175650.680000", "175651.140000", "175651.600000", "175652.060000", "175652.520000", "175652.980000", "175653.440000", "175653.900000", "175654.360000", "175654.820000", "175655.280000", "175655.740000", "175656.200000", "175656.660000", "175657.120000", "175657.580000", "175658.040000", "175658.500000", "175658.960000", "175659.420000", "175659.880000", "175700.340000", "175700.800000", "175701.260000", "175701.720000", "175702.180000", "175702.640000", "175703.100000", "175703.560000", "175704.020000", "175704.480000", "175704.940000", "175705.400000", "175705.860000", "175706.320000", "175706.780000", "175707.240000", "175707.700000", "175708.160000", "175708.620000", "175709.080000", "175709.540000", "175710.000000", "175710.460000", "175710.920000", "175711.380000", "175711.840000", "175712.300000", "175712.760000", "175713.220000", "175713.680000", "175714.140000", "175714.600000", "175715.060000", "175715.520000", "175715.980000", "175716.440000", "175716.900000", "175717.360000", "175717.820000", "175718.280000", "175718.740000", "175719.200000", "175719.660000", "175720.120000", "175720.580000", "175721.040000", "175721.500000", "175721.960000", "175722.420000", "175722.880000", "175723.340000", "175723.800000", "175724.260000", "175724.720000", "175725.180000", "175725.640000", "175726.100000", "175726.560000", "175727.020000", "175727.480000", "175727.940000", "175728.400000", "175728.860000", "175729.320000", "175729.780000", "175730.240000", "175730.700000", "175731.160000", "175731.620000", "175732.080000", "175732.540000", "175733.000000", "175733.460000", "175733.920000", "175734.380000", "175734.840000", "175735.300000", "175735.760000", "175736.220000", "175736.680000", "175737.140000", "175737.600000", "175738.060000", "175738.520000", "175738.980000", "175739.440000", "175739.900000", "175740.360000", "175740.820000", "175741.280000", "175741.740000", "175742.200000", "175742.660000", "175743.120000", "175743.580000", "175744.040000", "175744.500000", "175744.960000", "175745.420000", "175745.880000", "175746.340000", "175746.800000", "175747.260000", "175747.720000", "175748.180000", "175748.640000", "175749.100000", "175749.560000", "175750.020000", "175750.480000", "175750.940000", "175751.400000", "175751.860000", "175752.320000", "175752.780000", "175753.240000", "175753.700000", "175754.160000", "175754.620000", "175755.080000", "175755.540000", "175756.000000", "175756.460000", "175756.920000", "175757.380000", "175757.840000", "175758.300000", "175758.760000", "175759.220000", "175759.680000", "175800.140000", "175800.600000", "175801.060000", "175801.520000", "175801.980000", "175802.440000", "175802.900000", "175803.360000", "175803.820000", "175804.280000", "175804.740000", "175805.200000", "175805.660000", "175806.120000", "175806.580000", "175807.040000", "175807.500000", "175807.960000", "175808.420000", "175808.880000", "175809.340000", "175809.800000", "175810.260000", "175810.720000", "175811.180000", "175811.640000", "175812.100000", "175812.560000", "175813.020000", "175813.480000", "175813.940000", "175814.400000", "175814.860000", "175815.320000", "175815.780000", "175816.240000", "175816.700000", "175817.160000", "175817.620000", "175818.080000", "175818.540000", "175819.000000", "175819.460000", "175819.920000", "175820.380000", "175820.840000", "175821.300000", "175821.760000", "175822.220000", "175822.680000", "175823.140000", "175823.600000", "175824.060000", "175824.520000", "175824.980000", "175825.440000", "175825.900000", "175826.360000", "175826.820000", "175827.280000", "175827.740000", "175828.200000", "175828.660000", "175829.120000", "175829.580000", "175830.040000", "175830.500000", "175830.960000", "175831.420000", "175831.880000", "175832.340000", "175832.800000", "175833.260000", "175833.720000", "175834.180000", "175834.640000", "175835.100000", "175835.560000", "175836.020000", "175836.480000", "175836.940000", "175837.400000", "175837.860000", "175838.320000", "175838.780000", "175839.240000", "175839.700000", "175840.160000", "175840.620000", "175841.080000", "175841.540000", "175842.000000", "175842.460000", "175842.920000", "175843.380000", "175843.840000", "175844.300000", "175844.760000", "175845.220000", "175845.680000", "175846.140000", "175846.600000", "175847.060000", "175847.520000", "175847.980000", "175848.440000", "175848.900000", "175849.360000", "175849.820000", "175850.280000", "175850.740000", "175851.200000", "175851.660000", "175852.120000", "175852.580000", "175853.040000", "175853.500000", "175853.960000", "175854.420000", "175854.880000", "175855.340000", "175855.800000", "175856.260000", "175856.720000", "175857.180000", "175857.640000", "175858.100000", "175858.560000", "175859.020000", "175859.480000", "175859.940000", "175900.400000", "175900.860000", "175901.320000", "175901.780000", "175902.240000", "175902.700000", "175903.160000", "175903.620000", "175904.080000", "175904.540000", "175905.000000", "175905.460000", "175905.920000", "175906.380000", "175906.840000", "175907.300000", "175907.760000", "175908.220000", "175908.680000", "175909.140000", "175909.600000", "175910.060000", "175910.520000", "175910.980000", "175911.440000", "175911.900000", "175912.360000", "175912.820000", "175913.280000", "175913.740000", "175914.200000", "175914.660000", "175915.120000", "175915.580000", "175916.040000", "175916.500000", "175916.960000", "175917.420000", "175917.880000", "175918.340000", "175918.800000", "175919.260000", "175919.720000", "175920.180000", "175920.640000", "175921.100000", "175921.560000", "175922.020000", "175922.480000", "175922.940000", "175923.400000", "175923.860000", "175924.320000", "175924.780000", "175925.240000", "175925.700000", "175926.160000", "175926.620000", "175927.080000", "175927.540000", "175928.000000", "175928.460000", "175928.920000", "175929.380000", "175929.840000", "175930.300000", "175930.760000", "175931.220000", "175931.680000", "175932.140000", "175932.600000", "175933.060000", "175933.520000", "175933.980000", "175934.440000", "175934.900000", "175935.360000", "175935.820000", "175936.280000", "175936.740000", "175937.200000", "175937.660000", "175938.120000", "175938.580000", "175939.040000", "175939.500000", "175939.960000", "175940.420000", "175940.880000", "175941.340000", "175941.800000", "175942.260000", "175942.720000", "175943.180000", "175943.640000", "175944.100000", "175944.560000", "175945.020000", "175945.480000", "175945.940000", "175946.400000", "175946.860000", "175947.320000", "175947.780000", "175948.240000", "175948.700000", "175949.160000", "175949.620000", "175950.080000", "175950.540000", "175951.000000", "175951.460000", "175951.920000", "175952.380000", "175952.840000", "175953.300000", "175953.760000", "175954.220000", "175954.680000", "175955.140000", "175955.600000", "175956.060000", "175956.520000", "175956.980000", "175957.440000", "175957.900000", "175958.360000", "175958.820000", "175959.280000", "175959.740000", "180000.200000", "180000.660000", "180001.120000", "180001.580000", "180002.040000", "180002.500000", "180002.960000", "180003.420000", "180003.880000", "180004.340000", "180004.800000", "180005.260000", "180005.720000", "180006.180000", "180006.640000", "180007.100000", "180007.560000", "180008.020000", "180008.480000", "180008.940000", "180009.400000", "180009.860000", "180010.320000", "180010.780000", "180011.240000", "180011.700000", "180012.160000", "180012.620000", "180013.080000", "180013.540000", "180014.000000", "180014.460000", "180014.920000", "180015.380000", "180015.840000", "180016.300000", "180016.760000", "180017.220000", "180017.680000", "180018.140000", "180018.600000", "180019.060000", "180019.520000", "180019.980000", "180020.440000", "180020.900000", "180021.360000", "180021.820000", "180022.280000", "180022.740000", "180023.200000", "180023.660000", "180024.120000", "180024.580000", "180025.040000", "180025.500000", "180025.960000", "180026.420000", "180026.880000", "180027.340000", "180027.800000", "180028.260000", "180028.720000", "180029.180000", "180029.640000", "180030.100000", "180030.560000", "180031.020000", "180031.480000", "180031.940000", "180032.400000", "180032.860000", "180033.320000", "180033.780000", "180034.240000", "180034.700000", "180035.160000", "180035.620000", "180036.080000", "180036.540000", "180037.000000", "180037.460000", "180037.920000", "180038.380000", "180038.840000", "180039.300000", "180039.760000", "180040.220000", "180040.680000", "180041.140000", "180041.600000", "180042.060000", "180042.520000", "180042.980000", "180043.440000", "180043.900000", "180044.360000", "180044.820000", "180045.280000", "180045.740000", "180046.200000", "180046.660000", "180047.120000", "180047.580000", "180048.040000", "180048.500000", "180048.960000", "180049.420000", "180049.880000", "180050.340000", "180050.800000", "180051.260000", "180051.720000", "180052.180000", "180052.640000", "180053.100000", "180053.560000", "180054.020000", "180054.480000", "180054.940000", "180055.400000", "180055.860000", "180056.320000", "180056.780000", "180057.240000", "180057.700000", "180058.160000", "180058.620000", "180059.080000", "180059.540000", "180100.000000", "180100.460000", "180100.920000", "180101.380000", "180101.840000", "180102.300000", "180102.760000", "180103.220000", "180103.680000", "180104.140000", "180104.600000", "180105.060000", "180105.520000", "180105.980000", "180106.440000", "180106.900000", "180107.360000", "180107.820000", "180108.280000", "180108.740000", "180109.200000", "180109.660000", "180110.120000", "180110.580000", "180111.040000", "180111.500000", "180111.960000", "180112.420000", "180112.880000", "180113.340000", "180113.800000", "180114.260000", "180114.720000", "180115.180000", "180115.640000", "180116.100000", "180116.560000", "180117.020000", "180117.480000", "180117.940000", "180118.400000", "180118.860000", "180119.320000", "180119.780000", "180120.240000", "180120.700000", "180121.160000", "180121.620000", "180122.080000", "180122.540000", "180123.000000", "180123.460000", "180123.920000", "180124.380000", "180124.840000", "180125.300000", "180125.760000", "180126.220000", "180126.680000", "180127.140000", "180127.600000", "180128.060000", "180128.520000", "180128.980000", "180129.440000", "180129.900000", "180130.360000", "180130.820000", "180131.280000", "180131.740000", "180132.200000", "180132.660000", "180133.120000", "180133.580000", "180134.040000", "180134.500000", "180134.960000", "180135.420000", "180135.880000", "180136.340000", "180136.800000", "180137.260000", "180137.720000", "180138.180000", "180138.640000", "180139.100000", "180139.560000", "180140.020000", "180140.480000", "180140.940000", "180141.400000", "180141.860000", "180142.320000", "180142.780000", "180143.240000", "180143.700000", "180144.160000", "180144.620000", "180145.080000", "180145.540000", "180146.000000", "180146.460000", "180146.920000", "180147.380000", "180147.840000", "180148.300000", "180148.760000", "180149.220000", "180149.680000", "180150.140000", "180150.600000", "180151.060000", "180151.520000", "180151.980000", "180152.440000", "180152.900000", "180153.360000", "180153.820000", "180154.280000", "180154.740000", "180155.200000", "180155.660000", "180156.120000", "180156.580000", "180157.040000", "180157.500000", "180157.960000", "180158.420000", "180158.880000", "180159.340000", "180159.800000", "180200.260000", "180200.720000", "180201.180000", "180201.640000", "180202.100000", "180202.560000", "180203.020000", "180203.480000", "180203.940000", "180204.400000", "180204.860000", "180205.320000", "180205.780000", "180206.240000", "180206.700000", "180207.160000", "180207.620000", "180208.080000", "180208.540000", "180209.000000", "180209.460000", "180209.920000", "180210.380000", "180210.840000", "180211.300000", "180211.760000", "180212.220000", "180212.680000", "180213.140000", "180213.600000", "180214.060000", "180214.520000", "180214.980000", "180215.440000", "180215.900000", "180216.360000", "180216.820000", "180217.280000", "180217.740000", "180218.200000", "180218.660000", "180219.120000", "180219.580000", "180220.040000", "180220.500000", "180220.960000", "180221.420000", "180221.880000", "180222.340000", "180222.800000", "180223.260000", "180223.720000", "180224.180000", "180224.640000", "180225.100000", "180225.560000", "180226.020000", "180226.480000", "180226.940000", "180227.400000", "180227.860000", "180228.320000", "180228.780000"],
