{
  "AcquisitionMatrixPE": 82,
  "AcquisitionNumber": 1,
  "AcquisitionTime": "21:47:1.192500",
  "BandwidthPerPixelPhaseEncode": 24.888,
  "BaseResolution": 82,
  "BodyPartExamined": "BRAIN",
  "ConsistencyInfo": "N4_VE11E_LATEST_20181129",
  "ConversionSoftware": "dcm2niix",
  "ConversionSoftwareVersion": "v1.0.20201102",
  "DerivedVendorReportedEchoSpacing": 0.00049,
  "DeviceSerialNumber": "66112",
  "DwellTime": 2e-06,
  "EchoTime": 0.0272,
  "EchoTrainLength": 82,
  "EffectiveEchoSpacing": 0.00049,
  "FlipAngle": 44,
  "ImageComments": "Unaliased MB8/PE3",
  "ImageOrientationPatientDICOM": [0.999975, 0.00543707, -0.00451562, -0.0054104, 0.999968, 0.00589661],
  "ImageType": [
    "ORIGINAL",
    "PRIMARY",
    "M",
    "MB",
    "ND",
    "NORM",
    "MOSAIC"
],
  "ImagingFrequency": 123.259,
  "InPlanePhaseEncodingDirectionDICOM": "COL",
  "InstitutionAddress": "Maynard 3,Hanover,NH,US,03755",
  "InstitutionName": "Dartmouth College - PBS",
  "InstitutionalDepartmentName": "Department",
  "MRAcquisitionType": "2D",
  "MagneticFieldStrength": 3,
  "Manufacturer": "Siemens",
  "ManufacturersModelName": "Prisma",
  "Modality": "MR",
  "MultibandAccelerationFactor": 8,
  "PartialFourier": 1,
  "PatientPosition": "HFS",
  "PercentPhaseFOV": 100,
  "PercentSampling": 100,
  "PhaseEncodingDirection": "j-",
  "PhaseEncodingSteps": 82,
  "PhaseResolution": 1,
  "PixelBandwidth": 3050,
  "ProcedureStepDescription": "Wager_Wager^1076_spacetop",
  "ProtocolName": "func_run-03_task-faces_acq-ap-mb8",
  "PulseSequenceDetails": "%CustomerSeq%\\cmrr_mbep2d_bold",
  "ReceiveCoilActiveElements": "HEA;HEP",
  "ReceiveCoilName": "Head_32",
  "ReconMatrixPE": 82,
  "RepetitionTime": 0.46,
  "SAR": 0.104167,
  "ScanOptions": "FS",
  "ScanningSequence": "EP",
  "SequenceName": "epfid2d1_82",
  "SequenceVariant": "SK\\SS",
  "SeriesDescription": "func_run-03_task-faces_acq-ap-mb8",
  "SeriesNumber": 20,
  "ShimSetting": [4208, -7787, -7233, 186, -130, -90, -27, 79],
  "SliceThickness": 2.7,
  "SliceTiming": [0, 0.2525, 0.0625, 0.315, 0.125, 0.3775, 0.19, 0, 0.2525, 0.0625, 0.315, 0.125, 0.3775, 0.19, 0, 0.2525, 0.0625, 0.315, 0.125, 0.3775, 0.19, 0, 0.2525, 0.0625, 0.315, 0.125, 0.3775, 0.19, 0, 0.2525, 0.0625, 0.315, 0.125, 0.3775, 0.19, 0, 0.2525, 0.0625, 0.315, 0.125, 0.3775, 0.19, 0, 0.2525, 0.0625, 0.315, 0.125, 0.3775, 0.19, 0, 0.2525, 0.0625, 0.315, 0.125, 0.3775, 0.19],
  "SoftwareVersions": "syngo MR E11",
  "SpacingBetweenSlices": 2.7,
  "StationName": "AWP66112",
  "TaskName": "faces",
  "TotalReadoutTime": 0.03969,
  "TxRefAmp": 278.058,
  "WipMemBlock": "4a9f1a5b-f834-4c66-9429-33b58d8b243e||Sequence: R016 ve11e/master r/434b28f1; Aug  7 2019 18:53:46 by eja",
  "dcmmeta_affine": [
    [-2.6828598976135254, -0.014515716582536697, -0.01227834913879633, 114.07929229736328],
    [-0.01458725892007351, 2.6828410625457764, 0.0158544834703207, -95.64904022216797],
    [-0.01211508084088564, -0.015820171684026718, 2.699925661087036, -72.71834564208984],
    [0.0, 0.0, 0.0, 1.0]
],
  "dcmmeta_reorient_transform": [
    [0.0, -1.0, 0.0, 81.0],
    [1.0, 0.0, 0.0, 0.0],
    [0.0, 0.0, 1.0, 0.0],
    [0.0, 0.0, 0.0, 1.0]
],
  "dcmmeta_shape": [82, 82, 56, 914],
  "dcmmeta_slice_dim": 2,
  "dcmmeta_version": 0.6,
  "global": {
    "const": {
      "AccessionNumber": "A004929",
      "AcquisitionMatrix": [82, 0, 0, 82],
      "AngioFlag": "N",
      "BitsAllocated": 16,
      "BitsStored": 16,
      "BodyPartExamined": "BRAIN",
      "Columns": 656,
      "EchoNumbers": 1,
      "EchoTime": 27.2,
      "EchoTrainLength": 82,
      "FlipAngle": 44.0,
      "HighBit": 15,
      "ImageOrientationPatient": [0.99997502341238, 0.00543706910841, -0.0045156207684, -0.0054104032864, 0.9999679782554, 0.00589660920333],
      "ImagePositionPatient": [-878.71829157834, -895.82298441898, -75.063139724743],
      "ImageType": [
        "ORIGINAL",
        "PRIMARY",
        "M",
        "MB",
        "ND",
        "NORM",
        "MOSAIC"
],
      "ImagedNucleus": "1H",
      "ImagingFrequency": 123.259043,
      "InPlanePhaseEncodingDirection": "COL",
      "MRAcquisitionType": "2D",
      "MagneticFieldStrength": 3.0,
      "Manufacturer": "SIEMENS",
      "ManufacturerModelName": "Prisma",
      "Modality": "MR",
      "NumberOfAverages": 1.0,
      "NumberOfPhaseEncodingSteps": 82,
      "PercentPhaseFieldOfView": 100.0,
      "PercentSampling": 100.0,
      "PerformedProcedureStepStartTime": "204326.526000",
      "PhotometricInterpretation": "MONOCHROME2",
      "PixelBandwidth": 3050.0,
      "PixelRepresentation": 0,
      "PixelSpacing": [2.6829268932343, 2.6829268932343],
      "ProtocolName": "func_run-03_task-faces_acq-ap-mb8",
      "RepetitionTime": 460.0,
      "Rows": 656,
      "SAR": 0.10416688787957,
      "SamplesPerPixel": 1,
      "ScanOptions": "FS",
      "ScanningSequence": "EP",
      "SequenceName": "epfid2d1_82",
      "SequenceVariant": [
        "SK",
        "SS"
],
      "SeriesDescription": "func_run-03_task-faces_acq-ap-mb8",
      "SeriesNumber": 20,
      "SeriesTime": "214714.874000",
      "SliceLocation": -73.796772903166,
      "SliceThickness": 2.7000000476837,
      "SmallestImagePixelValue": 0,
      "SoftwareVersions": "syngo MR E11",
      "SpacingBetweenSlices": 2.7000001162655,
      "SpecificCharacterSet": "ISO_IR 100",
      "StudyID": "2",
      "StudyTime": "204326.478000",
      "TransmitCoilName": "Body",
      "VariableFlipAngleFlag": "N",
      "WindowCenterWidthExplanation": "Algo1"
    },
    "slices": {}
  },
  "time": {
    "samples": {
      "AcquisitionNumber": [1, 2, 3, 4, 5, 6, 7, 8, 9, 10, 11, 12, 13, 14, 15, 16, 17, 18, 19, 20, 21, 22, 23, 24, 25, 26, 27, 28, 29, 30, 31, 32, 33, 34, 35, 36, 37, 38, 39, 40, 41, 42, 43, 44, 45, 46, 47, 48, 49, 50, 51, 52, 53, 54, 55, 56, 57, 58, 59, 60, 61, 62, 63, 64, 65, 66, 67, 68, 69, 70, 71, 72, 73, 74, 75, 76, 77, 78, 79, 80, 81, 82, 83, 84, 85, 86, 87, 88, 89, 90, 91, 92, 93, 94, 95, 96, 97, 98, 99, 100, 101, 102, 103, 104, 105, 106, 107, 108, 109, 110, 111, 112, 113, 114, 115, 116, 117, 118, 119, 120, 121, 122, 123, 124, 125, 126, 127, 128, 129, 130, 131, 132, 133, 134, 135, 136, 137, 138, 139, 140, 141, 142, 143, 144, 145, 146, 147, 148, 149, 150, 151, 152, 153, 154, 155, 156, 157, 158, 159, 160, 161, 162, 163, 164, 165, 166, 167, 168, 169, 170, 171, 172, 173, 174, 175, 176, 177, 178, 179, 180, 181, 182, 183, 184, 185, 186, 187, 188, 189, 190, 191, 192, 193, 194, 195, 196, 197, 198, 199, 200, 201, 202, 203, 204, 205, 206, 207, 208, 209, 210, 211, 212, 213, 214, 215, 216, 217, 218, 219, 220, 221, 222, 223, 224, 225, 226, 227, 228, 229, 230, 231, 232, 233, 234, 235, 236, 237, 238, 239, 240, 241, 242, 243, 244, 245, 246, 247, 248, 249, 250, 251, 252, 253, 254, 255, 256, 257, 258, 259, 260, 261, 262, 263, 264, 265, 266, 267, 268, 269, 270, 271, 272, 273, 274, 275, 276, 277, 278, 279, 280, 281, 282, 283, 284, 285, 286, 287, 288, 289, 290, 291, 292, 293, 294, 295, 296, 297, 298, 299, 300, 301, 302, 303, 304, 305, 306, 307, 308, 309, 310, 311, 312, 313, 314, 315, 316, 317, 318, 319, 320, 321, 322, 323, 324, 325, 326, 327, 328, 329, 330, 331, 332, 333, 334, 335, 336, 337, 338, 339, 340, 341, 342, 343, 344, 345, 346, 347, 348, 349, 350, 351, 352, 353, 354, 355, 356, 357, 358, 359, 360, 361, 362, 363, 364, 365, 366, 367, 368, 369, 370, 371, 372, 373, 374, 375, 376, 377, 378, 379, 380, 381, 382, 383, 384, 385, 386, 387, 388, 389, 390, 391, 392, 393, 394, 395, 396, 397, 398, 399, 400, 401, 402, 403, 404, 405, 406, 407, 408, 409, 410, 411, 412, 413, 414, 415, 416, 417, 418, 419, 420, 421, 422, 423, 424, 425, 426, 427, 428, 429, 430, 431, 432, 433, 434, 435, 436, 437, 438, 439, 440, 441, 442, 443, 444, 445, 446, 447, 448, 449, 450, 451, 452, 453, 454, 455, 456, 457, 458, 459, 460, 461, 462, 463, 464, 465, 466, 467, 468, 469, 470, 471, 472, 473, 474, 475, 476, 477, 478, 479, 480, 481, 482, 483, 484, 485, 486, 487, 488, 489, 490, 491, 492, 493, 494, 495, 496, 497, 498, 499, 500, 501, 502, 503, 504, 505, 506, 507, 508, 509, 510, 511, 512, 513, 514, 515, 516, 517, 518, 519, 520, 521, 522, 523, 524, 525, 526, 527, 528, 529, 530, 531, 532, 533, 534, 535, 536, 537, 538, 539, 540, 541, 542, 543, 544, 545, 546, 547, 548, 549, 550, 551, 552, 553, 554, 555, 556, 557, 558, 559, 560, 561, 562, 563, 564, 565, 566, 567, 568, 569, 570, 571, 572, 573, 574, 575, 576, 577, 578, 579, 580, 581, 582, 583, 584, 585, 586, 587, 588, 589, 590, 591, 592, 593, 594, 595, 596, 597, 598, 599, 600, 601, 602, 603, 604, 605, 606, 607, 608, 609, 610, 611, 612, 613, 614, 615, 616, 617, 618, 619, 620, 621, 622, 623, 624, 625, 626, 627, 628, 629, 630, 631, 632, 633, 634, 635, 636, 637, 638, 639, 640, 641, 642, 643, 644, 645, 646, 647, 648, 649, 650, 651, 652, 653, 654, 655, 656, 657, 658, 659, 660, 661, 662, 663, 664, 665, 666, 667, 668, 669, 670, 671, 672, 673, 674, 675, 676, 677, 678, 679, 680, 681, 682, 683, 684, 685, 686, 687, 688, 689, 690, 691, 692, 693, 694, 695, 696, 697, 698, 699, 700, 701, 702, 703, 704, 705, 706, 707, 708, 709, 710, 711, 712, 713, 714, 715, 716, 717, 718, 719, 720, 721, 722, 723, 724, 725, 726, 727, 728, 729, 730, 731, 732, 733, 734, 735, 736, 737, 738, 739, 740, 741, 742, 743, 744, 745, 746, 747, 748, 749, 750, 751, 752, 753, 754, 755, 756, 757, 758, 759, 760, 761, 762, 763, 764, 765, 766, 767, 768, 769, 770, 771, 772, 773, 774, 775, 776, 777, 778, 779, 780, 781, 782, 783, 784, 785, 786, 787, 788, 789, 790, 791, 792, 793, 794, 795, 796, 797, 798, 799, 800, 801, 802, 803, 804, 805, 806, 807, 808, 809, 810, 811, 812, 813, 814, 815, 816, 817, 818, 819, 820, 821, 822, 823, 824, 825, 826, 827, 828, 829, 830, 831, 832, 833, 834, 835, 836, 837, 838, 839, 840, 841, 842, 843, 844, 845, 846, 847, 848, 849, 850, 851, 852, 853, 854, 855, 856, 857, 858, 859, 860, 861, 862, 863, 864, 865, 866, 867, 868, 869, 870, 871, 872, 873, 874, 875, 876, 877, 878, 879, 880, 881, 882, 883, 884, 885, 886, 887, 888, 889, 890, 891, 892, 893, 894, 895, 896, 897, 898, 899, 900, 901, 902, 903, 904, 905, 906, 907, 908, 909, 910, 911, 912, 913, 914],
      "AcquisitionTime": ["214701.192500", "214701.652500", "214702.112500", "214702.572500", "214703.032500", "214703.492500", "214703.952500", "214704.412500", "214704.872500", "214705.332500", "214705.792500", "214706.252500", "214706.712500", "214707.172500", "214707.632500", "214708.092500", "214708.552500", "214709.012500", "214709.472500", "214709.932500", "214710.392500", "214710.852500", "214711.312500", "214711.772500", "214712.232500", "214712.692500", "214713.152500", "214713.612500", "214714.072500", "214714.532500", "214714.992500", "214715.452500", "214715.912500", "214716.372500", "214716.832500", "214717.292500", "214717.752500", "214718.212500", "214718.672500", "214719.132500", "214719.592500", "214720.052500", "214720.512500", "214720.972500", "214721.432500", "214721.892500", "214722.352500", "214722.812500", "214723.272500", "214723.732500", "214724.192500", "214724.652500", "214725.112500", "214725.572500", "214726.032500", "214726.492500", "214726.952500", "214727.412500", "214727.872500", "214728.332500", "214728.792500", "214729.252500", "214729.712500", "214730.172500", "214730.632500", "214731.092500", "214731.552500", "214732.012500", "214732.472500", "214732.932500", "214733.392500", "214733.852500", "214734.312500", "214734.772500", "214735.232500", "214735.692500", "214736.152500", "214736.612500", "214737.072500", "214737.532500", "214737.992500", "214738.452500", "214738.912500", "214739.372500", "214739.832500", "214740.292500", "214740.752500", "214741.212500", "214741.672500", "214742.132500", "214742.592500", "214743.052500", "214743.512500", "214743.972500", "214744.432500", "214744.892500", "214745.352500", "214745.812500", "214746.272500", "214746.732500", "214747.192500", "214747.652500", "214748.112500", "214748.572500", "214749.032500", "214749.492500", "214749.952500", "214750.412500", "214750.872500", "214751.332500", "214751.792500", "214752.252500", "214752.712500", "214753.172500", "214753.632500", "214754.092500", "214754.552500", "214755.012500", "214755.472500", "214755.932500", "214756.392500", "214756.852500", "214757.312500", "214757.772500", "214758.232500", "214758.692500", "214759.152500", "214759.612500", "214800.072500", "214800.532500", "214800.992500", "214801.452500", "214801.912500", "214802.372500", "214802.832500", "214803.292500", "214803.752500", "214804.212500", "214804.672500", "214805.132500", "214805.592500", "214806.052500", "214806.512500", "214806.972500", "214807.432500", "214807.892500", "214808.352500", "214808.812500", "214809.272500", "214809.732500", "214810.192500", "214810.652500", "214811.112500", "214811.572500", "214812.032500", "214812.492500", "214812.952500", "214813.412500", "214813.872500", "214814.332500", "214814.792500", "214815.252500", "214815.712500", "214816.172500", "214816.632500", "214817.092500", "214817.552500", "214818.012500", "214818.472500", "214818.932500", "214819.392500", "214819.852500", "214820.312500", "214820.772500", "214821.232500", "214821.692500", "214822.152500", "214822.612500", "214823.072500", "214823.532500", "214823.992500", "214824.452500", "214824.912500", "214825.372500", "214825.832500", "214826.292500", "214826.752500", "214827.212500", "214827.672500", "214828.132500", "214828.592500", "214829.052500", "214829.512500", "214829.972500", "214830.432500", "214830.892500", "214831.352500", "214831.812500", "214832.272500", "214832.732500", "214833.192500", "214833.652500", "214834.112500", "214834.572500", "214835.032500", "214835.492500", "214835.952500", "214836.412500", "214836.872500", "214837.332500", "214837.792500", "214838.252500", "214838.712500", "214839.172500", "214839.632500", "214840.092500", "214840.552500", "214841.012500", "214841.472500", "214841.932500", "214842.392500", "214842.852500", "214843.312500", "214843.772500", "214844.232500", "214844.692500", "214845.152500", "214845.612500", "214846.072500", "214846.532500", "214846.992500", "214847.452500", "214847.912500", "214848.372500", "214848.832500", "214849.292500", "214849.752500", "214850.212500", "214850.672500", "214851.132500", "214851.592500", "214852.052500", "214852.512500", "214852.972500", "214853.432500", "214853.892500", "214854.352500", "214854.812500", "214855.272500", "214855.732500", "214856.192500", "214856.652500", "214857.112500", "214857.572500", "214858.032500", "214858.492500", "214858.952500", "214859.412500", "214859.872500", "214900.332500", "214900.792500", "214901.252500", "214901.712500", "214902.172500", "214902.632500", "214903.092500", "214903.552500", "214904.012500", "214904.472500", "214904.932500", "214905.392500", "214905.852500", "214906.312500", "214906.772500", "214907.232500", "214907.692500", "214908.152500", "214908.612500", "214909.072500", "214909.532500", "214909.992500", "214910.452500", "214910.912500", "214911.372500", "214911.832500", "214912.292500", "214912.752500", "214913.212500", "214913.672500", "214914.132500", "214914.592500", "214915.052500", "214915.512500", "214915.972500", "214916.432500", "214916.892500", "214917.352500", "214917.812500", "214918.272500", "214918.732500", "214919.192500", "214919.652500", "214920.112500", "214920.572500", "214921.032500", "214921.492500", "214921.952500", "214922.412500", "214922.872500", "214923.332500", "214923.792500", "214924.252500", "214924.712500", "214925.172500", "214925.632500", "214926.092500", "214926.552500", "214927.012500", "214927.472500", "214927.932500", "214928.392500", "214928.852500", "214929.312500", "214929.772500", "214930.232500", "214930.692500", "214931.152500", "214931.612500", "214932.072500", "214932.532500", "214932.992500", "214933.452500", "214933.912500", "214934.372500", "214934.832500", "214935.292500", "214935.752500", "214936.212500", "214936.672500", "214937.132500", "214937.592500", "214938.052500", "214938.512500", "214938.972500", "214939.432500", "214939.892500", "214940.352500", "214940.812500", "214941.272500", "214941.732500", "214942.192500", "214942.652500", "214943.112500", "214943.572500", "214944.032500", "214944.492500", "214944.952500", "214945.412500", "214945.872500", "214946.332500", "214946.792500", "214947.252500", "214947.712500", "214948.172500", "214948.632500", "214949.092500", "214949.552500", "214950.012500", "214950.472500", "214950.932500", "214951.392500", "214951.852500", "214952.312500", "214952.772500", "214953.232500", "214953.692500", "214954.152500", "214954.612500", "214955.072500", "214955.532500", "214955.992500", "214956.452500", "214956.912500", "214957.372500", "214957.832500", "214958.292500", "214958.752500", "214959.212500", "214959.672500", "215000.132500", "215000.592500", "215001.052500", "215001.512500", "215001.972500", "215002.432500", "215002.892500", "215003.352500", "215003.812500", "215004.272500", "215004.732500", "215005.192500", "215005.652500", "215006.112500", "215006.572500", "215007.032500", "215007.492500", "215007.952500", "215008.412500", "215008.872500", "215009.332500", "215009.792500", "215010.252500", "215010.712500", "215011.172500", "215011.632500", "215012.092500", "215012.552500", "215013.012500", "215013.472500", "215013.932500", "215014.392500", "215014.852500", "215015.312500", "215015.772500", "215016.232500", "215016.692500", "215017.152500", "215017.612500", "215018.072500", "215018.532500", "215018.992500", "215019.452500", "215019.912500", "215020.372500", "215020.832500", "215021.292500", "215021.752500", "215022.212500", "215022.672500", "215023.132500", "215023.592500", "215024.052500", "215024.512500", "215024.972500", "215025.432500", "215025.892500", "215026.352500", "215026.812500", "215027.272500", "215027.732500", "215028.192500", "215028.652500", "215029.112500", "215029.572500", "215030.032500", "215030.492500", "215030.952500", "215031.412500", "215031.872500", "215032.332500", "215032.792500", "215033.252500", "215033.712500", "215034.172500", "215034.632500", "215035.092500", "215035.552500", "215036.012500", "215036.472500", "215036.932500", "215037.392500", "215037.852500", "215038.312500", "215038.772500", "215039.232500", "215039.692500", "215040.152500", "215040.612500", "215041.072500", "215041.532500", "215041.992500", "215042.452500", "215042.912500", "215043.372500", "215043.832500", "215044.292500", "215044.752500", "215045.212500", "215045.672500", "215046.132500", "215046.592500", "215047.052500", "215047.512500", "215047.972500", "215048.432500", "215048.892500", "215049.352500", "215049.812500", "215050.272500", "215050.732500", "215051.192500", "215051.652500", "215052.112500", "215052.572500", "215053.032500", "215053.492500", "215053.952500", "215054.412500", "215054.872500", "215055.332500", "215055.792500", "215056.252500", "215056.712500", "215057.172500", "215057.632500", "215058.092500", "215058.552500", "215059.012500", "215059.472500", "215059.932500", "215100.392500", "215100.852500", "215101.312500", "215101.772500", "215102.232500", "215102.692500", "215103.152500", "215103.612500", "215104.072500", "215104.532500", "215104.992500", "215105.452500", "215105.912500", "215106.372500", "215106.832500", "215107.292500", "215107.752500", "215108.212500", "215108.672500", "215109.132500", "215109.592500", "215110.052500", "215110.512500", "215110.972500", "215111.432500", "215111.892500", "215112.352500", "215112.812500", "215113.272500", "215113.732500", "215114.192500", "215114.652500", "215115.112500", "215115.572500", "215116.032500", "215116.492500", "215116.952500", "215117.412500", "215117.872500", "215118.332500", "215118.792500", "215119.252500", "215119.712500", "215120.172500", "215120.632500", "215121.092500", "215121.552500", "215122.012500", "215122.472500", "215122.932500", "215123.392500", "215123.852500", "215124.312500", "215124.772500", "215125.232500", "215125.692500", "215126.152500", "215126.612500", "215127.072500", "215127.532500", "215127.992500", "215128.452500", "215128.912500", "215129.372500", "215129.832500", "215130.292500", "215130.752500", "215131.212500", "215131.672500", "215132.132500", "215132.592500", "215133.052500", "215133.512500", "215133.972500", "215134.432500", "215134.892500", "215135.352500", "215135.812500", "215136.272500", "215136.732500", "215137.192500", "215137.652500", "215138.112500", "215138.572500", "215139.032500", "215139.492500", "215139.952500", "215140.412500", "215140.872500", "215141.332500", "215141.792500", "215142.252500", "215142.712500", "215143.172500", "215143.632500", "215144.092500", "215144.552500", "215145.012500", "215145.472500", "215145.932500", "215146.392500", "215146.852500", "215147.312500", "215147.772500", "215148.232500", "215148.692500", "215149.152500", "215149.612500", "215150.072500", "215150.532500", "215150.992500", "215151.452500", "215151.912500", "215152.372500", "215152.832500", "215153.292500", "215153.752500", "215154.212500", "215154.672500", "215155.132500", "215155.592500", "215156.052500", "215156.512500", "215156.972500", "215157.432500", "215157.892500", "215158.352500", "215158.812500", "215159.272500", "215159.732500", "215200.192500", "215200.652500", "215201.112500", "215201.572500", "215202.032500", "215202.492500", "215202.952500", "215203.412500", "215203.872500", "215204.332500", "215204.792500", "215205.252500", "215205.712500", "215206.172500", "215206.632500", "215207.092500", "215207.552500", "215208.012500", "215208.472500", "215208.932500", "215209.392500", "215209.852500", "215210.312500", "215210.772500", "215211.232500", "215211.692500", "215212.152500", "215212.612500", "215213.072500", "215213.532500", "215213.992500", "215214.452500", "215214.912500", "215215.372500", "215215.832500", "215216.292500", "215216.752500", "215217.212500", "215217.672500", "215218.132500", "215218.592500", "215219.052500", "215219.512500", "215219.972500", "215220.432500", "215220.892500", "215221.352500", "215221.812500", "215222.272500", "215222.732500", "215223.192500", "215223.652500", "215224.112500", "215224.572500", "215225.032500", "215225.492500", "215225.952500", "215226.412500", "215226.872500", "215227.332500", "215227.792500", "215228.252500", "215228.712500", "215229.172500", "215229.632500", "215230.092500", "215230.552500", "215231.012500", "215231.472500", "215231.932500", "215232.392500", "215232.852500", "215233.312500", "215233.772500", "215234.232500", "215234.692500", "215235.152500", "215235.612500", "215236.072500", "215236.532500", "215236.992500", "215237.452500", "215237.912500", "215238.372500", "215238.832500", "215239.292500", "215239.752500", "215240.212500", "215240.672500", "215241.132500", "215241.592500", "215242.052500", "215242.512500", "215242.972500", "215243.432500", "215243.892500", "215244.352500", "215244.812500", "215245.272500", "215245.732500", "215246.192500", "215246.652500", "215247.112500", "215247.572500", "215248.032500", "215248.492500", "215248.952500", "215249.412500", "215249.872500", "215250.332500", "215250.792500", "215251.252500", "215251.712500", "215252.172500", "215252.632500", "215253.092500", "215253.552500", "215254.012500", "215254.472500", "215254.932500", "215255.392500", "215255.852500", "215256.312500", "215256.772500", "215257.232500", "215257.692500", "215258.152500", "215258.612500", "215259.072500", "215259.532500", "215259.992500", "215300.452500", "215300.912500", "215301.372500", "215301.832500", "215302.292500", "215302.752500", "215303.212500", "215303.672500", "215304.132500", "215304.592500", "215305.052500", "215305.512500", "215305.972500", "215306.432500", "215306.892500", "215307.352500", "215307.812500", "215308.272500", "215308.732500", "215309.192500", "215309.652500", "215310.112500", "215310.572500", "215311.032500", "215311.492500", "215311.952500", "215312.412500", "215312.872500", "215313.332500", "215313.792500", "215314.252500", "215314.712500", "215315.172500", "215315.632500", "215316.092500", "215316.552500", "215317.012500", "215317.472500", "215317.932500", "215318.392500", "215318.852500", "215319.312500", "215319.772500", "215320.232500", "215320.692500", "215321.152500", "215321.612500", "215322.072500", "215322.532500", "215322.992500", "215323.452500", "215323.912500", "215324.372500", "215324.832500", "215325.292500", "215325.752500", "215326.212500", "215326.672500", "215327.132500", "215327.592500", "215328.052500", "215328.512500", "215328.972500", "215329.432500", "215329.892500", "215330.352500", "215330.812500", "215331.272500", "215331.732500", "215332.192500", "215332.652500", "215333.112500", "215333.572500", "215334.032500", "215334.492500", "215334.952500", "215335.412500", "215335.872500", "215336.332500", "215336.792500", "215337.252500", "215337.712500", "215338.172500", "215338.632500", "215339.092500", "215339.552500", "215340.012500", "215340.472500", "215340.932500", "215341.392500", "215341.852500", "215342.312500", "215342.772500", "215343.232500", "215343.692500", "215344.152500", "215344.612500", "215345.072500", "215345.532500", "215345.992500", "215346.452500", "215346.912500", "215347.372500", "215347.832500", "215348.292500", "215348.752500", "215349.212500", "215349.672500", "215350.132500", "215350.592500", "215351.052500", "215351.512500", "215351.972500", "215352.432500", "215352.892500", "215353.352500", "215353.812500", "215354.272500", "215354.732500", "215355.192500", "215355.652500", "215356.112500", "215356.572500", "215357.032500", "215357.492500", "215357.952500", "215358.412500", "215358.872500", "215359.332500", "215359.792500", "215400.252500", "215400.712500", "215401.172500"],
