{
  "AcquisitionMatrixPE": 82,
  "AcquisitionNumber": 1,
  "AcquisitionTime": "21:39:35.665000",
  "BandwidthPerPixelPhaseEncode": 24.888,
  "BaseResolution": 82,
  "BodyPartExamined": "BRAIN",
  "ConsistencyInfo": "N4_VE11E_LATEST_20181129",
  "ConversionSoftware": "dcm2niix",
  "ConversionSoftwareVersion": "v1.0.20201102",
  "DerivedVendorReportedEchoSpacing": 0.00049,
  "DeviceSerialNumber": "66112",
  "DwellTime": 2e-06,
  "EchoTime": 0.0272,
  "EchoTrainLength": 82,
  "EffectiveEchoSpacing": 0.00049,
  "FlipAngle": 44,
  "ImageComments": "Unaliased MB8/PE3",
  "ImageOrientationPatientDICOM": [0.999975, 0.00543707, -0.00451562, -0.0054104, 0.999968, 0.00589661],
  "ImageType": [
    "ORIGINAL",
    "PRIMARY",
    "M",
    "MB",
    "ND",
    "NORM",
    "MOSAIC"
],
  "ImagingFrequency": 123.259,
  "InPlanePhaseEncodingDirectionDICOM": "COL",
  "InstitutionAddress": "Maynard 3,Hanover,NH,US,03755",
  "InstitutionName": "Dartmouth College - PBS",
  "InstitutionalDepartmentName": "Department",
  "MRAcquisitionType": "2D",
  "MagneticFieldStrength": 3,
  "Manufacturer": "Siemens",
  "ManufacturersModelName": "Prisma",
  "Modality": "MR",
  "MultibandAccelerationFactor": 8,
  "PartialFourier": 1,
  "PatientPosition": "HFS",
  "PercentPhaseFOV": 100,
  "PercentSampling": 100,
  "PhaseEncodingDirection": "j-",
  "PhaseEncodingSteps": 82,
  "PhaseResolution": 1,
  "PixelBandwidth": 3050,
  "ProcedureStepDescription": "Wager_Wager^1076_spacetop",
  "ProtocolName": "func_run-02_task-faces_acq-ap-mb8",
  "PulseSequenceDetails": "%CustomerSeq%\\cmrr_mbep2d_bold",
  "ReceiveCoilActiveElements": "HEA;HEP",
  "ReceiveCoilName": "Head_32",
  "ReconMatrixPE": 82,
  "RepetitionTime": 0.46,
  "SAR": 0.104167,
  "ScanOptions": "FS",
  "ScanningSequence": "EP",
  "SequenceName": "epfid2d1_82",
  "SequenceVariant": "SK\\SS",
  "SeriesDescription": "func_run-02_task-faces_acq-ap-mb8",
  "SeriesNumber": 18,
  "ShimSetting": [4208, -7787, -7233, 186, -130, -90, -27, 79],
  "SliceThickness": 2.7,
  "SliceTiming": [0, 0.25, 0.0625, 0.3125, 0.125, 0.375, 0.1875, 0, 0.25, 0.0625, 0.3125, 0.125, 0.375, 0.1875, 0, 0.25, 0.0625, 0.3125, 0.125, 0.375, 0.1875, 0, 0.25, 0.0625, 0.3125, 0.125, 0.375, 0.1875, 0, 0.25, 0.0625, 0.3125, 0.125, 0.375, 0.1875, 0, 0.25, 0.0625, 0.3125, 0.125, 0.375, 0.1875, 0, 0.25, 0.0625, 0.3125, 0.125, 0.375, 0.1875, 0, 0.25, 0.0625, 0.3125, 0.125, 0.375, 0.1875],
  "SoftwareVersions": "syngo MR E11",
  "SpacingBetweenSlices": 2.7,
  "StationName": "AWP66112",
  "TaskName": "faces",
  "TotalReadoutTime": 0.03969,
  "TxRefAmp": 278.058,
  "WipMemBlock": "4ade5edf-a7a8-4150-8376-72382638d539||Sequence: R016 ve11e/master r/434b28f1; Aug  7 2019 18:53:46 by eja",
  "dcmmeta_affine": [
    [-2.6828598976135254, -0.014515716582536697, -0.01227834913879633, 114.07929229736328],
    [-0.01458725892007351, 2.6828410625457764, 0.0158544834703207, -95.64904022216797],
    [-0.01211508084088564, -0.015820171684026718, 2.699925661087036, -72.71834564208984],
    [0.0, 0.0, 0.0, 1.0]
],
  "dcmmeta_reorient_transform": [
    [0.0, -1.0, 0.0, 81.0],
    [1.0, 0.0, 0.0, 0.0],
    [0.0, 0.0, 1.0, 0.0],
    [0.0, 0.0, 0.0, 1.0]
],
  "dcmmeta_shape": [82, 82, 56, 914],
  "dcmmeta_slice_dim": 2,
  "dcmmeta_version": 0.6,
  "global": {
    "const": {
      "AccessionNumber": "A004929",
      "AcquisitionMatrix": [82, 0, 0, 82],
      "AngioFlag": "N",
      "BitsAllocated": 16,
      "BitsStored": 16,
      "BodyPartExamined": "BRAIN",
      "Columns": 656,
      "EchoNumbers": 1,
      "EchoTime": 27.2,
      "EchoTrainLength": 82,
      "FlipAngle": 44.0,
      "HighBit": 15,
      "ImageOrientationPatient": [0.99997502341238, 0.00543706910841, -0.0045156207684, -0.0054104032864, 0.9999679782554, 0.00589660920333],
      "ImagePositionPatient": [-878.71829157834, -895.82298441898, -75.063139724743],
      "ImageType": [
        "ORIGINAL",
        "PRIMARY",
        "M",
        "MB",
        "ND",
        "NORM",
        "MOSAIC"
],
      "ImagedNucleus": "1H",
      "ImagingFrequency": 123.259044,
      "InPlanePhaseEncodingDirection": "COL",
      "MRAcquisitionType": "2D",
      "MagneticFieldStrength": 3.0,
      "Manufacturer": "SIEMENS",
      "ManufacturerModelName": "Prisma",
      "Modality": "MR",
      "NumberOfAverages": 1.0,
      "NumberOfPhaseEncodingSteps": 82,
      "PercentPhaseFieldOfView": 100.0,
      "PercentSampling": 100.0,
      "PerformedProcedureStepStartTime": "204326.526000",
      "PhotometricInterpretation": "MONOCHROME2",
      "PixelBandwidth": 3050.0,
      "PixelRepresentation": 0,
      "PixelSpacing": [2.6829268932343, 2.6829268932343],
      "ProtocolName": "func_run-02_task-faces_acq-ap-mb8",
      "RepetitionTime": 460.0,
      "Rows": 656,
      "SAR": 0.10416688787957,
      "SamplesPerPixel": 1,
      "ScanOptions": "FS",
      "ScanningSequence": "EP",
      "SequenceName": "epfid2d1_82",
      "SequenceVariant": [
        "SK",
        "SS"
],
      "SeriesDescription": "func_run-02_task-faces_acq-ap-mb8",
      "SeriesNumber": 18,
      "SeriesTime": "213954.775000",
      "SliceLocation": -73.796772903166,
      "SliceThickness": 2.7000000476837,
      "SmallestImagePixelValue": 0,
      "SoftwareVersions": "syngo MR E11",
      "SpacingBetweenSlices": 2.7000001162655,
      "SpecificCharacterSet": "ISO_IR 100",
      "StudyID": "2",
      "StudyTime": "204326.478000",
      "TransmitCoilName": "Body",
      "VariableFlipAngleFlag": "N",
      "WindowCenterWidthExplanation": "Algo1"
    },
    "slices": {}
  },
  "time": {
    "samples": {
      "AcquisitionNumber": [1, 2, 3, 4, 5, 6, 7, 8, 9, 10, 11, 12, 13, 14, 15, 16, 17, 18, 19, 20, 21, 22, 23, 24, 25, 26, 27, 28, 29, 30, 31, 32, 33, 34, 35, 36, 37, 38, 39, 40, 41, 42, 43, 44, 45, 46, 47, 48, 49, 50, 51, 52, 53, 54, 55, 56, 57, 58, 59, 60, 61, 62, 63, 64, 65, 66, 67, 68, 69, 70, 71, 72, 73, 74, 75, 76, 77, 78, 79, 80, 81, 82, 83, 84, 85, 86, 87, 88, 89, 90, 91, 92, 93, 94, 95, 96, 97, 98, 99, 100, 101, 102, 103, 104, 105, 106, 107, 108, 109, 110, 111, 112, 113, 114, 115, 116, 117, 118, 119, 120, 121, 122, 123, 124, 125, 126, 127, 128, 129, 130, 131, 132, 133, 134, 135, 136, 137, 138, 139, 140, 141, 142, 143, 144, 145, 146, 147, 148, 149, 150, 151, 152, 153, 154, 155, 156, 157, 158, 159, 160, 161, 162, 163, 164, 165, 166, 167, 168, 169, 170, 171, 172, 173, 174, 175, 176, 177, 178, 179, 180, 181, 182, 183, 184, 185, 186, 187, 188, 189, 190, 191, 192, 193, 194, 195, 196, 197, 198, 199, 200, 201, 202, 203, 204, 205, 206, 207, 208, 209, 210, 211, 212, 213, 214, 215, 216, 217, 218, 219, 220, 221, 222, 223, 224, 225, 226, 227, 228, 229, 230, 231, 232, 233, 234, 235, 236, 237, 238, 239, 240, 241, 242, 243, 244, 245, 246, 247, 248, 249, 250, 251, 252, 253, 254, 255, 256, 257, 258, 259, 260, 261, 262, 263, 264, 265, 266, 267, 268, 269, 270, 271, 272, 273, 274, 275, 276, 277, 278, 279, 280, 281, 282, 283, 284, 285, 286, 287, 288, 289, 290, 291, 292, 293, 294, 295, 296, 297, 298, 299, 300, 301, 302, 303, 304, 305, 306, 307, 308, 309, 310, 311, 312, 313, 314, 315, 316, 317, 318, 319, 320, 321, 322, 323, 324, 325, 326, 327, 328, 329, 330, 331, 332, 333, 334, 335, 336, 337, 338, 339, 340, 341, 342, 343, 344, 345, 346, 347, 348, 349, 350, 351, 352, 353, 354, 355, 356, 357, 358, 359, 360, 361, 362, 363, 364, 365, 366, 367, 368, 369, 370, 371, 372, 373, 374, 375, 376, 377, 378, 379, 380, 381, 382, 383, 384, 385, 386, 387, 388, 389, 390, 391, 392, 393, 394, 395, 396, 397, 398, 399, 400, 401, 402, 403, 404, 405, 406, 407, 408, 409, 410, 411, 412, 413, 414, 415, 416, 417, 418, 419, 420, 421, 422, 423, 424, 425, 426, 427, 428, 429, 430, 431, 432, 433, 434, 435, 436, 437, 438, 439, 440, 441, 442, 443, 444, 445, 446, 447, 448, 449, 450, 451, 452, 453, 454, 455, 456, 457, 458, 459, 460, 461, 462, 463, 464, 465, 466, 467, 468, 469, 470, 471, 472, 473, 474, 475, 476, 477, 478, 479, 480, 481, 482, 483, 484, 485, 486, 487, 488, 489, 490, 491, 492, 493, 494, 495, 496, 497, 498, 499, 500, 501, 502, 503, 504, 505, 506, 507, 508, 509, 510, 511, 512, 513, 514, 515, 516, 517, 518, 519, 520, 521, 522, 523, 524, 525, 526, 527, 528, 529, 530, 531, 532, 533, 534, 535, 536, 537, 538, 539, 540, 541, 542, 543, 544, 545, 546, 547, 548, 549, 550, 551, 552, 553, 554, 555, 556, 557, 558, 559, 560, 561, 562, 563, 564, 565, 566, 567, 568, 569, 570, 571, 572, 573, 574, 575, 576, 577, 578, 579, 580, 581, 582, 583, 584, 585, 586, 587, 588, 589, 590, 591, 592, 593, 594, 595, 596, 597, 598, 599, 600, 601, 602, 603, 604, 605, 606, 607, 608, 609, 610, 611, 612, 613, 614, 615, 616, 617, 618, 619, 620, 621, 622, 623, 624, 625, 626, 627, 628, 629, 630, 631, 632, 633, 634, 635, 636, 637, 638, 639, 640, 641, 642, 643, 644, 645, 646, 647, 648, 649, 650, 651, 652, 653, 654, 655, 656, 657, 658, 659, 660, 661, 662, 663, 664, 665, 666, 667, 668, 669, 670, 671, 672, 673, 674, 675, 676, 677, 678, 679, 680, 681, 682, 683, 684, 685, 686, 687, 688, 689, 690, 691, 692, 693, 694, 695, 696, 697, 698, 699, 700, 701, 702, 703, 704, 705, 706, 707, 708, 709, 710, 711, 712, 713, 714, 715, 716, 717, 718, 719, 720, 721, 722, 723, 724, 725, 726, 727, 728, 729, 730, 731, 732, 733, 734, 735, 736, 737, 738, 739, 740, 741, 742, 743, 744, 745, 746, 747, 748, 749, 750, 751, 752, 753, 754, 755, 756, 757, 758, 759, 760, 761, 762, 763, 764, 765, 766, 767, 768, 769, 770, 771, 772, 773, 774, 775, 776, 777, 778, 779, 780, 781, 782, 783, 784, 785, 786, 787, 788, 789, 790, 791, 792, 793, 794, 795, 796, 797, 798, 799, 800, 801, 802, 803, 804, 805, 806, 807, 808, 809, 810, 811, 812, 813, 814, 815, 816, 817, 818, 819, 820, 821, 822, 823, 824, 825, 826, 827, 828, 829, 830, 831, 832, 833, 834, 835, 836, 837, 838, 839, 840, 841, 842, 843, 844, 845, 846, 847, 848, 849, 850, 851, 852, 853, 854, 855, 856, 857, 858, 859, 860, 861, 862, 863, 864, 865, 866, 867, 868, 869, 870, 871, 872, 873, 874, 875, 876, 877, 878, 879, 880, 881, 882, 883, 884, 885, 886, 887, 888, 889, 890, 891, 892, 893, 894, 895, 896, 897, 898, 899, 900, 901, 902, 903, 904, 905, 906, 907, 908, 909, 910, 911, 912, 913, 914],
      "AcquisitionTime": ["213935.665000", "213936.125000", "213936.585000", "213937.045000", "213937.505000", "213937.965000", "213938.425000", "213938.885000", "213939.345000", "213939.805000", "213940.265000", "213940.725000", "213941.185000", "213941.645000", "213942.105000", "213942.565000", "213943.025000", "213943.485000", "213943.945000", "213944.405000", "213944.865000", "213945.325000", "213945.785000", "213946.245000", "213946.705000", "213947.165000", "213947.625000", "213948.085000", "213948.545000", "213949.005000", "213949.465000", "213949.925000", "213950.385000", "213950.845000", "213951.305000", "213951.765000", "213952.225000", "213952.685000", "213953.145000", "213953.605000", "213954.065000", "213954.525000", "213954.985000", "213955.445000", "213955.905000", "213956.365000", "213956.825000", "213957.285000", "213957.745000", "213958.205000", "213958.665000", "213959.125000", "213959.585000", "214000.045000", "214000.505000", "214000.965000", "214001.425000", "214001.885000", "214002.345000", "214002.805000", "214003.265000", "214003.725000", "214004.185000", "214004.645000", "214005.105000", "214005.565000", "214006.025000", "214006.485000", "214006.945000", "214007.405000", "214007.865000", "214008.325000", "214008.785000", "214009.245000", "214009.705000", "214010.165000", "214010.625000", "214011.085000", "214011.545000", "214012.005000", "214012.465000", "214012.925000", "214013.385000", "214013.845000", "214014.305000", "214014.765000", "214015.225000", "214015.685000", "214016.145000", "214016.605000", "214017.065000", "214017.525000", "214017.985000", "214018.445000", "214018.905000", "214019.365000", "214019.825000", "214020.285000", "214020.745000", "214021.205000", "214021.665000", "214022.125000", "214022.585000", "214023.045000", "214023.505000", "214023.965000", "214024.425000", "214024.885000", "214025.345000", "214025.805000", "214026.265000", "214026.725000", "214027.185000", "214027.645000", "214028.105000", "214028.565000", "214029.025000", "214029.485000", "214029.945000", "214030.405000", "214030.865000", "214031.325000", "214031.785000", "214032.245000", "214032.705000", "214033.165000", "214033.625000", "214034.085000", "214034.545000", "214035.005000", "214035.465000", "214035.925000", "214036.385000", "214036.845000", "214037.305000", "214037.765000", "214038.225000", "214038.685000", "214039.145000", "214039.605000", "214040.065000", "214040.525000", "214040.985000", "214041.445000", "214041.905000", "214042.365000", "214042.825000", "214043.285000", "214043.745000", "214044.205000", "214044.665000", "214045.125000", "214045.585000", "214046.045000", "214046.505000", "214046.965000", "214047.425000", "214047.885000", "214048.345000", "214048.805000", "214049.265000", "214049.725000", "214050.185000", "214050.645000", "214051.105000", "214051.565000", "214052.025000", "214052.485000", "214052.945000", "214053.405000", "214053.865000", "214054.325000", "214054.785000", "214055.245000", "214055.705000", "214056.165000", "214056.625000", "214057.085000", "214057.545000", "214058.005000", "214058.465000", "214058.925000", "214059.385000", "214059.845000", "214100.305000", "214100.765000", "214101.225000", "214101.685000", "214102.145000", "214102.605000", "214103.065000", "214103.525000", "214103.985000", "214104.445000", "214104.905000", "214105.365000", "214105.825000", "214106.285000", "214106.745000", "214107.205000", "214107.665000", "214108.125000", "214108.585000", "214109.045000", "214109.505000", "214109.965000", "214110.425000", "214110.885000", "214111.345000", "214111.805000", "214112.265000", "214112.725000", "214113.185000", "214113.645000", "214114.105000", "214114.565000", "214115.025000", "214115.485000", "214115.945000", "214116.405000", "214116.865000", "214117.325000", "214117.785000", "214118.245000", "214118.705000", "214119.165000", "214119.625000", "214120.085000", "214120.545000", "214121.005000", "214121.465000", "214121.925000", "214122.385000", "214122.845000", "214123.305000", "214123.765000", "214124.225000", "214124.685000", "214125.145000", "214125.605000", "214126.065000", "214126.525000", "214126.985000", "214127.445000", "214127.905000", "214128.365000", "214128.825000", "214129.285000", "214129.745000", "214130.205000", "214130.665000", "214131.125000", "214131.585000", "214132.045000", "214132.505000", "214132.965000", "214133.425000", "214133.885000", "214134.345000", "214134.805000", "214135.265000", "214135.725000", "214136.185000", "214136.645000", "214137.105000", "214137.565000", "214138.025000", "214138.485000", "214138.945000", "214139.405000", "214139.865000", "214140.325000", "214140.785000", "214141.245000", "214141.705000", "214142.165000", "214142.625000", "214143.085000", "214143.545000", "214144.005000", "214144.465000", "214144.925000", "214145.385000", "214145.845000", "214146.305000", "214146.765000", "214147.225000", "214147.685000", "214148.145000", "214148.605000", "214149.065000", "214149.525000", "214149.985000", "214150.445000", "214150.905000", "214151.365000", "214151.825000", "214152.285000", "214152.745000", "214153.205000", "214153.665000", "214154.125000", "214154.585000", "214155.045000", "214155.505000", "214155.965000", "214156.425000", "214156.885000", "214157.345000", "214157.805000", "214158.265000", "214158.725000", "214159.185000", "214159.645000", "214200.105000", "214200.565000", "214201.025000", "214201.485000", "214201.945000", "214202.405000", "214202.865000", "214203.325000", "214203.785000", "214204.245000", "214204.705000", "214205.165000", "214205.625000", "214206.085000", "214206.545000", "214207.005000", "214207.465000", "214207.925000", "214208.385000", "214208.845000", "214209.305000", "214209.765000", "214210.225000", "214210.685000", "214211.145000", "214211.605000", "214212.065000", "214212.525000", "214212.985000", "214213.445000", "214213.905000", "214214.365000", "214214.825000", "214215.285000", "214215.745000", "214216.205000", "214216.665000", "214217.125000", "214217.585000", "214218.045000", "214218.505000", "214218.965000", "214219.425000", "214219.885000", "214220.345000", "214220.805000", "214221.265000", "214221.725000", "214222.185000", "214222.645000", "214223.105000", "214223.565000", "214224.025000", "214224.485000", "214224.945000", "214225.405000", "214225.865000", "214226.325000", "214226.785000", "214227.245000", "214227.705000", "214228.165000", "214228.625000", "214229.085000", "214229.545000", "214230.005000", "214230.465000", "214230.925000", "214231.385000", "214231.845000", "214232.305000", "214232.765000", "214233.225000", "214233.685000", "214234.145000", "214234.605000", "214235.065000", "214235.525000", "214235.985000", "214236.445000", "214236.905000", "214237.365000", "214237.825000", "214238.285000", "214238.745000", "214239.205000", "214239.665000", "214240.125000", "214240.585000", "214241.045000", "214241.505000", "214241.965000", "214242.425000", "214242.885000", "214243.345000", "214243.805000", "214244.265000", "214244.725000", "214245.185000", "214245.645000", "214246.105000", "214246.565000", "214247.025000", "214247.485000", "214247.945000", "214248.405000", "214248.865000", "214249.325000", "214249.785000", "214250.245000", "214250.705000", "214251.165000", "214251.625000", "214252.085000", "214252.545000", "214253.005000", "214253.465000", "214253.925000", "214254.385000", "214254.845000", "214255.305000", "214255.765000", "214256.225000", "214256.685000", "214257.145000", "214257.605000", "214258.065000", "214258.525000", "214258.985000", "214259.445000", "214259.905000", "214300.365000", "214300.825000", "214301.285000", "214301.745000", "214302.205000", "214302.665000", "214303.125000", "214303.585000", "214304.045000", "214304.505000", "214304.965000", "214305.425000", "214305.885000", "214306.345000", "214306.805000", "214307.265000", "214307.725000", "214308.185000", "214308.645000", "214309.105000", "214309.565000", "214310.025000", "214310.485000", "214310.945000", "214311.405000", "214311.865000", "214312.325000", "214312.785000", "214313.245000", "214313.705000", "214314.165000", "214314.625000", "214315.085000", "214315.545000", "214316.005000", "214316.465000", "214316.925000", "214317.385000", "214317.845000", "214318.305000", "214318.765000", "214319.225000", "214319.685000", "214320.145000", "214320.605000", "214321.065000", "214321.525000", "214321.985000", "214322.445000", "214322.905000", "214323.365000", "214323.825000", "214324.285000", "214324.745000", "214325.205000", "214325.665000", "214326.125000", "214326.585000", "214327.045000", "214327.505000", "214327.965000", "214328.425000", "214328.885000", "214329.345000", "214329.805000", "214330.265000", "214330.725000", "214331.185000", "214331.645000", "214332.105000", "214332.565000", "214333.025000", "214333.485000", "214333.945000", "214334.405000", "214334.865000", "214335.325000", "214335.785000", "214336.245000", "214336.705000", "214337.165000", "214337.625000", "214338.085000", "214338.545000", "214339.005000", "214339.465000", "214339.925000", "214340.385000", "214340.845000", "214341.305000", "214341.765000", "214342.225000", "214342.685000", "214343.145000", "214343.605000", "214344.065000", "214344.525000", "214344.985000", "214345.445000", "214345.905000", "214346.365000", "214346.825000", "214347.285000", "214347.745000", "214348.205000", "214348.665000", "214349.125000", "214349.585000", "214350.045000", "214350.505000", "214350.965000", "214351.425000", "214351.885000", "214352.345000", "214352.805000", "214353.265000", "214353.725000", "214354.185000", "214354.645000", "214355.105000", "214355.565000", "214356.025000", "214356.485000", "214356.945000", "214357.405000", "214357.865000", "214358.325000", "214358.785000", "214359.245000", "214359.705000", "214400.165000", "214400.625000", "214401.085000", "214401.545000", "214402.005000", "214402.465000", "214402.925000", "214403.385000", "214403.845000", "214404.305000", "214404.765000", "214405.225000", "214405.685000", "214406.145000", "214406.605000", "214407.065000", "214407.525000", "214407.985000", "214408.445000", "214408.905000", "214409.365000", "214409.825000", "214410.285000", "214410.745000", "214411.205000", "214411.665000", "214412.125000", "214412.585000", "214413.045000", "214413.505000", "214413.965000", "214414.425000", "214414.885000", "214415.345000", "214415.805000", "214416.265000", "214416.725000", "214417.185000", "214417.645000", "214418.105000", "214418.565000", "214419.025000", "214419.485000", "214419.945000", "214420.405000", "214420.865000", "214421.325000", "214421.785000", "214422.245000", "214422.705000", "214423.165000", "214423.625000", "214424.085000", "214424.545000", "214425.005000", "214425.465000", "214425.925000", "214426.385000", "214426.845000", "214427.305000", "214427.765000", "214428.225000", "214428.685000", "214429.145000", "214429.605000", "214430.065000", "214430.525000", "214430.985000", "214431.445000", "214431.905000", "214432.365000", "214432.825000", "214433.285000", "214433.745000", "214434.205000", "214434.665000", "214435.125000", "214435.585000", "214436.045000", "214436.505000", "214436.965000", "214437.425000", "214437.885000", "214438.345000", "214438.805000", "214439.265000", "214439.725000", "214440.185000", "214440.645000", "214441.105000", "214441.565000", "214442.025000", "214442.485000", "214442.945000", "214443.405000", "214443.865000", "214444.325000", "214444.785000", "214445.245000", "214445.705000", "214446.165000", "214446.625000", "214447.085000", "214447.545000", "214448.005000", "214448.465000", "214448.925000", "214449.385000", "214449.845000", "214450.305000", "214450.765000", "214451.225000", "214451.685000", "214452.145000", "214452.605000", "214453.065000", "214453.525000", "214453.985000", "214454.445000", "214454.905000", "214455.365000", "214455.825000", "214456.285000", "214456.745000", "214457.205000", "214457.665000", "214458.125000", "214458.585000", "214459.045000", "214459.505000", "214459.965000", "214500.425000", "214500.885000", "214501.345000", "214501.805000", "214502.265000", "214502.725000", "214503.185000", "214503.645000", "214504.105000", "214504.565000", "214505.025000", "214505.485000", "214505.945000", "214506.405000", "214506.865000", "214507.325000", "214507.785000", "214508.245000", "214508.705000", "214509.165000", "214509.625000", "214510.085000", "214510.545000", "214511.005000", "214511.465000", "214511.925000", "214512.385000", "214512.845000", "214513.305000", "214513.765000", "214514.225000", "214514.685000", "214515.145000", "214515.605000", "214516.065000", "214516.525000", "214516.985000", "214517.445000", "214517.905000", "214518.365000", "214518.825000", "214519.285000", "214519.745000", "214520.205000", "214520.665000", "214521.125000", "214521.585000", "214522.045000", "214522.505000", "214522.965000", "214523.425000", "214523.885000", "214524.345000", "214524.805000", "214525.265000", "214525.725000", "214526.185000", "214526.645000", "214527.105000", "214527.565000", "214528.025000", "214528.485000", "214528.945000", "214529.405000", "214529.865000", "214530.325000", "214530.785000", "214531.245000", "214531.705000", "214532.165000", "214532.625000", "214533.085000", "214533.545000", "214534.005000", "214534.465000", "214534.925000", "214535.385000", "214535.845000", "214536.305000", "214536.765000", "214537.225000", "214537.685000", "214538.145000", "214538.605000", "214539.065000", "214539.525000", "214539.985000", "214540.445000", "214540.905000", "214541.365000", "214541.825000", "214542.285000", "214542.745000", "214543.205000", "214543.665000", "214544.125000", "214544.585000", "214545.045000", "214545.505000", "214545.965000", "214546.425000", "214546.885000", "214547.345000", "214547.805000", "214548.265000", "214548.725000", "214549.185000", "214549.645000", "214550.105000", "214550.565000", "214551.025000", "214551.485000", "214551.945000", "214552.405000", "214552.865000", "214553.325000", "214553.785000", "214554.245000", "214554.705000", "214555.165000", "214555.625000", "214556.085000", "214556.545000", "214557.005000", "214557.465000", "214557.925000", "214558.385000", "214558.845000", "214559.305000", "214559.765000", "214600.225000", "214600.685000", "214601.145000", "214601.605000", "214602.065000", "214602.525000", "214602.985000", "214603.445000", "214603.905000", "214604.365000", "214604.825000", "214605.285000", "214605.745000", "214606.205000", "214606.665000", "214607.125000", "214607.585000", "214608.045000", "214608.505000", "214608.965000", "214609.425000", "214609.885000", "214610.345000", "214610.805000", "214611.265000", "214611.725000", "214612.185000", "214612.645000", "214613.105000", "214613.565000", "214614.025000", "214614.485000", "214614.945000", "214615.405000", "214615.865000", "214616.325000", "214616.785000", "214617.245000", "214617.705000", "214618.165000", "214618.625000", "214619.085000", "214619.545000", "214620.005000", "214620.465000", "214620.925000", "214621.385000", "214621.845000", "214622.305000", "214622.765000", "214623.225000", "214623.685000", "214624.145000", "214624.605000", "214625.065000", "214625.525000", "214625.985000", "214626.445000", "214626.905000", "214627.365000", "214627.825000", "214628.285000", "214628.745000", "214629.205000", "214629.665000", "214630.125000", "214630.585000", "214631.045000", "214631.505000", "214631.965000", "214632.425000", "214632.885000", "214633.345000", "214633.805000", "214634.265000", "214634.725000", "214635.185000", "214635.645000"],
