{
  "AcquisitionMatrixPE": 82,
  "AcquisitionNumber": 1,
  "AcquisitionTime": "21:03:4.812500",
  "BandwidthPerPixelPhaseEncode": 24.888,
  "BaseResolution": 82,
  "BodyPartExamined": "BRAIN",
  "ConsistencyInfo": "N4_VE11E_LATEST_20181129",
  "ConversionSoftware": "dcm2niix",
  "ConversionSoftwareVersion": "v1.0.20201102",
  "DerivedVendorReportedEchoSpacing": 0.00049,
  "DeviceSerialNumber": "66112",
  "DwellTime": 2e-06,
  "EchoTime": 0.0272,
  "EchoTrainLength": 82,
  "EffectiveEchoSpacing": 0.00049,
  "FlipAngle": 44,
  "ImageComments": "Unaliased MB8/PE3",
  "ImageOrientationPatientDICOM": [0.999975, 0.00543707, -0.00451562, -0.0054104, 0.999968, 0.00589661],
  "ImageType": [
    "ORIGINAL",
    "PRIMARY",
    "M",
    "MB",
    "ND",
    "NORM",
    "MOSAIC"
],
  "ImagingFrequency": 123.259,
  "InPlanePhaseEncodingDirectionDICOM": "COL",
  "InstitutionAddress": "Maynard 3,Hanover,NH,US,03755",
  "InstitutionName": "Dartmouth College - PBS",
  "InstitutionalDepartmentName": "Department",
  "MRAcquisitionType": "2D",
  "MagneticFieldStrength": 3,
  "Manufacturer": "Siemens",
  "ManufacturersModelName": "Prisma",
  "Modality": "MR",
  "MultibandAccelerationFactor": 8,
  "PartialFourier": 1,
  "PatientPosition": "HFS",
  "PercentPhaseFOV": 100,
  "PercentSampling": 100,
  "PhaseEncodingDirection": "j-",
  "PhaseEncodingSteps": 82,
  "PhaseResolution": 1,
  "PixelBandwidth": 3050,
  "ProcedureStepDescription": "Wager_Wager^1076_spacetop",
  "ProtocolName": "func_run-02_task-narratives_acq-ap-mb8",
  "PulseSequenceDetails": "%CustomerSeq%\\cmrr_mbep2d_bold",
  "ReceiveCoilActiveElements": "HEA;HEP",
  "ReceiveCoilName": "Head_32",
  "ReconMatrixPE": 82,
  "RepetitionTime": 0.46,
  "SAR": 0.104271,
  "ScanOptions": "FS",
  "ScanningSequence": "EP",
  "SequenceName": "epfid2d1_82",
  "SequenceVariant": "SK\\SS",
  "SeriesDescription": "func_run-02_task-narratives_acq-ap-mb8",
  "SeriesNumber": 10,
  "ShimSetting": [4208, -7787, -7233, 186, -130, -90, -27, 79],
  "SliceThickness": 2.7,
  "SliceTiming": [0, 0.25, 0.0625, 0.315, 0.125, 0.3775, 0.1875, 0, 0.25, 0.0625, 0.315, 0.125, 0.3775, 0.1875, 0, 0.25, 0.0625, 0.315, 0.125, 0.3775, 0.1875, 0, 0.25, 0.0625, 0.315, 0.125, 0.3775, 0.1875, 0, 0.25, 0.0625, 0.315, 0.125, 0.3775, 0.1875, 0, 0.25, 0.0625, 0.315, 0.125, 0.3775, 0.1875, 0, 0.25, 0.0625, 0.315, 0.125, 0.3775, 0.1875, 0, 0.25, 0.0625, 0.315, 0.125, 0.3775, 0.1875],
  "SoftwareVersions": "syngo MR E11",
  "SpacingBetweenSlices": 2.7,
  "StationName": "AWP66112",
  "TaskName": "narratives",
  "TotalReadoutTime": 0.03969,
  "TxRefAmp": 278.058,
  "WipMemBlock": "2ccfbc3e-8c57-4a26-aaa7-0508238933ff||Sequence: R016 ve11e/master r/434b28f1; Aug  7 2019 18:53:46 by eja",
  "dcmmeta_affine": [
    [-2.6828598976135254, -0.014515716582536697, -0.01227834913879633, 114.07929229736328],
    [-0.01458725892007351, 2.6828410625457764, 0.0158544834703207, -95.64904022216797],
    [-0.01211508084088564, -0.015820171684026718, 2.699925661087036, -72.71834564208984],
    [0.0, 0.0, 0.0, 1.0]
],
  "dcmmeta_reorient_transform": [
    [0.0, -1.0, 0.0, 81.0],
    [1.0, 0.0, 0.0, 0.0],
    [0.0, 0.0, 1.0, 0.0],
    [0.0, 0.0, 0.0, 1.0]
],
  "dcmmeta_shape": [82, 82, 56, 1098],
  "dcmmeta_slice_dim": 2,
  "dcmmeta_version": 0.6,
  "global": {
    "const": {
      "AccessionNumber": "A004929",
      "AcquisitionMatrix": [82, 0, 0, 82],
      "AngioFlag": "N",
      "BitsAllocated": 16,
      "BitsStored": 16,
      "BodyPartExamined": "BRAIN",
      "Columns": 656,
      "EchoNumbers": 1,
      "EchoTime": 27.2,
      "EchoTrainLength": 82,
      "FlipAngle": 44.0,
      "HighBit": 15,
      "ImageOrientationPatient": [0.99997502341238, 0.00543706910841, -0.0045156207684, -0.0054104032864, 0.9999679782554, 0.00589660920333],
      "ImagePositionPatient": [-878.71829157834, -895.82298441898, -75.063139724743],
      "ImageType": [
        "ORIGINAL",
        "PRIMARY",
        "M",
        "MB",
        "ND",
        "NORM",
        "MOSAIC"
],
      "ImagedNucleus": "1H",
      "ImagingFrequency": 123.259031,
      "InPlanePhaseEncodingDirection": "COL",
      "MRAcquisitionType": "2D",
      "MagneticFieldStrength": 3.0,
      "Manufacturer": "SIEMENS",
      "ManufacturerModelName": "Prisma",
      "Modality": "MR",
      "NumberOfAverages": 1.0,
      "NumberOfPhaseEncodingSteps": 82,
      "PercentPhaseFieldOfView": 100.0,
      "PercentSampling": 100.0,
      "PerformedProcedureStepStartTime": "204326.526000",
      "PhotometricInterpretation": "MONOCHROME2",
      "PixelBandwidth": 3050.0,
      "PixelRepresentation": 0,
      "PixelSpacing": [2.6829268932343, 2.6829268932343],
      "ProtocolName": "func_run-02_task-narratives_acq-ap-mb8",
      "RepetitionTime": 460.0,
      "Rows": 656,
      "SAR": 0.10427064946817,
      "SamplesPerPixel": 1,
      "ScanOptions": "FS",
      "ScanningSequence": "EP",
      "SequenceName": "epfid2d1_82",
      "SequenceVariant": [
        "SK",
        "SS"
],
      "SeriesDescription": "func_run-02_task-narratives_acq-ap-mb8",
      "SeriesNumber": 10,
      "SeriesTime": "210334.949000",
      "SliceLocation": -73.796772903166,
      "SliceThickness": 2.7000000476837,
      "SmallestImagePixelValue": 0,
      "SoftwareVersions": "syngo MR E11",
      "SpacingBetweenSlices": 2.7000001162655,
      "SpecificCharacterSet": "ISO_IR 100",
      "StudyID": "2",
      "StudyTime": "204326.478000",
      "TransmitCoilName": "Body",
      "VariableFlipAngleFlag": "N",
      "WindowCenterWidthExplanation": "Algo1"
    },
    "slices": {}
  },
  "time": {
    "samples": {
      "AcquisitionNumber": [1, 2, 3, 4, 5, 6, 7, 8, 9, 10, 11, 12, 13, 14, 15, 16, 17, 18, 19, 20, 21, 22, 23, 24, 25, 26, 27, 28, 29, 30, 31, 32, 33, 34, 35, 36, 37, 38, 39, 40, 41, 42, 43, 44, 45, 46, 47, 48, 49, 50, 51, 52, 53, 54, 55, 56, 57, 58, 59, 60, 61, 62, 63, 64, 65, 66, 67, 68, 69, 70, 71, 72, 73, 74, 75, 76, 77, 78, 79, 80, 81, 82, 83, 84, 85, 86, 87, 88, 89, 90, 91, 92, 93, 94, 95, 96, 97, 98, 99, 100, 101, 102, 103, 104, 105, 106, 107, 108, 109, 110, 111, 112, 113, 114, 115, 116, 117, 118, 119, 120, 121, 122, 123, 124, 125, 126, 127, 128, 129, 130, 131, 132, 133, 134, 135, 136, 137, 138, 139, 140, 141, 142, 143, 144, 145, 146, 147, 148, 149, 150, 151, 152, 153, 154, 155, 156, 157, 158, 159, 160, 161, 162, 163, 164, 165, 166, 167, 168, 169, 170, 171, 172, 173, 174, 175, 176, 177, 178, 179, 180, 181, 182, 183, 184, 185, 186, 187, 188, 189, 190, 191, 192, 193, 194, 195, 196, 197, 198, 199, 200, 201, 202, 203, 204, 205, 206, 207, 208, 209, 210, 211, 212, 213, 214, 215, 216, 217, 218, 219, 220, 221, 222, 223, 224, 225, 226, 227, 228, 229, 230, 231, 232, 233, 234, 235, 236, 237, 238, 239, 240, 241, 242, 243, 244, 245, 246, 247, 248, 249, 250, 251, 252, 253, 254, 255, 256, 257, 258, 259, 260, 261, 262, 263, 264, 265, 266, 267, 268, 269, 270, 271, 272, 273, 274, 275, 276, 277, 278, 279, 280, 281, 282, 283, 284, 285, 286, 287, 288, 289, 290, 291, 292, 293, 294, 295, 296, 297, 298, 299, 300, 301, 302, 303, 304, 305, 306, 307, 308, 309, 310, 311, 312, 313, 314, 315, 316, 317, 318, 319, 320, 321, 322, 323, 324, 325, 326, 327, 328, 329, 330, 331, 332, 333, 334, 335, 336, 337, 338, 339, 340, 341, 342, 343, 344, 345, 346, 347, 348, 349, 350, 351, 352, 353, 354, 355, 356, 357, 358, 359, 360, 361, 362, 363, 364, 365, 366, 367, 368, 369, 370, 371, 372, 373, 374, 375, 376, 377, 378, 379, 380, 381, 382, 383, 384, 385, 386, 387, 388, 389, 390, 391, 392, 393, 394, 395, 396, 397, 398, 399, 400, 401, 402, 403, 404, 405, 406, 407, 408, 409, 410, 411, 412, 413, 414, 415, 416, 417, 418, 419, 420, 421, 422, 423, 424, 425, 426, 427, 428, 429, 430, 431, 432, 433, 434, 435, 436, 437, 438, 439, 440, 441, 442, 443, 444, 445, 446, 447, 448, 449, 450, 451, 452, 453, 454, 455, 456, 457, 458, 459, 460, 461, 462, 463, 464, 465, 466, 467, 468, 469, 470, 471, 472, 473, 474, 475, 476, 477, 478, 479, 480, 481, 482, 483, 484, 485, 486, 487, 488, 489, 490, 491, 492, 493, 494, 495, 496, 497, 498, 499, 500, 501, 502, 503, 504, 505, 506, 507, 508, 509, 510, 511, 512, 513, 514, 515, 516, 517, 518, 519, 520, 521, 522, 523, 524, 525, 526, 527, 528, 529, 530, 531, 532, 533, 534, 535, 536, 537, 538, 539, 540, 541, 542, 543, 544, 545, 546, 547, 548, 549, 550, 551, 552, 553, 554, 555, 556, 557, 558, 559, 560, 561, 562, 563, 564, 565, 566, 567, 568, 569, 570, 571, 572, 573, 574, 575, 576, 577, 578, 579, 580, 581, 582, 583, 584, 585, 586, 587, 588, 589, 590, 591, 592, 593, 594, 595, 596, 597, 598, 599, 600, 601, 602, 603, 604, 605, 606, 607, 608, 609, 610, 611, 612, 613, 614, 615, 616, 617, 618, 619, 620, 621, 622, 623, 624, 625, 626, 627, 628, 629, 630, 631, 632, 633, 634, 635, 636, 637, 638, 639, 640, 641, 642, 643, 644, 645, 646, 647, 648, 649, 650, 651, 652, 653, 654, 655, 656, 657, 658, 659, 660, 661, 662, 663, 664, 665, 666, 667, 668, 669, 670, 671, 672, 673, 674, 675, 676, 677, 678, 679, 680, 681, 682, 683, 684, 685, 686, 687, 688, 689, 690, 691, 692, 693, 694, 695, 696, 697, 698, 699, 700, 701, 702, 703, 704, 705, 706, 707, 708, 709, 710, 711, 712, 713, 714, 715, 716, 717, 718, 719, 720, 721, 722, 723, 724, 725, 726, 727, 728, 729, 730, 731, 732, 733, 734, 735, 736, 737, 738, 739, 740, 741, 742, 743, 744, 745, 746, 747, 748, 749, 750, 751, 752, 753, 754, 755, 756, 757, 758, 759, 760, 761, 762, 763, 764, 765, 766, 767, 768, 769, 770, 771, 772, 773, 774, 775, 776, 777, 778, 779, 780, 781, 782, 783, 784, 785, 786, 787, 788, 789, 790, 791, 792, 793, 794, 795, 796, 797, 798, 799, 800, 801, 802, 803, 804, 805, 806, 807, 808, 809, 810, 811, 812, 813, 814, 815, 816, 817, 818, 819, 820, 821, 822, 823, 824, 825, 826, 827, 828, 829, 830, 831, 832, 833, 834, 835, 836, 837, 838, 839, 840, 841, 842, 843, 844, 845, 846, 847, 848, 849, 850, 851, 852, 853, 854, 855, 856, 857, 858, 859, 860, 861, 862, 863, 864, 865, 866, 867, 868, 869, 870, 871, 872, 873, 874, 875, 876, 877, 878, 879, 880, 881, 882, 883, 884, 885, 886, 887, 888, 889, 890, 891, 892, 893, 894, 895, 896, 897, 898, 899, 900, 901, 902, 903, 904, 905, 906, 907, 908, 909, 910, 911, 912, 913, 914, 915, 916, 917, 918, 919, 920, 921, 922, 923, 924, 925, 926, 927, 928, 929, 930, 931, 932, 933, 934, 935, 936, 937, 938, 939, 940, 941, 942, 943, 944, 945, 946, 947, 948, 949, 950, 951, 952, 953, 954, 955, 956, 957, 958, 959, 960, 961, 962, 963, 964, 965, 966, 967, 968, 969, 970, 971, 972, 973, 974, 975, 976, 977, 978, 979, 980, 981, 982, 983, 984, 985, 986, 987, 988, 989, 990, 991, 992, 993, 994, 995, 996, 997, 998, 999, 1000, 1001, 1002, 1003, 1004, 1005, 1006, 1007, 1008, 1009, 1010, 1011, 1012, 1013, 1014, 1015, 1016, 1017, 1018, 1019, 1020, 1021, 1022, 1023, 1024, 1025, 1026, 1027, 1028, 1029, 1030, 1031, 1032, 1033, 1034, 1035, 1036, 1037, 1038, 1039, 1040, 1041, 1042, 1043, 1044, 1045, 1046, 1047, 1048, 1049, 1050, 1051, 1052, 1053, 1054, 1055, 1056, 1057, 1058, 1059, 1060, 1061, 1062, 1063, 1064, 1065, 1066, 1067, 1068, 1069, 1070, 1071, 1072, 1073, 1074, 1075, 1076, 1077, 1078, 1079, 1080, 1081, 1082, 1083, 1084, 1085, 1086, 1087, 1088, 1089, 1090, 1091, 1092, 1093, 1094, 1095, 1096, 1097, 1098],
      "AcquisitionTime": ["210304.812500", "210305.272500", "210305.732500", "210306.192500", "210306.652500", "210307.112500", "210307.572500", "210308.032500", "210308.492500", "210308.952500", "210309.412500", "210309.872500", "210310.332500", "210310.792500", "210311.252500", "210311.712500", "210312.172500", "210312.632500", "210313.092500", "210313.552500", "210314.012500", "210314.472500", "210314.932500", "210315.392500", "210315.852500", "210316.312500", "210316.772500", "210317.232500", "210317.692500", "210318.152500", "210318.612500", "210319.072500", "210319.532500", "210319.992500", "210320.452500", "210320.912500", "210321.372500", "210321.832500", "210322.292500", "210322.752500", "210323.212500", "210323.672500", "210324.132500", "210324.592500", "210325.052500", "210325.512500", "210325.972500", "210326.432500", "210326.892500", "210327.352500", "210327.812500", "210328.272500", "210328.732500", "210329.192500", "210329.652500", "210330.112500", "210330.572500", "210331.032500", "210331.492500", "210331.952500", "210332.412500", "210332.872500", "210333.332500", "210333.792500", "210334.252500", "210334.712500", "210335.172500", "210335.632500", "210336.092500", "210336.552500", "210337.012500", "210337.472500", "210337.932500", "210338.392500", "210338.852500", "210339.312500", "210339.772500", "210340.232500", "210340.692500", "210341.152500", "210341.612500", "210342.072500", "210342.532500", "210342.992500", "210343.452500", "210343.912500", "210344.372500", "210344.832500", "210345.292500", "210345.752500", "210346.212500", "210346.672500", "210347.132500", "210347.592500", "210348.052500", "210348.512500", "210348.972500", "210349.432500", "210349.892500", "210350.352500", "210350.812500", "210351.272500", "210351.732500", "210352.192500", "210352.652500", "210353.112500", "210353.572500", "210354.032500", "210354.492500", "210354.952500", "210355.412500", "210355.872500", "210356.332500", "210356.792500", "210357.252500", "210357.712500", "210358.172500", "210358.632500", "210359.092500", "210359.552500", "210400.012500", "210400.472500", "210400.932500", "210401.392500", "210401.852500", "210402.312500", "210402.772500", "210403.232500", "210403.692500", "210404.152500", "210404.612500", "210405.072500", "210405.532500", "210405.992500", "210406.452500", "210406.912500", "210407.372500", "210407.832500", "210408.292500", "210408.752500", "210409.212500", "210409.672500", "210410.132500", "210410.592500", "210411.052500", "210411.512500", "210411.972500", "210412.432500", "210412.892500", "210413.352500", "210413.812500", "210414.272500", "210414.732500", "210415.192500", "210415.652500", "210416.112500", "210416.572500", "210417.032500", "210417.492500", "210417.952500", "210418.412500", "210418.872500", "210419.332500", "210419.792500", "210420.252500", "210420.712500", "210421.172500", "210421.632500", "210422.092500", "210422.552500", "210423.012500", "210423.472500", "210423.932500", "210424.392500", "210424.852500", "210425.312500", "210425.772500", "210426.232500", "210426.692500", "210427.152500", "210427.612500", "210428.072500", "210428.532500", "210428.992500", "210429.452500", "210429.912500", "210430.372500", "210430.832500", "210431.292500", "210431.752500", "210432.212500", "210432.672500", "210433.132500", "210433.592500", "210434.052500", "210434.512500", "210434.972500", "210435.432500", "210435.892500", "210436.352500", "210436.812500", "210437.272500", "210437.732500", "210438.192500", "210438.652500", "210439.112500", "210439.572500", "210440.032500", "210440.492500", "210440.952500", "210441.412500", "210441.872500", "210442.332500", "210442.792500", "210443.252500", "210443.712500", "210444.172500", "210444.632500", "210445.092500", "210445.552500", "210446.012500", "210446.472500", "210446.932500", "210447.392500", "210447.852500", "210448.312500", "210448.772500", "210449.232500", "210449.692500", "210450.152500", "210450.612500", "210451.072500", "210451.532500", "210451.992500", "210452.452500", "210452.912500", "210453.372500", "210453.832500", "210454.292500", "210454.752500", "210455.212500", "210455.672500", "210456.132500", "210456.592500", "210457.052500", "210457.512500", "210457.972500", "210458.432500", "210458.892500", "210459.352500", "210459.812500", "210500.272500", "210500.732500", "210501.192500", "210501.652500", "210502.112500", "210502.572500", "210503.032500", "210503.492500", "210503.952500", "210504.412500", "210504.872500", "210505.332500", "210505.792500", "210506.252500", "210506.712500", "210507.172500", "210507.632500", "210508.092500", "210508.552500", "210509.012500", "210509.472500", "210509.932500", "210510.392500", "210510.852500", "210511.312500", "210511.772500", "210512.232500", "210512.692500", "210513.152500", "210513.612500", "210514.072500", "210514.532500", "210514.992500", "210515.452500", "210515.912500", "210516.372500", "210516.832500", "210517.292500", "210517.752500", "210518.212500", "210518.672500", "210519.132500", "210519.592500", "210520.052500", "210520.512500", "210520.972500", "210521.432500", "210521.892500", "210522.352500", "210522.812500", "210523.272500", "210523.732500", "210524.192500", "210524.652500", "210525.112500", "210525.572500", "210526.032500", "210526.492500", "210526.952500", "210527.412500", "210527.872500", "210528.332500", "210528.792500", "210529.252500", "210529.712500", "210530.172500", "210530.632500", "210531.092500", "210531.552500", "210532.012500", "210532.472500", "210532.932500", "210533.392500", "210533.852500", "210534.312500", "210534.772500", "210535.232500", "210535.692500", "210536.152500", "210536.612500", "210537.072500", "210537.532500", "210537.992500", "210538.452500", "210538.912500", "210539.372500", "210539.832500", "210540.292500", "210540.752500", "210541.212500", "210541.672500", "210542.132500", "210542.592500", "210543.052500", "210543.512500", "210543.972500", "210544.432500", "210544.892500", "210545.352500", "210545.812500", "210546.272500", "210546.732500", "210547.192500", "210547.652500", "210548.112500", "210548.572500", "210549.032500", "210549.492500", "210549.952500", "210550.412500", "210550.872500", "210551.332500", "210551.792500", "210552.252500", "210552.712500", "210553.172500", "210553.632500", "210554.092500", "210554.552500", "210555.012500", "210555.472500", "210555.932500", "210556.392500", "210556.852500", "210557.312500", "210557.772500", "210558.232500", "210558.692500", "210559.152500", "210559.612500", "210600.072500", "210600.532500", "210600.992500", "210601.452500", "210601.912500", "210602.372500", "210602.832500", "210603.292500", "210603.752500", "210604.212500", "210604.672500", "210605.132500", "210605.592500", "210606.052500", "210606.512500", "210606.972500", "210607.432500", "210607.892500", "210608.352500", "210608.812500", "210609.272500", "210609.732500", "210610.192500", "210610.652500", "210611.112500", "210611.572500", "210612.032500", "210612.492500", "210612.952500", "210613.412500", "210613.872500", "210614.332500", "210614.792500", "210615.252500", "210615.712500", "210616.172500", "210616.632500", "210617.092500", "210617.552500", "210618.012500", "210618.472500", "210618.932500", "210619.392500", "210619.852500", "210620.312500", "210620.772500", "210621.232500", "210621.692500", "210622.152500", "210622.612500", "210623.072500", "210623.532500", "210623.992500", "210624.452500", "210624.912500", "210625.372500", "210625.832500", "210626.292500", "210626.752500", "210627.212500", "210627.672500", "210628.132500", "210628.592500", "210629.052500", "210629.512500", "210629.972500", "210630.432500", "210630.892500", "210631.352500", "210631.812500", "210632.272500", "210632.732500", "210633.192500", "210633.652500", "210634.112500", "210634.572500", "210635.032500", "210635.492500", "210635.952500", "210636.412500", "210636.872500", "210637.332500", "210637.792500", "210638.252500", "210638.712500", "210639.172500", "210639.632500", "210640.092500", "210640.552500", "210641.012500", "210641.472500", "210641.932500", "210642.392500", "210642.852500", "210643.312500", "210643.772500", "210644.232500", "210644.692500", "210645.152500", "210645.612500", "210646.072500", "210646.532500", "210646.992500", "210647.452500", "210647.912500", "210648.372500", "210648.832500", "210649.292500", "210649.752500", "210650.212500", "210650.672500", "210651.132500", "210651.592500", "210652.052500", "210652.512500", "210652.972500", "210653.432500", "210653.892500", "210654.352500", "210654.812500", "210655.272500", "210655.732500", "210656.192500", "210656.652500", "210657.112500", "210657.572500", "210658.032500", "210658.492500", "210658.952500", "210659.412500", "210659.872500", "210700.332500", "210700.792500", "210701.252500", "210701.712500", "210702.172500", "210702.632500", "210703.092500", "210703.552500", "210704.012500", "210704.472500", "210704.932500", "210705.392500", "210705.852500", "210706.312500", "210706.772500", "210707.232500", "210707.692500", "210708.152500", "210708.612500", "210709.072500", "210709.532500", "210709.992500", "210710.452500", "210710.912500", "210711.372500", "210711.832500", "210712.292500", "210712.752500", "210713.212500", "210713.672500", "210714.132500", "210714.592500", "210715.052500", "210715.512500", "210715.972500", "210716.432500", "210716.892500", "210717.352500", "210717.812500", "210718.272500", "210718.732500", "210719.192500", "210719.652500", "210720.112500", "210720.572500", "210721.032500", "210721.492500", "210721.952500", "210722.412500", "210722.872500", "210723.332500", "210723.792500", "210724.252500", "210724.712500", "210725.172500", "210725.632500", "210726.092500", "210726.552500", "210727.012500", "210727.472500", "210727.932500", "210728.392500", "210728.852500", "210729.312500", "210729.772500", "210730.232500", "210730.692500", "210731.152500", "210731.612500", "210732.072500", "210732.532500", "210732.992500", "210733.452500", "210733.912500", "210734.372500", "210734.832500", "210735.292500", "210735.752500", "210736.212500", "210736.672500", "210737.132500", "210737.592500", "210738.052500", "210738.512500", "210738.972500", "210739.432500", "210739.892500", "210740.352500", "210740.812500", "210741.272500", "210741.732500", "210742.192500", "210742.652500", "210743.112500", "210743.572500", "210744.032500", "210744.492500", "210744.952500", "210745.412500", "210745.872500", "210746.332500", "210746.792500", "210747.252500", "210747.712500", "210748.172500", "210748.632500", "210749.092500", "210749.552500", "210750.012500", "210750.472500", "210750.932500", "210751.392500", "210751.852500", "210752.312500", "210752.772500", "210753.232500", "210753.692500", "210754.152500", "210754.612500", "210755.072500", "210755.532500", "210755.992500", "210756.452500", "210756.912500", "210757.372500", "210757.832500", "210758.292500", "210758.752500", "210759.212500", "210759.672500", "210800.132500", "210800.592500", "210801.052500", "210801.512500", "210801.972500", "210802.432500", "210802.892500", "210803.352500", "210803.812500", "210804.272500", "210804.732500", "210805.192500", "210805.652500", "210806.112500", "210806.572500", "210807.032500", "210807.492500", "210807.952500", "210808.412500", "210808.872500", "210809.332500", "210809.792500", "210810.252500", "210810.712500", "210811.172500", "210811.632500", "210812.092500", "210812.552500", "210813.012500", "210813.472500", "210813.932500", "210814.392500", "210814.852500", "210815.312500", "210815.772500", "210816.232500", "210816.692500", "210817.152500", "210817.612500", "210818.072500", "210818.532500", "210818.992500", "210819.452500", "210819.912500", "210820.372500", "210820.832500", "210821.292500", "210821.752500", "210822.212500", "210822.672500", "210823.132500", "210823.592500", "210824.052500", "210824.512500", "210824.972500", "210825.432500", "210825.892500", "210826.352500", "210826.812500", "210827.272500", "210827.732500", "210828.192500", "210828.652500", "210829.112500", "210829.572500", "210830.032500", "210830.492500", "210830.952500", "210831.412500", "210831.872500", "210832.332500", "210832.792500", "210833.252500", "210833.712500", "210834.172500", "210834.632500", "210835.092500", "210835.552500", "210836.012500", "210836.472500", "210836.932500", "210837.392500", "210837.852500", "210838.312500", "210838.772500", "210839.232500", "210839.692500", "210840.152500", "210840.612500", "210841.072500", "210841.532500", "210841.992500", "210842.452500", "210842.912500", "210843.372500", "210843.832500", "210844.292500", "210844.752500", "210845.212500", "210845.672500", "210846.132500", "210846.592500", "210847.052500", "210847.512500", "210847.972500", "210848.432500", "210848.892500", "210849.352500", "210849.812500", "210850.272500", "210850.732500", "210851.192500", "210851.652500", "210852.112500", "210852.572500", "210853.032500", "210853.492500", "210853.952500", "210854.412500", "210854.872500", "210855.332500", "210855.792500", "210856.252500", "210856.712500", "210857.172500", "210857.632500", "210858.092500", "210858.552500", "210859.012500", "210859.472500", "210859.932500", "210900.392500", "210900.852500", "210901.312500", "210901.772500", "210902.232500", "210902.692500", "210903.152500", "210903.612500", "210904.072500", "210904.532500", "210904.992500", "210905.452500", "210905.912500", "210906.372500", "210906.832500", "210907.292500", "210907.752500", "210908.212500", "210908.672500", "210909.132500", "210909.592500", "210910.052500", "210910.512500", "210910.972500", "210911.432500", "210911.892500", "210912.352500", "210912.812500", "210913.272500", "210913.732500", "210914.192500", "210914.652500", "210915.112500", "210915.572500", "210916.032500", "210916.492500", "210916.952500", "210917.412500", "210917.872500", "210918.332500", "210918.792500", "210919.252500", "210919.712500", "210920.172500", "210920.632500", "210921.092500", "210921.552500", "210922.012500", "210922.472500", "210922.932500", "210923.392500", "210923.852500", "210924.312500", "210924.772500", "210925.232500", "210925.692500", "210926.152500", "210926.612500", "210927.072500", "210927.532500", "210927.992500", "210928.452500", "210928.912500", "210929.372500", "210929.832500", "210930.292500", "210930.752500", "210931.212500", "210931.672500", "210932.132500", "210932.592500", "210933.052500", "210933.512500", "210933.972500", "210934.432500", "210934.892500", "210935.352500", "210935.812500", "210936.272500", "210936.732500", "210937.192500", "210937.652500", "210938.112500", "210938.572500", "210939.032500", "210939.492500", "210939.952500", "210940.412500", "210940.872500", "210941.332500", "210941.792500", "210942.252500", "210942.712500", "210943.172500", "210943.632500", "210944.092500", "210944.552500", "210945.012500", "210945.472500", "210945.932500", "210946.392500", "210946.852500", "210947.312500", "210947.772500", "210948.232500", "210948.692500", "210949.152500", "210949.612500", "210950.072500", "210950.532500", "210950.992500", "210951.452500", "210951.912500", "210952.372500", "210952.832500", "210953.292500", "210953.752500", "210954.212500", "210954.672500", "210955.132500", "210955.592500", "210956.052500", "210956.512500", "210956.972500", "210957.432500", "210957.892500", "210958.352500", "210958.812500", "210959.272500", "210959.732500", "211000.192500", "211000.652500", "211001.112500", "211001.572500", "211002.032500", "211002.492500", "211002.952500", "211003.412500", "211003.872500", "211004.332500", "211004.792500", "211005.252500", "211005.712500", "211006.172500", "211006.632500", "211007.092500", "211007.552500", "211008.012500", "211008.472500", "211008.932500", "211009.392500", "211009.852500", "211010.312500", "211010.772500", "211011.232500", "211011.692500", "211012.152500", "211012.612500", "211013.072500", "211013.532500", "211013.992500", "211014.452500", "211014.912500", "211015.372500", "211015.832500", "211016.292500", "211016.752500", "211017.212500", "211017.672500", "211018.132500", "211018.592500", "211019.052500", "211019.512500", "211019.972500", "211020.432500", "211020.892500", "211021.352500", "211021.812500", "211022.272500", "211022.732500", "211023.192500", "211023.652500", "211024.112500", "211024.572500", "211025.032500", "211025.492500", "211025.952500", "211026.412500", "211026.872500", "211027.332500", "211027.792500", "211028.252500", "211028.712500", "211029.172500", "211029.632500", "211030.092500", "211030.552500", "211031.012500", "211031.472500", "211031.932500", "211032.392500", "211032.852500", "211033.312500", "211033.772500", "211034.232500", "211034.692500", "211035.152500", "211035.612500", "211036.072500", "211036.532500", "211036.992500", "211037.452500", "211037.912500", "211038.372500", "211038.832500", "211039.292500", "211039.752500", "211040.212500", "211040.672500", "211041.132500", "211041.592500", "211042.052500", "211042.512500", "211042.972500", "211043.432500", "211043.892500", "211044.352500", "211044.812500", "211045.272500", "211045.732500", "211046.192500", "211046.652500", "211047.112500", "211047.572500", "211048.032500", "211048.492500", "211048.952500", "211049.412500", "211049.872500", "211050.332500", "211050.792500", "211051.252500", "211051.712500", "211052.172500", "211052.632500", "211053.092500", "211053.552500", "211054.012500", "211054.472500", "211054.932500", "211055.392500", "211055.852500", "211056.312500", "211056.772500", "211057.232500", "211057.692500", "211058.152500", "211058.612500", "211059.072500", "211059.532500", "211059.992500", "211100.452500", "211100.912500", "211101.372500", "211101.832500", "211102.292500", "211102.752500", "211103.212500", "211103.672500", "211104.132500", "211104.592500", "211105.052500", "211105.512500", "211105.972500", "211106.432500", "211106.892500", "211107.352500", "211107.812500", "211108.272500", "211108.732500", "211109.192500", "211109.652500", "211110.112500", "211110.572500", "211111.032500", "211111.492500", "211111.952500", "211112.412500", "211112.872500", "211113.332500", "211113.792500", "211114.252500", "211114.712500", "211115.172500", "211115.632500", "211116.092500", "211116.552500", "211117.012500", "211117.472500", "211117.932500", "211118.392500", "211118.852500", "211119.312500", "211119.772500", "211120.232500", "211120.692500", "211121.152500", "211121.612500", "211122.072500", "211122.532500", "211122.992500", "211123.452500", "211123.912500", "211124.372500", "211124.832500", "211125.292500", "211125.752500", "211126.212500", "211126.672500", "211127.132500", "211127.592500", "211128.052500", "211128.512500", "211128.972500", "211129.432500"],
