{
  "AcquisitionMatrixPE": 82,
  "AcquisitionNumber": 1,
  "AcquisitionTime": "21:56:35.845000",
  "BandwidthPerPixelPhaseEncode": 24.888,
  "BaseResolution": 82,
  "BodyPartExamined": "BRAIN",
  "ConsistencyInfo": "N4_VE11E_LATEST_20181129",
  "ConversionSoftware": "dcm2niix",
  "ConversionSoftwareVersion": "v1.0.20201102",
  "DerivedVendorReportedEchoSpacing": 0.00049,
  "DeviceSerialNumber": "66112",
  "DwellTime": 2e-06,
  "EchoTime": 0.0272,
  "EchoTrainLength": 82,
  "EffectiveEchoSpacing": 0.00049,
  "FlipAngle": 44,
  "ImageComments": "Unaliased MB8/PE3",
  "ImageOrientationPatientDICOM": [0.999707, -0.00672364, -0.0232434, 0.00767736, 0.999122, 0.0411894],
  "ImageType": [
    "ORIGINAL",
    "PRIMARY",
    "M",
    "MB",
    "ND",
    "NORM",
    "MOSAIC"
],
  "ImagingFrequency": 123.259,
  "InPlanePhaseEncodingDirectionDICOM": "COL",
  "InstitutionAddress": "Maynard 3,Hanover,NH,US,03755",
  "InstitutionName": "Dartmouth College - PBS",
  "InstitutionalDepartmentName": "Department",
  "MRAcquisitionType": "2D",
  "MagneticFieldStrength": 3,
  "Manufacturer": "Siemens",
  "ManufacturersModelName": "Prisma",
  "Modality": "MR",
  "MultibandAccelerationFactor": 8,
  "PartialFourier": 1,
  "PatientPosition": "HFS",
  "PercentPhaseFOV": 100,
  "PercentSampling": 100,
  "PhaseEncodingDirection": "j-",
  "PhaseEncodingSteps": 82,
  "PhaseResolution": 1,
  "PixelBandwidth": 3050,
  "ProcedureStepDescription": "Wager_Wager^1076_spacetop",
  "ProtocolName": "func_run-01_task-alignvideo_acq-ap-mb8",
  "PulseSequenceDetails": "%CustomerSeq%\\cmrr_mbep2d_bold",
  "ReceiveCoilActiveElements": "HEA;HEP",
  "ReceiveCoilName": "Head_32",
  "ReconMatrixPE": 82,
  "RepetitionTime": 0.46,
  "SAR": 0.104112,
  "ScanOptions": "FS",
  "ScanningSequence": "EP",
  "SequenceName": "epfid2d1_82",
  "SequenceVariant": "SK\\SS",
  "SeriesDescription": "func_run-01_task-alignvideo_acq-ap-mb8",
  "SeriesNumber": 28,
  "ShimSetting": [4208, -7788, -7235, 173, -133, -94, -23, 80],
  "SliceThickness": 2.7,
  "SliceTiming": [0, 0.25, 0.0625, 0.3125, 0.125, 0.3775, 0.1875, 0, 0.25, 0.0625, 0.3125, 0.125, 0.3775, 0.1875, 0, 0.25, 0.0625, 0.3125, 0.125, 0.3775, 0.1875, 0, 0.25, 0.0625, 0.3125, 0.125, 0.3775, 0.1875, 0, 0.25, 0.0625, 0.3125, 0.125, 0.3775, 0.1875, 0, 0.25, 0.0625, 0.3125, 0.125, 0.3775, 0.1875, 0, 0.25, 0.0625, 0.3125, 0.125, 0.3775, 0.1875, 0, 0.25, 0.0625, 0.3125, 0.125, 0.3775, 0.1875],
  "SoftwareVersions": "syngo MR E11",
  "SpacingBetweenSlices": 2.7,
  "StationName": "AWP66112",
  "TaskName": "alignvideo",
  "TotalReadoutTime": 0.03969,
  "TxRefAmp": 278.058,
  "WipMemBlock": "3c06a0be-bd33-4a2f-a5cc-df8bd3d5dfd7||Sequence: R016 ve11e/master r/434b28f1; Aug  7 2019 18:53:46 by eja",
  "dcmmeta_affine": [
    [-2.6821413040161133, 0.02059779316186905, -0.061954233795404434, 114.10824584960938],
    [0.018039021641016006, 2.6805708408355713, 0.11166060715913773, -100.0685806274414],
    [-0.0623602494597435, -0.11050812900066376, 2.6969785690307617, -69.40123748779297],
    [0.0, 0.0, 0.0, 1.0]
],
  "dcmmeta_reorient_transform": [
    [0.0, -1.0, 0.0, 81.0],
    [1.0, 0.0, 0.0, 0.0],
    [0.0, 0.0, 1.0, 0.0],
    [0.0, 0.0, 0.0, 1.0]
],
  "dcmmeta_shape": [82, 82, 56, 839],
  "dcmmeta_slice_dim": 2,
  "dcmmeta_version": 0.6,
  "global": {
    "const": {
      "AccessionNumber": "A004929",
      "AcquisitionMatrix": [82, 0, 0, 82],
      "AngioFlag": "N",
      "BitsAllocated": 16,
      "BitsStored": 16,
      "BodyPartExamined": "BRAIN",
      "Columns": 656,
      "EchoNumbers": 1,
      "EchoTime": 27.2,
      "EchoTrainLength": 82,
      "FlipAngle": 44.0,
      "HighBit": 15,
      "ImageOrientationPatient": [0.99970722649466, -0.0067236354623, -0.0232433650862, 0.00767735895745, 0.99912186054136, 0.04118939120462],
      "ImagePositionPatient": [-891.4628146634, -881.20431827735, -92.170837406123],
      "ImageType": [
        "ORIGINAL",
        "PRIMARY",
        "M",
        "MB",
        "ND",
        "NORM",
        "MOSAIC"
],
      "ImagedNucleus": "1H",
      "ImagingFrequency": 123.259042,
      "InPlanePhaseEncodingDirection": "COL",
      "MRAcquisitionType": "2D",
      "MagneticFieldStrength": 3.0,
      "Manufacturer": "SIEMENS",
      "ManufacturerModelName": "Prisma",
      "Modality": "MR",
      "NumberOfAverages": 1.0,
      "NumberOfPhaseEncodingSteps": 82,
      "PercentPhaseFieldOfView": 100.0,
      "PercentSampling": 100.0,
      "PerformedProcedureStepStartTime": "204326.526000",
      "PhotometricInterpretation": "MONOCHROME2",
      "PixelBandwidth": 3050.0,
      "PixelRepresentation": 0,
      "PixelSpacing": [2.6829268932343, 2.6829268932343],
      "ProtocolName": "func_run-01_task-alignvideo_acq-ap-mb8",
      "RepetitionTime": 460.0,
      "Rows": 656,
      "SAR": 0.10411176810785,
      "SamplesPerPixel": 1,
      "ScanOptions": "FS",
      "ScanningSequence": "EP",
      "SequenceName": "epfid2d1_82",
      "SequenceVariant": [
        "SK",
        "SS"
],
      "SeriesDescription": "func_run-01_task-alignvideo_acq-ap-mb8",
      "SeriesNumber": 28,
      "SeriesTime": "215654.957000",
      "SliceLocation": -76.080319446616,
      "SliceThickness": 2.7000000476837,
      "SmallestImagePixelValue": 0,
      "SoftwareVersions": "syngo MR E11",
      "SpacingBetweenSlices": 2.7000000184263,
      "SpecificCharacterSet": "ISO_IR 100",
      "StudyID": "2",
      "StudyTime": "204326.478000",
      "TransmitCoilName": "Body",
      "VariableFlipAngleFlag": "N",
      "WindowCenterWidthExplanation": "Algo1"
    },
    "slices": {}
  },
  "time": {
    "samples": {
      "AcquisitionNumber": [1, 2, 3, 4, 5, 6, 7, 8, 9, 10, 11, 12, 13, 14, 15, 16, 17, 18, 19, 20, 21, 22, 23, 24, 25, 26, 27, 28, 29, 30, 31, 32, 33, 34, 35, 36, 37, 38, 39, 40, 41, 42, 43, 44, 45, 46, 47, 48, 49, 50, 51, 52, 53, 54, 55, 56, 57, 58, 59, 60, 61, 62, 63, 64, 65, 66, 67, 68, 69, 70, 71, 72, 73, 74, 75, 76, 77, 78, 79, 80, 81, 82, 83, 84, 85, 86, 87, 88, 89, 90, 91, 92, 93, 94, 95, 96, 97, 98, 99, 100, 101, 102, 103, 104, 105, 106, 107, 108, 109, 110, 111, 112, 113, 114, 115, 116, 117, 118, 119, 120, 121, 122, 123, 124, 125, 126, 127, 128, 129, 130, 131, 132, 133, 134, 135, 136, 137, 138, 139, 140, 141, 142, 143, 144, 145, 146, 147, 148, 149, 150, 151, 152, 153, 154, 155, 156, 157, 158, 159, 160, 161, 162, 163, 164, 165, 166, 167, 168, 169, 170, 171, 172, 173, 174, 175, 176, 177, 178, 179, 180, 181, 182, 183, 184, 185, 186, 187, 188, 189, 190, 191, 192, 193, 194, 195, 196, 197, 198, 199, 200, 201, 202, 203, 204, 205, 206, 207, 208, 209, 210, 211, 212, 213, 214, 215, 216, 217, 218, 219, 220, 221, 222, 223, 224, 225, 226, 227, 228, 229, 230, 231, 232, 233, 234, 235, 236, 237, 238, 239, 240, 241, 242, 243, 244, 245, 246, 247, 248, 249, 250, 251, 252, 253, 254, 255, 256, 257, 258, 259, 260, 261, 262, 263, 264, 265, 266, 267, 268, 269, 270, 271, 272, 273, 274, 275, 276, 277, 278, 279, 280, 281, 282, 283, 284, 285, 286, 287, 288, 289, 290, 291, 292, 293, 294, 295, 296, 297, 298, 299, 300, 301, 302, 303, 304, 305, 306, 307, 308, 309, 310, 311, 312, 313, 314, 315, 316, 317, 318, 319, 320, 321, 322, 323, 324, 325, 326, 327, 328, 329, 330, 331, 332, 333, 334, 335, 336, 337, 338, 339, 340, 341, 342, 343, 344, 345, 346, 347, 348, 349, 350, 351, 352, 353, 354, 355, 356, 357, 358, 359, 360, 361, 362, 363, 364, 365, 366, 367, 368, 369, 370, 371, 372, 373, 374, 375, 376, 377, 378, 379, 380, 381, 382, 383, 384, 385, 386, 387, 388, 389, 390, 391, 392, 393, 394, 395, 396, 397, 398, 399, 400, 401, 402, 403, 404, 405, 406, 407, 408, 409, 410, 411, 412, 413, 414, 415, 416, 417, 418, 419, 420, 421, 422, 423, 424, 425, 426, 427, 428, 429, 430, 431, 432, 433, 434, 435, 436, 437, 438, 439, 440, 441, 442, 443, 444, 445, 446, 447, 448, 449, 450, 451, 452, 453, 454, 455, 456, 457, 458, 459, 460, 461, 462, 463, 464, 465, 466, 467, 468, 469, 470, 471, 472, 473, 474, 475, 476, 477, 478, 479, 480, 481, 482, 483, 484, 485, 486, 487, 488, 489, 490, 491, 492, 493, 494, 495, 496, 497, 498, 499, 500, 501, 502, 503, 504, 505, 506, 507, 508, 509, 510, 511, 512, 513, 514, 515, 516, 517, 518, 519, 520, 521, 522, 523, 524, 525, 526, 527, 528, 529, 530, 531, 532, 533, 534, 535, 536, 537, 538, 539, 540, 541, 542, 543, 544, 545, 546, 547, 548, 549, 550, 551, 552, 553, 554, 555, 556, 557, 558, 559, 560, 561, 562, 563, 564, 565, 566, 567, 568, 569, 570, 571, 572, 573, 574, 575, 576, 577, 578, 579, 580, 581, 582, 583, 584, 585, 586, 587, 588, 589, 590, 591, 592, 593, 594, 595, 596, 597, 598, 599, 600, 601, 602, 603, 604, 605, 606, 607, 608, 609, 610, 611, 612, 613, 614, 615, 616, 617, 618, 619, 620, 621, 622, 623, 624, 625, 626, 627, 628, 629, 630, 631, 632, 633, 634, 635, 636, 637, 638, 639, 640, 641, 642, 643, 644, 645, 646, 647, 648, 649, 650, 651, 652, 653, 654, 655, 656, 657, 658, 659, 660, 661, 662, 663, 664, 665, 666, 667, 668, 669, 670, 671, 672, 673, 674, 675, 676, 677, 678, 679, 680, 681, 682, 683, 684, 685, 686, 687, 688, 689, 690, 691, 692, 693, 694, 695, 696, 697, 698, 699, 700, 701, 702, 703, 704, 705, 706, 707, 708, 709, 710, 711, 712, 713, 714, 715, 716, 717, 718, 719, 720, 721, 722, 723, 724, 725, 726, 727, 728, 729, 730, 731, 732, 733, 734, 735, 736, 737, 738, 739, 740, 741, 742, 743, 744, 745, 746, 747, 748, 749, 750, 751, 752, 753, 754, 755, 756, 757, 758, 759, 760, 761, 762, 763, 764, 765, 766, 767, 768, 769, 770, 771, 772, 773, 774, 775, 776, 777, 778, 779, 780, 781, 782, 783, 784, 785, 786, 787, 788, 789, 790, 791, 792, 793, 794, 795, 796, 797, 798, 799, 800, 801, 802, 803, 804, 805, 806, 807, 808, 809, 810, 811, 812, 813, 814, 815, 816, 817, 818, 819, 820, 821, 822, 823, 824, 825, 826, 827, 828, 829, 830, 831, 832, 833, 834, 835, 836, 837, 838, 839],
      "AcquisitionTime": ["215635.845000", "215636.305000", "215636.765000", "215637.225000", "215637.685000", "215638.145000", "215638.605000", "215639.065000", "215639.525000", "215639.985000", "215640.445000", "215640.905000", "215641.365000", "215641.825000", "215642.285000", "215642.745000", "215643.205000", "215643.665000", "215644.125000", "215644.585000", "215645.045000", "215645.505000", "215645.965000", "215646.425000", "215646.885000", "215647.345000", "215647.805000", "215648.265000", "215648.725000", "215649.185000", "215649.645000", "215650.105000", "215650.565000", "215651.025000", "215651.485000", "215651.945000", "215652.405000", "215652.865000", "215653.325000", "215653.785000", "215654.245000", "215654.705000", "215655.165000", "215655.625000", "215656.085000", "215656.545000", "215657.005000", "215657.465000", "215657.925000", "215658.385000", "215658.845000", "215659.305000", "215659.765000", "215700.225000", "215700.685000", "215701.145000", "215701.605000", "215702.065000", "215702.525000", "215702.985000", "215703.445000", "215703.905000", "215704.365000", "215704.825000", "215705.285000", "215705.745000", "215706.205000", "215706.665000", "215707.125000", "215707.585000", "215708.045000", "215708.505000", "215708.965000", "215709.425000", "215709.885000", "215710.345000", "215710.805000", "215711.265000", "215711.725000", "215712.185000", "215712.645000", "215713.105000", "215713.565000", "215714.025000", "215714.485000", "215714.945000", "215715.405000", "215715.865000", "215716.325000", "215716.785000", "215717.245000", "215717.705000", "215718.165000", "215718.625000", "215719.085000", "215719.545000", "215720.005000", "215720.465000", "215720.925000", "215721.385000", "215721.845000", "215722.305000", "215722.765000", "215723.225000", "215723.685000", "215724.145000", "215724.605000", "215725.065000", "215725.525000", "215725.985000", "215726.445000", "215726.905000", "215727.365000", "215727.825000", "215728.285000", "215728.745000", "215729.205000", "215729.665000", "215730.125000", "215730.585000", "215731.045000", "215731.505000", "215731.965000", "215732.425000", "215732.885000", "215733.345000", "215733.805000", "215734.265000", "215734.725000", "215735.185000", "215735.645000", "215736.105000", "215736.565000", "215737.025000", "215737.485000", "215737.945000", "215738.405000", "215738.865000", "215739.325000", "215739.785000", "215740.245000", "215740.705000", "215741.165000", "215741.625000", "215742.085000", "215742.545000", "215743.005000", "215743.465000", "215743.925000", "215744.385000", "215744.845000", "215745.305000", "215745.765000", "215746.225000", "215746.685000", "215747.145000", "215747.605000", "215748.065000", "215748.525000", "215748.985000", "215749.445000", "215749.905000", "215750.365000", "215750.825000", "215751.285000", "215751.745000", "215752.205000", "215752.665000", "215753.125000", "215753.585000", "215754.045000", "215754.505000", "215754.965000", "215755.425000", "215755.885000", "215756.345000", "215756.805000", "215757.265000", "215757.725000", "215758.185000", "215758.645000", "215759.105000", "215759.565000", "215800.025000", "215800.485000", "215800.945000", "215801.405000", "215801.865000", "215802.325000", "215802.785000", "215803.245000", "215803.705000", "215804.165000", "215804.625000", "215805.085000", "215805.545000", "215806.005000", "215806.465000", "215806.925000", "215807.385000", "215807.845000", "215808.305000", "215808.765000", "215809.225000", "215809.685000", "215810.145000", "215810.605000", "215811.065000", "215811.525000", "215811.985000", "215812.445000", "215812.905000", "215813.365000", "215813.825000", "215814.285000", "215814.745000", "215815.205000", "215815.665000", "215816.125000", "215816.585000", "215817.045000", "215817.505000", "215817.965000", "215818.425000", "215818.885000", "215819.345000", "215819.805000", "215820.265000", "215820.725000", "215821.185000", "215821.645000", "215822.105000", "215822.565000", "215823.025000", "215823.485000", "215823.945000", "215824.405000", "215824.865000", "215825.325000", "215825.785000", "215826.245000", "215826.705000", "215827.165000", "215827.625000", "215828.085000", "215828.545000", "215829.005000", "215829.465000", "215829.925000", "215830.385000", "215830.845000", "215831.305000", "215831.765000", "215832.225000", "215832.685000", "215833.145000", "215833.605000", "215834.065000", "215834.525000", "215834.985000", "215835.445000", "215835.905000", "215836.365000", "215836.825000", "215837.285000", "215837.745000", "215838.205000", "215838.665000", "215839.125000", "215839.585000", "215840.045000", "215840.505000", "215840.965000", "215841.425000", "215841.885000", "215842.345000", "215842.805000", "215843.265000", "215843.725000", "215844.185000", "215844.645000", "215845.105000", "215845.565000", "215846.025000", "215846.485000", "215846.945000", "215847.405000", "215847.865000", "215848.325000", "215848.785000", "215849.245000", "215849.705000", "215850.165000", "215850.625000", "215851.085000", "215851.545000", "215852.005000", "215852.465000", "215852.925000", "215853.385000", "215853.845000", "215854.305000", "215854.765000", "215855.225000", "215855.685000", "215856.145000", "215856.605000", "215857.065000", "215857.525000", "215857.985000", "215858.445000", "215858.905000", "215859.365000", "215859.825000", "215900.285000", "215900.745000", "215901.205000", "215901.665000", "215902.125000", "215902.585000", "215903.045000", "215903.505000", "215903.965000", "215904.425000", "215904.885000", "215905.345000", "215905.805000", "215906.265000", "215906.725000", "215907.185000", "215907.645000", "215908.105000", "215908.565000", "215909.025000", "215909.485000", "215909.945000", "215910.405000", "215910.865000", "215911.325000", "215911.785000", "215912.245000", "215912.705000", "215913.165000", "215913.625000", "215914.085000", "215914.545000", "215915.005000", "215915.465000", "215915.925000", "215916.385000", "215916.845000", "215917.305000", "215917.765000", "215918.225000", "215918.685000", "215919.145000", "215919.605000", "215920.065000", "215920.525000", "215920.985000", "215921.445000", "215921.905000", "215922.365000", "215922.825000", "215923.285000", "215923.745000", "215924.205000", "215924.665000", "215925.125000", "215925.585000", "215926.045000", "215926.505000", "215926.965000", "215927.425000", "215927.885000", "215928.345000", "215928.805000", "215929.265000", "215929.725000", "215930.185000", "215930.645000", "215931.105000", "215931.565000", "215932.025000", "215932.485000", "215932.945000", "215933.405000", "215933.865000", "215934.325000", "215934.785000", "215935.245000", "215935.705000", "215936.165000", "215936.625000", "215937.085000", "215937.545000", "215938.005000", "215938.465000", "215938.925000", "215939.385000", "215939.845000", "215940.305000", "215940.765000", "215941.225000", "215941.685000", "215942.145000", "215942.605000", "215943.065000", "215943.525000", "215943.985000", "215944.445000", "215944.905000", "215945.365000", "215945.825000", "215946.285000", "215946.745000", "215947.205000", "215947.665000", "215948.125000", "215948.585000", "215949.045000", "215949.505000", "215949.965000", "215950.425000", "215950.885000", "215951.345000", "215951.805000", "215952.265000", "215952.725000", "215953.185000", "215953.645000", "215954.105000", "215954.565000", "215955.025000", "215955.485000", "215955.945000", "215956.405000", "215956.865000", "215957.325000", "215957.785000", "215958.245000", "215958.705000", "215959.165000", "215959.625000", "220000.085000", "220000.545000", "220001.005000", "220001.465000", "220001.925000", "220002.385000", "220002.845000", "220003.305000", "220003.765000", "220004.225000", "220004.685000", "220005.145000", "220005.605000", "220006.065000", "220006.525000", "220006.985000", "220007.445000", "220007.905000", "220008.365000", "220008.825000", "220009.285000", "220009.745000", "220010.205000", "220010.665000", "220011.125000", "220011.585000", "220012.045000", "220012.505000", "220012.965000", "220013.425000", "220013.885000", "220014.345000", "220014.805000", "220015.265000", "220015.725000", "220016.185000", "220016.645000", "220017.105000", "220017.565000", "220018.025000", "220018.485000", "220018.945000", "220019.405000", "220019.865000", "220020.325000", "220020.785000", "220021.245000", "220021.705000", "220022.165000", "220022.625000", "220023.085000", "220023.545000", "220024.005000", "220024.465000", "220024.925000", "220025.385000", "220025.845000", "220026.305000", "220026.765000", "220027.225000", "220027.685000", "220028.145000", "220028.605000", "220029.065000", "220029.525000", "220029.985000", "220030.445000", "220030.905000", "220031.365000", "220031.825000", "220032.285000", "220032.745000", "220033.205000", "220033.665000", "220034.125000", "220034.585000", "220035.045000", "220035.505000", "220035.965000", "220036.425000", "220036.885000", "220037.345000", "220037.805000", "220038.265000", "220038.725000", "220039.185000", "220039.645000", "220040.105000", "220040.565000", "220041.025000", "220041.485000", "220041.945000", "220042.405000", "220042.865000", "220043.325000", "220043.785000", "220044.245000", "220044.705000", "220045.165000", "220045.625000", "220046.085000", "220046.545000", "220047.005000", "220047.465000", "220047.925000", "220048.385000", "220048.845000", "220049.305000", "220049.765000", "220050.225000", "220050.685000", "220051.145000", "220051.605000", "220052.065000", "220052.525000", "220052.985000", "220053.445000", "220053.905000", "220054.365000", "220054.825000", "220055.285000", "220055.745000", "220056.205000", "220056.665000", "220057.125000", "220057.585000", "220058.045000", "220058.505000", "220058.965000", "220059.425000", "220059.885000", "220100.345000", "220100.805000", "220101.265000", "220101.725000", "220102.185000", "220102.645000", "220103.105000", "220103.565000", "220104.025000", "220104.485000", "220104.945000", "220105.405000", "220105.865000", "220106.325000", "220106.785000", "220107.245000", "220107.705000", "220108.165000", "220108.625000", "220109.085000", "220109.545000", "220110.005000", "220110.465000", "220110.925000", "220111.385000", "220111.845000", "220112.305000", "220112.765000", "220113.225000", "220113.685000", "220114.145000", "220114.605000", "220115.065000", "220115.525000", "220115.985000", "220116.445000", "220116.905000", "220117.365000", "220117.825000", "220118.285000", "220118.745000", "220119.205000", "220119.665000", "220120.125000", "220120.585000", "220121.045000", "220121.505000", "220121.965000", "220122.425000", "220122.885000", "220123.345000", "220123.805000", "220124.265000", "220124.725000", "220125.185000", "220125.645000", "220126.105000", "220126.565000", "220127.025000", "220127.485000", "220127.945000", "220128.405000", "220128.865000", "220129.325000", "220129.785000", "220130.245000", "220130.705000", "220131.165000", "220131.625000", "220132.085000", "220132.545000", "220133.005000", "220133.465000", "220133.925000", "220134.385000", "220134.845000", "220135.305000", "220135.765000", "220136.225000", "220136.685000", "220137.145000", "220137.605000", "220138.065000", "220138.525000", "220138.985000", "220139.445000", "220139.905000", "220140.365000", "220140.825000", "220141.285000", "220141.745000", "220142.205000", "220142.665000", "220143.125000", "220143.585000", "220144.045000", "220144.505000", "220144.965000", "220145.425000", "220145.885000", "220146.345000", "220146.805000", "220147.265000", "220147.725000", "220148.185000", "220148.645000", "220149.105000", "220149.565000", "220150.025000", "220150.485000", "220150.945000", "220151.405000", "220151.865000", "220152.325000", "220152.785000", "220153.245000", "220153.705000", "220154.165000", "220154.625000", "220155.085000", "220155.545000", "220156.005000", "220156.465000", "220156.925000", "220157.385000", "220157.845000", "220158.305000", "220158.765000", "220159.225000", "220159.685000", "220200.145000", "220200.605000", "220201.065000", "220201.525000", "220201.985000", "220202.445000", "220202.905000", "220203.365000", "220203.825000", "220204.285000", "220204.745000", "220205.205000", "220205.665000", "220206.125000", "220206.585000", "220207.045000", "220207.505000", "220207.965000", "220208.425000", "220208.885000", "220209.345000", "220209.805000", "220210.265000", "220210.725000", "220211.185000", "220211.645000", "220212.105000", "220212.565000", "220213.025000", "220213.485000", "220213.945000", "220214.405000", "220214.865000", "220215.325000", "220215.785000", "220216.245000", "220216.705000", "220217.165000", "220217.625000", "220218.085000", "220218.545000", "220219.005000", "220219.465000", "220219.925000", "220220.385000", "220220.845000", "220221.305000", "220221.765000", "220222.225000", "220222.685000", "220223.145000", "220223.605000", "220224.065000", "220224.525000", "220224.985000", "220225.445000", "220225.905000", "220226.365000", "220226.825000", "220227.285000", "220227.745000", "220228.205000", "220228.665000", "220229.125000", "220229.585000", "220230.045000", "220230.505000", "220230.965000", "220231.425000", "220231.885000", "220232.345000", "220232.805000", "220233.265000", "220233.725000", "220234.185000", "220234.645000", "220235.105000", "220235.565000", "220236.025000", "220236.485000", "220236.945000", "220237.405000", "220237.865000", "220238.325000", "220238.785000", "220239.245000", "220239.705000", "220240.165000", "220240.625000", "220241.085000", "220241.545000", "220242.005000", "220242.465000", "220242.925000", "220243.385000", "220243.845000", "220244.305000", "220244.765000", "220245.225000", "220245.685000", "220246.145000", "220246.605000", "220247.065000", "220247.525000", "220247.985000", "220248.445000", "220248.905000", "220249.365000", "220249.825000", "220250.285000", "220250.745000", "220251.205000", "220251.665000", "220252.125000", "220252.585000", "220253.045000", "220253.505000", "220253.965000", "220254.425000", "220254.885000", "220255.345000", "220255.805000", "220256.265000", "220256.725000", "220257.185000", "220257.645000", "220258.105000", "220258.565000", "220259.025000", "220259.485000", "220259.945000", "220300.405000", "220300.865000", "220301.325000"],
