{
  "AcquisitionMatrixPE": 82,
  "AcquisitionNumber": 1,
  "AcquisitionTime": "16:42:32.347500",
  "BandwidthPerPixelPhaseEncode": 24.888,
  "BaseResolution": 82,
  "BodyPartExamined": "BRAIN",
  "ConsistencyInfo": "N4_VE11E_LATEST_20181129",
  "ConversionSoftware": "dcm2niix",
  "ConversionSoftwareVersion": "v1.0.20201102",
  "DerivedVendorReportedEchoSpacing": 0.00049,
  "DeviceSerialNumber": "66112",
  "DwellTime": 2e-06,
  "EchoTime": 0.0272,
  "EchoTrainLength": 82,
  "EffectiveEchoSpacing": 0.00049,
  "FlipAngle": 44,
  "ImageComments": "Unaliased MB8/PE3",
  "ImageOrientationPatientDICOM": [0.999862, -0.0100209, 0.013271, 0.00855113, 0.994274, 0.106513],
  "ImageType": [
    "ORIGINAL",
    "PRIMARY",
    "M",
    "MB",
    "ND",
    "NORM",
    "MOSAIC"
],
  "ImagingFrequency": 123.259,
  "InPlanePhaseEncodingDirectionDICOM": "COL",
  "InstitutionAddress": "Maynard 3,Hanover,NH,US,03755",
  "InstitutionName": "Dartmouth College - PBS",
  "InstitutionalDepartmentName": "Department",
  "MRAcquisitionType": "2D",
  "MagneticFieldStrength": 3,
  "Manufacturer": "Siemens",
  "ManufacturersModelName": "Prisma",
  "Modality": "MR",
  "MultibandAccelerationFactor": 8,
  "PartialFourier": 1,
  "PatientPosition": "HFS",
  "PercentPhaseFOV": 100,
  "PercentSampling": 100,
  "PhaseEncodingDirection": "j-",
  "PhaseEncodingSteps": 82,
  "PhaseResolution": 1,
  "PixelBandwidth": 3050,
  "ProcedureStepDescription": "Wager_Wager^1076_spacetop",
  "ProtocolName": "func_run-02_task-social_acq-ap-mb8",
  "PulseSequenceDetails": "%CustomerSeq%\\cmrr_mbep2d_bold",
  "ReceiveCoilActiveElements": "HEA;HEP",
  "ReceiveCoilName": "Head_32",
  "ReconMatrixPE": 82,
  "RepetitionTime": 0.46,
  "SAR": 0.0923893,
  "ScanOptions": "FS",
  "ScanningSequence": "EP",
  "SequenceName": "epfid2d1_82",
  "SequenceVariant": "SK\\SS",
  "SeriesDescription": "func_run-02_task-social_acq-ap-mb8",
  "SeriesNumber": 10,
  "ShimSetting": [4235, -7784, -7210, 386, -86, 40, 50, 65],
  "SliceThickness": 2.7,
  "SliceTiming": [0, 0.2525, 0.0625, 0.315, 0.125, 0.3775, 0.19, 0, 0.2525, 0.0625, 0.315, 0.125, 0.3775, 0.19, 0, 0.2525, 0.0625, 0.315, 0.125, 0.3775, 0.19, 0, 0.2525, 0.0625, 0.315, 0.125, 0.3775, 0.19, 0, 0.2525, 0.0625, 0.315, 0.125, 0.3775, 0.19, 0, 0.2525, 0.0625, 0.315, 0.125, 0.3775, 0.19, 0, 0.2525, 0.0625, 0.315, 0.125, 0.3775, 0.19, 0, 0.2525, 0.0625, 0.315, 0.125, 0.3775, 0.19],
  "SoftwareVersions": "syngo MR E11",
  "SpacingBetweenSlices": 2.7,
  "StationName": "AWP66112",
  "TaskName": "social",
  "TotalReadoutTime": 0.03969,
  "TxRefAmp": 237.436,
  "WipMemBlock": "65761263-a291-4ee4-88ac-6488705934a5||Sequence: R016 ve11e/master r/434b28f1; Aug  7 2019 18:53:46 by eja",
  "dcmmeta_affine": [
    [-2.682555913925171, 0.02294205129146576, 0.03850828856229782, 110.25814056396484],
    [0.026885224506258965, 2.6675658226013184, 0.287240207195282, -114.78016662597656],
    [0.03560500591993332, -0.28576788306236267, 2.684401273727417, -56.71669006347656],
    [0.0, 0.0, 0.0, 1.0]
],
  "dcmmeta_reorient_transform": [
    [0.0, -1.0, 0.0, 81.0],
    [1.0, 0.0, 0.0, 0.0],
    [0.0, 0.0, 1.0, 0.0],
    [0.0, 0.0, 0.0, 1.0]
],
  "dcmmeta_shape": [82, 82, 56, 872],
  "dcmmeta_slice_dim": 2,
  "dcmmeta_version": 0.6,
  "global": {
    "const": {
      "AccessionNumber": "A004524",
      "AcquisitionMatrix": [82, 0, 0, 82],
      "AngioFlag": "N",
      "BitsAllocated": 16,
      "BitsStored": 16,
      "BodyPartExamined": "BRAIN",
      "Columns": 656,
      "EchoNumbers": 1,
      "EchoTime": 27.2,
      "EchoTrainLength": 82,
      "FlipAngle": 44.0,
      "HighBit": 15,
      "ImageOrientationPatient": [0.99986172252005, -0.0100208558217, 0.01327095655306, 0.00855112799569, 0.99427448798212, 0.1065134768839],
      "ImagePositionPatient": [-888.59435951747, -859.16797862839, -172.09790311983],
      "ImageType": [
        "ORIGINAL",
        "PRIMARY",
        "M",
        "MB",
        "ND",
        "NORM",
        "MOSAIC"
],
      "ImagedNucleus": "1H",
      "ImagingFrequency": 123.259076,
      "InPlanePhaseEncodingDirection": "COL",
      "MRAcquisitionType": "2D",
      "MagneticFieldStrength": 3.0,
      "Manufacturer": "SIEMENS",
      "ManufacturerModelName": "Prisma",
      "Modality": "MR",
      "NumberOfAverages": 1.0,
      "NumberOfPhaseEncodingSteps": 82,
      "PercentPhaseFieldOfView": 100.0,
      "PercentSampling": 100.0,
      "PerformedProcedureStepStartTime": "162327.396000",
      "PhotometricInterpretation": "MONOCHROME2",
      "PixelBandwidth": 3050.0,
      "PixelRepresentation": 0,
      "PixelSpacing": [2.6829268932343, 2.6829268932343],
      "ProtocolName": "func_run-02_task-social_acq-ap-mb8",
      "RepetitionTime": 460.0,
      "Rows": 656,
      "SAR": 0.09238925565305,
      "SamplesPerPixel": 1,
      "ScanOptions": "FS",
      "ScanningSequence": "EP",
      "SequenceName": "epfid2d1_82",
      "SequenceVariant": [
        "SK",
        "SS"
],
      "SeriesDescription": "func_run-02_task-social_acq-ap-mb8",
      "SeriesNumber": 10,
      "SeriesTime": "164251.884000",
      "SliceLocation": -67.027400099605,
      "SliceThickness": 2.7000000476837,
      "SmallestImagePixelValue": 0,
      "SoftwareVersions": "syngo MR E11",
      "SpacingBetweenSlices": 2.6999999485549,
      "SpecificCharacterSet": "ISO_IR 100",
      "StudyID": "3",
      "StudyTime": "162327.355000",
      "TransmitCoilName": "Body",
      "VariableFlipAngleFlag": "N",
      "WindowCenterWidthExplanation": "Algo1"
    },
    "slices": {}
  },
  "time": {
    "samples": {
      "AcquisitionNumber": [1, 2, 3, 4, 5, 6, 7, 8, 9, 10, 11, 12, 13, 14, 15, 16, 17, 18, 19, 20, 21, 22, 23, 24, 25, 26, 27, 28, 29, 30, 31, 32, 33, 34, 35, 36, 37, 38, 39, 40, 41, 42, 43, 44, 45, 46, 47, 48, 49, 50, 51, 52, 53, 54, 55, 56, 57, 58, 59, 60, 61, 62, 63, 64, 65, 66, 67, 68, 69, 70, 71, 72, 73, 74, 75, 76, 77, 78, 79, 80, 81, 82, 83, 84, 85, 86, 87, 88, 89, 90, 91, 92, 93, 94, 95, 96, 97, 98, 99, 100, 101, 102, 103, 104, 105, 106, 107, 108, 109, 110, 111, 112, 113, 114, 115, 116, 117, 118, 119, 120, 121, 122, 123, 124, 125, 126, 127, 128, 129, 130, 131, 132, 133, 134, 135, 136, 137, 138, 139, 140, 141, 142, 143, 144, 145, 146, 147, 148, 149, 150, 151, 152, 153, 154, 155, 156, 157, 158, 159, 160, 161, 162, 163, 164, 165, 166, 167, 168, 169, 170, 171, 172, 173, 174, 175, 176, 177, 178, 179, 180, 181, 182, 183, 184, 185, 186, 187, 188, 189, 190, 191, 192, 193, 194, 195, 196, 197, 198, 199, 200, 201, 202, 203, 204, 205, 206, 207, 208, 209, 210, 211, 212, 213, 214, 215, 216, 217, 218, 219, 220, 221, 222, 223, 224, 225, 226, 227, 228, 229, 230, 231, 232, 233, 234, 235, 236, 237, 238, 239, 240, 241, 242, 243, 244, 245, 246, 247, 248, 249, 250, 251, 252, 253, 254, 255, 256, 257, 258, 259, 260, 261, 262, 263, 264, 265, 266, 267, 268, 269, 270, 271, 272, 273, 274, 275, 276, 277, 278, 279, 280, 281, 282, 283, 284, 285, 286, 287, 288, 289, 290, 291, 292, 293, 294, 295, 296, 297, 298, 299, 300, 301, 302, 303, 304, 305, 306, 307, 308, 309, 310, 311, 312, 313, 314, 315, 316, 317, 318, 319, 320, 321, 322, 323, 324, 325, 326, 327, 328, 329, 330, 331, 332, 333, 334, 335, 336, 337, 338, 339, 340, 341, 342, 343, 344, 345, 346, 347, 348, 349, 350, 351, 352, 353, 354, 355, 356, 357, 358, 359, 360, 361, 362, 363, 364, 365, 366, 367, 368, 369, 370, 371, 372, 373, 374, 375, 376, 377, 378, 379, 380, 381, 382, 383, 384, 385, 386, 387, 388, 389, 390, 391, 392, 393, 394, 395, 396, 397, 398, 399, 400, 401, 402, 403, 404, 405, 406, 407, 408, 409, 410, 411, 412, 413, 414, 415, 416, 417, 418, 419, 420, 421, 422, 423, 424, 425, 426, 427, 428, 429, 430, 431, 432, 433, 434, 435, 436, 437, 438, 439, 440, 441, 442, 443, 444, 445, 446, 447, 448, 449, 450, 451, 452, 453, 454, 455, 456, 457, 458, 459, 460, 461, 462, 463, 464, 465, 466, 467, 468, 469, 470, 471, 472, 473, 474, 475, 476, 477, 478, 479, 480, 481, 482, 483, 484, 485, 486, 487, 488, 489, 490, 491, 492, 493, 494, 495, 496, 497, 498, 499, 500, 501, 502, 503, 504, 505, 506, 507, 508, 509, 510, 511, 512, 513, 514, 515, 516, 517, 518, 519, 520, 521, 522, 523, 524, 525, 526, 527, 528, 529, 530, 531, 532, 533, 534, 535, 536, 537, 538, 539, 540, 541, 542, 543, 544, 545, 546, 547, 548, 549, 550, 551, 552, 553, 554, 555, 556, 557, 558, 559, 560, 561, 562, 563, 564, 565, 566, 567, 568, 569, 570, 571, 572, 573, 574, 575, 576, 577, 578, 579, 580, 581, 582, 583, 584, 585, 586, 587, 588, 589, 590, 591, 592, 593, 594, 595, 596, 597, 598, 599, 600, 601, 602, 603, 604, 605, 606, 607, 608, 609, 610, 611, 612, 613, 614, 615, 616, 617, 618, 619, 620, 621, 622, 623, 624, 625, 626, 627, 628, 629, 630, 631, 632, 633, 634, 635, 636, 637, 638, 639, 640, 641, 642, 643, 644, 645, 646, 647, 648, 649, 650, 651, 652, 653, 654, 655, 656, 657, 658, 659, 660, 661, 662, 663, 664, 665, 666, 667, 668, 669, 670, 671, 672, 673, 674, 675, 676, 677, 678, 679, 680, 681, 682, 683, 684, 685, 686, 687, 688, 689, 690, 691, 692, 693, 694, 695, 696, 697, 698, 699, 700, 701, 702, 703, 704, 705, 706, 707, 708, 709, 710, 711, 712, 713, 714, 715, 716, 717, 718, 719, 720, 721, 722, 723, 724, 725, 726, 727, 728, 729, 730, 731, 732, 733, 734, 735, 736, 737, 738, 739, 740, 741, 742, 743, 744, 745, 746, 747, 748, 749, 750, 751, 752, 753, 754, 755, 756, 757, 758, 759, 760, 761, 762, 763, 764, 765, 766, 767, 768, 769, 770, 771, 772, 773, 774, 775, 776, 777, 778, 779, 780, 781, 782, 783, 784, 785, 786, 787, 788, 789, 790, 791, 792, 793, 794, 795, 796, 797, 798, 799, 800, 801, 802, 803, 804, 805, 806, 807, 808, 809, 810, 811, 812, 813, 814, 815, 816, 817, 818, 819, 820, 821, 822, 823, 824, 825, 826, 827, 828, 829, 830, 831, 832, 833, 834, 835, 836, 837, 838, 839, 840, 841, 842, 843, 844, 845, 846, 847, 848, 849, 850, 851, 852, 853, 854, 855, 856, 857, 858, 859, 860, 861, 862, 863, 864, 865, 866, 867, 868, 869, 870, 871, 872],
      "AcquisitionTime": ["164232.347500", "164232.807500", "164233.267500", "164233.727500", "164234.187500", "164234.647500", "164235.107500", "164235.567500", "164236.027500", "164236.487500", "164236.947500", "164237.407500", "164237.867500", "164238.327500", "164238.787500", "164239.247500", "164239.707500", "164240.167500", "164240.627500", "164241.087500", "164241.547500", "164242.007500", "164242.467500", "164242.927500", "164243.387500", "164243.847500", "164244.307500", "164244.767500", "164245.227500", "164245.687500", "164246.147500", "164246.607500", "164247.067500", "164247.527500", "164247.987500", "164248.447500", "164248.907500", "164249.367500", "164249.827500", "164250.287500", "164250.747500", "164251.207500", "164251.667500", "164252.127500", "164252.587500", "164253.047500", "164253.507500", "164253.967500", "164254.427500", "164254.887500", "164255.347500", "164255.807500", "164256.267500", "164256.727500", "164257.187500", "164257.647500", "164258.107500", "164258.567500", "164259.027500", "164259.487500", "164259.947500", "164300.407500", "164300.867500", "164301.327500", "164301.787500", "164302.247500", "164302.707500", "164303.167500", "164303.627500", "164304.087500", "164304.547500", "164305.007500", "164305.467500", "164305.927500", "164306.387500", "164306.847500", "164307.307500", "164307.767500", "164308.227500", "164308.687500", "164309.147500", "164309.607500", "164310.067500", "164310.527500", "164310.987500", "164311.447500", "164311.907500", "164312.367500", "164312.827500", "164313.287500", "164313.747500", "164314.207500", "164314.667500", "164315.127500", "164315.587500", "164316.047500", "164316.507500", "164316.967500", "164317.427500", "164317.887500", "164318.347500", "164318.807500", "164319.267500", "164319.727500", "164320.187500", "164320.647500", "164321.107500", "164321.567500", "164322.027500", "164322.487500", "164322.947500", "164323.407500", "164323.867500", "164324.327500", "164324.787500", "164325.247500", "164325.707500", "164326.167500", "164326.627500", "164327.087500", "164327.547500", "164328.007500", "164328.467500", "164328.927500", "164329.387500", "164329.847500", "164330.307500", "164330.767500", "164331.227500", "164331.687500", "164332.147500", "164332.607500", "164333.067500", "164333.527500", "164333.987500", "164334.447500", "164334.907500", "164335.367500", "164335.827500", "164336.287500", "164336.747500", "164337.207500", "164337.667500", "164338.127500", "164338.587500", "164339.047500", "164339.507500", "164339.967500", "164340.427500", "164340.887500", "164341.347500", "164341.807500", "164342.267500", "164342.727500", "164343.187500", "164343.647500", "164344.107500", "164344.567500", "164345.027500", "164345.487500", "164345.947500", "164346.407500", "164346.867500", "164347.327500", "164347.787500", "164348.247500", "164348.707500", "164349.167500", "164349.627500", "164350.087500", "164350.547500", "164351.007500", "164351.467500", "164351.927500", "164352.387500", "164352.847500", "164353.307500", "164353.767500", "164354.227500", "164354.687500", "164355.147500", "164355.607500", "164356.067500", "164356.527500", "164356.987500", "164357.447500", "164357.907500", "164358.367500", "164358.827500", "164359.287500", "164359.747500", "164400.207500", "164400.667500", "164401.127500", "164401.587500", "164402.047500", "164402.507500", "164402.967500", "164403.427500", "164403.887500", "164404.347500", "164404.807500", "164405.267500", "164405.727500", "164406.187500", "164406.647500", "164407.107500", "164407.567500", "164408.027500", "164408.487500", "164408.947500", "164409.407500", "164409.867500", "164410.327500", "164410.787500", "164411.247500", "164411.707500", "164412.167500", "164412.627500", "164413.087500", "164413.547500", "164414.007500", "164414.467500", "164414.927500", "164415.387500", "164415.847500", "164416.307500", "164416.767500", "164417.227500", "164417.687500", "164418.147500", "164418.607500", "164419.067500", "164419.527500", "164419.987500", "164420.447500", "164420.907500", "164421.367500", "164421.827500", "164422.287500", "164422.747500", "164423.207500", "164423.667500", "164424.127500", "164424.587500", "164425.047500", "164425.507500", "164425.967500", "164426.427500", "164426.887500", "164427.347500", "164427.807500", "164428.267500", "164428.727500", "164429.187500", "164429.647500", "164430.107500", "164430.567500", "164431.027500", "164431.487500", "164431.947500", "164432.407500", "164432.867500", "164433.327500", "164433.787500", "164434.247500", "164434.707500", "164435.167500", "164435.627500", "164436.087500", "164436.547500", "164437.007500", "164437.467500", "164437.927500", "164438.387500", "164438.847500", "164439.307500", "164439.767500", "164440.227500", "164440.687500", "164441.147500", "164441.607500", "164442.067500", "164442.527500", "164442.987500", "164443.447500", "164443.907500", "164444.367500", "164444.827500", "164445.287500", "164445.747500", "164446.207500", "164446.667500", "164447.127500", "164447.587500", "164448.047500", "164448.507500", "164448.967500", "164449.427500", "164449.887500", "164450.347500", "164450.807500", "164451.267500", "164451.727500", "164452.187500", "164452.647500", "164453.107500", "164453.567500", "164454.027500", "164454.487500", "164454.947500", "164455.407500", "164455.867500", "164456.327500", "164456.787500", "164457.247500", "164457.707500", "164458.167500", "164458.627500", "164459.087500", "164459.547500", "164500.007500", "164500.467500", "164500.927500", "164501.387500", "164501.847500", "164502.307500", "164502.767500", "164503.227500", "164503.687500", "164504.147500", "164504.607500", "164505.067500", "164505.527500", "164505.987500", "164506.447500", "164506.907500", "164507.367500", "164507.827500", "164508.287500", "164508.747500", "164509.207500", "164509.667500", "164510.127500", "164510.587500", "164511.047500", "164511.507500", "164511.967500", "164512.427500", "164512.887500", "164513.347500", "164513.807500", "164514.267500", "164514.727500", "164515.187500", "164515.647500", "164516.107500", "164516.567500", "164517.027500", "164517.487500", "164517.947500", "164518.407500", "164518.867500", "164519.327500", "164519.787500", "164520.247500", "164520.707500", "164521.167500", "164521.627500", "164522.087500", "164522.547500", "164523.007500", "164523.467500", "164523.927500", "164524.387500", "164524.847500", "164525.307500", "164525.767500", "164526.227500", "164526.687500", "164527.147500", "164527.607500", "164528.067500", "164528.527500", "164528.987500", "164529.447500", "164529.907500", "164530.367500", "164530.827500", "164531.287500", "164531.747500", "164532.207500", "164532.667500", "164533.127500", "164533.587500", "164534.047500", "164534.507500", "164534.967500", "164535.427500", "164535.887500", "164536.347500", "164536.807500", "164537.267500", "164537.727500", "164538.187500", "164538.647500", "164539.107500", "164539.567500", "164540.027500", "164540.487500", "164540.947500", "164541.407500", "164541.867500", "164542.327500", "164542.787500", "164543.247500", "164543.707500", "164544.167500", "164544.627500", "164545.087500", "164545.547500", "164546.007500", "164546.467500", "164546.927500", "164547.387500", "164547.847500", "164548.307500", "164548.767500", "164549.227500", "164549.687500", "164550.147500", "164550.607500", "164551.067500", "164551.527500", "164551.987500", "164552.447500", "164552.907500", "164553.367500", "164553.827500", "164554.287500", "164554.747500", "164555.207500", "164555.667500", "164556.127500", "164556.587500", "164557.047500", "164557.507500", "164557.967500", "164558.427500", "164558.887500", "164559.347500", "164559.807500", "164600.267500", "164600.727500", "164601.187500", "164601.647500", "164602.107500", "164602.567500", "164603.027500", "164603.487500", "164603.947500", "164604.407500", "164604.867500", "164605.327500", "164605.787500", "164606.247500", "164606.707500", "164607.167500", "164607.627500", "164608.087500", "164608.547500", "164609.007500", "164609.467500", "164609.927500", "164610.387500", "164610.847500", "164611.307500", "164611.767500", "164612.227500", "164612.687500", "164613.147500", "164613.607500", "164614.067500", "164614.527500", "164614.987500", "164615.447500", "164615.907500", "164616.367500", "164616.827500", "164617.287500", "164617.747500", "164618.207500", "164618.667500", "164619.127500", "164619.587500", "164620.047500", "164620.507500", "164620.967500", "164621.427500", "164621.887500", "164622.347500", "164622.807500", "164623.267500", "164623.727500", "164624.187500", "164624.647500", "164625.107500", "164625.567500", "164626.027500", "164626.487500", "164626.947500", "164627.407500", "164627.867500", "164628.327500", "164628.787500", "164629.247500", "164629.707500", "164630.167500", "164630.627500", "164631.087500", "164631.547500", "164632.007500", "164632.467500", "164632.927500", "164633.387500", "164633.847500", "164634.307500", "164634.767500", "164635.227500", "164635.687500", "164636.147500", "164636.607500", "164637.067500", "164637.527500", "164637.987500", "164638.447500", "164638.907500", "164639.367500", "164639.827500", "164640.287500", "164640.747500", "164641.207500", "164641.667500", "164642.127500", "164642.587500", "164643.047500", "164643.507500", "164643.967500", "164644.427500", "164644.887500", "164645.347500", "164645.807500", "164646.267500", "164646.727500", "164647.187500", "164647.647500", "164648.107500", "164648.567500", "164649.027500", "164649.487500", "164649.947500", "164650.407500", "164650.867500", "164651.327500", "164651.787500", "164652.247500", "164652.707500", "164653.167500", "164653.627500", "164654.087500", "164654.547500", "164655.007500", "164655.467500", "164655.927500", "164656.387500", "164656.847500", "164657.307500", "164657.767500", "164658.227500", "164658.687500", "164659.147500", "164659.607500", "164700.067500", "164700.527500", "164700.987500", "164701.447500", "164701.907500", "164702.367500", "164702.827500", "164703.287500", "164703.747500", "164704.207500", "164704.667500", "164705.127500", "164705.587500", "164706.047500", "164706.507500", "164706.967500", "164707.427500", "164707.887500", "164708.347500", "164708.807500", "164709.267500", "164709.727500", "164710.187500", "164710.647500", "164711.107500", "164711.567500", "164712.027500", "164712.487500", "164712.947500", "164713.407500", "164713.867500", "164714.327500", "164714.787500", "164715.247500", "164715.707500", "164716.167500", "164716.627500", "164717.087500", "164717.547500", "164718.007500", "164718.467500", "164718.927500", "164719.387500", "164719.847500", "164720.307500", "164720.767500", "164721.227500", "164721.687500", "164722.147500", "164722.607500", "164723.067500", "164723.527500", "164723.987500", "164724.447500", "164724.907500", "164725.367500", "164725.827500", "164726.287500", "164726.747500", "164727.207500", "164727.667500", "164728.127500", "164728.587500", "164729.047500", "164729.507500", "164729.967500", "164730.427500", "164730.887500", "164731.347500", "164731.807500", "164732.267500", "164732.727500", "164733.187500", "164733.647500", "164734.107500", "164734.567500", "164735.027500", "164735.487500", "164735.947500", "164736.407500", "164736.867500", "164737.327500", "164737.787500", "164738.247500", "164738.707500", "164739.167500", "164739.627500", "164740.087500", "164740.547500", "164741.007500", "164741.467500", "164741.927500", "164742.387500", "164742.847500", "164743.307500", "164743.767500", "164744.227500", "164744.687500", "164745.147500", "164745.607500", "164746.067500", "164746.527500", "164746.987500", "164747.447500", "164747.907500", "164748.367500", "164748.827500", "164749.287500", "164749.747500", "164750.207500", "164750.667500", "164751.127500", "164751.587500", "164752.047500", "164752.507500", "164752.967500", "164753.427500", "164753.887500", "164754.347500", "164754.807500", "164755.267500", "164755.727500", "164756.187500", "164756.647500", "164757.107500", "164757.567500", "164758.027500", "164758.487500", "164758.947500", "164759.407500", "164759.867500", "164800.327500", "164800.787500", "164801.247500", "164801.707500", "164802.167500", "164802.627500", "164803.087500", "164803.547500", "164804.007500", "164804.467500", "164804.927500", "164805.387500", "164805.847500", "164806.307500", "164806.767500", "164807.227500", "164807.687500", "164808.147500", "164808.607500", "164809.067500", "164809.527500", "164809.987500", "164810.447500", "164810.907500", "164811.367500", "164811.827500", "164812.287500", "164812.747500", "164813.207500", "164813.667500", "164814.127500", "164814.587500", "164815.047500", "164815.507500", "164815.967500", "164816.427500", "164816.887500", "164817.347500", "164817.807500", "164818.267500", "164818.727500", "164819.187500", "164819.647500", "164820.107500", "164820.567500", "164821.027500", "164821.487500", "164821.947500", "164822.407500", "164822.867500", "164823.327500", "164823.787500", "164824.247500", "164824.707500", "164825.167500", "164825.627500", "164826.087500", "164826.547500", "164827.007500", "164827.467500", "164827.927500", "164828.387500", "164828.847500", "164829.307500", "164829.767500", "164830.227500", "164830.687500", "164831.147500", "164831.607500", "164832.067500", "164832.527500", "164832.987500", "164833.447500", "164833.907500", "164834.367500", "164834.827500", "164835.287500", "164835.747500", "164836.207500", "164836.667500", "164837.127500", "164837.587500", "164838.047500", "164838.507500", "164838.967500", "164839.427500", "164839.887500", "164840.347500", "164840.807500", "164841.267500", "164841.727500", "164842.187500", "164842.647500", "164843.107500", "164843.567500", "164844.027500", "164844.487500", "164844.947500", "164845.407500", "164845.867500", "164846.327500", "164846.787500", "164847.247500", "164847.707500", "164848.167500", "164848.627500", "164849.087500", "164849.547500", "164850.007500", "164850.467500", "164850.927500", "164851.387500", "164851.847500", "164852.307500", "164852.767500", "164853.227500", "164853.687500", "164854.147500", "164854.607500", "164855.067500", "164855.527500", "164855.987500", "164856.447500", "164856.907500", "164857.367500", "164857.827500", "164858.287500", "164858.747500", "164859.207500", "164859.667500", "164900.127500", "164900.587500", "164901.047500", "164901.507500", "164901.967500", "164902.427500", "164902.887500", "164903.347500", "164903.807500", "164904.267500", "164904.727500", "164905.187500", "164905.647500", "164906.107500", "164906.567500", "164907.027500", "164907.487500", "164907.947500", "164908.407500", "164908.867500", "164909.327500", "164909.787500", "164910.247500", "164910.707500", "164911.167500", "164911.627500", "164912.087500", "164912.547500", "164913.007500"],
