{
  "AcquisitionMatrixPE": 82,
  "AcquisitionNumber": 1,
  "AcquisitionTime": "16:56:27.412500",
  "BandwidthPerPixelPhaseEncode": 24.888,
  "BaseResolution": 82,
  "BodyPartExamined": "BRAIN",
  "ConsistencyInfo": "N4_VE11E_LATEST_20181129",
  "ConversionSoftware": "dcm2niix",
  "ConversionSoftwareVersion": "v1.0.20201102",
  "DerivedVendorReportedEchoSpacing": 0.00049,
  "DeviceSerialNumber": "66112",
  "DwellTime": 2e-06,
  "EchoTime": 0.0272,
  "EchoTrainLength": 82,
  "EffectiveEchoSpacing": 0.00049,
  "FlipAngle": 44,
  "ImageComments": "Unaliased MB8/PE3",
  "ImageOrientationPatientDICOM": [0.999862, -0.0100209, 0.013271, 0.00855113, 0.994274, 0.106513],
  "ImageType": [
    "ORIGINAL",
    "PRIMARY",
    "M",
    "MB",
    "ND",
    "NORM",
    "MOSAIC"
],
  "ImagingFrequency": 123.259,
  "InPlanePhaseEncodingDirectionDICOM": "COL",
  "InstitutionAddress": "Maynard 3,Hanover,NH,US,03755",
  "InstitutionName": "Dartmouth College - PBS",
  "InstitutionalDepartmentName": "Department",
  "MRAcquisitionType": "2D",
  "MagneticFieldStrength": 3,
  "Manufacturer": "Siemens",
  "ManufacturersModelName": "Prisma",
  "Modality": "MR",
  "MultibandAccelerationFactor": 8,
  "PartialFourier": 1,
  "PatientPosition": "HFS",
  "PercentPhaseFOV": 100,
  "PercentSampling": 100,
  "PhaseEncodingDirection": "j-",
  "PhaseEncodingSteps": 82,
  "PhaseResolution": 1,
  "PixelBandwidth": 3050,
  "ProcedureStepDescription": "Wager_Wager^1076_spacetop",
  "ProtocolName": "func_run-04_task-social_acq-ap-mb8",
  "PulseSequenceDetails": "%CustomerSeq%\\cmrr_mbep2d_bold",
  "ReceiveCoilActiveElements": "HEA;HEP",
  "ReceiveCoilName": "Head_32",
  "ReconMatrixPE": 82,
  "RepetitionTime": 0.46,
  "SAR": 0.0923893,
  "ScanOptions": "FS",
  "ScanningSequence": "EP",
  "SequenceName": "epfid2d1_82",
  "SequenceVariant": "SK\\SS",
  "SeriesDescription": "func_run-04_task-social_acq-ap-mb8",
  "SeriesNumber": 14,
  "ShimSetting": [4235, -7784, -7210, 386, -86, 40, 50, 65],
  "SliceThickness": 2.7,
  "SliceTiming": [0, 0.2525, 0.0625, 0.315, 0.125, 0.3775, 0.1875, 0, 0.2525, 0.0625, 0.315, 0.125, 0.3775, 0.1875, 0, 0.2525, 0.0625, 0.315, 0.125, 0.3775, 0.1875, 0, 0.2525, 0.0625, 0.315, 0.125, 0.3775, 0.1875, 0, 0.2525, 0.0625, 0.315, 0.125, 0.3775, 0.1875, 0, 0.2525, 0.0625, 0.315, 0.125, 0.3775, 0.1875, 0, 0.2525, 0.0625, 0.315, 0.125, 0.3775, 0.1875, 0, 0.2525, 0.0625, 0.315, 0.125, 0.3775, 0.1875],
  "SoftwareVersions": "syngo MR E11",
  "SpacingBetweenSlices": 2.7,
  "StationName": "AWP66112",
  "TaskName": "social",
  "TotalReadoutTime": 0.03969,
  "TxRefAmp": 237.436,
  "WipMemBlock": "55aeaf01-02a5-42fa-a691-85284cdfe3de||Sequence: R016 ve11e/master r/434b28f1; Aug  7 2019 18:53:46 by eja",
  "dcmmeta_affine": [
    [-2.682555913925171, 0.02294205129146576, 0.03850828856229782, 110.25814056396484],
    [0.026885224506258965, 2.6675658226013184, 0.287240207195282, -114.78016662597656],
    [0.03560500591993332, -0.28576788306236267, 2.684401273727417, -56.71669006347656],
    [0.0, 0.0, 0.0, 1.0]
],
  "dcmmeta_reorient_transform": [
    [0.0, -1.0, 0.0, 81.0],
    [1.0, 0.0, 0.0, 0.0],
    [0.0, 0.0, 1.0, 0.0],
    [0.0, 0.0, 0.0, 1.0]
],
  "dcmmeta_shape": [82, 82, 56, 872],
  "dcmmeta_slice_dim": 2,
  "dcmmeta_version": 0.6,
  "global": {
    "const": {
      "AccessionNumber": "A004524",
      "AcquisitionMatrix": [82, 0, 0, 82],
      "AngioFlag": "N",
      "BitsAllocated": 16,
      "BitsStored": 16,
      "BodyPartExamined": "BRAIN",
      "Columns": 656,
      "EchoNumbers": 1,
      "EchoTime": 27.2,
      "EchoTrainLength": 82,
      "FlipAngle": 44.0,
      "HighBit": 15,
      "ImageOrientationPatient": [0.99986172252005, -0.0100208558217, 0.01327095655306, 0.00855112799569, 0.99427448798212, 0.1065134768839],
      "ImagePositionPatient": [-888.59435951747, -859.16797862839, -172.09790311983],
      "ImageType": [
        "ORIGINAL",
        "PRIMARY",
        "M",
        "MB",
        "ND",
        "NORM",
        "MOSAIC"
],
      "ImagedNucleus": "1H",
      "ImagingFrequency": 123.25908,
      "InPlanePhaseEncodingDirection": "COL",
      "MRAcquisitionType": "2D",
      "MagneticFieldStrength": 3.0,
      "Manufacturer": "SIEMENS",
      "ManufacturerModelName": "Prisma",
      "Modality": "MR",
      "NumberOfAverages": 1.0,
      "NumberOfPhaseEncodingSteps": 82,
      "PercentPhaseFieldOfView": 100.0,
      "PercentSampling": 100.0,
      "PerformedProcedureStepStartTime": "162327.396000",
      "PhotometricInterpretation": "MONOCHROME2",
      "PixelBandwidth": 3050.0,
      "PixelRepresentation": 0,
      "PixelSpacing": [2.6829268932343, 2.6829268932343],
      "ProtocolName": "func_run-04_task-social_acq-ap-mb8",
      "RepetitionTime": 460.0,
      "Rows": 656,
      "SAR": 0.09238925565305,
      "SamplesPerPixel": 1,
      "ScanOptions": "FS",
      "ScanningSequence": "EP",
      "SequenceName": "epfid2d1_82",
      "SequenceVariant": [
        "SK",
        "SS"
],
      "SeriesDescription": "func_run-04_task-social_acq-ap-mb8",
      "SeriesNumber": 14,
      "SeriesTime": "165652.063000",
      "SliceLocation": -67.027400099605,
      "SliceThickness": 2.7000000476837,
      "SmallestImagePixelValue": 0,
      "SoftwareVersions": "syngo MR E11",
      "SpacingBetweenSlices": 2.6999999485549,
      "SpecificCharacterSet": "ISO_IR 100",
      "StudyID": "3",
      "StudyTime": "162327.355000",
      "TransmitCoilName": "Body",
      "VariableFlipAngleFlag": "N",
      "WindowCenterWidthExplanation": "Algo1"
    },
    "slices": {}
  },
  "time": {
    "samples": {
      "AcquisitionNumber": [1, 2, 3, 4, 5, 6, 7, 8, 9, 10, 11, 12, 13, 14, 15, 16, 17, 18, 19, 20, 21, 22, 23, 24, 25, 26, 27, 28, 29, 30, 31, 32, 33, 34, 35, 36, 37, 38, 39, 40, 41, 42, 43, 44, 45, 46, 47, 48, 49, 50, 51, 52, 53, 54, 55, 56, 57, 58, 59, 60, 61, 62, 63, 64, 65, 66, 67, 68, 69, 70, 71, 72, 73, 74, 75, 76, 77, 78, 79, 80, 81, 82, 83, 84, 85, 86, 87, 88, 89, 90, 91, 92, 93, 94, 95, 96, 97, 98, 99, 100, 101, 102, 103, 104, 105, 106, 107, 108, 109, 110, 111, 112, 113, 114, 115, 116, 117, 118, 119, 120, 121, 122, 123, 124, 125, 126, 127, 128, 129, 130, 131, 132, 133, 134, 135, 136, 137, 138, 139, 140, 141, 142, 143, 144, 145, 146, 147, 148, 149, 150, 151, 152, 153, 154, 155, 156, 157, 158, 159, 160, 161, 162, 163, 164, 165, 166, 167, 168, 169, 170, 171, 172, 173, 174, 175, 176, 177, 178, 179, 180, 181, 182, 183, 184, 185, 186, 187, 188, 189, 190, 191, 192, 193, 194, 195, 196, 197, 198, 199, 200, 201, 202, 203, 204, 205, 206, 207, 208, 209, 210, 211, 212, 213, 214, 215, 216, 217, 218, 219, 220, 221, 222, 223, 224, 225, 226, 227, 228, 229, 230, 231, 232, 233, 234, 235, 236, 237, 238, 239, 240, 241, 242, 243, 244, 245, 246, 247, 248, 249, 250, 251, 252, 253, 254, 255, 256, 257, 258, 259, 260, 261, 262, 263, 264, 265, 266, 267, 268, 269, 270, 271, 272, 273, 274, 275, 276, 277, 278, 279, 280, 281, 282, 283, 284, 285, 286, 287, 288, 289, 290, 291, 292, 293, 294, 295, 296, 297, 298, 299, 300, 301, 302, 303, 304, 305, 306, 307, 308, 309, 310, 311, 312, 313, 314, 315, 316, 317, 318, 319, 320, 321, 322, 323, 324, 325, 326, 327, 328, 329, 330, 331, 332, 333, 334, 335, 336, 337, 338, 339, 340, 341, 342, 343, 344, 345, 346, 347, 348, 349, 350, 351, 352, 353, 354, 355, 356, 357, 358, 359, 360, 361, 362, 363, 364, 365, 366, 367, 368, 369, 370, 371, 372, 373, 374, 375, 376, 377, 378, 379, 380, 381, 382, 383, 384, 385, 386, 387, 388, 389, 390, 391, 392, 393, 394, 395, 396, 397, 398, 399, 400, 401, 402, 403, 404, 405, 406, 407, 408, 409, 410, 411, 412, 413, 414, 415, 416, 417, 418, 419, 420, 421, 422, 423, 424, 425, 426, 427, 428, 429, 430, 431, 432, 433, 434, 435, 436, 437, 438, 439, 440, 441, 442, 443, 444, 445, 446, 447, 448, 449, 450, 451, 452, 453, 454, 455, 456, 457, 458, 459, 460, 461, 462, 463, 464, 465, 466, 467, 468, 469, 470, 471, 472, 473, 474, 475, 476, 477, 478, 479, 480, 481, 482, 483, 484, 485, 486, 487, 488, 489, 490, 491, 492, 493, 494, 495, 496, 497, 498, 499, 500, 501, 502, 503, 504, 505, 506, 507, 508, 509, 510, 511, 512, 513, 514, 515, 516, 517, 518, 519, 520, 521, 522, 523, 524, 525, 526, 527, 528, 529, 530, 531, 532, 533, 534, 535, 536, 537, 538, 539, 540, 541, 542, 543, 544, 545, 546, 547, 548, 549, 550, 551, 552, 553, 554, 555, 556, 557, 558, 559, 560, 561, 562, 563, 564, 565, 566, 567, 568, 569, 570, 571, 572, 573, 574, 575, 576, 577, 578, 579, 580, 581, 582, 583, 584, 585, 586, 587, 588, 589, 590, 591, 592, 593, 594, 595, 596, 597, 598, 599, 600, 601, 602, 603, 604, 605, 606, 607, 608, 609, 610, 611, 612, 613, 614, 615, 616, 617, 618, 619, 620, 621, 622, 623, 624, 625, 626, 627, 628, 629, 630, 631, 632, 633, 634, 635, 636, 637, 638, 639, 640, 641, 642, 643, 644, 645, 646, 647, 648, 649, 650, 651, 652, 653, 654, 655, 656, 657, 658, 659, 660, 661, 662, 663, 664, 665, 666, 667, 668, 669, 670, 671, 672, 673, 674, 675, 676, 677, 678, 679, 680, 681, 682, 683, 684, 685, 686, 687, 688, 689, 690, 691, 692, 693, 694, 695, 696, 697, 698, 699, 700, 701, 702, 703, 704, 705, 706, 707, 708, 709, 710, 711, 712, 713, 714, 715, 716, 717, 718, 719, 720, 721, 722, 723, 724, 725, 726, 727, 728, 729, 730, 731, 732, 733, 734, 735, 736, 737, 738, 739, 740, 741, 742, 743, 744, 745, 746, 747, 748, 749, 750, 751, 752, 753, 754, 755, 756, 757, 758, 759, 760, 761, 762, 763, 764, 765, 766, 767, 768, 769, 770, 771, 772, 773, 774, 775, 776, 777, 778, 779, 780, 781, 782, 783, 784, 785, 786, 787, 788, 789, 790, 791, 792, 793, 794, 795, 796, 797, 798, 799, 800, 801, 802, 803, 804, 805, 806, 807, 808, 809, 810, 811, 812, 813, 814, 815, 816, 817, 818, 819, 820, 821, 822, 823, 824, 825, 826, 827, 828, 829, 830, 831, 832, 833, 834, 835, 836, 837, 838, 839, 840, 841, 842, 843, 844, 845, 846, 847, 848, 849, 850, 851, 852, 853, 854, 855, 856, 857, 858, 859, 860, 861, 862, 863, 864, 865, 866, 867, 868, 869, 870, 871, 872],
      "AcquisitionTime": ["165627.412500", "165627.872500", "165628.332500", "165628.792500", "165629.252500", "165629.712500", "165630.172500", "165630.632500", "165631.092500", "165631.552500", "165632.012500", "165632.472500", "165632.932500", "165633.392500", "165633.852500", "165634.312500", "165634.772500", "165635.232500", "165635.692500", "165636.152500", "165636.612500", "165637.072500", "165637.532500", "165637.992500", "165638.452500", "165638.912500", "165639.372500", "165639.832500", "165640.292500", "165640.752500", "165641.212500", "165641.672500", "165642.132500", "165642.592500", "165643.052500", "165643.512500", "165643.972500", "165644.432500", "165644.892500", "165645.352500", "165645.812500", "165646.272500", "165646.732500", "165647.192500", "165647.652500", "165648.112500", "165648.572500", "165649.032500", "165649.492500", "165649.952500", "165650.412500", "165650.872500", "165651.332500", "165651.792500", "165652.252500", "165652.712500", "165653.172500", "165653.632500", "165654.092500", "165654.552500", "165655.012500", "165655.472500", "165655.932500", "165656.392500", "165656.852500", "165657.312500", "165657.772500", "165658.232500", "165658.692500", "165659.152500", "165659.612500", "165700.072500", "165700.532500", "165700.992500", "165701.452500", "165701.912500", "165702.372500", "165702.832500", "165703.292500", "165703.752500", "165704.212500", "165704.672500", "165705.132500", "165705.592500", "165706.052500", "165706.512500", "165706.972500", "165707.432500", "165707.892500", "165708.352500", "165708.812500", "165709.272500", "165709.732500", "165710.192500", "165710.652500", "165711.112500", "165711.572500", "165712.032500", "165712.492500", "165712.952500", "165713.412500", "165713.872500", "165714.332500", "165714.792500", "165715.252500", "165715.712500", "165716.172500", "165716.632500", "165717.092500", "165717.552500", "165718.012500", "165718.472500", "165718.932500", "165719.392500", "165719.852500", "165720.312500", "165720.772500", "165721.232500", "165721.692500", "165722.152500", "165722.612500", "165723.072500", "165723.532500", "165723.992500", "165724.452500", "165724.912500", "165725.372500", "165725.832500", "165726.292500", "165726.752500", "165727.212500", "165727.672500", "165728.132500", "165728.592500", "165729.052500", "165729.512500", "165729.972500", "165730.432500", "165730.892500", "165731.352500", "165731.812500", "165732.272500", "165732.732500", "165733.192500", "165733.652500", "165734.112500", "165734.572500", "165735.032500", "165735.492500", "165735.952500", "165736.412500", "165736.872500", "165737.332500", "165737.792500", "165738.252500", "165738.712500", "165739.172500", "165739.632500", "165740.092500", "165740.552500", "165741.012500", "165741.472500", "165741.932500", "165742.392500", "165742.852500", "165743.312500", "165743.772500", "165744.232500", "165744.692500", "165745.152500", "165745.612500", "165746.072500", "165746.532500", "165746.992500", "165747.452500", "165747.912500", "165748.372500", "165748.832500", "165749.292500", "165749.752500", "165750.212500", "165750.672500", "165751.132500", "165751.592500", "165752.052500", "165752.512500", "165752.972500", "165753.432500", "165753.892500", "165754.352500", "165754.812500", "165755.272500", "165755.732500", "165756.192500", "165756.652500", "165757.112500", "165757.572500", "165758.032500", "165758.492500", "165758.952500", "165759.412500", "165759.872500", "165800.332500", "165800.792500", "165801.252500", "165801.712500", "165802.172500", "165802.632500", "165803.092500", "165803.552500", "165804.012500", "165804.472500", "165804.932500", "165805.392500", "165805.852500", "165806.312500", "165806.772500", "165807.232500", "165807.692500", "165808.152500", "165808.612500", "165809.072500", "165809.532500", "165809.992500", "165810.452500", "165810.912500", "165811.372500", "165811.832500", "165812.292500", "165812.752500", "165813.212500", "165813.672500", "165814.132500", "165814.592500", "165815.052500", "165815.512500", "165815.972500", "165816.432500", "165816.892500", "165817.352500", "165817.812500", "165818.272500", "165818.732500", "165819.192500", "165819.652500", "165820.112500", "165820.572500", "165821.032500", "165821.492500", "165821.952500", "165822.412500", "165822.872500", "165823.332500", "165823.792500", "165824.252500", "165824.712500", "165825.172500", "165825.632500", "165826.092500", "165826.552500", "165827.012500", "165827.472500", "165827.932500", "165828.392500", "165828.852500", "165829.312500", "165829.772500", "165830.232500", "165830.692500", "165831.152500", "165831.612500", "165832.072500", "165832.532500", "165832.992500", "165833.452500", "165833.912500", "165834.372500", "165834.832500", "165835.292500", "165835.752500", "165836.212500", "165836.672500", "165837.132500", "165837.592500", "165838.052500", "165838.512500", "165838.972500", "165839.432500", "165839.892500", "165840.352500", "165840.812500", "165841.272500", "165841.732500", "165842.192500", "165842.652500", "165843.112500", "165843.572500", "165844.032500", "165844.492500", "165844.952500", "165845.412500", "165845.872500", "165846.332500", "165846.792500", "165847.252500", "165847.712500", "165848.172500", "165848.632500", "165849.092500", "165849.552500", "165850.012500", "165850.472500", "165850.932500", "165851.392500", "165851.852500", "165852.312500", "165852.772500", "165853.232500", "165853.692500", "165854.152500", "165854.612500", "165855.072500", "165855.532500", "165855.992500", "165856.452500", "165856.912500", "165857.372500", "165857.832500", "165858.292500", "165858.752500", "165859.212500", "165859.672500", "165900.132500", "165900.592500", "165901.052500", "165901.512500", "165901.972500", "165902.432500", "165902.892500", "165903.352500", "165903.812500", "165904.272500", "165904.732500", "165905.192500", "165905.652500", "165906.112500", "165906.572500", "165907.032500", "165907.492500", "165907.952500", "165908.412500", "165908.872500", "165909.332500", "165909.792500", "165910.252500", "165910.712500", "165911.172500", "165911.632500", "165912.092500", "165912.552500", "165913.012500", "165913.472500", "165913.932500", "165914.392500", "165914.852500", "165915.312500", "165915.772500", "165916.232500", "165916.692500", "165917.152500", "165917.612500", "165918.072500", "165918.532500", "165918.992500", "165919.452500", "165919.912500", "165920.372500", "165920.832500", "165921.292500", "165921.752500", "165922.212500", "165922.672500", "165923.132500", "165923.592500", "165924.052500", "165924.512500", "165924.972500", "165925.432500", "165925.892500", "165926.352500", "165926.812500", "165927.272500", "165927.732500", "165928.192500", "165928.652500", "165929.112500", "165929.572500", "165930.032500", "165930.492500", "165930.952500", "165931.412500", "165931.872500", "165932.332500", "165932.792500", "165933.252500", "165933.712500", "165934.172500", "165934.632500", "165935.092500", "165935.552500", "165936.012500", "165936.472500", "165936.932500", "165937.392500", "165937.852500", "165938.312500", "165938.772500", "165939.232500", "165939.692500", "165940.152500", "165940.612500", "165941.072500", "165941.532500", "165941.992500", "165942.452500", "165942.912500", "165943.372500", "165943.832500", "165944.292500", "165944.752500", "165945.212500", "165945.672500", "165946.132500", "165946.592500", "165947.052500", "165947.512500", "165947.972500", "165948.432500", "165948.892500", "165949.352500", "165949.812500", "165950.272500", "165950.732500", "165951.192500", "165951.652500", "165952.112500", "165952.572500", "165953.032500", "165953.492500", "165953.952500", "165954.412500", "165954.872500", "165955.332500", "165955.792500", "165956.252500", "165956.712500", "165957.172500", "165957.632500", "165958.092500", "165958.552500", "165959.012500", "165959.472500", "165959.932500", "170000.392500", "170000.852500", "170001.312500", "170001.772500", "170002.232500", "170002.692500", "170003.152500", "170003.612500", "170004.072500", "170004.532500", "170004.992500", "170005.452500", "170005.912500", "170006.372500", "170006.832500", "170007.292500", "170007.752500", "170008.212500", "170008.672500", "170009.132500", "170009.592500", "170010.052500", "170010.512500", "170010.972500", "170011.432500", "170011.892500", "170012.352500", "170012.812500", "170013.272500", "170013.732500", "170014.192500", "170014.652500", "170015.112500", "170015.572500", "170016.032500", "170016.492500", "170016.952500", "170017.412500", "170017.872500", "170018.332500", "170018.792500", "170019.252500", "170019.712500", "170020.172500", "170020.632500", "170021.092500", "170021.552500", "170022.012500", "170022.472500", "170022.932500", "170023.392500", "170023.852500", "170024.312500", "170024.772500", "170025.232500", "170025.692500", "170026.152500", "170026.612500", "170027.072500", "170027.532500", "170027.992500", "170028.452500", "170028.912500", "170029.372500", "170029.832500", "170030.292500", "170030.752500", "170031.212500", "170031.672500", "170032.132500", "170032.592500", "170033.052500", "170033.512500", "170033.972500", "170034.432500", "170034.892500", "170035.352500", "170035.812500", "170036.272500", "170036.732500", "170037.192500", "170037.652500", "170038.112500", "170038.572500", "170039.032500", "170039.492500", "170039.952500", "170040.412500", "170040.872500", "170041.332500", "170041.792500", "170042.252500", "170042.712500", "170043.172500", "170043.632500", "170044.092500", "170044.552500", "170045.012500", "170045.472500", "170045.932500", "170046.392500", "170046.852500", "170047.312500", "170047.772500", "170048.232500", "170048.692500", "170049.152500", "170049.612500", "170050.072500", "170050.532500", "170050.992500", "170051.452500", "170051.912500", "170052.372500", "170052.832500", "170053.292500", "170053.752500", "170054.212500", "170054.672500", "170055.132500", "170055.592500", "170056.052500", "170056.512500", "170056.972500", "170057.432500", "170057.892500", "170058.352500", "170058.812500", "170059.272500", "170059.732500", "170100.192500", "170100.652500", "170101.112500", "170101.572500", "170102.032500", "170102.492500", "170102.952500", "170103.412500", "170103.872500", "170104.332500", "170104.792500", "170105.252500", "170105.712500", "170106.172500", "170106.632500", "170107.092500", "170107.552500", "170108.012500", "170108.472500", "170108.932500", "170109.392500", "170109.852500", "170110.312500", "170110.772500", "170111.232500", "170111.692500", "170112.152500", "170112.612500", "170113.072500", "170113.532500", "170113.992500", "170114.452500", "170114.912500", "170115.372500", "170115.832500", "170116.292500", "170116.752500", "170117.212500", "170117.672500", "170118.132500", "170118.592500", "170119.052500", "170119.512500", "170119.972500", "170120.432500", "170120.892500", "170121.352500", "170121.812500", "170122.272500", "170122.732500", "170123.192500", "170123.652500", "170124.112500", "170124.572500", "170125.032500", "170125.492500", "170125.952500", "170126.412500", "170126.872500", "170127.332500", "170127.792500", "170128.252500", "170128.712500", "170129.172500", "170129.632500", "170130.092500", "170130.552500", "170131.012500", "170131.472500", "170131.932500", "170132.392500", "170132.852500", "170133.312500", "170133.772500", "170134.232500", "170134.692500", "170135.152500", "170135.612500", "170136.072500", "170136.532500", "170136.992500", "170137.452500", "170137.912500", "170138.372500", "170138.832500", "170139.292500", "170139.752500", "170140.212500", "170140.672500", "170141.132500", "170141.592500", "170142.052500", "170142.512500", "170142.972500", "170143.432500", "170143.892500", "170144.352500", "170144.812500", "170145.272500", "170145.732500", "170146.192500", "170146.652500", "170147.112500", "170147.572500", "170148.032500", "170148.492500", "170148.952500", "170149.412500", "170149.872500", "170150.332500", "170150.792500", "170151.252500", "170151.712500", "170152.172500", "170152.632500", "170153.092500", "170153.552500", "170154.012500", "170154.472500", "170154.932500", "170155.392500", "170155.852500", "170156.312500", "170156.772500", "170157.232500", "170157.692500", "170158.152500", "170158.612500", "170159.072500", "170159.532500", "170159.992500", "170200.452500", "170200.912500", "170201.372500", "170201.832500", "170202.292500", "170202.752500", "170203.212500", "170203.672500", "170204.132500", "170204.592500", "170205.052500", "170205.512500", "170205.972500", "170206.432500", "170206.892500", "170207.352500", "170207.812500", "170208.272500", "170208.732500", "170209.192500", "170209.652500", "170210.112500", "170210.572500", "170211.032500", "170211.492500", "170211.952500", "170212.412500", "170212.872500", "170213.332500", "170213.792500", "170214.252500", "170214.712500", "170215.172500", "170215.632500", "170216.092500", "170216.552500", "170217.012500", "170217.472500", "170217.932500", "170218.392500", "170218.852500", "170219.312500", "170219.772500", "170220.232500", "170220.692500", "170221.152500", "170221.612500", "170222.072500", "170222.532500", "170222.992500", "170223.452500", "170223.912500", "170224.372500", "170224.832500", "170225.292500", "170225.752500", "170226.212500", "170226.672500", "170227.132500", "170227.592500", "170228.052500", "170228.512500", "170228.972500", "170229.432500", "170229.892500", "170230.352500", "170230.812500", "170231.272500", "170231.732500", "170232.192500", "170232.652500", "170233.112500", "170233.572500", "170234.032500", "170234.492500", "170234.952500", "170235.412500", "170235.872500", "170236.332500", "170236.792500", "170237.252500", "170237.712500", "170238.172500", "170238.632500", "170239.092500", "170239.552500", "170240.012500", "170240.472500", "170240.932500", "170241.392500", "170241.852500", "170242.312500", "170242.772500", "170243.232500", "170243.692500", "170244.152500", "170244.612500", "170245.072500", "170245.532500", "170245.992500", "170246.452500", "170246.912500", "170247.372500", "170247.832500", "170248.292500", "170248.752500", "170249.212500", "170249.672500", "170250.132500", "170250.592500", "170251.052500", "170251.512500", "170251.972500", "170252.432500", "170252.892500", "170253.352500", "170253.812500", "170254.272500", "170254.732500", "170255.192500", "170255.652500", "170256.112500", "170256.572500", "170257.032500", "170257.492500", "170257.952500", "170258.412500", "170258.872500", "170259.332500", "170259.792500", "170300.252500", "170300.712500", "170301.172500", "170301.632500", "170302.092500", "170302.552500", "170303.012500", "170303.472500", "170303.932500", "170304.392500", "170304.852500", "170305.312500", "170305.772500", "170306.232500", "170306.692500", "170307.152500", "170307.612500", "170308.072500"],
