{
  "AcquisitionMatrixPE": 82,
  "AcquisitionNumber": 1,
  "AcquisitionTime": "16:49:26.702500",
  "BandwidthPerPixelPhaseEncode": 24.888,
  "BaseResolution": 82,
  "BodyPartExamined": "BRAIN",
  "ConsistencyInfo": "N4_VE11E_LATEST_20181129",
  "ConversionSoftware": "dcm2niix",
  "ConversionSoftwareVersion": "v1.0.20201102",
  "DerivedVendorReportedEchoSpacing": 0.00049,
  "DeviceSerialNumber": "66112",
  "DwellTime": 2e-06,
  "EchoTime": 0.0272,
  "EchoTrainLength": 82,
  "EffectiveEchoSpacing": 0.00049,
  "FlipAngle": 44,
  "ImageComments": "Unaliased MB8/PE3",
  "ImageOrientationPatientDICOM": [0.999862, -0.0100209, 0.013271, 0.00855113, 0.994274, 0.106513],
  "ImageType": [
    "ORIGINAL",
    "PRIMARY",
    "M",
    "MB",
    "ND",
    "NORM",
    "MOSAIC"
],
  "ImagingFrequency": 123.259,
  "InPlanePhaseEncodingDirectionDICOM": "COL",
  "InstitutionAddress": "Maynard 3,Hanover,NH,US,03755",
  "InstitutionName": "Dartmouth College - PBS",
  "InstitutionalDepartmentName": "Department",
  "MRAcquisitionType": "2D",
  "MagneticFieldStrength": 3,
  "Manufacturer": "Siemens",
  "ManufacturersModelName": "Prisma",
  "Modality": "MR",
  "MultibandAccelerationFactor": 8,
  "PartialFourier": 1,
  "PatientPosition": "HFS",
  "PercentPhaseFOV": 100,
  "PercentSampling": 100,
  "PhaseEncodingDirection": "j-",
  "PhaseEncodingSteps": 82,
  "PhaseResolution": 1,
  "PixelBandwidth": 3050,
  "ProcedureStepDescription": "Wager_Wager^1076_spacetop",
  "ProtocolName": "func_run-03_task-social_acq-ap-mb8",
  "PulseSequenceDetails": "%CustomerSeq%\\cmrr_mbep2d_bold",
  "ReceiveCoilActiveElements": "HEA;HEP",
  "ReceiveCoilName": "Head_32",
  "ReconMatrixPE": 82,
  "RepetitionTime": 0.46,
  "SAR": 0.0923893,
  "ScanOptions": "FS",
  "ScanningSequence": "EP",
  "SequenceName": "epfid2d1_82",
  "SequenceVariant": "SK\\SS",
  "SeriesDescription": "func_run-03_task-social_acq-ap-mb8",
  "SeriesNumber": 12,
  "ShimSetting": [4235, -7784, -7210, 386, -86, 40, 50, 65],
  "SliceThickness": 2.7,
  "SliceTiming": [0, 0.2525, 0.0625, 0.315, 0.1275, 0.3775, 0.19, 0, 0.2525, 0.0625, 0.315, 0.1275, 0.3775, 0.19, 0, 0.2525, 0.0625, 0.315, 0.1275, 0.3775, 0.19, 0, 0.2525, 0.0625, 0.315, 0.1275, 0.3775, 0.19, 0, 0.2525, 0.0625, 0.315, 0.1275, 0.3775, 0.19, 0, 0.2525, 0.0625, 0.315, 0.1275, 0.3775, 0.19, 0, 0.2525, 0.0625, 0.315, 0.1275, 0.3775, 0.19, 0, 0.2525, 0.0625, 0.315, 0.1275, 0.3775, 0.19],
  "SoftwareVersions": "syngo MR E11",
  "SpacingBetweenSlices": 2.7,
  "StationName": "AWP66112",
  "TaskName": "social",
  "TotalReadoutTime": 0.03969,
  "TxRefAmp": 237.436,
  "WipMemBlock": "0d50e0d4-d600-469b-9163-3d7113b9a982||Sequence: R016 ve11e/master r/434b28f1; Aug  7 2019 18:53:46 by eja",
  "dcmmeta_affine": [
    [-2.682555913925171, 0.02294205129146576, 0.03850828856229782, 110.25814056396484],
    [0.026885224506258965, 2.6675658226013184, 0.287240207195282, -114.78016662597656],
    [0.03560500591993332, -0.28576788306236267, 2.684401273727417, -56.71669006347656],
    [0.0, 0.0, 0.0, 1.0]
],
  "dcmmeta_reorient_transform": [
    [0.0, -1.0, 0.0, 81.0],
    [1.0, 0.0, 0.0, 0.0],
    [0.0, 0.0, 1.0, 0.0],
    [0.0, 0.0, 0.0, 1.0]
],
  "dcmmeta_shape": [82, 82, 56, 872],
  "dcmmeta_slice_dim": 2,
  "dcmmeta_version": 0.6,
  "global": {
    "const": {
      "AccessionNumber": "A004524",
      "AcquisitionMatrix": [82, 0, 0, 82],
      "AngioFlag": "N",
      "BitsAllocated": 16,
      "BitsStored": 16,
      "BodyPartExamined": "BRAIN",
      "Columns": 656,
      "EchoNumbers": 1,
      "EchoTime": 27.2,
      "EchoTrainLength": 82,
      "FlipAngle": 44.0,
      "HighBit": 15,
      "ImageOrientationPatient": [0.99986172252005, -0.0100208558217, 0.01327095655306, 0.00855112799569, 0.99427448798212, 0.1065134768839],
      "ImagePositionPatient": [-888.59435951747, -859.16797862839, -172.09790311983],
      "ImageType": [
        "ORIGINAL",
        "PRIMARY",
        "M",
        "MB",
        "ND",
        "NORM",
        "MOSAIC"
],
      "ImagedNucleus": "1H",
      "ImagingFrequency": 123.259078,
      "InPlanePhaseEncodingDirection": "COL",
      "MRAcquisitionType": "2D",
      "MagneticFieldStrength": 3.0,
      "Manufacturer": "SIEMENS",
      "ManufacturerModelName": "Prisma",
      "Modality": "MR",
      "NumberOfAverages": 1.0,
      "NumberOfPhaseEncodingSteps": 82,
      "PercentPhaseFieldOfView": 100.0,
      "PercentSampling": 100.0,
      "PerformedProcedureStepStartTime": "162327.396000",
      "PhotometricInterpretation": "MONOCHROME2",
      "PixelBandwidth": 3050.0,
      "PixelRepresentation": 0,
      "PixelSpacing": [2.6829268932343, 2.6829268932343],
      "ProtocolName": "func_run-03_task-social_acq-ap-mb8",
      "RepetitionTime": 460.0,
      "Rows": 656,
      "SAR": 0.09238925565305,
      "SamplesPerPixel": 1,
      "ScanOptions": "FS",
      "ScanningSequence": "EP",
      "SequenceName": "epfid2d1_82",
      "SequenceVariant": [
        "SK",
        "SS"
],
      "SeriesDescription": "func_run-03_task-social_acq-ap-mb8",
      "SeriesNumber": 12,
      "SeriesTime": "164951.975000",
      "SliceLocation": -67.027400099605,
      "SliceThickness": 2.7000000476837,
      "SmallestImagePixelValue": 0,
      "SoftwareVersions": "syngo MR E11",
      "SpacingBetweenSlices": 2.6999999485549,
      "SpecificCharacterSet": "ISO_IR 100",
      "StudyID": "3",
      "StudyTime": "162327.355000",
      "TransmitCoilName": "Body",
      "VariableFlipAngleFlag": "N",
      "WindowCenterWidthExplanation": "Algo1"
    },
    "slices": {}
  },
  "time": {
    "samples": {
      "AcquisitionNumber": [1, 2, 3, 4, 5, 6, 7, 8, 9, 10, 11, 12, 13, 14, 15, 16, 17, 18, 19, 20, 21, 22, 23, 24, 25, 26, 27, 28, 29, 30, 31, 32, 33, 34, 35, 36, 37, 38, 39, 40, 41, 42, 43, 44, 45, 46, 47, 48, 49, 50, 51, 52, 53, 54, 55, 56, 57, 58, 59, 60, 61, 62, 63, 64, 65, 66, 67, 68, 69, 70, 71, 72, 73, 74, 75, 76, 77, 78, 79, 80, 81, 82, 83, 84, 85, 86, 87, 88, 89, 90, 91, 92, 93, 94, 95, 96, 97, 98, 99, 100, 101, 102, 103, 104, 105, 106, 107, 108, 109, 110, 111, 112, 113, 114, 115, 116, 117, 118, 119, 120, 121, 122, 123, 124, 125, 126, 127, 128, 129, 130, 131, 132, 133, 134, 135, 136, 137, 138, 139, 140, 141, 142, 143, 144, 145, 146, 147, 148, 149, 150, 151, 152, 153, 154, 155, 156, 157, 158, 159, 160, 161, 162, 163, 164, 165, 166, 167, 168, 169, 170, 171, 172, 173, 174, 175, 176, 177, 178, 179, 180, 181, 182, 183, 184, 185, 186, 187, 188, 189, 190, 191, 192, 193, 194, 195, 196, 197, 198, 199, 200, 201, 202, 203, 204, 205, 206, 207, 208, 209, 210, 211, 212, 213, 214, 215, 216, 217, 218, 219, 220, 221, 222, 223, 224, 225, 226, 227, 228, 229, 230, 231, 232, 233, 234, 235, 236, 237, 238, 239, 240, 241, 242, 243, 244, 245, 246, 247, 248, 249, 250, 251, 252, 253, 254, 255, 256, 257, 258, 259, 260, 261, 262, 263, 264, 265, 266, 267, 268, 269, 270, 271, 272, 273, 274, 275, 276, 277, 278, 279, 280, 281, 282, 283, 284, 285, 286, 287, 288, 289, 290, 291, 292, 293, 294, 295, 296, 297, 298, 299, 300, 301, 302, 303, 304, 305, 306, 307, 308, 309, 310, 311, 312, 313, 314, 315, 316, 317, 318, 319, 320, 321, 322, 323, 324, 325, 326, 327, 328, 329, 330, 331, 332, 333, 334, 335, 336, 337, 338, 339, 340, 341, 342, 343, 344, 345, 346, 347, 348, 349, 350, 351, 352, 353, 354, 355, 356, 357, 358, 359, 360, 361, 362, 363, 364, 365, 366, 367, 368, 369, 370, 371, 372, 373, 374, 375, 376, 377, 378, 379, 380, 381, 382, 383, 384, 385, 386, 387, 388, 389, 390, 391, 392, 393, 394, 395, 396, 397, 398, 399, 400, 401, 402, 403, 404, 405, 406, 407, 408, 409, 410, 411, 412, 413, 414, 415, 416, 417, 418, 419, 420, 421, 422, 423, 424, 425, 426, 427, 428, 429, 430, 431, 432, 433, 434, 435, 436, 437, 438, 439, 440, 441, 442, 443, 444, 445, 446, 447, 448, 449, 450, 451, 452, 453, 454, 455, 456, 457, 458, 459, 460, 461, 462, 463, 464, 465, 466, 467, 468, 469, 470, 471, 472, 473, 474, 475, 476, 477, 478, 479, 480, 481, 482, 483, 484, 485, 486, 487, 488, 489, 490, 491, 492, 493, 494, 495, 496, 497, 498, 499, 500, 501, 502, 503, 504, 505, 506, 507, 508, 509, 510, 511, 512, 513, 514, 515, 516, 517, 518, 519, 520, 521, 522, 523, 524, 525, 526, 527, 528, 529, 530, 531, 532, 533, 534, 535, 536, 537, 538, 539, 540, 541, 542, 543, 544, 545, 546, 547, 548, 549, 550, 551, 552, 553, 554, 555, 556, 557, 558, 559, 560, 561, 562, 563, 564, 565, 566, 567, 568, 569, 570, 571, 572, 573, 574, 575, 576, 577, 578, 579, 580, 581, 582, 583, 584, 585, 586, 587, 588, 589, 590, 591, 592, 593, 594, 595, 596, 597, 598, 599, 600, 601, 602, 603, 604, 605, 606, 607, 608, 609, 610, 611, 612, 613, 614, 615, 616, 617, 618, 619, 620, 621, 622, 623, 624, 625, 626, 627, 628, 629, 630, 631, 632, 633, 634, 635, 636, 637, 638, 639, 640, 641, 642, 643, 644, 645, 646, 647, 648, 649, 650, 651, 652, 653, 654, 655, 656, 657, 658, 659, 660, 661, 662, 663, 664, 665, 666, 667, 668, 669, 670, 671, 672, 673, 674, 675, 676, 677, 678, 679, 680, 681, 682, 683, 684, 685, 686, 687, 688, 689, 690, 691, 692, 693, 694, 695, 696, 697, 698, 699, 700, 701, 702, 703, 704, 705, 706, 707, 708, 709, 710, 711, 712, 713, 714, 715, 716, 717, 718, 719, 720, 721, 722, 723, 724, 725, 726, 727, 728, 729, 730, 731, 732, 733, 734, 735, 736, 737, 738, 739, 740, 741, 742, 743, 744, 745, 746, 747, 748, 749, 750, 751, 752, 753, 754, 755, 756, 757, 758, 759, 760, 761, 762, 763, 764, 765, 766, 767, 768, 769, 770, 771, 772, 773, 774, 775, 776, 777, 778, 779, 780, 781, 782, 783, 784, 785, 786, 787, 788, 789, 790, 791, 792, 793, 794, 795, 796, 797, 798, 799, 800, 801, 802, 803, 804, 805, 806, 807, 808, 809, 810, 811, 812, 813, 814, 815, 816, 817, 818, 819, 820, 821, 822, 823, 824, 825, 826, 827, 828, 829, 830, 831, 832, 833, 834, 835, 836, 837, 838, 839, 840, 841, 842, 843, 844, 845, 846, 847, 848, 849, 850, 851, 852, 853, 854, 855, 856, 857, 858, 859, 860, 861, 862, 863, 864, 865, 866, 867, 868, 869, 870, 871, 872],
      "AcquisitionTime": ["164926.702500", "164927.162500", "164927.622500", "164928.082500", "164928.542500", "164929.002500", "164929.462500", "164929.922500", "164930.382500", "164930.842500", "164931.302500", "164931.762500", "164932.222500", "164932.682500", "164933.142500", "164933.602500", "164934.062500", "164934.522500", "164934.982500", "164935.442500", "164935.902500", "164936.362500", "164936.822500", "164937.282500", "164937.742500", "164938.202500", "164938.662500", "164939.122500", "164939.582500", "164940.042500", "164940.502500", "164940.962500", "164941.422500", "164941.882500", "164942.342500", "164942.802500", "164943.262500", "164943.722500", "164944.182500", "164944.642500", "164945.102500", "164945.562500", "164946.022500", "164946.482500", "164946.942500", "164947.402500", "164947.862500", "164948.322500", "164948.782500", "164949.242500", "164949.702500", "164950.162500", "164950.622500", "164951.082500", "164951.542500", "164952.002500", "164952.462500", "164952.922500", "164953.382500", "164953.842500", "164954.302500", "164954.762500", "164955.222500", "164955.682500", "164956.142500", "164956.602500", "164957.062500", "164957.522500", "164957.982500", "164958.442500", "164958.902500", "164959.362500", "164959.822500", "165000.282500", "165000.742500", "165001.202500", "165001.662500", "165002.122500", "165002.582500", "165003.042500", "165003.502500", "165003.962500", "165004.422500", "165004.882500", "165005.342500", "165005.802500", "165006.262500", "165006.722500", "165007.182500", "165007.642500", "165008.102500", "165008.562500", "165009.022500", "165009.482500", "165009.942500", "165010.402500", "165010.862500", "165011.322500", "165011.782500", "165012.242500", "165012.702500", "165013.162500", "165013.622500", "165014.082500", "165014.542500", "165015.002500", "165015.462500", "165015.922500", "165016.382500", "165016.842500", "165017.302500", "165017.762500", "165018.222500", "165018.682500", "165019.142500", "165019.602500", "165020.062500", "165020.522500", "165020.982500", "165021.442500", "165021.902500", "165022.362500", "165022.822500", "165023.282500", "165023.742500", "165024.202500", "165024.662500", "165025.122500", "165025.582500", "165026.042500", "165026.502500", "165026.962500", "165027.422500", "165027.882500", "165028.342500", "165028.802500", "165029.262500", "165029.722500", "165030.182500", "165030.642500", "165031.102500", "165031.562500", "165032.022500", "165032.482500", "165032.942500", "165033.402500", "165033.862500", "165034.322500", "165034.782500", "165035.242500", "165035.702500", "165036.162500", "165036.622500", "165037.082500", "165037.542500", "165038.002500", "165038.462500", "165038.922500", "165039.382500", "165039.842500", "165040.302500", "165040.762500", "165041.222500", "165041.682500", "165042.142500", "165042.602500", "165043.062500", "165043.522500", "165043.982500", "165044.442500", "165044.902500", "165045.362500", "165045.822500", "165046.282500", "165046.742500", "165047.202500", "165047.662500", "165048.122500", "165048.582500", "165049.042500", "165049.502500", "165049.962500", "165050.422500", "165050.882500", "165051.342500", "165051.802500", "165052.262500", "165052.722500", "165053.182500", "165053.642500", "165054.102500", "165054.562500", "165055.022500", "165055.482500", "165055.942500", "165056.402500", "165056.862500", "165057.322500", "165057.782500", "165058.242500", "165058.702500", "165059.162500", "165059.622500", "165100.082500", "165100.542500", "165101.002500", "165101.462500", "165101.922500", "165102.382500", "165102.842500", "165103.302500", "165103.762500", "165104.222500", "165104.682500", "165105.142500", "165105.602500", "165106.062500", "165106.522500", "165106.982500", "165107.442500", "165107.902500", "165108.362500", "165108.822500", "165109.282500", "165109.742500", "165110.202500", "165110.662500", "165111.122500", "165111.582500", "165112.042500", "165112.502500", "165112.962500", "165113.422500", "165113.882500", "165114.342500", "165114.802500", "165115.262500", "165115.722500", "165116.182500", "165116.642500", "165117.102500", "165117.562500", "165118.022500", "165118.482500", "165118.942500", "165119.402500", "165119.862500", "165120.322500", "165120.782500", "165121.242500", "165121.702500", "165122.162500", "165122.622500", "165123.082500", "165123.542500", "165124.002500", "165124.462500", "165124.922500", "165125.382500", "165125.842500", "165126.302500", "165126.762500", "165127.222500", "165127.682500", "165128.142500", "165128.602500", "165129.062500", "165129.522500", "165129.982500", "165130.442500", "165130.902500", "165131.362500", "165131.822500", "165132.282500", "165132.742500", "165133.202500", "165133.662500", "165134.122500", "165134.582500", "165135.042500", "165135.502500", "165135.962500", "165136.422500", "165136.882500", "165137.342500", "165137.802500", "165138.262500", "165138.722500", "165139.182500", "165139.642500", "165140.102500", "165140.562500", "165141.022500", "165141.482500", "165141.942500", "165142.402500", "165142.862500", "165143.322500", "165143.782500", "165144.242500", "165144.702500", "165145.162500", "165145.622500", "165146.082500", "165146.542500", "165147.002500", "165147.462500", "165147.922500", "165148.382500", "165148.842500", "165149.302500", "165149.762500", "165150.222500", "165150.682500", "165151.142500", "165151.602500", "165152.062500", "165152.522500", "165152.982500", "165153.442500", "165153.902500", "165154.362500", "165154.822500", "165155.282500", "165155.742500", "165156.202500", "165156.662500", "165157.122500", "165157.582500", "165158.042500", "165158.502500", "165158.962500", "165159.422500", "165159.882500", "165200.342500", "165200.802500", "165201.262500", "165201.722500", "165202.182500", "165202.642500", "165203.102500", "165203.562500", "165204.022500", "165204.482500", "165204.942500", "165205.402500", "165205.862500", "165206.322500", "165206.782500", "165207.242500", "165207.702500", "165208.162500", "165208.622500", "165209.082500", "165209.542500", "165210.002500", "165210.462500", "165210.922500", "165211.382500", "165211.842500", "165212.302500", "165212.762500", "165213.222500", "165213.682500", "165214.142500", "165214.602500", "165215.062500", "165215.522500", "165215.982500", "165216.442500", "165216.902500", "165217.362500", "165217.822500", "165218.282500", "165218.742500", "165219.202500", "165219.662500", "165220.122500", "165220.582500", "165221.042500", "165221.502500", "165221.962500", "165222.422500", "165222.882500", "165223.342500", "165223.802500", "165224.262500", "165224.722500", "165225.182500", "165225.642500", "165226.102500", "165226.562500", "165227.022500", "165227.482500", "165227.942500", "165228.402500", "165228.862500", "165229.322500", "165229.782500", "165230.242500", "165230.702500", "165231.162500", "165231.622500", "165232.082500", "165232.542500", "165233.002500", "165233.462500", "165233.922500", "165234.382500", "165234.842500", "165235.302500", "165235.762500", "165236.222500", "165236.682500", "165237.142500", "165237.602500", "165238.062500", "165238.522500", "165238.982500", "165239.442500", "165239.902500", "165240.362500", "165240.822500", "165241.282500", "165241.742500", "165242.202500", "165242.662500", "165243.122500", "165243.582500", "165244.042500", "165244.502500", "165244.962500", "165245.422500", "165245.882500", "165246.342500", "165246.802500", "165247.262500", "165247.722500", "165248.182500", "165248.642500", "165249.102500", "165249.562500", "165250.022500", "165250.482500", "165250.942500", "165251.402500", "165251.862500", "165252.322500", "165252.782500", "165253.242500", "165253.702500", "165254.162500", "165254.622500", "165255.082500", "165255.542500", "165256.002500", "165256.462500", "165256.922500", "165257.382500", "165257.842500", "165258.302500", "165258.762500", "165259.222500", "165259.682500", "165300.142500", "165300.602500", "165301.062500", "165301.522500", "165301.982500", "165302.442500", "165302.902500", "165303.362500", "165303.822500", "165304.282500", "165304.742500", "165305.202500", "165305.662500", "165306.122500", "165306.582500", "165307.042500", "165307.502500", "165307.962500", "165308.422500", "165308.882500", "165309.342500", "165309.802500", "165310.262500", "165310.722500", "165311.182500", "165311.642500", "165312.102500", "165312.562500", "165313.022500", "165313.482500", "165313.942500", "165314.402500", "165314.862500", "165315.322500", "165315.782500", "165316.242500", "165316.702500", "165317.162500", "165317.622500", "165318.082500", "165318.542500", "165319.002500", "165319.462500", "165319.922500", "165320.382500", "165320.842500", "165321.302500", "165321.762500", "165322.222500", "165322.682500", "165323.142500", "165323.602500", "165324.062500", "165324.522500", "165324.982500", "165325.442500", "165325.902500", "165326.362500", "165326.822500", "165327.282500", "165327.742500", "165328.202500", "165328.662500", "165329.122500", "165329.582500", "165330.042500", "165330.502500", "165330.962500", "165331.422500", "165331.882500", "165332.342500", "165332.802500", "165333.262500", "165333.722500", "165334.182500", "165334.642500", "165335.102500", "165335.562500", "165336.022500", "165336.482500", "165336.942500", "165337.402500", "165337.862500", "165338.322500", "165338.782500", "165339.242500", "165339.702500", "165340.162500", "165340.622500", "165341.082500", "165341.542500", "165342.002500", "165342.462500", "165342.922500", "165343.382500", "165343.842500", "165344.302500", "165344.762500", "165345.222500", "165345.682500", "165346.142500", "165346.602500", "165347.062500", "165347.522500", "165347.982500", "165348.442500", "165348.902500", "165349.362500", "165349.822500", "165350.282500", "165350.742500", "165351.202500", "165351.662500", "165352.122500", "165352.582500", "165353.042500", "165353.502500", "165353.962500", "165354.422500", "165354.882500", "165355.342500", "165355.802500", "165356.262500", "165356.722500", "165357.182500", "165357.642500", "165358.102500", "165358.562500", "165359.022500", "165359.482500", "165359.942500", "165400.402500", "165400.862500", "165401.322500", "165401.782500", "165402.242500", "165402.702500", "165403.162500", "165403.622500", "165404.082500", "165404.542500", "165405.002500", "165405.462500", "165405.922500", "165406.382500", "165406.842500", "165407.302500", "165407.762500", "165408.222500", "165408.682500", "165409.142500", "165409.602500", "165410.062500", "165410.522500", "165410.982500", "165411.442500", "165411.902500", "165412.362500", "165412.822500", "165413.282500", "165413.742500", "165414.202500", "165414.662500", "165415.122500", "165415.582500", "165416.042500", "165416.502500", "165416.962500", "165417.422500", "165417.882500", "165418.342500", "165418.802500", "165419.262500", "165419.722500", "165420.182500", "165420.642500", "165421.102500", "165421.562500", "165422.022500", "165422.482500", "165422.942500", "165423.402500", "165423.862500", "165424.322500", "165424.782500", "165425.242500", "165425.702500", "165426.162500", "165426.622500", "165427.082500", "165427.542500", "165428.002500", "165428.462500", "165428.922500", "165429.382500", "165429.842500", "165430.302500", "165430.762500", "165431.222500", "165431.682500", "165432.142500", "165432.602500", "165433.062500", "165433.522500", "165433.982500", "165434.442500", "165434.902500", "165435.362500", "165435.822500", "165436.282500", "165436.742500", "165437.202500", "165437.662500", "165438.122500", "165438.582500", "165439.042500", "165439.502500", "165439.962500", "165440.422500", "165440.882500", "165441.342500", "165441.802500", "165442.262500", "165442.722500", "165443.182500", "165443.642500", "165444.102500", "165444.562500", "165445.022500", "165445.482500", "165445.942500", "165446.402500", "165446.862500", "165447.322500", "165447.782500", "165448.242500", "165448.702500", "165449.162500", "165449.622500", "165450.082500", "165450.542500", "165451.002500", "165451.462500", "165451.922500", "165452.382500", "165452.842500", "165453.302500", "165453.762500", "165454.222500", "165454.682500", "165455.142500", "165455.602500", "165456.062500", "165456.522500", "165456.982500", "165457.442500", "165457.902500", "165458.362500", "165458.822500", "165459.282500", "165459.742500", "165500.202500", "165500.662500", "165501.122500", "165501.582500", "165502.042500", "165502.502500", "165502.962500", "165503.422500", "165503.882500", "165504.342500", "165504.802500", "165505.262500", "165505.722500", "165506.182500", "165506.642500", "165507.102500", "165507.562500", "165508.022500", "165508.482500", "165508.942500", "165509.402500", "165509.862500", "165510.322500", "165510.782500", "165511.242500", "165511.702500", "165512.162500", "165512.622500", "165513.082500", "165513.542500", "165514.002500", "165514.462500", "165514.922500", "165515.382500", "165515.842500", "165516.302500", "165516.762500", "165517.222500", "165517.682500", "165518.142500", "165518.602500", "165519.062500", "165519.522500", "165519.982500", "165520.442500", "165520.902500", "165521.362500", "165521.822500", "165522.282500", "165522.742500", "165523.202500", "165523.662500", "165524.122500", "165524.582500", "165525.042500", "165525.502500", "165525.962500", "165526.422500", "165526.882500", "165527.342500", "165527.802500", "165528.262500", "165528.722500", "165529.182500", "165529.642500", "165530.102500", "165530.562500", "165531.022500", "165531.482500", "165531.942500", "165532.402500", "165532.862500", "165533.322500", "165533.782500", "165534.242500", "165534.702500", "165535.162500", "165535.622500", "165536.082500", "165536.542500", "165537.002500", "165537.462500", "165537.922500", "165538.382500", "165538.842500", "165539.302500", "165539.762500", "165540.222500", "165540.682500", "165541.142500", "165541.602500", "165542.062500", "165542.522500", "165542.982500", "165543.442500", "165543.902500", "165544.362500", "165544.822500", "165545.282500", "165545.742500", "165546.202500", "165546.662500", "165547.122500", "165547.582500", "165548.042500", "165548.502500", "165548.962500", "165549.422500", "165549.882500", "165550.342500", "165550.802500", "165551.262500", "165551.722500", "165552.182500", "165552.642500", "165553.102500", "165553.562500", "165554.022500", "165554.482500", "165554.942500", "165555.402500", "165555.862500", "165556.322500", "165556.782500", "165557.242500", "165557.702500", "165558.162500", "165558.622500", "165559.082500", "165559.542500", "165600.002500", "165600.462500", "165600.922500", "165601.382500", "165601.842500", "165602.302500", "165602.762500", "165603.222500", "165603.682500", "165604.142500", "165604.602500", "165605.062500", "165605.522500", "165605.982500", "165606.442500", "165606.902500", "165607.362500"],
