{
  "AcquisitionMatrixPE": 82,
  "AcquisitionNumber": 1,
  "AcquisitionTime": "17:56:46.242500",
  "BandwidthPerPixelPhaseEncode": 24.888,
  "BaseResolution": 82,
  "BodyPartExamined": "BRAIN",
  "ConsistencyInfo": "N4_VE11E_LATEST_20181129",
  "ConversionSoftware": "dcm2niix",
  "ConversionSoftwareVersion": "v1.0.20201102",
  "DerivedVendorReportedEchoSpacing": 0.00049,
  "DeviceSerialNumber": "66112",
  "DwellTime": 2e-06,
  "EchoTime": 0.0272,
  "EchoTrainLength": 82,
  "EffectiveEchoSpacing": 0.00049,
  "FlipAngle": 44,
  "ImageComments": "Unaliased MB8/PE3",
  "ImageOrientationPatientDICOM": [0.999421, -0.0140456, 0.0310025, 0.0113385, 0.996245, 0.0858286],
  "ImageType": [
    "ORIGINAL",
    "PRIMARY",
    "M",
    "MB",
    "ND",
    "NORM",
    "MOSAIC"
],
  "ImagingFrequency": 123.259,
  "InPlanePhaseEncodingDirectionDICOM": "COL",
  "InstitutionAddress": "Maynard 3,Hanover,NH,US,03755",
  "InstitutionName": "Dartmouth College - PBS",
  "InstitutionalDepartmentName": "Department",
  "MRAcquisitionType": "2D",
  "MagneticFieldStrength": 3,
  "Manufacturer": "Siemens",
  "ManufacturersModelName": "Prisma",
  "Modality": "MR",
  "MultibandAccelerationFactor": 8,
  "PartialFourier": 1,
  "PatientPosition": "HFS",
  "PercentPhaseFOV": 100,
  "PercentSampling": 100,
  "PhaseEncodingDirection": "j-",
  "PhaseEncodingSteps": 82,
  "PhaseResolution": 1,
  "PixelBandwidth": 3050,
  "ProcedureStepDescription": "Wager_Wager^1076_spacetop",
  "ProtocolName": "func_run-03_task-alignvideo_acq-ap-mb8",
  "PulseSequenceDetails": "%CustomerSeq%\\cmrr_mbep2d_bold",
  "ReceiveCoilActiveElements": "HEA;HEP",
  "ReceiveCoilName": "Head_32",
  "ReconMatrixPE": 82,
  "RepetitionTime": 0.46,
  "SAR": 0.0924935,
  "ScanOptions": "FS",
  "ScanningSequence": "EP",
  "SequenceName": "epfid2d1_82",
  "SequenceVariant": "SK\\SS",
  "SeriesDescription": "func_run-03_task-alignvideo_acq-ap-mb8",
  "SeriesNumber": 32,
  "ShimSetting": [4235, -7783, -7209, 391, -85, 40, 48, 65],
  "SliceThickness": 2.7,
  "SliceTiming": [0, 0.2525, 0.0625, 0.315, 0.125, 0.3775, 0.1875, 0, 0.2525, 0.0625, 0.315, 0.125, 0.3775, 0.1875, 0, 0.2525, 0.0625, 0.315, 0.125, 0.3775, 0.1875, 0, 0.2525, 0.0625, 0.315, 0.125, 0.3775, 0.1875, 0, 0.2525, 0.0625, 0.315, 0.125, 0.3775, 0.1875, 0, 0.2525, 0.0625, 0.315, 0.125, 0.3775, 0.1875, 0, 0.2525, 0.0625, 0.315, 0.125, 0.3775, 0.1875, 0, 0.2525, 0.0625, 0.315, 0.125, 0.3775, 0.1875],
  "SoftwareVersions": "syngo MR E11",
  "SpacingBetweenSlices": 2.7,
  "StationName": "AWP66112",
  "TaskName": "alignvideo",
  "TotalReadoutTime": 0.03969,
  "TxRefAmp": 237.436,
  "WipMemBlock": "40ba20d6-fff3-4b98-8c92-08f4f2cf35ec||Sequence: R016 ve11e/master r/434b28f1; Aug  7 2019 18:53:46 by eja",
  "dcmmeta_affine": [
    [-2.6813724040985107, 0.030420469120144844, 0.08664737641811371, 108.20015716552734],
    [0.03768333047628403, 2.672853469848633, 0.2306537628173828, -114.10103607177734],
    [0.08317746222019196, -0.23027177155017853, 2.6887340545654297, -60.2841911315918],
    [0.0, 0.0, 0.0, 1.0]
],
  "dcmmeta_reorient_transform": [
    [0.0, -1.0, 0.0, 81.0],
    [1.0, 0.0, 0.0, 0.0],
    [0.0, 0.0, 1.0, 0.0],
    [0.0, 0.0, 0.0, 1.0]
],
  "dcmmeta_shape": [82, 82, 56, 1065],
  "dcmmeta_slice_dim": 2,
  "dcmmeta_version": 0.6,
  "global": {
    "const": {
      "AccessionNumber": "A004524",
      "AcquisitionMatrix": [82, 0, 0, 82],
      "AngioFlag": "N",
      "BitsAllocated": 16,
      "BitsStored": 16,
      "BodyPartExamined": "BRAIN",
      "Columns": 656,
      "EchoNumbers": 1,
      "EchoTime": 27.2,
      "EchoTrainLength": 82,
      "FlipAngle": 44.0,
      "HighBit": 15,
      "ImageOrientationPatient": [0.99942061487564, -0.0140456053332, 0.03100250848596, 0.01133853814724, 0.9962453986896, 0.08582856833528],
      "ImagePositionPatient": [-888.94877850533, -858.6939630171, -168.89613551533],
      "ImageType": [
        "ORIGINAL",
        "PRIMARY",
        "M",
        "MB",
        "ND",
        "NORM",
        "MOSAIC"
],
      "ImagedNucleus": "1H",
      "ImagingFrequency": 123.25908,
      "InPlanePhaseEncodingDirection": "COL",
      "MRAcquisitionType": "2D",
      "MagneticFieldStrength": 3.0,
      "Manufacturer": "SIEMENS",
      "ManufacturerModelName": "Prisma",
      "Modality": "MR",
      "NumberOfAverages": 1.0,
      "NumberOfPhaseEncodingSteps": 82,
      "PercentPhaseFieldOfView": 100.0,
      "PercentSampling": 100.0,
      "PerformedProcedureStepStartTime": "162327.396000",
      "PhotometricInterpretation": "MONOCHROME2",
      "PixelBandwidth": 3050.0,
      "PixelRepresentation": 0,
      "PixelSpacing": [2.6829268932343, 2.6829268932343],
      "ProtocolName": "func_run-03_task-alignvideo_acq-ap-mb8",
      "RepetitionTime": 460.0,
      "Rows": 656,
      "SAR": 0.09249347957447,
      "SamplesPerPixel": 1,
      "ScanOptions": "FS",
      "ScanningSequence": "EP",
      "SequenceName": "epfid2d1_82",
      "SequenceVariant": [
        "SK",
        "SS"
],
      "SeriesDescription": "func_run-03_task-alignvideo_acq-ap-mb8",
      "SeriesNumber": 32,
      "SeriesTime": "175712.066000",
      "SliceLocation": -66.307678500147,
      "SliceThickness": 2.7000000476837,
      "SmallestImagePixelValue": 0,
      "SoftwareVersions": "syngo MR E11",
      "SpacingBetweenSlices": 2.700000054395,
      "SpecificCharacterSet": "ISO_IR 100",
      "StudyID": "3",
      "StudyTime": "162327.355000",
      "TransmitCoilName": "Body",
      "VariableFlipAngleFlag": "N",
      "WindowCenterWidthExplanation": "Algo1"
    },
    "slices": {}
  },
  "time": {
    "samples": {
      "AcquisitionNumber": [1, 2, 3, 4, 5, 6, 7, 8, 9, 10, 11, 12, 13, 14, 15, 16, 17, 18, 19, 20, 21, 22, 23, 24, 25, 26, 27, 28, 29, 30, 31, 32, 33, 34, 35, 36, 37, 38, 39, 40, 41, 42, 43, 44, 45, 46, 47, 48, 49, 50, 51, 52, 53, 54, 55, 56, 57, 58, 59, 60, 61, 62, 63, 64, 65, 66, 67, 68, 69, 70, 71, 72, 73, 74, 75, 76, 77, 78, 79, 80, 81, 82, 83, 84, 85, 86, 87, 88, 89, 90, 91, 92, 93, 94, 95, 96, 97, 98, 99, 100, 101, 102, 103, 104, 105, 106, 107, 108, 109, 110, 111, 112, 113, 114, 115, 116, 117, 118, 119, 120, 121, 122, 123, 124, 125, 126, 127, 128, 129, 130, 131, 132, 133, 134, 135, 136, 137, 138, 139, 140, 141, 142, 143, 144, 145, 146, 147, 148, 149, 150, 151, 152, 153, 154, 155, 156, 157, 158, 159, 160, 161, 162, 163, 164, 165, 166, 167, 168, 169, 170, 171, 172, 173, 174, 175, 176, 177, 178, 179, 180, 181, 182, 183, 184, 185, 186, 187, 188, 189, 190, 191, 192, 193, 194, 195, 196, 197, 198, 199, 200, 201, 202, 203, 204, 205, 206, 207, 208, 209, 210, 211, 212, 213, 214, 215, 216, 217, 218, 219, 220, 221, 222, 223, 224, 225, 226, 227, 228, 229, 230, 231, 232, 233, 234, 235, 236, 237, 238, 239, 240, 241, 242, 243, 244, 245, 246, 247, 248, 249, 250, 251, 252, 253, 254, 255, 256, 257, 258, 259, 260, 261, 262, 263, 264, 265, 266, 267, 268, 269, 270, 271, 272, 273, 274, 275, 276, 277, 278, 279, 280, 281, 282, 283, 284, 285, 286, 287, 288, 289, 290, 291, 292, 293, 294, 295, 296, 297, 298, 299, 300, 301, 302, 303, 304, 305, 306, 307, 308, 309, 310, 311, 312, 313, 314, 315, 316, 317, 318, 319, 320, 321, 322, 323, 324, 325, 326, 327, 328, 329, 330, 331, 332, 333, 334, 335, 336, 337, 338, 339, 340, 341, 342, 343, 344, 345, 346, 347, 348, 349, 350, 351, 352, 353, 354, 355, 356, 357, 358, 359, 360, 361, 362, 363, 364, 365, 366, 367, 368, 369, 370, 371, 372, 373, 374, 375, 376, 377, 378, 379, 380, 381, 382, 383, 384, 385, 386, 387, 388, 389, 390, 391, 392, 393, 394, 395, 396, 397, 398, 399, 400, 401, 402, 403, 404, 405, 406, 407, 408, 409, 410, 411, 412, 413, 414, 415, 416, 417, 418, 419, 420, 421, 422, 423, 424, 425, 426, 427, 428, 429, 430, 431, 432, 433, 434, 435, 436, 437, 438, 439, 440, 441, 442, 443, 444, 445, 446, 447, 448, 449, 450, 451, 452, 453, 454, 455, 456, 457, 458, 459, 460, 461, 462, 463, 464, 465, 466, 467, 468, 469, 470, 471, 472, 473, 474, 475, 476, 477, 478, 479, 480, 481, 482, 483, 484, 485, 486, 487, 488, 489, 490, 491, 492, 493, 494, 495, 496, 497, 498, 499, 500, 501, 502, 503, 504, 505, 506, 507, 508, 509, 510, 511, 512, 513, 514, 515, 516, 517, 518, 519, 520, 521, 522, 523, 524, 525, 526, 527, 528, 529, 530, 531, 532, 533, 534, 535, 536, 537, 538, 539, 540, 541, 542, 543, 544, 545, 546, 547, 548, 549, 550, 551, 552, 553, 554, 555, 556, 557, 558, 559, 560, 561, 562, 563, 564, 565, 566, 567, 568, 569, 570, 571, 572, 573, 574, 575, 576, 577, 578, 579, 580, 581, 582, 583, 584, 585, 586, 587, 588, 589, 590, 591, 592, 593, 594, 595, 596, 597, 598, 599, 600, 601, 602, 603, 604, 605, 606, 607, 608, 609, 610, 611, 612, 613, 614, 615, 616, 617, 618, 619, 620, 621, 622, 623, 624, 625, 626, 627, 628, 629, 630, 631, 632, 633, 634, 635, 636, 637, 638, 639, 640, 641, 642, 643, 644, 645, 646, 647, 648, 649, 650, 651, 652, 653, 654, 655, 656, 657, 658, 659, 660, 661, 662, 663, 664, 665, 666, 667, 668, 669, 670, 671, 672, 673, 674, 675, 676, 677, 678, 679, 680, 681, 682, 683, 684, 685, 686, 687, 688, 689, 690, 691, 692, 693, 694, 695, 696, 697, 698, 699, 700, 701, 702, 703, 704, 705, 706, 707, 708, 709, 710, 711, 712, 713, 714, 715, 716, 717, 718, 719, 720, 721, 722, 723, 724, 725, 726, 727, 728, 729, 730, 731, 732, 733, 734, 735, 736, 737, 738, 739, 740, 741, 742, 743, 744, 745, 746, 747, 748, 749, 750, 751, 752, 753, 754, 755, 756, 757, 758, 759, 760, 761, 762, 763, 764, 765, 766, 767, 768, 769, 770, 771, 772, 773, 774, 775, 776, 777, 778, 779, 780, 781, 782, 783, 784, 785, 786, 787, 788, 789, 790, 791, 792, 793, 794, 795, 796, 797, 798, 799, 800, 801, 802, 803, 804, 805, 806, 807, 808, 809, 810, 811, 812, 813, 814, 815, 816, 817, 818, 819, 820, 821, 822, 823, 824, 825, 826, 827, 828, 829, 830, 831, 832, 833, 834, 835, 836, 837, 838, 839, 840, 841, 842, 843, 844, 845, 846, 847, 848, 849, 850, 851, 852, 853, 854, 855, 856, 857, 858, 859, 860, 861, 862, 863, 864, 865, 866, 867, 868, 869, 870, 871, 872, 873, 874, 875, 876, 877, 878, 879, 880, 881, 882, 883, 884, 885, 886, 887, 888, 889, 890, 891, 892, 893, 894, 895, 896, 897, 898, 899, 900, 901, 902, 903, 904, 905, 906, 907, 908, 909, 910, 911, 912, 913, 914, 915, 916, 917, 918, 919, 920, 921, 922, 923, 924, 925, 926, 927, 928, 929, 930, 931, 932, 933, 934, 935, 936, 937, 938, 939, 940, 941, 942, 943, 944, 945, 946, 947, 948, 949, 950, 951, 952, 953, 954, 955, 956, 957, 958, 959, 960, 961, 962, 963, 964, 965, 966, 967, 968, 969, 970, 971, 972, 973, 974, 975, 976, 977, 978, 979, 980, 981, 982, 983, 984, 985, 986, 987, 988, 989, 990, 991, 992, 993, 994, 995, 996, 997, 998, 999, 1000, 1001, 1002, 1003, 1004, 1005, 1006, 1007, 1008, 1009, 1010, 1011, 1012, 1013, 1014, 1015, 1016, 1017, 1018, 1019, 1020, 1021, 1022, 1023, 1024, 1025, 1026, 1027, 1028, 1029, 1030, 1031, 1032, 1033, 1034, 1035, 1036, 1037, 1038, 1039, 1040, 1041, 1042, 1043, 1044, 1045, 1046, 1047, 1048, 1049, 1050, 1051, 1052, 1053, 1054, 1055, 1056, 1057, 1058, 1059, 1060, 1061, 1062, 1063, 1064, 1065],
      "AcquisitionTime": ["175646.242500", "175646.702500", "175647.162500", "175647.622500", "175648.082500", "175648.542500", "175649.002500", "175649.462500", "175649.922500", "175650.382500", "175650.842500", "175651.302500", "175651.762500", "175652.222500", "175652.682500", "175653.142500", "175653.602500", "175654.062500", "175654.522500", "175654.982500", "175655.442500", "175655.902500", "175656.362500", "175656.822500", "175657.282500", "175657.742500", "175658.202500", "175658.662500", "175659.122500", "175659.582500", "175700.042500", "175700.502500", "175700.962500", "175701.422500", "175701.882500", "175702.342500", "175702.802500", "175703.262500", "175703.722500", "175704.182500", "175704.642500", "175705.102500", "175705.562500", "175706.022500", "175706.482500", "175706.942500", "175707.402500", "175707.862500", "175708.322500", "175708.782500", "175709.242500", "175709.702500", "175710.162500", "175710.622500", "175711.082500", "175711.542500", "175712.002500", "175712.462500", "175712.922500", "175713.382500", "175713.842500", "175714.302500", "175714.762500", "175715.222500", "175715.682500", "175716.142500", "175716.602500", "175717.062500", "175717.522500", "175717.982500", "175718.442500", "175718.902500", "175719.362500", "175719.822500", "175720.282500", "175720.742500", "175721.202500", "175721.662500", "175722.122500", "175722.582500", "175723.042500", "175723.502500", "175723.962500", "175724.422500", "175724.882500", "175725.342500", "175725.802500", "175726.262500", "175726.722500", "175727.182500", "175727.642500", "175728.102500", "175728.562500", "175729.022500", "175729.482500", "175729.942500", "175730.402500", "175730.862500", "175731.322500", "175731.782500", "175732.242500", "175732.702500", "175733.162500", "175733.622500", "175734.082500", "175734.542500", "175735.002500", "175735.462500", "175735.922500", "175736.382500", "175736.842500", "175737.302500", "175737.762500", "175738.222500", "175738.682500", "175739.142500", "175739.602500", "175740.062500", "175740.522500", "175740.982500", "175741.442500", "175741.902500", "175742.362500", "175742.822500", "175743.282500", "175743.742500", "175744.202500", "175744.662500", "175745.122500", "175745.582500", "175746.042500", "175746.502500", "175746.962500", "175747.422500", "175747.882500", "175748.342500", "175748.802500", "175749.262500", "175749.722500", "175750.182500", "175750.642500", "175751.102500", "175751.562500", "175752.022500", "175752.482500", "175752.942500", "175753.402500", "175753.862500", "175754.322500", "175754.782500", "175755.242500", "175755.702500", "175756.162500", "175756.622500", "175757.082500", "175757.542500", "175758.002500", "175758.462500", "175758.922500", "175759.382500", "175759.842500", "175800.302500", "175800.762500", "175801.222500", "175801.682500", "175802.142500", "175802.602500", "175803.062500", "175803.522500", "175803.982500", "175804.442500", "175804.902500", "175805.362500", "175805.822500", "175806.282500", "175806.742500", "175807.202500", "175807.662500", "175808.122500", "175808.582500", "175809.042500", "175809.502500", "175809.962500", "175810.422500", "175810.882500", "175811.342500", "175811.802500", "175812.262500", "175812.722500", "175813.182500", "175813.642500", "175814.102500", "175814.562500", "175815.022500", "175815.482500", "175815.942500", "175816.402500", "175816.862500", "175817.322500", "175817.782500", "175818.242500", "175818.702500", "175819.162500", "175819.622500", "175820.082500", "175820.542500", "175821.002500", "175821.462500", "175821.922500", "175822.382500", "175822.842500", "175823.302500", "175823.762500", "175824.222500", "175824.682500", "175825.142500", "175825.602500", "175826.062500", "175826.522500", "175826.982500", "175827.442500", "175827.902500", "175828.362500", "175828.822500", "175829.282500", "175829.742500", "175830.202500", "175830.662500", "175831.122500", "175831.582500", "175832.042500", "175832.502500", "175832.962500", "175833.422500", "175833.882500", "175834.342500", "175834.802500", "175835.262500", "175835.722500", "175836.182500", "175836.642500", "175837.102500", "175837.562500", "175838.022500", "175838.482500", "175838.942500", "175839.402500", "175839.862500", "175840.322500", "175840.782500", "175841.242500", "175841.702500", "175842.162500", "175842.622500", "175843.082500", "175843.542500", "175844.002500", "175844.462500", "175844.922500", "175845.382500", "175845.842500", "175846.302500", "175846.762500", "175847.222500", "175847.682500", "175848.142500", "175848.602500", "175849.062500", "175849.522500", "175849.982500", "175850.442500", "175850.902500", "175851.362500", "175851.822500", "175852.282500", "175852.742500", "175853.202500", "175853.662500", "175854.122500", "175854.582500", "175855.042500", "175855.502500", "175855.962500", "175856.422500", "175856.882500", "175857.342500", "175857.802500", "175858.262500", "175858.722500", "175859.182500", "175859.642500", "175900.102500", "175900.562500", "175901.022500", "175901.482500", "175901.942500", "175902.402500", "175902.862500", "175903.322500", "175903.782500", "175904.242500", "175904.702500", "175905.162500", "175905.622500", "175906.082500", "175906.542500", "175907.002500", "175907.462500", "175907.922500", "175908.382500", "175908.842500", "175909.302500", "175909.762500", "175910.222500", "175910.682500", "175911.142500", "175911.602500", "175912.062500", "175912.522500", "175912.982500", "175913.442500", "175913.902500", "175914.362500", "175914.822500", "175915.282500", "175915.742500", "175916.202500", "175916.662500", "175917.122500", "175917.582500", "175918.042500", "175918.502500", "175918.962500", "175919.422500", "175919.882500", "175920.342500", "175920.802500", "175921.262500", "175921.722500", "175922.182500", "175922.642500", "175923.102500", "175923.562500", "175924.022500", "175924.482500", "175924.942500", "175925.402500", "175925.862500", "175926.322500", "175926.782500", "175927.242500", "175927.702500", "175928.162500", "175928.622500", "175929.082500", "175929.542500", "175930.002500", "175930.462500", "175930.922500", "175931.382500", "175931.842500", "175932.302500", "175932.762500", "175933.222500", "175933.682500", "175934.142500", "175934.602500", "175935.062500", "175935.522500", "175935.982500", "175936.442500", "175936.902500", "175937.362500", "175937.822500", "175938.282500", "175938.742500", "175939.202500", "175939.662500", "175940.122500", "175940.582500", "175941.042500", "175941.502500", "175941.962500", "175942.422500", "175942.882500", "175943.342500", "175943.802500", "175944.262500", "175944.722500", "175945.182500", "175945.642500", "175946.102500", "175946.562500", "175947.022500", "175947.482500", "175947.942500", "175948.402500", "175948.862500", "175949.322500", "175949.782500", "175950.242500", "175950.702500", "175951.162500", "175951.622500", "175952.082500", "175952.542500", "175953.002500", "175953.462500", "175953.922500", "175954.382500", "175954.842500", "175955.302500", "175955.762500", "175956.222500", "175956.682500", "175957.142500", "175957.602500", "175958.062500", "175958.522500", "175958.982500", "175959.442500", "175959.902500", "180000.362500", "180000.822500", "180001.282500", "180001.742500", "180002.202500", "180002.662500", "180003.122500", "180003.582500", "180004.042500", "180004.502500", "180004.962500", "180005.422500", "180005.882500", "180006.342500", "180006.802500", "180007.262500", "180007.722500", "180008.182500", "180008.642500", "180009.102500", "180009.562500", "180010.022500", "180010.482500", "180010.942500", "180011.402500", "180011.862500", "180012.322500", "180012.782500", "180013.242500", "180013.702500", "180014.162500", "180014.622500", "180015.082500", "180015.542500", "180016.002500", "180016.462500", "180016.922500", "180017.382500", "180017.842500", "180018.302500", "180018.762500", "180019.222500", "180019.682500", "180020.142500", "180020.602500", "180021.062500", "180021.522500", "180021.982500", "180022.442500", "180022.902500", "180023.362500", "180023.822500", "180024.282500", "180024.742500", "180025.202500", "180025.662500", "180026.122500", "180026.582500", "180027.042500", "180027.502500", "180027.962500", "180028.422500", "180028.882500", "180029.342500", "180029.802500", "180030.262500", "180030.722500", "180031.182500", "180031.642500", "180032.102500", "180032.562500", "180033.022500", "180033.482500", "180033.942500", "180034.402500", "180034.862500", "180035.322500", "180035.782500", "180036.242500", "180036.702500", "180037.162500", "180037.622500", "180038.082500", "180038.542500", "180039.002500", "180039.462500", "180039.922500", "180040.382500", "180040.842500", "180041.302500", "180041.762500", "180042.222500", "180042.682500", "180043.142500", "180043.602500", "180044.062500", "180044.522500", "180044.982500", "180045.442500", "180045.902500", "180046.362500", "180046.822500", "180047.282500", "180047.742500", "180048.202500", "180048.662500", "180049.122500", "180049.582500", "180050.042500", "180050.502500", "180050.962500", "180051.422500", "180051.882500", "180052.342500", "180052.802500", "180053.262500", "180053.722500", "180054.182500", "180054.642500", "180055.102500", "180055.562500", "180056.022500", "180056.482500", "180056.942500", "180057.402500", "180057.862500", "180058.322500", "180058.782500", "180059.242500", "180059.702500", "180100.162500", "180100.622500", "180101.082500", "180101.542500", "180102.002500", "180102.462500", "180102.922500", "180103.382500", "180103.842500", "180104.302500", "180104.762500", "180105.222500", "180105.682500", "180106.142500", "180106.602500", "180107.062500", "180107.522500", "180107.982500", "180108.442500", "180108.902500", "180109.362500", "180109.822500", "180110.282500", "180110.742500", "180111.202500", "180111.662500", "180112.122500", "180112.582500", "180113.042500", "180113.502500", "180113.962500", "180114.422500", "180114.882500", "180115.342500", "180115.802500", "180116.262500", "180116.722500", "180117.182500", "180117.642500", "180118.102500", "180118.562500", "180119.022500", "180119.482500", "180119.942500", "180120.402500", "180120.862500", "180121.322500", "180121.782500", "180122.242500", "180122.702500", "180123.162500", "180123.622500", "180124.082500", "180124.542500", "180125.002500", "180125.462500", "180125.922500", "180126.382500", "180126.842500", "180127.302500", "180127.762500", "180128.222500", "180128.682500", "180129.142500", "180129.602500", "180130.062500", "180130.522500", "180130.982500", "180131.442500", "180131.902500", "180132.362500", "180132.822500", "180133.282500", "180133.742500", "180134.202500", "180134.662500", "180135.122500", "180135.582500", "180136.042500", "180136.502500", "180136.962500", "180137.422500", "180137.882500", "180138.342500", "180138.802500", "180139.262500", "180139.722500", "180140.182500", "180140.642500", "180141.102500", "180141.562500", "180142.022500", "180142.482500", "180142.942500", "180143.402500", "180143.862500", "180144.322500", "180144.782500", "180145.242500", "180145.702500", "180146.162500", "180146.622500", "180147.082500", "180147.542500", "180148.002500", "180148.462500", "180148.922500", "180149.382500", "180149.842500", "180150.302500", "180150.762500", "180151.222500", "180151.682500", "180152.142500", "180152.602500", "180153.062500", "180153.522500", "180153.982500", "180154.442500", "180154.902500", "180155.362500", "180155.822500", "180156.282500", "180156.742500", "180157.202500", "180157.662500", "180158.122500", "180158.582500", "180159.042500", "180159.502500", "180159.962500", "180200.422500", "180200.882500", "180201.342500", "180201.802500", "180202.262500", "180202.722500", "180203.182500", "180203.642500", "180204.102500", "180204.562500", "180205.022500", "180205.482500", "180205.942500", "180206.402500", "180206.862500", "180207.322500", "180207.782500", "180208.242500", "180208.702500", "180209.162500", "180209.622500", "180210.082500", "180210.542500", "180211.002500", "180211.462500", "180211.922500", "180212.382500", "180212.842500", "180213.302500", "180213.762500", "180214.222500", "180214.682500", "180215.142500", "180215.602500", "180216.062500", "180216.522500", "180216.982500", "180217.442500", "180217.902500", "180218.362500", "180218.822500", "180219.282500", "180219.742500", "180220.202500", "180220.662500", "180221.122500", "180221.582500", "180222.042500", "180222.502500", "180222.962500", "180223.422500", "180223.882500", "180224.342500", "180224.802500", "180225.262500", "180225.722500", "180226.182500", "180226.642500", "180227.102500", "180227.562500", "180228.022500", "180228.482500", "180228.942500", "180229.402500", "180229.862500", "180230.322500", "180230.782500", "180231.242500", "180231.702500", "180232.162500", "180232.622500", "180233.082500", "180233.542500", "180234.002500", "180234.462500", "180234.922500", "180235.382500", "180235.842500", "180236.302500", "180236.762500", "180237.222500", "180237.682500", "180238.142500", "180238.602500", "180239.062500", "180239.522500", "180239.982500", "180240.442500", "180240.902500", "180241.362500", "180241.822500", "180242.282500", "180242.742500", "180243.202500", "180243.662500", "180244.122500", "180244.582500", "180245.042500", "180245.502500", "180245.962500", "180246.422500", "180246.882500", "180247.342500", "180247.802500", "180248.262500", "180248.722500", "180249.182500", "180249.642500", "180250.102500", "180250.562500", "180251.022500", "180251.482500", "180251.942500", "180252.402500", "180252.862500", "180253.322500", "180253.782500", "180254.242500", "180254.702500", "180255.162500", "180255.622500", "180256.082500", "180256.542500", "180257.002500", "180257.462500", "180257.922500", "180258.382500", "180258.842500", "180259.302500", "180259.762500", "180300.222500", "180300.682500", "180301.142500", "180301.602500", "180302.062500", "180302.522500", "180302.982500", "180303.442500", "180303.902500", "180304.362500", "180304.822500", "180305.282500", "180305.742500", "180306.202500", "180306.662500", "180307.122500", "180307.582500", "180308.042500", "180308.502500", "180308.962500", "180309.422500", "180309.882500", "180310.342500", "180310.802500", "180311.262500", "180311.722500", "180312.182500", "180312.642500", "180313.102500", "180313.562500", "180314.022500", "180314.482500", "180314.942500", "180315.402500", "180315.862500", "180316.322500", "180316.782500", "180317.242500", "180317.702500", "180318.162500", "180318.622500", "180319.082500", "180319.542500", "180320.002500", "180320.462500", "180320.922500", "180321.382500", "180321.842500", "180322.302500", "180322.762500", "180323.222500", "180323.682500", "180324.142500", "180324.602500", "180325.062500", "180325.522500", "180325.982500", "180326.442500", "180326.902500", "180327.362500", "180327.822500", "180328.282500", "180328.742500", "180329.202500", "180329.662500", "180330.122500", "180330.582500", "180331.042500", "180331.502500", "180331.962500", "180332.422500", "180332.882500", "180333.342500", "180333.802500", "180334.262500", "180334.722500", "180335.182500", "180335.642500", "180336.102500", "180336.562500", "180337.022500", "180337.482500", "180337.942500", "180338.402500", "180338.862500", "180339.322500", "180339.782500", "180340.242500", "180340.702500", "180341.162500", "180341.622500", "180342.082500", "180342.542500", "180343.002500", "180343.462500", "180343.922500", "180344.382500", "180344.842500", "180345.302500", "180345.762500", "180346.222500", "180346.682500", "180347.142500", "180347.602500", "180348.062500", "180348.522500", "180348.982500", "180349.442500", "180349.902500", "180350.362500", "180350.822500", "180351.282500", "180351.742500", "180352.202500", "180352.662500", "180353.122500", "180353.582500", "180354.042500", "180354.502500", "180354.962500", "180355.422500", "180355.882500", "180356.342500", "180356.802500", "180357.262500", "180357.722500", "180358.182500", "180358.642500", "180359.102500", "180359.562500", "180400.022500", "180400.482500", "180400.942500", "180401.402500", "180401.862500", "180402.322500", "180402.782500", "180403.242500", "180403.702500", "180404.162500", "180404.622500", "180405.082500", "180405.542500", "180406.002500", "180406.462500", "180406.922500", "180407.382500", "180407.842500", "180408.302500", "180408.762500", "180409.222500", "180409.682500", "180410.142500", "180410.602500", "180411.062500", "180411.522500", "180411.982500", "180412.442500", "180412.902500", "180413.362500", "180413.822500", "180414.282500", "180414.742500", "180415.202500", "180415.662500", "180416.122500", "180416.582500", "180417.042500", "180417.502500", "180417.962500", "180418.422500", "180418.882500", "180419.342500", "180419.802500", "180420.262500", "180420.722500", "180421.182500", "180421.642500", "180422.102500", "180422.562500", "180423.022500", "180423.482500", "180423.942500", "180424.402500", "180424.862500", "180425.322500", "180425.782500", "180426.242500", "180426.702500", "180427.162500", "180427.622500", "180428.082500", "180428.542500", "180429.002500", "180429.462500", "180429.922500", "180430.382500", "180430.842500", "180431.302500", "180431.762500", "180432.222500", "180432.682500", "180433.142500", "180433.602500", "180434.062500", "180434.522500", "180434.982500", "180435.442500", "180435.902500", "180436.362500", "180436.822500", "180437.282500", "180437.742500", "180438.202500", "180438.662500", "180439.122500", "180439.582500", "180440.042500", "180440.502500", "180440.962500", "180441.422500", "180441.882500", "180442.342500", "180442.802500", "180443.262500", "180443.722500", "180444.182500", "180444.642500", "180445.102500", "180445.562500", "180446.022500", "180446.482500", "180446.942500", "180447.402500", "180447.862500", "180448.322500", "180448.782500", "180449.242500", "180449.702500", "180450.162500", "180450.622500", "180451.082500", "180451.542500", "180452.002500", "180452.462500", "180452.922500", "180453.382500", "180453.842500", "180454.302500", "180454.762500", "180455.222500", "180455.682500"],
