{
  "AcquisitionMatrixPE": 140,
  "AcquisitionNumber": 1,
  "AcquisitionTime": "09:50:53.687500",
  "BandwidthPerPixelPhaseEncode": 10.352,
  "BaseResolution": 140,
  "BodyPartExamined": "BRAIN",
  "ConsistencyInfo": "N4_VE11C_LATEST_20160120",
  "ConversionSoftware": "dcm2niix",
  "ConversionSoftwareVersion": "v1.0.20201102",
  "DerivedVendorReportedEchoSpacing": 0.000689998,
  "DeviceSerialNumber": "66112",
  "DiffusionScheme": "Monopolar",
  "DwellTime": 2.1e-06,
  "EchoTime": 0.088,
  "EchoTrainLength": 105,
  "EffectiveEchoSpacing": 0.000689998,
  "FlipAngle": 90,
  "ImageComments": "Unaliased MB3/PE3",
  "ImageOrientationPatientDICOM": [0.999404, -0.0280293, 0.0201457, 0.0280904, 0.999602, -0.0027581],
  "ImageType": [
    "ORIGINAL",
    "PRIMARY",
    "DIFFUSION",
    "NONE",
    "MB",
    "ND"
],
  "ImagingFrequency": 123.252,
  "InPlanePhaseEncodingDirectionDICOM": "COL",
  "InstitutionAddress": "Maynard 3,Hanover,NH,US,03755",
  "InstitutionName": "dartmouth_brain_imaging_center",
  "InstitutionalDepartmentName": "Department",
  "IntendedFor": [
    "ses-01/dwi/sub-0013_ses-01_acq-96dirX6b0Xmb_dwi.nii.gz"
],
  "MRAcquisitionType": "2D",
  "MagneticFieldStrength": 3,
  "Manufacturer": "Siemens",
  "ManufacturersModelName": "Prisma",
  "Modality": "MR",
  "MultibandAccelerationFactor": 3,
  "PartialFourier": 0.75,
  "PatientPosition": "HFS",
  "PercentPhaseFOV": 100,
  "PercentSampling": 100,
  "PhaseEncodingDirection": "j",
  "PhaseEncodingSteps": 105,
  "PhaseResolution": 1,
  "PixelBandwidth": 1700,
  "ProcedureStepDescription": "Wager_Wager^1076_spacetop",
  "ProtocolName": "dwi_acq-discorr-PA",
  "PulseSequenceDetails": "%CustomerSeq%\\cmrr_mbep2d_diff",
  "ReceiveCoilActiveElements": "HEA;HEP",
  "ReceiveCoilName": "Head_32",
  "ReconMatrixPE": 140,
  "RepetitionTime": 4.1,
  "SAR": 0.155111,
  "ScanOptions": "PFP\\FS",
  "ScanningSequence": "EP",
  "SequenceName": "ep_b0",
  "SequenceVariant": "SK\\SS",
  "SeriesDescription": "dwi_acq-discorr-PA",
  "SeriesNumber": 6,
  "ShimSetting": [4136, -7743, -7210, 596, -179, -88, 65, 41],
  "SliceThickness": 1.7,
  "SliceTiming": [0, 2.11719, 0.15625, 2.26562, 0.30469, 2.41406, 0.45312, 2.57031, 0.60156, 2.71875, 0.75781, 2.875, 0.90625, 3.02344, 1.05469, 3.17188, 1.21094, 3.32812, 1.35938, 3.47656, 1.51562, 3.625, 1.66406, 3.78125, 1.8125, 3.92969, 1.96875, 0, 2.11719, 0.15625, 2.26562, 0.30469, 2.41406, 0.45312, 2.57031, 0.60156, 2.71875, 0.75781, 2.875, 0.90625, 3.02344, 1.05469, 3.17188, 1.21094, 3.32812, 1.35938, 3.47656, 1.51562, 3.625, 1.66406, 3.78125, 1.8125, 3.92969, 1.96875, 0, 2.11719, 0.15625, 2.26562, 0.30469, 2.41406, 0.45312, 2.57031, 0.60156, 2.71875, 0.75781, 2.875, 0.90625, 3.02344, 1.05469, 3.17188, 1.21094, 3.32812, 1.35938, 3.47656, 1.51562, 3.625, 1.66406, 3.78125, 1.8125, 3.92969, 1.96875],
  "SoftwareVersions": "syngo MR E11",
  "SpacingBetweenSlices": 1.7,
  "StationName": "AWP66112",
  "TotalReadoutTime": 0.0959097,
  "TxRefAmp": 248.235,
  "WipMemBlock": "5b7bde39-170f-4b40-a161-454a558b5bc1||Sequence: R016 ve11c/master r/e634e98; Dec 19 2017 11:11:25 by eja",
  "dcmmeta_affine": [
    [-1.7132641077041626, 0.04815501347184181, 0.0341029167175293, 120.5493392944336],
    [0.048050206154584885, 1.7136027812957764, -0.0056476593017578125, -95.21412658691406],
    [0.03453553467988968, 0.004728179425001144, 1.69964599609375, -43.99245071411133],
    [0.0, 0.0, 0.0, 1.0]
],
  "dcmmeta_reorient_transform": [
    [0.0, -1.0, 0.0, 139.0],
    [1.0, 0.0, 0.0, 0.0],
    [0.0, 0.0, -1.0, 80.0],
    [0.0, 0.0, 0.0, 1.0]
],
  "dcmmeta_shape": [140, 140, 81],
  "dcmmeta_slice_dim": 2,
  "dcmmeta_version": 0.6,
  "global": {
    "const": {
      "AccessionNumber": "A003495",
      "AcquisitionMatrix": [140, 0, 0, 140],
      "AcquisitionNumber": 1,
      "AngioFlag": "N",
      "BitsAllocated": 16,
      "BitsStored": 16,
      "BodyPartExamined": "BRAIN",
      "Columns": 140,
      "EchoNumbers": 1,
      "EchoTime": 88.0,
      "EchoTrainLength": 105,
      "FlipAngle": 90.0,
      "HighBit": 15,
      "ImageOrientationPatient": [0.99940407679626, -0.0280292870968, 0.02014572778172, 0.02809042345801, 0.99960158111583, -0.0027581045459],
      "ImageType": [
        "ORIGINAL",
        "PRIMARY",
        "DIFFUSION",
        "NONE",
        "MB",
        "ND"
],
      "ImagedNucleus": "1H",
      "ImagingFrequency": 123.252088,
      "InPlanePhaseEncodingDirection": "COL",
      "MRAcquisitionType": "2D",
      "MagneticFieldStrength": 3.0,
      "Manufacturer": "SIEMENS",
      "ManufacturerModelName": "Prisma",
      "Modality": "MR",
      "NumberOfAverages": 1.0,
      "NumberOfPhaseEncodingSteps": 105,
      "PercentPhaseFieldOfView": 100.0,
      "PercentSampling": 100.0,
      "PerformedProcedureStepStartTime": "091145.502000",
      "PhotometricInterpretation": "MONOCHROME2",
      "PixelBandwidth": 1700.0,
      "PixelRepresentation": 0,
      "PixelSpacing": [1.7142857313156, 1.7142857313156],
      "ProtocolName": "dwi_acq-discorr-PA",
      "RepetitionTime": 4100.0,
      "Rows": 140,
      "SAR": 0.15511086279037,
      "SamplesPerPixel": 1,
      "ScanOptions": [
        "PFP",
        "FS"
],
      "ScanningSequence": "EP",
      "SequenceName": "ep_b0",
      "SequenceVariant": [
        "SK",
        "SS"
],
      "SeriesDescription": "dwi_acq-discorr-PA",
      "SeriesNumber": 6,
      "SeriesTime": "095059.333000",
      "SliceThickness": 1.7000000476837,
      "SmallestImagePixelValue": 0,
      "SoftwareVersions": "syngo MR E11",
      "SpacingBetweenSlices": 1.7,
      "SpecificCharacterSet": "ISO_IR 100",
      "StudyID": "1",
      "StudyTime": "091145.366000",
      "TransmitCoilName": "Body",
      "VariableFlipAngleFlag": "N",
      "WindowCenterWidthExplanation": "Algo1",
      "dBdt": 0.0},
    "slices": {
      "AcquisitionTime": ["095053.687500", "095055.802500", "095053.840000", "095055.955000", "095053.990000", "095056.105000", "095054.140000", "095056.257500", "095054.292500", "095056.407500", "095054.442500", "095056.560000", "095054.595000", "095056.710000", "095054.745000", "095056.860000", "095054.897500", "095057.012500", "095055.047500", "095057.162500", "095055.200000", "095057.315000", "095055.350000", "095057.465000", "095055.500000", "095057.617500", "095055.652500", "095053.687500", "095055.802500", "095053.840000", "095055.955000", "095053.990000", "095056.105000", "095054.140000", "095056.257500", "095054.292500", "095056.407500", "095054.442500", "095056.560000", "095054.595000", "095056.710000", "095054.745000", "095056.860000", "095054.897500", "095057.012500", "095055.047500", "095057.162500", "095055.200000", "095057.315000", "095055.350000", "095057.465000", "095055.500000", "095057.617500", "095055.652500", "095053.687500", "095055.802500", "095053.840000", "095055.955000", "095053.990000", "095056.105000", "095054.140000", "095056.257500", "095054.292500", "095056.407500", "095054.442500", "095056.560000", "095054.595000", "095056.710000", "095054.745000", "095056.860000", "095054.897500", "095057.012500", "095055.047500", "095057.162500", "095055.200000", "095057.315000", "095055.350000", "095057.465000", "095055.500000", "095057.617500", "095055.652500"],
      "ContentTime": ["095059.336000", "095059.630000", "095059.343000", "095059.637000", "095059.547000", "095059.644000", "095059.554000", "095059.651000", "095059.561000", "095059.659000", "095059.567000", "095059.666000", "095059.574000", "095059.673000", "095059.580000", "095059.679000", "095059.587000", "095059.686000", "095059.593000", "095059.696000", "095059.600000", "095059.702000", "095059.611000", "095059.709000", "095059.617000", "095059.715000", "095059.624000", "095059.339000", "095059.632000", "095059.345000", "095059.640000", "095059.549000", "095059.647000", "095059.556000", "095059.655000", "095059.563000", "095059.662000", "095059.569000", "095059.668000", "095059.576000", "095059.675000", "095059.582000", "095059.681000", "095059.589000", "095059.688000", "095059.595000", "095059.698000", "095059.606000", "095059.705000", "095059.613000", "095059.711000", "095059.619000", "095059.718000", "095059.626000", "095059.341000", "095059.634000", "095059.347000", "095059.642000", "095059.552000", "095059.649000", "095059.558000", "095059.657000", "095059.565000", "095059.664000", "095059.571000", "095059.670000", "095059.578000", "095059.677000", "095059.584000", "095059.683000", "095059.591000", "095059.693000", "095059.597000", "095059.700000", "095059.608000", "095059.707000", "095059.615000", "095059.713000", "095059.621000", "095059.720000", "095059.628000"],
      "CsaImage.ICE_Dims": [
        "X_1_1_1_1_1_1_1_1_1_1_1_23",
        "X_1_1_1_1_1_1_42_1_1_2_1_23",
        "X_1_1_1_1_1_1_2_1_1_3_1_23",
        "X_1_1_1_1_1_1_43_1_1_4_1_23",
        "X_1_1_1_1_1_1_3_1_1_5_1_23",
        "X_1_1_1_1_1_1_44_1_1_6_1_23",
        "X_1_1_1_1_1_1_4_1_1_7_1_23",
        "X_1_1_1_1_1_1_45_1_1_8_1_23",
        "X_1_1_1_1_1_1_5_1_1_9_1_23",
        "X_1_1_1_1_1_1_46_1_1_10_1_23",
        "X_1_1_1_1_1_1_6_1_1_11_1_23",
        "X_1_1_1_1_1_1_47_1_1_12_1_23",
        "X_1_1_1_1_1_1_7_1_1_13_1_23",
        "X_1_1_1_1_1_1_48_1_1_14_1_23",
        "X_1_1_1_1_1_1_8_1_1_15_1_23",
        "X_1_1_1_1_1_1_49_1_1_16_1_23",
        "X_1_1_1_1_1_1_9_1_1_17_1_23",
        "X_1_1_1_1_1_1_50_1_1_18_1_23",
        "X_1_1_1_1_1_1_10_1_1_19_1_23",
        "X_1_1_1_1_1_1_51_1_1_20_1_23",
        "X_1_1_1_1_1_1_11_1_1_21_1_23",
        "X_1_1_1_1_1_1_52_1_1_22_1_23",
        "X_1_1_1_1_1_1_12_1_1_23_1_23",
        "X_1_1_1_1_1_1_53_1_1_24_1_23",
        "X_1_1_1_1_1_1_13_1_1_25_1_23",
        "X_1_1_1_1_1_1_54_1_1_26_1_23",
        "X_1_1_1_1_1_1_14_1_1_27_1_23",
        "X_1_1_1_1_1_1_55_1_1_28_1_23",
        "X_1_1_1_1_1_1_15_1_1_29_1_23",
        "X_1_1_1_1_1_1_56_1_1_30_1_23",
        "X_1_1_1_1_1_1_16_1_1_31_1_23",
        "X_1_1_1_1_1_1_57_1_1_32_1_23",
        "X_1_1_1_1_1_1_17_1_1_33_1_23",
        "X_1_1_1_1_1_1_58_1_1_34_1_23",
        "X_1_1_1_1_1_1_18_1_1_35_1_23",
        "X_1_1_1_1_1_1_59_1_1_36_1_23",
        "X_1_1_1_1_1_1_19_1_1_37_1_23",
        "X_1_1_1_1_1_1_60_1_1_38_1_23",
        "X_1_1_1_1_1_1_20_1_1_39_1_23",
        "X_1_1_1_1_1_1_61_1_1_40_1_23",
        "X_1_1_1_1_1_1_21_1_1_41_1_23",
        "X_1_1_1_1_1_1_62_1_1_42_1_23",
        "X_1_1_1_1_1_1_22_1_1_43_1_23",
        "X_1_1_1_1_1_1_63_1_1_44_1_23",
        "X_1_1_1_1_1_1_23_1_1_45_1_23",
        "X_1_1_1_1_1_1_64_1_1_46_1_23",
        "X_1_1_1_1_1_1_24_1_1_47_1_23",
        "X_1_1_1_1_1_1_65_1_1_48_1_23",
        "X_1_1_1_1_1_1_25_1_1_49_1_23",
        "X_1_1_1_1_1_1_66_1_1_50_1_23",
        "X_1_1_1_1_1_1_26_1_1_51_1_23",
        "X_1_1_1_1_1_1_67_1_1_52_1_23",
        "X_1_1_1_1_1_1_27_1_1_53_1_23",
        "X_1_1_1_1_1_1_68_1_1_54_1_23",
        "X_1_1_1_1_1_1_28_1_1_55_1_23",
        "X_1_1_1_1_1_1_69_1_1_56_1_23",
        "X_1_1_1_1_1_1_29_1_1_57_1_23",
        "X_1_1_1_1_1_1_70_1_1_58_1_23",
        "X_1_1_1_1_1_1_30_1_1_59_1_23",
        "X_1_1_1_1_1_1_71_1_1_60_1_23",
        "X_1_1_1_1_1_1_31_1_1_61_1_23",
        "X_1_1_1_1_1_1_72_1_1_62_1_23",
        "X_1_1_1_1_1_1_32_1_1_63_1_23",
        "X_1_1_1_1_1_1_73_1_1_64_1_23",
        "X_1_1_1_1_1_1_33_1_1_65_1_23",
        "X_1_1_1_1_1_1_74_1_1_66_1_23",
        "X_1_1_1_1_1_1_34_1_1_67_1_23",
        "X_1_1_1_1_1_1_75_1_1_68_1_23",
        "X_1_1_1_1_1_1_35_1_1_69_1_23",
        "X_1_1_1_1_1_1_76_1_1_70_1_23",
        "X_1_1_1_1_1_1_36_1_1_71_1_23",
        "X_1_1_1_1_1_1_77_1_1_72_1_23",
        "X_1_1_1_1_1_1_37_1_1_73_1_23",
        "X_1_1_1_1_1_1_78_1_1_74_1_23",
        "X_1_1_1_1_1_1_38_1_1_75_1_23",
        "X_1_1_1_1_1_1_79_1_1_76_1_23",
        "X_1_1_1_1_1_1_39_1_1_77_1_23",
        "X_1_1_1_1_1_1_80_1_1_78_1_23",
        "X_1_1_1_1_1_1_40_1_1_79_1_23",
        "X_1_1_1_1_1_1_81_1_1_80_1_23",
        "X_1_1_1_1_1_1_41_1_1_81_1_23"
],
      "CsaImage.ProtocolSliceNumber": [0, 1, 2, 3, 4, 5, 6, 7, 8, 9, 10, 11, 12, 13, 14, 15, 16, 17, 18, 19, 20, 21, 22, 23, 24, 25, 26, 27, 28, 29, 30, 31, 32, 33, 34, 35, 36, 37, 38, 39, 40, 41, 42, 43, 44, 45, 46, 47, 48, 49, 50, 51, 52, 53, 54, 55, 56, 57, 58, 59, 60, 61, 62, 63, 64, 65, 66, 67, 68, 69, 70, 71, 72, 73, 74, 75, 76, 77, 78, 79, 80],
      "CsaImage.SlicePosition_PCS": [
        [-127.242904, -142.97668074, -43.33543144],
        [-127.27700644, -142.97103308, -41.63578544],
        [-127.31110912, -142.96538352, -39.93613563],
        [-127.34521204, -142.95973586, -38.23648582],
        [-127.37931448, -142.9540882, -36.53683982],
        [-127.41341739, -142.94844054, -34.83719001],
        [-127.44751983, -142.94279288, -33.1375402],
        [-127.48162275, -142.93714331, -31.4378923],
        [-127.51572519, -142.93149565, -29.73824439],
        [-127.54982811, -142.925848, -28.03859458],
        [-127.58393055, -142.92020034, -26.33894668],
        [-127.61803346, -142.91455268, -24.63929878],
        [-127.6521359, -142.90890502, -22.93964896],
        [-127.68623882, -142.90325545, -21.24000106],
        [-127.72034126, -142.89760779, -19.54035316],
        [-127.7544437, -142.89196013, -17.8407043],
        [-127.78854662, -142.88631247, -16.14105544],
        [-127.82264906, -142.88066481, -14.44140754],
        [-127.85675197, -142.87501525, -12.74175868],
        [-127.89085441, -142.86936759, -11.04210983],
        [-127.92495733, -142.86371993, -9.34246145],
        [-127.95905977, -142.85807227, -7.64281306],
        [-127.99316269, -142.85242461, -5.94316468],
        [-128.02726513, -142.84677504, -4.24351607],
        [-128.06136804, -142.84112738, -2.54386751],
        [-128.09547048, -142.83547972, -0.84421895],
        [-128.1295734, -142.82983206, 0.85542955],
        [-128.16367584, -142.82418441, 2.55507817],
        [-128.19777876, -142.81853675, 4.25472655],
        [-128.2318812, -142.81288718, 5.95437493],
        [-128.26598411, -142.80723952, 7.65402379],
        [-128.30008655, -142.80159186, 9.35367169],
        [-128.33418947, -142.7959442, 11.05332055],
        [-128.36829191, -142.79029654, 12.75296941],
        [-128.40239483, -142.78464698, 14.45261826],
        [-128.43649727, -142.77899932, 16.15226617],
        [-128.47060018, -142.77335166, 17.85191407],
        [-128.50470262, -142.767704, 19.55156388],
        [-128.53880554, -142.76205634, 21.25121178],
        [-128.57290798, -142.75640677, 22.95085969],
        [-128.60701042, -142.75075911, 24.6505095],
        [-128.64111333, -142.74511145, 26.3501574],
        [-128.67521577, -142.73946379, 28.04980531],
        [-128.70931869, -142.73381613, 29.74945512],
        [-128.74342113, -142.72816848, 31.44910302],
        [-128.77752405, -142.72251891, 33.14875283],
        [-128.81162649, -142.71687125, 34.84839883],
        [-128.8457294, -142.71122359, 36.54804864],
        [-128.87983184, -142.70557593, 38.24769845],
        [-128.91393476, -142.69992827, 39.94734444],
        [-128.9480372, -142.6942787, 41.64699425],
        [-128.98214012, -142.68863105, 43.34664407],
        [-129.01624256, -142.68298339, 45.04629006],
        [-129.05034547, -142.67733573, 46.74593987],
        [-129.08444791, -142.67168807, 48.44558968],
        [-129.11855083, -142.6660385, 50.14523568],
        [-129.15265327, -142.66039084, 51.84488549],
        [-129.18675619, -142.65474318, 53.5445353],
        [-129.22085863, -142.64909552, 55.2441813],
        [-129.25496154, -142.64344786, 56.94383111],
        [-129.28906398, -142.6378002, 58.64348092],
        [-129.3231669, -142.63215064, 60.34312691],
        [-129.35726934, -142.62650298, 62.04277291],
        [-129.39137226, -142.62085532, 63.74242654],
        [-129.4254747, -142.61520766, 65.44207253],
        [-129.45957714, -142.60956, 67.14171853],
        [-129.49368005, -142.60391043, 68.84137215],
        [-129.52778249, -142.59826277, 70.54101815],
        [-129.56188541, -142.59261512, 72.24066415],
        [-129.59598785, -142.58696746, 73.94031777],
        [-129.63009077, -142.5813198, 75.63996377],
        [-129.66419321, -142.57567023, 77.33960976],
        [-129.69829612, -142.57002257, 79.03926339],
        [-129.73239856, -142.56437491, 80.73890939],
        [-129.76650148, -142.55872725, 82.43855538],
        [-129.80060392, -142.55307959, 84.13820901],
        [-129.83470684, -142.54743193, 85.837855],
        [-129.86880928, -142.54178237, 87.537501],
        [-129.90291219, -142.53613471, 89.23715462],
        [-129.93701463, -142.53048705, 90.93680062],
        [-129.97111755, -142.52483939, 92.63644662]
],
      "CsaImage.TimeAfterStart": [16.4, 18.515, 16.55, 18.6675, 16.7025, 18.8175, 16.8525, 18.9675, 17.005, 19.12, 17.155, 19.27, 17.3075, 19.4225, 17.4575, 19.5725, 17.6075, 19.725, 17.76, 19.875, 17.91, 20.0275, 18.0625, 20.1775, 18.2125, 20.3275, 18.365, 16.4, 18.515, 16.55, 18.6675, 16.7025, 18.8175, 16.8525, 18.9675, 17.005, 19.12, 17.155, 19.27, 17.3075, 19.4225, 17.4575, 19.5725, 17.6075, 19.725, 17.76, 19.875, 17.91, 20.0275, 18.0625, 20.1775, 18.2125, 20.3275, 18.365, 16.4, 18.515, 16.55, 18.6675, 16.7025, 18.8175, 16.8525, 18.9675, 17.005, 19.12, 17.155, 19.27, 17.3075, 19.4225, 17.4575, 19.5725, 17.6075, 19.725, 17.76, 19.875, 17.91, 20.0275, 18.0625, 20.1775, 18.2125, 20.3275, 18.365],
      "ImagePositionPatient": [
        [-127.24290400143, -142.97668074347, -43.335431435001],
        [-127.27700644131, -142.97103308417, -41.635785438907],
        [-127.31110911961, -142.96538351752, -39.936135628116],
        [-127.34521203633, -142.95973585822, -38.236485817325],
        [-127.37931447621, -142.95408819891, -36.536839821231],
        [-127.41341739292, -142.94844053961, -34.83719001044],
        [-127.4475198328, -142.94279288031, -33.137540199649],
        [-127.48162274952, -142.93714331366, -31.437892296207],
        [-127.5157251894, -142.93149565436, -29.738244392764],
        [-127.54982810612, -142.92584799506, -28.038594581973],
        [-127.583930546, -142.92020033575, -26.338946678531],
        [-127.61803346272, -142.91455267645, -24.639298775089],
        [-127.6521359026, -142.90890501715, -22.939648964298],
        [-127.68623881932, -142.9032554505, -21.240001060855],
        [-127.7203412592, -142.8976077912, -19.540353157413],
        [-127.75444369908, -142.8919601319, -17.840704300296],
        [-127.78854661579, -142.8863124726, -16.14105544318],
        [-127.82264905567, -142.88066481329, -14.441407539737],
        [-127.85675197239, -142.87501524664, -12.74175868262],
        [-127.89085441227, -142.86936758734, -11.042109825504],
        [-127.92495732899, -142.86371992804, -9.3424614452242],
        [-127.95905976887, -142.85807226874, -7.6428130649447],
        [-127.99316268559, -142.85242460944, -5.9431646846651],
        [-128.02726512547, -142.84677504279, -4.243516065967],
        [-128.06136804218, -142.84112738348, -2.5438675068735],
        [-128.09547048207, -142.83547972418, -0.8442189477801],
        [-128.12957339878, -142.82983206488, 0.85542955170877],
        [-128.16367583866, -142.82418440558, 2.5550781704069],
        [-128.19777875538, -142.81853674628, 4.2547265506864],
        [-128.23188119526, -142.81288717963, 5.954374930966],
        [-128.26598411198, -142.80723952032, 7.6540237880827],
        [-128.30008655186, -142.80159186102, 9.3536716915251],
        [-128.33418946858, -142.79594420172, 11.053320548642],
        [-128.36829190846, -142.79029654242, 12.752969405758],
        [-128.40239482517, -142.78464697577, 14.452618262875],
        [-128.43649726505, -142.77899931647, 16.152266166318],
        [-128.47060018177, -142.77335165717, 17.85191406976],
        [-128.50470262165, -142.76770399786, 19.551563880551],
        [-128.53880553837, -142.76205633856, 21.251211783993],
        [-128.57290797825, -142.75640677191, 22.950859687436],
        [-128.60701041813, -142.75075911261, 24.650509498227],
        [-128.64111333485, -142.74511145331, 26.350157401669],
        [-128.67521577473, -142.73946379401, 28.049805305111],
        [-128.70931869145, -142.7338161347, 29.749455115902],
        [-128.74342113133, -142.7281684754, 31.449103019345],
        [-128.77752404804, -142.72251890875, 33.148752830136],
        [-128.81162648792, -142.71687124945, 34.84839882623],
        [-128.84572940464, -142.71122359015, 36.548048637021],
        [-128.87983184452, -142.70557593085, 38.247698447812],
        [-128.91393476124, -142.69992827155, 39.947344443905],
        [-128.94803720112, -142.69427870489, 41.646994254696],
        [-128.98214011784, -142.68863104559, 43.346644065487],
        [-129.01624255772, -142.68298338629, 45.046290061581],
        [-129.05034547444, -142.67733572699, 46.745939872372],
        [-129.08444791432, -142.67168806769, 48.445589683163],
        [-129.11855083103, -142.66603850104, 50.145235679257],
        [-129.15265327091, -142.66039084174, 51.844885490048],
        [-129.18675618763, -142.65474318243, 53.544535300839],
        [-129.22085862751, -142.64909552313, 55.244181296933],
        [-129.25496154423, -142.64344786383, 56.943831107724],
        [-129.28906398411, -142.63780020453, 58.643480918515],
        [-129.32316690083, -142.63215063788, 60.343126914609],
        [-129.35726934071, -142.62650297858, 62.042772910702],
        [-129.39137225743, -142.62085531927, 63.742426536191],
        [-129.42547469731, -142.61520765997, 65.442072532284],
        [-129.45957713719, -142.60956000067, 67.141718528378],
        [-129.4936800539, -142.60391043402, 68.841372153866],
        [-129.52778249378, -142.59826277472, 70.54101814996],
        [-129.5618854105, -142.59261511542, 72.240664146054],
        [-129.59598785038, -142.58696745612, 73.940317771542],
        [-129.6300907671, -142.58131979681, 75.639963767636],
        [-129.66419320698, -142.57567023016, 77.33960976373],
        [-129.6982961237, -142.57002257086, 79.039263389218],
        [-129.73239856358, -142.56437491156, 80.738909385312],
        [-129.7665014803, -142.55872725226, 82.438555381405],
        [-129.80060392018, -142.55307959296, 84.138209006894],
        [-129.83470683689, -142.54743193365, 85.837855002987],
        [-129.86880927677, -142.541782367, 87.537500999081],
        [-129.90291219349, -142.5361347077, 89.237154624569],
        [-129.93701463337, -142.5304870484, 90.936800620663],
        [-129.97111755009, -142.5248393891, 92.636446616757]
],
      "InstanceCreationTime": ["095059.336000", "095059.630000", "095059.343000", "095059.637000", "095059.547000", "095059.644000", "095059.554000", "095059.651000", "095059.561000", "095059.659000", "095059.567000", "095059.666000", "095059.574000", "095059.673000", "095059.580000", "095059.679000", "095059.587000", "095059.686000", "095059.593000", "095059.696000", "095059.600000", "095059.702000", "095059.611000", "095059.709000", "095059.617000", "095059.715000", "095059.624000", "095059.339000", "095059.632000", "095059.345000", "095059.640000", "095059.549000", "095059.647000", "095059.556000", "095059.655000", "095059.563000", "095059.662000", "095059.569000", "095059.668000", "095059.576000", "095059.675000", "095059.582000", "095059.681000", "095059.589000", "095059.688000", "095059.595000", "095059.698000", "095059.606000", "095059.705000", "095059.613000", "095059.711000", "095059.619000", "095059.718000", "095059.626000", "095059.341000", "095059.634000", "095059.347000", "095059.642000", "095059.552000", "095059.649000", "095059.558000", "095059.657000", "095059.565000", "095059.664000", "095059.571000", "095059.670000", "095059.578000", "095059.677000", "095059.584000", "095059.683000", "095059.591000", "095059.693000", "095059.597000", "095059.700000", "095059.608000", "095059.707000", "095059.615000", "095059.713000", "095059.621000", "095059.720000", "095059.628000"],
      "InstanceNumber": [1, 2, 3, 4, 5, 6, 7, 8, 9, 10, 11, 12, 13, 14, 15, 16, 17, 18, 19, 20, 21, 22, 23, 24, 25, 26, 27, 28, 29, 30, 31, 32, 33, 34, 35, 36, 37, 38, 39, 40, 41, 42, 43, 44, 45, 46, 47, 48, 49, 50, 51, 52, 53, 54, 55, 56, 57, 58, 59, 60, 61, 62, 63, 64, 65, 66, 67, 68, 69, 70, 71, 72, 73, 74, 75, 76, 77, 78, 79, 80, 81],
      "LargestImagePixelValue": [18975, 17533, 32808, 33676, 32380, 32227, 28992, 33917, 44682, 46566, 47703, 57114, 47727, 32111, 50246, 65535, 65535, 65535, 65535, 65535, 55388, 49201, 45400, 53216, 49182, 46835, 53954, 38626, 32038, 33866, 29392, 35789, 37100, 38697, 31558, 29481, 32055, 36678, 30773, 28932, 33590, 32900, 30504, 28043, 31795, 32844, 34166, 37532, 32286, 34191, 35151, 42796, 41465, 42332, 35835, 38796, 35312, 34596, 36169, 39172, 39138, 41352, 43745, 40446, 41515, 42217, 41889, 35497, 47979, 52626, 42990, 29476, 32162, 31642, 44813, 36105, 33651, 32370, 30304, 15192, 13265],
      "SliceLocation": [-41.248949514473, -39.548952048446, -37.848950757391, -36.148949467889, -34.448952001862, -32.748950712361, -31.048949432425, -29.348950043541, -27.64895067056, -25.948949381059, -24.248950008077, -22.54895062553, -20.848949345594, -19.148949956711, -17.448950583729, -15.74895025727, -14.048949921246, -12.348950548265, -10.648950205904, -8.9489498794453, -7.2489500201597, -5.5489501704397, -3.8489503111542, -2.148950216728, -0.4489501786654, 1.2510498498315, 2.9510498283017, 4.651049916391, 6.3510497756766, 8.0510496317335, 9.7510499677576, 11.451049340739, 13.151049676763, 14.851050003222, 16.551050345583, 18.251049718564, 19.951049101111, 21.651050381047, 23.351049763594, 25.051049142912, 26.751050422848, 28.451049805395, 30.151049178376, 31.851050467878, 33.551049840859, 35.251051136697, 36.951048602725, 38.651049892226, 40.351051172162, 42.051048647754, 43.751049934027, 45.451051223528, 47.151048689555, 48.851049979057, 50.551051258992, 52.251048740922, 53.951050020858, 55.651051310359, 57.351048776386, 59.051050065887, 60.751051345823, 62.451048827753, 64.15104629378, 65.85105139719, 67.551048863217, 69.251046329244, 70.951051438991, 72.651048905018, 74.351046380611, 76.051051474455, 77.751048950048, 79.451046422412, 81.151051525821, 82.851048991849, 84.551046467441, 86.251051561286, 87.951049036878, 89.651046509242, 91.351051612652, 93.051049078679, 94.751046554272],
      "WindowCenter": [3473.0, 3239.0, 4444.0, 4786.0, 5100.0, 5522.0, 5705.0, 6465.0, 7021.0, 7325.0, 7801.0, 8002.0, 8040.0, 7252.0, 7806.0, 8228.0, 8507.0, 8432.0, 8588.0, 8664.0, 8628.0, 8387.0, 8141.0, 8444.0, 8474.0, 8482.0, 8651.0, 8130.0, 8027.0, 8141.0, 7980.0, 8085.0, 8211.0, 8250.0, 8196.0, 8231.0, 8302.0, 8415.0, 8388.0, 8444.0, 8539.0, 8569.0, 8545.0, 8504.0, 8729.0, 8849.0, 8871.0, 9048.0, 8949.0, 8933.0, 8860.0, 8938.0, 8932.0, 8965.0, 8575.0, 8550.0, 8692.0, 8704.0, 8877.0, 8927.0, 9016.0, 9073.0, 9126.0, 8922.0, 8863.0, 8886.0, 8798.0, 8654.0, 8827.0, 8763.0, 8588.0, 8312.0, 8368.0, 8314.0, 8852.0, 8532.0, 6607.0, 4634.0, 4096.0, 3093.0, 2911.0],
      "WindowWidth": [8972.0, 8374.0, 10864.0, 11298.0, 11899.0, 12221.0, 12288.0, 13857.0, 14953.0, 15660.0, 16456.0, 16927.0, 17071.0, 15745.0, 17292.0, 18730.0, 20271.0, 20580.0, 20688.0, 19900.0, 19213.0, 18646.0, 18273.0, 19064.0, 19254.0, 19235.0, 19144.0, 17812.0, 17501.0, 17547.0, 17261.0, 17494.0, 17789.0, 17894.0, 17676.0, 17592.0, 17751.0, 17915.0, 17857.0, 18032.0, 18211.0, 18263.0, 18275.0, 18208.0, 18617.0, 18836.0, 18976.0, 19357.0, 19129.0, 19227.0, 19091.0, 19366.0, 19363.0, 19471.0, 18559.0, 18483.0, 18768.0, 18789.0, 19373.0, 19383.0, 19539.0, 19682.0, 19889.0, 19408.0, 19357.0, 19491.0, 19149.0, 18778.0, 19212.0, 19120.0, 18588.0, 17883.0, 17948.0, 17684.0, 18781.0, 17952.0, 14610.0, 11233.0, 9575.0, 7463.0, 7208.0]
    }
  }
}