{
  "AcquisitionMatrixPE": 140,
  "AcquisitionNumber": 1,
  "AcquisitionTime": "19:49:32.070000",
  "BandwidthPerPixelPhaseEncode": 10.352,
  "BaseResolution": 140,
  "BodyPartExamined": "BRAIN",
  "ConsistencyInfo": "N4_VE11E_LATEST_20181129",
  "ConversionSoftware": "dcm2niix",
  "ConversionSoftwareVersion": "v1.0.20201102",
  "DerivedVendorReportedEchoSpacing": 0.000689998,
  "DeviceSerialNumber": "66112",
  "DiffusionScheme": "Monopolar",
  "DwellTime": 2.1e-06,
  "EchoTime": 0.0884,
  "EchoTrainLength": 105,
  "EffectiveEchoSpacing": 0.000689998,
  "FlipAngle": 90,
  "ImageComments": "Unaliased MB3/PE3 SENSE1",
  "ImageOrientationPatientDICOM": [0.999264, -0.030853, 0.022776, 0.0286102, 0.995258, 0.0929712],
  "ImageType": [
    "ORIGINAL",
    "PRIMARY",
    "DIFFUSION",
    "NONE",
    "MB",
    "ND",
    "MOSAIC"
],
  "ImagingFrequency": 123.259,
  "InPlanePhaseEncodingDirectionDICOM": "COL",
  "InstitutionAddress": "Maynard 3,Hanover,NH,US,03755",
  "InstitutionName": "Dartmouth College - PBS",
  "InstitutionalDepartmentName": "Department",
  "MRAcquisitionType": "2D",
  "MagneticFieldStrength": 3,
  "Manufacturer": "Siemens",
  "ManufacturersModelName": "Prisma",
  "Modality": "MR",
  "MultibandAccelerationFactor": 3,
  "PartialFourier": 0.75,
  "PatientPosition": "HFS",
  "PercentPhaseFOV": 100,
  "PercentSampling": 100,
  "PhaseEncodingDirection": "j-",
  "PhaseEncodingSteps": 105,
  "PhaseResolution": 1,
  "PixelBandwidth": 1700,
  "ProcedureStepDescription": "Wager_Wager^1076_spacetop",
  "ProtocolName": "dwi_acq-96dir-6b0-mb",
  "PulseSequenceDetails": "%CustomerSeq%\\cmrr_mbep2d_diff",
  "ReceiveCoilActiveElements": "HEA;HEP",
  "ReceiveCoilName": "Head_32",
  "ReconMatrixPE": 140,
  "RepetitionTime": 4.11,
  "SAR": 0.261063,
  "ScanOptions": "PFP\\FS",
  "ScanningSequence": "EP",
  "SequenceName": "ep_b5#1",
  "SequenceVariant": "SK\\SS",
  "SeriesDescription": "dwi_acq-96dir-6b0-mb",
  "SeriesNumber": 8,
  "ShimSetting": [4217, -7719, -7259, 373, -151, 116, -14, 68],
  "SliceThickness": 1.7,
  "SliceTiming": [0, 2.12, 0.15, 2.2725, 0.3025, 2.4225, 0.4525, 2.575, 0.605, 2.725, 0.7575, 2.8775, 0.9075, 3.0275, 1.06, 3.18, 1.21, 3.3325, 1.3625, 3.4825, 1.515, 3.635, 1.665, 3.785, 1.8175, 3.9375, 1.9675, 0, 2.12, 0.15, 2.2725, 0.3025, 2.4225, 0.4525, 2.575, 0.605, 2.725, 0.7575, 2.8775, 0.9075, 3.0275, 1.06, 3.18, 1.21, 3.3325, 1.3625, 3.4825, 1.515, 3.635, 1.665, 3.785, 1.8175, 3.9375, 1.9675, 0, 2.12, 0.15, 2.2725, 0.3025, 2.4225, 0.4525, 2.575, 0.605, 2.725, 0.7575, 2.8775, 0.9075, 3.0275, 1.06, 3.18, 1.21, 3.3325, 1.3625, 3.4825, 1.515, 3.635, 1.665, 3.785, 1.8175, 3.9375, 1.9675],
  "SoftwareVersions": "syngo MR E11",
  "SpacingBetweenSlices": 1.7,
  "StationName": "AWP66112",
  "TotalReadoutTime": 0.0959097,
  "TxRefAmp": 263.911,
  "WipMemBlock": "85bedc9e-75b2-4303-96e4-e284ba1a2d7f||Sequence: R016 ve11e/master r/434b28f1; Aug  7 2019 19:06:17 by eja",
  "dcmmeta_affine": [
    [-1.7130247354507446, 0.049046050757169724, 0.043411847203969955, 117.88331604003906],
    [0.05289080739021301, 1.7061560153961182, 0.1568269580602646, -110.88174438476562],
    [0.039044491946697235, -0.15937913954257965, 1.6921941041946411, -44.16637420654297],
    [0.0, 0.0, 0.0, 1.0]
],
  "dcmmeta_reorient_transform": [
    [0.0, -1.0, 0.0, 139.0],
    [1.0, 0.0, 0.0, 0.0],
    [0.0, 0.0, 1.0, 0.0],
    [0.0, 0.0, 0.0, 1.0]
],
  "dcmmeta_shape": [140, 140, 81, 103],
  "dcmmeta_slice_dim": 2,
  "dcmmeta_version": 0.6,
  "global": {
    "const": {
      "AccessionNumber": "A004539",
      "AcquisitionMatrix": [140, 0, 0, 140],
      "AngioFlag": "N",
      "BitsAllocated": 16,
      "BitsStored": 16,
      "BodyPartExamined": "BRAIN",
      "Columns": 1260,
      "EchoNumbers": 1,
      "EchoTime": 88.4,
      "EchoTrainLength": 105,
      "FlipAngle": 90.0,
      "HighBit": 15,
      "ImageOrientationPatient": [0.99926440447919, -0.0308529715431, 0.02277595415814, 0.02861019500293, 0.99525766494023, 0.09297116283894],
      "ImagePositionPatient": [-1111.4603416655, -1052.1024531324, -177.43730752056],
      "ImageType": [
        "ORIGINAL",
        "PRIMARY",
        "DIFFUSION",
        "NONE",
        "MB",
        "ND",
        "MOSAIC"
],
      "ImagedNucleus": "1H",
      "ImagingFrequency": 123.259073,
      "InPlanePhaseEncodingDirection": "COL",
      "MRAcquisitionType": "2D",
      "MagneticFieldStrength": 3.0,
      "Manufacturer": "SIEMENS",
      "ManufacturerModelName": "Prisma",
      "Modality": "MR",
      "NumberOfAverages": 1.0,
      "NumberOfPhaseEncodingSteps": 105,
      "PercentPhaseFieldOfView": 100.0,
      "PercentSampling": 100.0,
      "PerformedProcedureStepStartTime": "192545.640000",
      "PhotometricInterpretation": "MONOCHROME2",
      "PixelBandwidth": 1700.0,
      "PixelRepresentation": 0,
      "PixelSpacing": [1.7142857313156, 1.7142857313156],
      "ProtocolName": "dwi_acq-96dir-6b0-mb",
      "RepetitionTime": 4110.0,
      "Rows": 1260,
      "SAR": 0.26106326828821,
      "SamplesPerPixel": 1,
      "ScanOptions": [
        "PFP",
        "FS"
],
      "ScanningSequence": "EP",
      "SequenceVariant": [
        "SK",
        "SS"
],
      "SeriesDescription": "dwi_acq-96dir-6b0-mb",
      "SeriesNumber": 8,
      "SeriesTime": "195102.785000",
      "SliceLocation": -51.182229307116,
      "SliceThickness": 1.7000000476837,
      "SmallestImagePixelValue": 0,
      "SoftwareVersions": "syngo MR E11",
      "SpacingBetweenSlices": 1.7000000253216,
      "SpecificCharacterSet": "ISO_IR 100",
      "StudyID": "1",
      "StudyTime": "192545.585000",
      "TransmitCoilName": "Body",
      "VariableFlipAngleFlag": "N",
      "WindowCenterWidthExplanation": "Algo1"
    },
    "slices": {}
  },
  "time": {
    "samples": {
      "AcquisitionNumber": [1, 2, 3, 4, 5, 6, 7, 8, 9, 10, 11, 12, 13, 14, 15, 16, 17, 18, 19, 20, 21, 22, 23, 24, 25, 26, 27, 28, 29, 30, 31, 32, 33, 34, 35, 36, 37, 38, 39, 40, 41, 42, 43, 44, 45, 46, 47, 48, 49, 50, 51, 52, 53, 54, 55, 56, 57, 58, 59, 60, 61, 62, 63, 64, 65, 66, 67, 68, 69, 70, 71, 72, 73, 74, 75, 76, 77, 78, 79, 80, 81, 82, 83, 84, 85, 86, 87, 88, 89, 90, 91, 92, 93, 94, 95, 96, 97, 98, 99, 100, 101, 102, 103],
      "AcquisitionTime": ["194932.070000", "194936.180000", "194940.290000", "194944.400000", "194948.510000", "194952.620000", "194956.730000", "195000.840000", "195004.950000", "195009.060000", "195013.170000", "195017.280000", "195021.390000", "195025.500000", "195029.610000", "195033.720000", "195037.830000", "195041.940000", "195046.050000", "195050.160000", "195054.270000", "195058.380000", "195102.490000", "195106.600000", "195110.710000", "195114.820000", "195118.930000", "195123.040000", "195127.150000", "195131.260000", "195135.370000", "195139.480000", "195143.590000", "195147.700000", "195151.810000", "195155.920000", "195200.030000", "195204.140000", "195208.250000", "195212.360000", "195216.470000", "195220.580000", "195224.690000", "195228.800000", "195232.910000", "195237.020000", "195241.130000", "195245.240000", "195249.350000", "195253.460000", "195257.570000", "195301.680000", "195305.790000", "195309.900000", "195314.010000", "195318.120000", "195322.230000", "195326.340000", "195330.450000", "195334.560000", "195338.670000", "195342.780000", "195346.890000", "195351.000000", "195355.110000", "195359.220000", "195403.330000", "195407.440000", "195411.550000", "195415.660000", "195419.770000", "195423.880000", "195427.990000", "195432.100000", "195436.210000", "195440.320000", "195444.430000", "195448.540000", "195452.650000", "195456.760000", "195500.870000", "195504.980000", "195509.090000", "195513.200000", "195517.310000", "195521.420000", "195525.530000", "195529.640000", "195533.750000", "195537.860000", "195541.970000", "195546.080000", "195550.190000", "195554.300000", "195558.410000", "195602.520000", "195606.630000", "195610.740000", "195614.850000", "195618.960000", "195623.070000", "195627.180000", "195631.290000"],
      "ContentTime": ["195102.789000", "195102.801000", "195102.804000", "195102.807000", "195102.810000", "195102.813000", "195102.816000", "195102.819000", "195102.822000", "195102.825000", "195102.828000", "195102.831000", "195102.834000", "195102.837000", "195102.840000", "195102.843000", "195102.846000", "195102.849000", "195102.852000", "195102.855000", "195102.858000", "195222.784000", "195222.787000", "195222.790000", "195222.793000", "195222.796000", "195222.799000", "195222.802000", "195222.805000", "195222.808000", "195222.811000", "195222.814000", "195222.817000", "195222.820000", "195222.823000", "195222.826000", "195222.829000", "195222.832000", "195222.835000", "195222.838000", "195222.841000", "195402.785000", "195402.788000", "195402.791000", "195402.794000", "195402.797000", "195402.801000", "195402.804000", "195402.807000", "195402.810000", "195402.812000", "195402.815000", "195402.818000", "195402.821000", "195402.824000", "195402.827000", "195402.841000", "195402.844000", "195402.847000", "195402.849000", "195402.852000", "195402.855000", "195402.858000", "195402.862000", "195402.865000", "195522.784000", "195522.787000", "195522.790000", "195522.793000", "195522.796000", "195522.799000", "195522.802000", "195522.805000", "195522.808000", "195522.811000", "195522.814000", "195522.817000", "195522.820000", "195522.823000", "195522.826000", "195522.829000", "195522.832000", "195522.835000", "195522.838000", "195522.842000", "195636.164000", "195636.167000", "195636.170000", "195636.173000", "195636.176000", "195636.179000", "195636.182000", "195636.185000", "195636.188000", "195636.191000", "195636.194000", "195636.197000", "195636.200000", "195636.203000", "195636.206000", "195636.209000", "195636.212000", "195636.216000"],
      "InstanceCreationTime": ["195102.789000", "195102.801000", "195102.804000", "195102.807000", "195102.810000", "195102.813000", "195102.816000", "195102.819000", "195102.822000", "195102.825000", "195102.828000", "195102.831000", "195102.834000", "195102.837000", "195102.840000", "195102.843000", "195102.846000", "195102.849000", "195102.852000", "195102.855000", "195102.858000", "195222.784000", "195222.787000", "195222.790000", "195222.793000", "195222.796000", "195222.799000", "195222.802000", "195222.805000", "195222.808000", "195222.811000", "195222.814000", "195222.817000", "195222.820000", "195222.823000", "195222.826000", "195222.829000", "195222.832000", "195222.835000", "195222.838000", "195222.841000", "195402.785000", "195402.788000", "195402.791000", "195402.794000", "195402.797000", "195402.801000", "195402.804000", "195402.807000", "195402.810000", "195402.812000", "195402.815000", "195402.818000", "195402.821000", "195402.824000", "195402.827000", "195402.841000", "195402.844000", "195402.847000", "195402.849000", "195402.852000", "195402.855000", "195402.858000", "195402.862000", "195402.865000", "195522.784000", "195522.787000", "195522.790000", "195522.793000", "195522.796000", "195522.799000", "195522.802000", "195522.805000", "195522.808000", "195522.811000", "195522.814000", "195522.817000", "195522.820000", "195522.823000", "195522.826000", "195522.829000", "195522.832000", "195522.835000", "195522.838000", "195522.842000", "195636.164000", "195636.167000", "195636.170000", "195636.173000", "195636.176000", "195636.179000", "195636.182000", "195636.185000", "195636.188000", "195636.191000", "195636.194000", "195636.197000", "195636.200000", "195636.203000", "195636.206000", "195636.209000", "195636.212000", "195636.216000"],
      "InstanceNumber": [1, 2, 3, 4, 5, 6, 7, 8, 9, 10, 11, 12, 13, 14, 15, 16, 17, 18, 19, 20, 21, 22, 23, 24, 25, 26, 27, 28, 29, 30, 31, 32, 33, 34, 35, 36, 37, 38, 39, 40, 41, 42, 43, 44, 45, 46, 47, 48, 49, 50, 51, 52, 53, 54, 55, 56, 57, 58, 59, 60, 61, 62, 63, 64, 65, 66, 67, 68, 69, 70, 71, 72, 73, 74, 75, 76, 77, 78, 79, 80, 81, 82, 83, 84, 85, 86, 87, 88, 89, 90, 91, 92, 93, 94, 95, 96, 97, 98, 99, 100, 101, 102, 103],
      "LargestImagePixelValue": [65535, 65535, 50049, 49100, 50818, 52480, 48577, 49728, 65535, 34387, 33509, 34470, 34421, 33157, 36744, 34683, 33882, 34015, 34815, 35111, 31967, 34170, 34662, 32868, 65535, 19225, 18319, 18540, 18277, 19989, 16648, 16634, 17479, 18518, 16909, 19734, 18309, 16959, 17246, 16602, 65535, 11719, 11122, 13649, 10502, 10142, 9902, 11975, 11042, 12644, 11827, 11470, 10640, 13601, 10697, 11232, 12638, 9283, 10616, 11224, 10612, 12191, 9874, 10716, 9348, 10566, 10366, 9867, 12045, 11085, 14510, 9070, 11393, 65535, 12484, 9877, 10778, 10176, 10314, 9863, 10514, 10822, 9959, 12785, 11142, 12032, 10937, 11866, 12863, 12796, 13488, 10315, 11289, 10945, 12075, 13793, 10513, 9841, 13750, 9758, 12639, 10518, 65535],
      "SequenceName": [
 "ep_b5#1",
 "ep_b5#1",
 "ep_b500#2",
 "ep_b495#3",
 "ep_b500#4",
 "ep_b505#5",
 "ep_b495#6",
 "ep_b500#7",
 "ep_b5#8",
 "ep_b1000#9",
 "ep_b1005#10",
 "ep_b995#11",
 "ep_b1005#12",
 "ep_b995#13",
 "ep_b995#14",
 "ep_b1005#15",
 "ep_b1000#16",
 "ep_b1005#17",
 "ep_b995#18",
 "ep_b1000#19",
 "ep_b995#20",
 "ep_b1000#21",
 "ep_b1005#22",
 "ep_b1005#23",
 "ep_b5#24",
 "ep_b2000#25",
 "ep_b1995#26",
 "ep_b1990#27",
 "ep_b1995#28",
 "ep_b2005#29",
 "ep_b2010#30",
 "ep_b2000#31",
 "ep_b2005#32",
 "ep_b1995#33",
 "ep_b1995#34",
 "ep_b1995#35",
 "ep_b2005#36",
 "ep_b2000#37",
 "ep_b2010#38",
 "ep_b1995#39",
 "ep_b5#40",
 "ep_b3000#41",
 "ep_b3005#42",
 "ep_b3010#43",
 "ep_b3010#44",
 "ep_b3000#45",
 "ep_b3000#46",
 "ep_b2990#47",
 "ep_b3005#48",
 "ep_b3000#49",
 "ep_b2990#50",
 "ep_b2990#51",
 "ep_b2995#52",
 "ep_b2995#53",
 "ep_b3010#54",
 "ep_b3000#55",
 "ep_b2995#56",
 "ep_b3000#57",
 "ep_b2990#58",
 "ep_b2990#59",
 "ep_b3000#60",
 "ep_b2990#61",
 "ep_b2990#62",
 "ep_b2995#63",
 "ep_b3005#64",
 "ep_b3010#65",
 "ep_b3000#66",
 "ep_b3005#67",
 "ep_b3010#68",
 "ep_b3005#69",
 "ep_b3005#70",
 "ep_b3005#71",
 "ep_b2990#72",
 "ep_b5#73",
 "ep_b3010#74",
 "ep_b3000#75",
 "ep_b3005#76",
 "ep_b3000#77",
 "ep_b2995#78",
 "ep_b3005#79",
 "ep_b2995#80",
 "ep_b3010#81",
 "ep_b3010#82",
 "ep_b3005#83",
 "ep_b3000#84",
 "ep_b3000#85",
 "ep_b3010#86",
 "ep_b3010#87",
 "ep_b2990#88",
 "ep_b3010#89",
 "ep_b2995#90",
 "ep_b2995#91",
 "ep_b2990#92",
 "ep_b2995#93",
 "ep_b3005#94",
 "ep_b3005#95",
 "ep_b2995#96",
 "ep_b3000#97",
 "ep_b2990#98",
 "ep_b3000#99",
 "ep_b2995#100",
 "ep_b2995#101",
 "ep_b5#102"
],
      "WindowCenter": [12086.0, 12110.0, 8391.0, 8333.0, 8333.0, 8346.0, 8377.0, 8369.0, 12092.0, 6336.0, 6258.0, 6257.0, 6231.0, 6237.0, 6310.0, 6244.0, 6253.0, 6214.0, 6323.0, 6255.0, 6268.0, 6235.0, 6305.0, 6240.0, 12115.0, 4055.0, 3951.0, 3909.0, 3959.0, 3995.0, 3918.0, 3953.0, 3911.0, 3996.0, 3968.0, 4029.0, 3935.0, 3860.0, 3930.0, 3864.0, 12089.0, 2837.0, 2686.0, 2859.0, 2729.0, 2728.0, 2680.0, 2780.0, 2667.0, 2810.0, 2716.0, 2737.0, 2756.0, 2879.0, 2753.0, 2746.0, 2845.0, 2599.0, 2738.0, 2755.0, 2659.0, 2791.0, 2723.0, 2724.0, 2647.0, 2729.0, 2695.0, 2671.0, 2763.0, 2769.0, 2872.0, 2639.0, 2754.0, 12021.0, 2769.0, 2648.0, 2676.0, 2701.0, 2638.0, 2657.0, 2702.0, 2712.0, 2708.0, 2779.0, 2797.0, 2811.0, 2662.0, 2717.0, 2802.0, 2766.0, 2849.0, 2630.0, 2694.0, 2762.0, 2764.0, 2860.0, 2738.0, 2641.0, 2812.0, 2629.0, 2800.0, 2736.0, 12053.0],
      "WindowWidth": [27602.0, 27691.0, 17931.0, 17818.0, 17793.0, 17844.0, 17914.0, 17895.0, 27621.0, 13639.0, 13497.0, 13491.0, 13458.0, 13471.0, 13579.0, 13456.0, 13490.0, 13436.0, 13611.0, 13462.0, 13521.0, 13437.0, 13588.0, 13434.0, 27704.0, 9139.0, 8944.0, 8860.0, 8941.0, 9016.0, 8893.0, 8959.0, 8887.0, 9034.0, 8992.0, 9085.0, 8922.0, 8753.0, 8888.0, 8773.0, 27634.0, 6798.0, 6441.0, 6791.0, 6544.0, 6598.0, 6450.0, 6645.0, 6396.0, 6721.0, 6492.0, 6545.0, 6644.0, 6847.0, 6626.0, 6601.0, 6797.0, 6284.0, 6586.0, 6591.0, 6387.0, 6652.0, 6560.0, 6548.0, 6396.0, 6559.0, 6510.0, 6446.0, 6614.0, 6672.0, 6830.0, 6402.0, 6592.0, 27418.0, 6591.0, 6375.0, 6432.0, 6505.0, 6356.0, 6417.0, 6505.0, 6512.0, 6531.0, 6646.0, 6731.0, 6723.0, 6403.0, 6505.0, 6674.0, 6585.0, 6789.0, 6322.0, 6465.0, 6648.0, 6618.0, 6800.0, 6571.0, 6374.0, 6685.0, 6354.0, 6704.0, 6595.0, 27488.0]
    },
    "slices": {}
  }
}