{
  "AcquisitionMatrixPE": 82,
  "AcquisitionNumber": 1,
  "AcquisitionTime": "21:04:1.562500",
  "BandwidthPerPixelPhaseEncode": 24.888,
  "BaseResolution": 82,
  "BodyPartExamined": "BRAIN",
  "ConsistencyInfo": "N4_VE11E_LATEST_20181129",
  "ConversionSoftware": "dcm2niix",
  "ConversionSoftwareVersion": "v1.0.20201102",
  "DerivedVendorReportedEchoSpacing": 0.00049,
  "DeviceSerialNumber": "66112",
  "DwellTime": 2e-06,
  "EchoTime": 0.0272,
  "EchoTrainLength": 82,
  "EffectiveEchoSpacing": 0.00049,
  "FlipAngle": 44,
  "ImageComments": "Unaliased MB8/PE3",
  "ImageOrientationPatientDICOM": [0.999617, -0.0207263, -0.0183467, 0.0204154, 0.999647, -0.0169742],
  "ImageType": [
    "ORIGINAL",
    "PRIMARY",
    "M",
    "MB",
    "ND",
    "NORM",
    "MOSAIC"
],
  "ImagingFrequency": 123.252,
  "InPlanePhaseEncodingDirectionDICOM": "COL",
  "InstitutionAddress": "Maynard 3,Hanover,NH,US,03755",
  "InstitutionName": "Dartmouth College - PBS",
  "InstitutionalDepartmentName": "Department",
  "MRAcquisitionType": "2D",
  "MagneticFieldStrength": 3,
  "Manufacturer": "Siemens",
  "ManufacturersModelName": "Prisma",
  "Modality": "MR",
  "MultibandAccelerationFactor": 8,
  "PartialFourier": 1,
  "PatientPosition": "HFS",
  "PercentPhaseFOV": 100,
  "PercentSampling": 100,
  "PhaseEncodingDirection": "j-",
  "PhaseEncodingSteps": 82,
  "PhaseResolution": 1,
  "PixelBandwidth": 3050,
  "ProcedureStepDescription": "Wager_Wager^1076_spacetop",
  "ProtocolName": "func_run-01_task-social_acq-ap-mb8",
  "PulseSequenceDetails": "%CustomerSeq%\\cmrr_mbep2d_bold",
  "ReceiveCoilActiveElements": "HEA;HEP",
  "ReceiveCoilName": "Head_32",
  "ReconMatrixPE": 82,
  "RepetitionTime": 0.46,
  "SAR": 0.0915305,
  "ScanOptions": "FS",
  "ScanningSequence": "EP",
  "SequenceName": "epfid2d1_82",
  "SequenceVariant": "SK\\SS",
  "SeriesDescription": "func_run-01_task-social_acq-ap-mb8",
  "SeriesNumber": 12,
  "ShimSetting": [4147, -7713, -7248, 767, -42, -127, -86, 36],
  "SliceThickness": 2.7,
  "SliceTiming": [0, 0.25, 0.0625, 0.3125, 0.125, 0.3775, 0.1875, 0, 0.25, 0.0625, 0.3125, 0.125, 0.3775, 0.1875, 0, 0.25, 0.0625, 0.3125, 0.125, 0.3775, 0.1875, 0, 0.25, 0.0625, 0.3125, 0.125, 0.3775, 0.1875, 0, 0.25, 0.0625, 0.3125, 0.125, 0.3775, 0.1875, 0, 0.25, 0.0625, 0.3125, 0.125, 0.3775, 0.1875, 0, 0.25, 0.0625, 0.3125, 0.125, 0.3775, 0.1875, 0, 0.25, 0.0625, 0.3125, 0.125, 0.3775, 0.1875],
  "SoftwareVersions": "syngo MR E11",
  "SpacingBetweenSlices": 2.7,
  "StationName": "AWP66112",
  "TaskName": "social",
  "TotalReadoutTime": 0.03969,
  "TxRefAmp": 239.426,
  "WipMemBlock": "15915d35-a925-403f-a32b-1eb98bb9d360||Sequence: R016 ve11e/master r/434b28f1; Aug  7 2019 18:53:46 by eja",
  "dcmmeta_affine": [
    [-2.681898832321167, 0.05477306619286537, -0.05046864598989487, 107.95767211914062],
    [0.05560719966888428, 2.681981086730957, -0.04480137676000595, -96.75068664550781],
    [-0.04922298341989517, 0.04554044082760811, 2.6991565227508545, -70.22222900390625],
    [0.0, 0.0, 0.0, 1.0]
],
  "dcmmeta_reorient_transform": [
    [0.0, -1.0, 0.0, 81.0],
    [1.0, 0.0, 0.0, 0.0],
    [0.0, 0.0, 1.0, 0.0],
    [0.0, 0.0, 0.0, 1.0]
],
  "dcmmeta_shape": [82, 82, 56, 872],
  "dcmmeta_slice_dim": 2,
  "dcmmeta_version": 0.6,
  "global": {
    "const": {
      "AccessionNumber": "A004157",
      "AcquisitionMatrix": [82, 0, 0, 82],
      "AngioFlag": "N",
      "BitsAllocated": 16,
      "BitsStored": 16,
      "BodyPartExamined": "BRAIN",
      "Columns": 656,
      "EchoNumbers": 1,
      "EchoTime": 27.2,
      "EchoTrainLength": 82,
      "FlipAngle": 44.0,
      "HighBit": 15,
      "ImageOrientationPatient": [0.99961683487025, -0.0207263191592, -0.0183467473437, 0.02041541454549, 0.9996474821744, -0.016974163641],
      "ImagePositionPatient": [-897.81913846227, -874.25910041288, -39.336352170027],
      "ImageType": [
        "ORIGINAL",
        "PRIMARY",
        "M",
        "MB",
        "ND",
        "NORM",
        "MOSAIC"
],
      "ImagedNucleus": "1H",
      "ImagingFrequency": 123.252211,
      "InPlanePhaseEncodingDirection": "COL",
      "MRAcquisitionType": "2D",
      "MagneticFieldStrength": 3.0,
      "Manufacturer": "SIEMENS",
      "ManufacturerModelName": "Prisma",
      "Modality": "MR",
      "NumberOfAverages": 1.0,
      "NumberOfPhaseEncodingSteps": 82,
      "PercentPhaseFieldOfView": 100.0,
      "PercentSampling": 100.0,
      "PerformedProcedureStepStartTime": "202227.934000",
      "PhotometricInterpretation": "MONOCHROME2",
      "PixelBandwidth": 3050.0,
      "PixelRepresentation": 0,
      "PixelSpacing": [2.6829268932343, 2.6829268932343],
      "ProtocolName": "func_run-01_task-social_acq-ap-mb8",
      "RepetitionTime": 460.0,
      "Rows": 656,
      "SAR": 0.09153052561491,
      "SamplesPerPixel": 1,
      "ScanOptions": "FS",
      "ScanningSequence": "EP",
      "SequenceName": "epfid2d1_82",
      "SequenceVariant": [
        "SK",
        "SS"
],
      "SeriesDescription": "func_run-01_task-social_acq-ap-mb8",
      "SeriesNumber": 12,
      "SeriesTime": "210424.768000",
      "SliceLocation": -70.612852274447,
      "SliceThickness": 2.7000000476837,
      "SmallestImagePixelValue": 0,
      "SoftwareVersions": "syngo MR E11",
      "SpacingBetweenSlices": 2.6999999774427,
      "SpecificCharacterSet": "ISO_IR 100",
      "StudyID": "1",
      "StudyTime": "202227.819000",
      "TransmitCoilName": "Body",
      "VariableFlipAngleFlag": "N",
      "WindowCenterWidthExplanation": "Algo1"
    },
    "slices": {}
  },
  "time": {
    "samples": {
      "AcquisitionNumber": [1, 2, 3, 4, 5, 6, 7, 8, 9, 10, 11, 12, 13, 14, 15, 16, 17, 18, 19, 20, 21, 22, 23, 24, 25, 26, 27, 28, 29, 30, 31, 32, 33, 34, 35, 36, 37, 38, 39, 40, 41, 42, 43, 44, 45, 46, 47, 48, 49, 50, 51, 52, 53, 54, 55, 56, 57, 58, 59, 60, 61, 62, 63, 64, 65, 66, 67, 68, 69, 70, 71, 72, 73, 74, 75, 76, 77, 78, 79, 80, 81, 82, 83, 84, 85, 86, 87, 88, 89, 90, 91, 92, 93, 94, 95, 96, 97, 98, 99, 100, 101, 102, 103, 104, 105, 106, 107, 108, 109, 110, 111, 112, 113, 114, 115, 116, 117, 118, 119, 120, 121, 122, 123, 124, 125, 126, 127, 128, 129, 130, 131, 132, 133, 134, 135, 136, 137, 138, 139, 140, 141, 142, 143, 144, 145, 146, 147, 148, 149, 150, 151, 152, 153, 154, 155, 156, 157, 158, 159, 160, 161, 162, 163, 164, 165, 166, 167, 168, 169, 170, 171, 172, 173, 174, 175, 176, 177, 178, 179, 180, 181, 182, 183, 184, 185, 186, 187, 188, 189, 190, 191, 192, 193, 194, 195, 196, 197, 198, 199, 200, 201, 202, 203, 204, 205, 206, 207, 208, 209, 210, 211, 212, 213, 214, 215, 216, 217, 218, 219, 220, 221, 222, 223, 224, 225, 226, 227, 228, 229, 230, 231, 232, 233, 234, 235, 236, 237, 238, 239, 240, 241, 242, 243, 244, 245, 246, 247, 248, 249, 250, 251, 252, 253, 254, 255, 256, 257, 258, 259, 260, 261, 262, 263, 264, 265, 266, 267, 268, 269, 270, 271, 272, 273, 274, 275, 276, 277, 278, 279, 280, 281, 282, 283, 284, 285, 286, 287, 288, 289, 290, 291, 292, 293, 294, 295, 296, 297, 298, 299, 300, 301, 302, 303, 304, 305, 306, 307, 308, 309, 310, 311, 312, 313, 314, 315, 316, 317, 318, 319, 320, 321, 322, 323, 324, 325, 326, 327, 328, 329, 330, 331, 332, 333, 334, 335, 336, 337, 338, 339, 340, 341, 342, 343, 344, 345, 346, 347, 348, 349, 350, 351, 352, 353, 354, 355, 356, 357, 358, 359, 360, 361, 362, 363, 364, 365, 366, 367, 368, 369, 370, 371, 372, 373, 374, 375, 376, 377, 378, 379, 380, 381, 382, 383, 384, 385, 386, 387, 388, 389, 390, 391, 392, 393, 394, 395, 396, 397, 398, 399, 400, 401, 402, 403, 404, 405, 406, 407, 408, 409, 410, 411, 412, 413, 414, 415, 416, 417, 418, 419, 420, 421, 422, 423, 424, 425, 426, 427, 428, 429, 430, 431, 432, 433, 434, 435, 436, 437, 438, 439, 440, 441, 442, 443, 444, 445, 446, 447, 448, 449, 450, 451, 452, 453, 454, 455, 456, 457, 458, 459, 460, 461, 462, 463, 464, 465, 466, 467, 468, 469, 470, 471, 472, 473, 474, 475, 476, 477, 478, 479, 480, 481, 482, 483, 484, 485, 486, 487, 488, 489, 490, 491, 492, 493, 494, 495, 496, 497, 498, 499, 500, 501, 502, 503, 504, 505, 506, 507, 508, 509, 510, 511, 512, 513, 514, 515, 516, 517, 518, 519, 520, 521, 522, 523, 524, 525, 526, 527, 528, 529, 530, 531, 532, 533, 534, 535, 536, 537, 538, 539, 540, 541, 542, 543, 544, 545, 546, 547, 548, 549, 550, 551, 552, 553, 554, 555, 556, 557, 558, 559, 560, 561, 562, 563, 564, 565, 566, 567, 568, 569, 570, 571, 572, 573, 574, 575, 576, 577, 578, 579, 580, 581, 582, 583, 584, 585, 586, 587, 588, 589, 590, 591, 592, 593, 594, 595, 596, 597, 598, 599, 600, 601, 602, 603, 604, 605, 606, 607, 608, 609, 610, 611, 612, 613, 614, 615, 616, 617, 618, 619, 620, 621, 622, 623, 624, 625, 626, 627, 628, 629, 630, 631, 632, 633, 634, 635, 636, 637, 638, 639, 640, 641, 642, 643, 644, 645, 646, 647, 648, 649, 650, 651, 652, 653, 654, 655, 656, 657, 658, 659, 660, 661, 662, 663, 664, 665, 666, 667, 668, 669, 670, 671, 672, 673, 674, 675, 676, 677, 678, 679, 680, 681, 682, 683, 684, 685, 686, 687, 688, 689, 690, 691, 692, 693, 694, 695, 696, 697, 698, 699, 700, 701, 702, 703, 704, 705, 706, 707, 708, 709, 710, 711, 712, 713, 714, 715, 716, 717, 718, 719, 720, 721, 722, 723, 724, 725, 726, 727, 728, 729, 730, 731, 732, 733, 734, 735, 736, 737, 738, 739, 740, 741, 742, 743, 744, 745, 746, 747, 748, 749, 750, 751, 752, 753, 754, 755, 756, 757, 758, 759, 760, 761, 762, 763, 764, 765, 766, 767, 768, 769, 770, 771, 772, 773, 774, 775, 776, 777, 778, 779, 780, 781, 782, 783, 784, 785, 786, 787, 788, 789, 790, 791, 792, 793, 794, 795, 796, 797, 798, 799, 800, 801, 802, 803, 804, 805, 806, 807, 808, 809, 810, 811, 812, 813, 814, 815, 816, 817, 818, 819, 820, 821, 822, 823, 824, 825, 826, 827, 828, 829, 830, 831, 832, 833, 834, 835, 836, 837, 838, 839, 840, 841, 842, 843, 844, 845, 846, 847, 848, 849, 850, 851, 852, 853, 854, 855, 856, 857, 858, 859, 860, 861, 862, 863, 864, 865, 866, 867, 868, 869, 870, 871, 872],
      "AcquisitionTime": ["210401.562500", "210402.022500", "210402.482500", "210402.942500", "210403.402500", "210403.862500", "210404.322500", "210404.782500", "210405.242500", "210405.702500", "210406.162500", "210406.622500", "210407.082500", "210407.542500", "210408.002500", "210408.462500", "210408.922500", "210409.382500", "210409.842500", "210410.302500", "210410.762500", "210411.222500", "210411.682500", "210412.142500", "210412.602500", "210413.062500", "210413.522500", "210413.982500", "210414.442500", "210414.902500", "210415.362500", "210415.822500", "210416.282500", "210416.742500", "210417.202500", "210417.662500", "210418.122500", "210418.582500", "210419.042500", "210419.502500", "210419.962500", "210420.422500", "210420.882500", "210421.342500", "210421.802500", "210422.262500", "210422.722500", "210423.182500", "210423.642500", "210424.102500", "210424.562500", "210425.022500", "210425.482500", "210425.942500", "210426.402500", "210426.862500", "210427.322500", "210427.782500", "210428.242500", "210428.702500", "210429.162500", "210429.622500", "210430.082500", "210430.542500", "210431.002500", "210431.462500", "210431.922500", "210432.382500", "210432.842500", "210433.302500", "210433.762500", "210434.222500", "210434.682500", "210435.142500", "210435.602500", "210436.062500", "210436.522500", "210436.982500", "210437.442500", "210437.902500", "210438.362500", "210438.822500", "210439.282500", "210439.742500", "210440.202500", "210440.662500", "210441.122500", "210441.582500", "210442.042500", "210442.502500", "210442.962500", "210443.422500", "210443.882500", "210444.342500", "210444.802500", "210445.262500", "210445.722500", "210446.182500", "210446.642500", "210447.102500", "210447.562500", "210448.022500", "210448.482500", "210448.942500", "210449.402500", "210449.862500", "210450.322500", "210450.782500", "210451.242500", "210451.702500", "210452.162500", "210452.622500", "210453.082500", "210453.542500", "210454.002500", "210454.462500", "210454.922500", "210455.382500", "210455.842500", "210456.302500", "210456.762500", "210457.222500", "210457.682500", "210458.142500", "210458.602500", "210459.062500", "210459.522500", "210459.982500", "210500.442500", "210500.902500", "210501.362500", "210501.822500", "210502.282500", "210502.742500", "210503.202500", "210503.662500", "210504.122500", "210504.582500", "210505.042500", "210505.502500", "210505.962500", "210506.422500", "210506.882500", "210507.342500", "210507.802500", "210508.262500", "210508.722500", "210509.182500", "210509.642500", "210510.102500", "210510.562500", "210511.022500", "210511.482500", "210511.942500", "210512.402500", "210512.862500", "210513.322500", "210513.782500", "210514.242500", "210514.702500", "210515.162500", "210515.622500", "210516.082500", "210516.542500", "210517.002500", "210517.462500", "210517.922500", "210518.382500", "210518.842500", "210519.302500", "210519.762500", "210520.222500", "210520.682500", "210521.142500", "210521.602500", "210522.062500", "210522.522500", "210522.982500", "210523.442500", "210523.902500", "210524.362500", "210524.822500", "210525.282500", "210525.742500", "210526.202500", "210526.662500", "210527.122500", "210527.582500", "210528.042500", "210528.502500", "210528.962500", "210529.422500", "210529.882500", "210530.342500", "210530.802500", "210531.262500", "210531.722500", "210532.182500", "210532.642500", "210533.102500", "210533.562500", "210534.022500", "210534.482500", "210534.942500", "210535.402500", "210535.862500", "210536.322500", "210536.782500", "210537.242500", "210537.702500", "210538.162500", "210538.622500", "210539.082500", "210539.542500", "210540.002500", "210540.462500", "210540.922500", "210541.382500", "210541.842500", "210542.302500", "210542.762500", "210543.222500", "210543.682500", "210544.142500", "210544.602500", "210545.062500", "210545.522500", "210545.982500", "210546.442500", "210546.902500", "210547.362500", "210547.822500", "210548.282500", "210548.742500", "210549.202500", "210549.662500", "210550.122500", "210550.582500", "210551.042500", "210551.502500", "210551.962500", "210552.422500", "210552.882500", "210553.342500", "210553.802500", "210554.262500", "210554.722500", "210555.182500", "210555.642500", "210556.102500", "210556.562500", "210557.022500", "210557.482500", "210557.942500", "210558.402500", "210558.862500", "210559.322500", "210559.782500", "210600.242500", "210600.702500", "210601.162500", "210601.622500", "210602.082500", "210602.542500", "210603.002500", "210603.462500", "210603.922500", "210604.382500", "210604.842500", "210605.302500", "210605.762500", "210606.222500", "210606.682500", "210607.142500", "210607.602500", "210608.062500", "210608.522500", "210608.982500", "210609.442500", "210609.902500", "210610.362500", "210610.822500", "210611.282500", "210611.742500", "210612.202500", "210612.662500", "210613.122500", "210613.582500", "210614.042500", "210614.502500", "210614.962500", "210615.422500", "210615.882500", "210616.342500", "210616.802500", "210617.262500", "210617.722500", "210618.182500", "210618.642500", "210619.102500", "210619.562500", "210620.022500", "210620.482500", "210620.942500", "210621.402500", "210621.862500", "210622.322500", "210622.782500", "210623.242500", "210623.702500", "210624.162500", "210624.622500", "210625.082500", "210625.542500", "210626.002500", "210626.462500", "210626.922500", "210627.382500", "210627.842500", "210628.302500", "210628.762500", "210629.222500", "210629.682500", "210630.142500", "210630.602500", "210631.062500", "210631.522500", "210631.982500", "210632.442500", "210632.902500", "210633.362500", "210633.822500", "210634.282500", "210634.742500", "210635.202500", "210635.662500", "210636.122500", "210636.582500", "210637.042500", "210637.502500", "210637.962500", "210638.422500", "210638.882500", "210639.342500", "210639.802500", "210640.262500", "210640.722500", "210641.182500", "210641.642500", "210642.102500", "210642.562500", "210643.022500", "210643.482500", "210643.942500", "210644.402500", "210644.862500", "210645.322500", "210645.782500", "210646.242500", "210646.702500", "210647.162500", "210647.622500", "210648.082500", "210648.542500", "210649.002500", "210649.462500", "210649.922500", "210650.382500", "210650.842500", "210651.302500", "210651.762500", "210652.222500", "210652.682500", "210653.142500", "210653.602500", "210654.062500", "210654.522500", "210654.982500", "210655.442500", "210655.902500", "210656.362500", "210656.822500", "210657.282500", "210657.742500", "210658.202500", "210658.662500", "210659.122500", "210659.582500", "210700.042500", "210700.502500", "210700.962500", "210701.422500", "210701.882500", "210702.342500", "210702.802500", "210703.262500", "210703.722500", "210704.182500", "210704.642500", "210705.102500", "210705.562500", "210706.022500", "210706.482500", "210706.942500", "210707.402500", "210707.862500", "210708.322500", "210708.782500", "210709.242500", "210709.702500", "210710.162500", "210710.622500", "210711.082500", "210711.542500", "210712.002500", "210712.462500", "210712.922500", "210713.382500", "210713.842500", "210714.302500", "210714.762500", "210715.222500", "210715.682500", "210716.142500", "210716.602500", "210717.062500", "210717.522500", "210717.982500", "210718.442500", "210718.902500", "210719.362500", "210719.822500", "210720.282500", "210720.742500", "210721.202500", "210721.662500", "210722.122500", "210722.582500", "210723.042500", "210723.502500", "210723.962500", "210724.422500", "210724.882500", "210725.342500", "210725.802500", "210726.262500", "210726.722500", "210727.182500", "210727.642500", "210728.102500", "210728.562500", "210729.022500", "210729.482500", "210729.942500", "210730.402500", "210730.862500", "210731.322500", "210731.782500", "210732.242500", "210732.702500", "210733.162500", "210733.622500", "210734.082500", "210734.542500", "210735.002500", "210735.462500", "210735.922500", "210736.382500", "210736.842500", "210737.302500", "210737.762500", "210738.222500", "210738.682500", "210739.142500", "210739.602500", "210740.062500", "210740.522500", "210740.982500", "210741.442500", "210741.902500", "210742.362500", "210742.822500", "210743.282500", "210743.742500", "210744.202500", "210744.662500", "210745.122500", "210745.582500", "210746.042500", "210746.502500", "210746.962500", "210747.422500", "210747.882500", "210748.342500", "210748.802500", "210749.262500", "210749.722500", "210750.182500", "210750.642500", "210751.102500", "210751.562500", "210752.022500", "210752.482500", "210752.942500", "210753.402500", "210753.862500", "210754.322500", "210754.782500", "210755.242500", "210755.702500", "210756.162500", "210756.622500", "210757.082500", "210757.542500", "210758.002500", "210758.462500", "210758.922500", "210759.382500", "210759.842500", "210800.302500", "210800.762500", "210801.222500", "210801.682500", "210802.142500", "210802.602500", "210803.062500", "210803.522500", "210803.982500", "210804.442500", "210804.902500", "210805.362500", "210805.822500", "210806.282500", "210806.742500", "210807.202500", "210807.662500", "210808.122500", "210808.582500", "210809.042500", "210809.502500", "210809.962500", "210810.422500", "210810.882500", "210811.342500", "210811.802500", "210812.262500", "210812.722500", "210813.182500", "210813.642500", "210814.102500", "210814.562500", "210815.022500", "210815.482500", "210815.942500", "210816.402500", "210816.862500", "210817.322500", "210817.782500", "210818.242500", "210818.702500", "210819.162500", "210819.622500", "210820.082500", "210820.542500", "210821.002500", "210821.462500", "210821.922500", "210822.382500", "210822.842500", "210823.302500", "210823.762500", "210824.222500", "210824.682500", "210825.142500", "210825.602500", "210826.062500", "210826.522500", "210826.982500", "210827.442500", "210827.902500", "210828.362500", "210828.822500", "210829.282500", "210829.742500", "210830.202500", "210830.662500", "210831.122500", "210831.582500", "210832.042500", "210832.502500", "210832.962500", "210833.422500", "210833.882500", "210834.342500", "210834.802500", "210835.262500", "210835.722500", "210836.182500", "210836.642500", "210837.102500", "210837.562500", "210838.022500", "210838.482500", "210838.942500", "210839.402500", "210839.862500", "210840.322500", "210840.782500", "210841.242500", "210841.702500", "210842.162500", "210842.622500", "210843.082500", "210843.542500", "210844.002500", "210844.462500", "210844.922500", "210845.382500", "210845.842500", "210846.302500", "210846.762500", "210847.222500", "210847.682500", "210848.142500", "210848.602500", "210849.062500", "210849.522500", "210849.982500", "210850.442500", "210850.902500", "210851.362500", "210851.822500", "210852.282500", "210852.742500", "210853.202500", "210853.662500", "210854.122500", "210854.582500", "210855.042500", "210855.502500", "210855.962500", "210856.422500", "210856.882500", "210857.342500", "210857.802500", "210858.262500", "210858.722500", "210859.182500", "210859.642500", "210900.102500", "210900.562500", "210901.022500", "210901.482500", "210901.942500", "210902.402500", "210902.862500", "210903.322500", "210903.782500", "210904.242500", "210904.702500", "210905.162500", "210905.622500", "210906.082500", "210906.542500", "210907.002500", "210907.462500", "210907.922500", "210908.382500", "210908.842500", "210909.302500", "210909.762500", "210910.222500", "210910.682500", "210911.142500", "210911.602500", "210912.062500", "210912.522500", "210912.982500", "210913.442500", "210913.902500", "210914.362500", "210914.822500", "210915.282500", "210915.742500", "210916.202500", "210916.662500", "210917.122500", "210917.582500", "210918.042500", "210918.502500", "210918.962500", "210919.422500", "210919.882500", "210920.342500", "210920.802500", "210921.262500", "210921.722500", "210922.182500", "210922.642500", "210923.102500", "210923.562500", "210924.022500", "210924.482500", "210924.942500", "210925.402500", "210925.862500", "210926.322500", "210926.782500", "210927.242500", "210927.702500", "210928.162500", "210928.622500", "210929.082500", "210929.542500", "210930.002500", "210930.462500", "210930.922500", "210931.382500", "210931.842500", "210932.302500", "210932.762500", "210933.222500", "210933.682500", "210934.142500", "210934.602500", "210935.062500", "210935.522500", "210935.982500", "210936.442500", "210936.902500", "210937.362500", "210937.822500", "210938.282500", "210938.742500", "210939.202500", "210939.662500", "210940.122500", "210940.582500", "210941.042500", "210941.502500", "210941.962500", "210942.422500", "210942.882500", "210943.342500", "210943.802500", "210944.262500", "210944.722500", "210945.182500", "210945.642500", "210946.102500", "210946.562500", "210947.022500", "210947.482500", "210947.942500", "210948.402500", "210948.862500", "210949.322500", "210949.782500", "210950.242500", "210950.702500", "210951.162500", "210951.622500", "210952.082500", "210952.542500", "210953.002500", "210953.462500", "210953.922500", "210954.382500", "210954.842500", "210955.302500", "210955.762500", "210956.222500", "210956.682500", "210957.142500", "210957.602500", "210958.062500", "210958.522500", "210958.982500", "210959.442500", "210959.902500", "211000.362500", "211000.822500", "211001.282500", "211001.742500", "211002.202500", "211002.662500", "211003.122500", "211003.582500", "211004.042500", "211004.502500", "211004.962500", "211005.422500", "211005.882500", "211006.342500", "211006.802500", "211007.262500", "211007.722500", "211008.182500", "211008.642500", "211009.102500", "211009.562500", "211010.022500", "211010.482500", "211010.942500", "211011.402500", "211011.862500", "211012.322500", "211012.782500", "211013.242500", "211013.702500", "211014.162500", "211014.622500", "211015.082500", "211015.542500", "211016.002500", "211016.462500", "211016.922500", "211017.382500", "211017.842500", "211018.302500", "211018.762500", "211019.222500", "211019.682500", "211020.142500", "211020.602500", "211021.062500", "211021.522500", "211021.982500", "211022.442500", "211022.902500", "211023.362500", "211023.822500", "211024.282500", "211024.742500", "211025.202500", "211025.662500", "211026.122500", "211026.582500", "211027.042500", "211027.502500", "211027.962500", "211028.422500", "211028.882500", "211029.342500", "211029.802500", "211030.262500", "211030.722500", "211031.182500", "211031.642500", "211032.102500", "211032.562500", "211033.022500", "211033.482500", "211033.942500", "211034.402500", "211034.862500", "211035.322500", "211035.782500", "211036.242500", "211036.702500", "211037.162500", "211037.622500", "211038.082500", "211038.542500", "211039.002500", "211039.462500", "211039.922500", "211040.382500", "211040.842500", "211041.302500", "211041.762500", "211042.222500"],
