{
  "AcquisitionMatrixPE": 82,
  "AcquisitionNumber": 1,
  "AcquisitionTime": "21:40:16.322500",
  "BandwidthPerPixelPhaseEncode": 24.888,
  "BaseResolution": 82,
  "BodyPartExamined": "BRAIN",
  "ConsistencyInfo": "N4_VE11E_LATEST_20181129",
  "ConversionSoftware": "dcm2niix",
  "ConversionSoftwareVersion": "v1.0.20201102",
  "DerivedVendorReportedEchoSpacing": 0.00049,
  "DeviceSerialNumber": "66112",
  "DwellTime": 2e-06,
  "EchoTime": 0.0272,
  "EchoTrainLength": 82,
  "EffectiveEchoSpacing": 0.00049,
  "FlipAngle": 44,
  "ImageComments": "Unaliased MB8/PE3",
  "ImageOrientationPatientDICOM": [0.999617, -0.0207263, -0.0183467, 0.0204154, 0.999647, -0.0169742],
  "ImageType": [
    "ORIGINAL",
    "PRIMARY",
    "M",
    "MB",
    "ND",
    "NORM",
    "MOSAIC"
],
  "ImagingFrequency": 123.252,
  "InPlanePhaseEncodingDirectionDICOM": "COL",
  "InstitutionAddress": "Maynard 3,Hanover,NH,US,03755",
  "InstitutionName": "Dartmouth College - PBS",
  "InstitutionalDepartmentName": "Department",
  "MRAcquisitionType": "2D",
  "MagneticFieldStrength": 3,
  "Manufacturer": "Siemens",
  "ManufacturersModelName": "Prisma",
  "Modality": "MR",
  "MultibandAccelerationFactor": 8,
  "PartialFourier": 1,
  "PatientPosition": "HFS",
  "PercentPhaseFOV": 100,
  "PercentSampling": 100,
  "PhaseEncodingDirection": "j-",
  "PhaseEncodingSteps": 82,
  "PhaseResolution": 1,
  "PixelBandwidth": 3050,
  "ProcedureStepDescription": "Wager_Wager^1076_spacetop",
  "ProtocolName": "func_run-06_task-social_acq-ap-mb8",
  "PulseSequenceDetails": "%CustomerSeq%\\cmrr_mbep2d_bold",
  "ReceiveCoilActiveElements": "HEA;HEP",
  "ReceiveCoilName": "Head_32",
  "ReconMatrixPE": 82,
  "RepetitionTime": 0.46,
  "SAR": 0.0915305,
  "ScanOptions": "FS",
  "ScanningSequence": "EP",
  "SequenceName": "epfid2d1_82",
  "SequenceVariant": "SK\\SS",
  "SeriesDescription": "func_run-06_task-social_acq-ap-mb8",
  "SeriesNumber": 22,
  "ShimSetting": [4147, -7713, -7248, 767, -42, -127, -86, 36],
  "SliceThickness": 2.7,
  "SliceTiming": [0, 0.25, 0.0625, 0.3125, 0.125, 0.375, 0.1875, 0, 0.25, 0.0625, 0.3125, 0.125, 0.375, 0.1875, 0, 0.25, 0.0625, 0.3125, 0.125, 0.375, 0.1875, 0, 0.25, 0.0625, 0.3125, 0.125, 0.375, 0.1875, 0, 0.25, 0.0625, 0.3125, 0.125, 0.375, 0.1875, 0, 0.25, 0.0625, 0.3125, 0.125, 0.375, 0.1875, 0, 0.25, 0.0625, 0.3125, 0.125, 0.375, 0.1875, 0, 0.25, 0.0625, 0.3125, 0.125, 0.375, 0.1875],
  "SoftwareVersions": "syngo MR E11",
  "SpacingBetweenSlices": 2.7,
  "StationName": "AWP66112",
  "TaskName": "social",
  "TotalReadoutTime": 0.03969,
  "TxRefAmp": 239.426,
  "WipMemBlock": "f638b4f9-cde6-4615-885d-c7fda79916f5||Sequence: R016 ve11e/master r/434b28f1; Aug  7 2019 18:53:46 by eja",
  "dcmmeta_affine": [
    [-2.681898832321167, 0.05477306619286537, -0.05046864598989487, 107.95767211914062],
    [0.05560719966888428, 2.681981086730957, -0.04480137676000595, -96.75068664550781],
    [-0.04922298341989517, 0.04554044082760811, 2.6991565227508545, -70.22222900390625],
    [0.0, 0.0, 0.0, 1.0]
],
  "dcmmeta_reorient_transform": [
    [0.0, -1.0, 0.0, 81.0],
    [1.0, 0.0, 0.0, 0.0],
    [0.0, 0.0, 1.0, 0.0],
    [0.0, 0.0, 0.0, 1.0]
],
  "dcmmeta_shape": [82, 82, 56, 872],
  "dcmmeta_slice_dim": 2,
  "dcmmeta_version": 0.6,
  "global": {
    "const": {
      "AccessionNumber": "A004157",
      "AcquisitionMatrix": [82, 0, 0, 82],
      "AngioFlag": "N",
      "BitsAllocated": 16,
      "BitsStored": 16,
      "BodyPartExamined": "BRAIN",
      "Columns": 656,
      "EchoNumbers": 1,
      "EchoTime": 27.2,
      "EchoTrainLength": 82,
      "FlipAngle": 44.0,
      "HighBit": 15,
      "ImageOrientationPatient": [0.99961683487025, -0.0207263191592, -0.0183467473437, 0.02041541454549, 0.9996474821744, -0.016974163641],
      "ImagePositionPatient": [-897.81913846227, -874.25910041288, -39.336352170027],
      "ImageType": [
        "ORIGINAL",
        "PRIMARY",
        "M",
        "MB",
        "ND",
        "NORM",
        "MOSAIC"
],
      "ImagedNucleus": "1H",
      "ImagingFrequency": 123.252223,
      "InPlanePhaseEncodingDirection": "COL",
      "MRAcquisitionType": "2D",
      "MagneticFieldStrength": 3.0,
      "Manufacturer": "SIEMENS",
      "ManufacturerModelName": "Prisma",
      "Modality": "MR",
      "NumberOfAverages": 1.0,
      "NumberOfPhaseEncodingSteps": 82,
      "PercentPhaseFieldOfView": 100.0,
      "PercentSampling": 100.0,
      "PerformedProcedureStepStartTime": "202227.934000",
      "PhotometricInterpretation": "MONOCHROME2",
      "PixelBandwidth": 3050.0,
      "PixelRepresentation": 0,
      "PixelSpacing": [2.6829268932343, 2.6829268932343],
      "ProtocolName": "func_run-06_task-social_acq-ap-mb8",
      "RepetitionTime": 460.0,
      "Rows": 656,
      "SAR": 0.09153052561491,
      "SamplesPerPixel": 1,
      "ScanOptions": "FS",
      "ScanningSequence": "EP",
      "SequenceName": "epfid2d1_82",
      "SequenceVariant": [
        "SK",
        "SS"
],
      "SeriesDescription": "func_run-06_task-social_acq-ap-mb8",
      "SeriesNumber": 22,
      "SeriesTime": "214024.684000",
      "SliceLocation": -70.612852274447,
      "SliceThickness": 2.7000000476837,
      "SmallestImagePixelValue": 0,
      "SoftwareVersions": "syngo MR E11",
      "SpacingBetweenSlices": 2.6999999774427,
      "SpecificCharacterSet": "ISO_IR 100",
      "StudyID": "1",
      "StudyTime": "202227.819000",
      "TransmitCoilName": "Body",
      "VariableFlipAngleFlag": "N",
      "WindowCenterWidthExplanation": "Algo1"
    },
    "slices": {}
  },
  "time": {
    "samples": {
      "AcquisitionNumber": [1, 2, 3, 4, 5, 6, 7, 8, 9, 10, 11, 12, 13, 14, 15, 16, 17, 18, 19, 20, 21, 22, 23, 24, 25, 26, 27, 28, 29, 30, 31, 32, 33, 34, 35, 36, 37, 38, 39, 40, 41, 42, 43, 44, 45, 46, 47, 48, 49, 50, 51, 52, 53, 54, 55, 56, 57, 58, 59, 60, 61, 62, 63, 64, 65, 66, 67, 68, 69, 70, 71, 72, 73, 74, 75, 76, 77, 78, 79, 80, 81, 82, 83, 84, 85, 86, 87, 88, 89, 90, 91, 92, 93, 94, 95, 96, 97, 98, 99, 100, 101, 102, 103, 104, 105, 106, 107, 108, 109, 110, 111, 112, 113, 114, 115, 116, 117, 118, 119, 120, 121, 122, 123, 124, 125, 126, 127, 128, 129, 130, 131, 132, 133, 134, 135, 136, 137, 138, 139, 140, 141, 142, 143, 144, 145, 146, 147, 148, 149, 150, 151, 152, 153, 154, 155, 156, 157, 158, 159, 160, 161, 162, 163, 164, 165, 166, 167, 168, 169, 170, 171, 172, 173, 174, 175, 176, 177, 178, 179, 180, 181, 182, 183, 184, 185, 186, 187, 188, 189, 190, 191, 192, 193, 194, 195, 196, 197, 198, 199, 200, 201, 202, 203, 204, 205, 206, 207, 208, 209, 210, 211, 212, 213, 214, 215, 216, 217, 218, 219, 220, 221, 222, 223, 224, 225, 226, 227, 228, 229, 230, 231, 232, 233, 234, 235, 236, 237, 238, 239, 240, 241, 242, 243, 244, 245, 246, 247, 248, 249, 250, 251, 252, 253, 254, 255, 256, 257, 258, 259, 260, 261, 262, 263, 264, 265, 266, 267, 268, 269, 270, 271, 272, 273, 274, 275, 276, 277, 278, 279, 280, 281, 282, 283, 284, 285, 286, 287, 288, 289, 290, 291, 292, 293, 294, 295, 296, 297, 298, 299, 300, 301, 302, 303, 304, 305, 306, 307, 308, 309, 310, 311, 312, 313, 314, 315, 316, 317, 318, 319, 320, 321, 322, 323, 324, 325, 326, 327, 328, 329, 330, 331, 332, 333, 334, 335, 336, 337, 338, 339, 340, 341, 342, 343, 344, 345, 346, 347, 348, 349, 350, 351, 352, 353, 354, 355, 356, 357, 358, 359, 360, 361, 362, 363, 364, 365, 366, 367, 368, 369, 370, 371, 372, 373, 374, 375, 376, 377, 378, 379, 380, 381, 382, 383, 384, 385, 386, 387, 388, 389, 390, 391, 392, 393, 394, 395, 396, 397, 398, 399, 400, 401, 402, 403, 404, 405, 406, 407, 408, 409, 410, 411, 412, 413, 414, 415, 416, 417, 418, 419, 420, 421, 422, 423, 424, 425, 426, 427, 428, 429, 430, 431, 432, 433, 434, 435, 436, 437, 438, 439, 440, 441, 442, 443, 444, 445, 446, 447, 448, 449, 450, 451, 452, 453, 454, 455, 456, 457, 458, 459, 460, 461, 462, 463, 464, 465, 466, 467, 468, 469, 470, 471, 472, 473, 474, 475, 476, 477, 478, 479, 480, 481, 482, 483, 484, 485, 486, 487, 488, 489, 490, 491, 492, 493, 494, 495, 496, 497, 498, 499, 500, 501, 502, 503, 504, 505, 506, 507, 508, 509, 510, 511, 512, 513, 514, 515, 516, 517, 518, 519, 520, 521, 522, 523, 524, 525, 526, 527, 528, 529, 530, 531, 532, 533, 534, 535, 536, 537, 538, 539, 540, 541, 542, 543, 544, 545, 546, 547, 548, 549, 550, 551, 552, 553, 554, 555, 556, 557, 558, 559, 560, 561, 562, 563, 564, 565, 566, 567, 568, 569, 570, 571, 572, 573, 574, 575, 576, 577, 578, 579, 580, 581, 582, 583, 584, 585, 586, 587, 588, 589, 590, 591, 592, 593, 594, 595, 596, 597, 598, 599, 600, 601, 602, 603, 604, 605, 606, 607, 608, 609, 610, 611, 612, 613, 614, 615, 616, 617, 618, 619, 620, 621, 622, 623, 624, 625, 626, 627, 628, 629, 630, 631, 632, 633, 634, 635, 636, 637, 638, 639, 640, 641, 642, 643, 644, 645, 646, 647, 648, 649, 650, 651, 652, 653, 654, 655, 656, 657, 658, 659, 660, 661, 662, 663, 664, 665, 666, 667, 668, 669, 670, 671, 672, 673, 674, 675, 676, 677, 678, 679, 680, 681, 682, 683, 684, 685, 686, 687, 688, 689, 690, 691, 692, 693, 694, 695, 696, 697, 698, 699, 700, 701, 702, 703, 704, 705, 706, 707, 708, 709, 710, 711, 712, 713, 714, 715, 716, 717, 718, 719, 720, 721, 722, 723, 724, 725, 726, 727, 728, 729, 730, 731, 732, 733, 734, 735, 736, 737, 738, 739, 740, 741, 742, 743, 744, 745, 746, 747, 748, 749, 750, 751, 752, 753, 754, 755, 756, 757, 758, 759, 760, 761, 762, 763, 764, 765, 766, 767, 768, 769, 770, 771, 772, 773, 774, 775, 776, 777, 778, 779, 780, 781, 782, 783, 784, 785, 786, 787, 788, 789, 790, 791, 792, 793, 794, 795, 796, 797, 798, 799, 800, 801, 802, 803, 804, 805, 806, 807, 808, 809, 810, 811, 812, 813, 814, 815, 816, 817, 818, 819, 820, 821, 822, 823, 824, 825, 826, 827, 828, 829, 830, 831, 832, 833, 834, 835, 836, 837, 838, 839, 840, 841, 842, 843, 844, 845, 846, 847, 848, 849, 850, 851, 852, 853, 854, 855, 856, 857, 858, 859, 860, 861, 862, 863, 864, 865, 866, 867, 868, 869, 870, 871, 872],
      "AcquisitionTime": ["214016.322500", "214016.782500", "214017.242500", "214017.702500", "214018.162500", "214018.622500", "214019.082500", "214019.542500", "214020.002500", "214020.462500", "214020.922500", "214021.382500", "214021.842500", "214022.302500", "214022.762500", "214023.222500", "214023.682500", "214024.142500", "214024.602500", "214025.062500", "214025.522500", "214025.982500", "214026.442500", "214026.902500", "214027.362500", "214027.822500", "214028.282500", "214028.742500", "214029.202500", "214029.662500", "214030.122500", "214030.582500", "214031.042500", "214031.502500", "214031.962500", "214032.422500", "214032.882500", "214033.342500", "214033.802500", "214034.262500", "214034.722500", "214035.182500", "214035.642500", "214036.102500", "214036.562500", "214037.022500", "214037.482500", "214037.942500", "214038.402500", "214038.862500", "214039.322500", "214039.782500", "214040.242500", "214040.702500", "214041.162500", "214041.622500", "214042.082500", "214042.542500", "214043.002500", "214043.462500", "214043.922500", "214044.382500", "214044.842500", "214045.302500", "214045.762500", "214046.222500", "214046.682500", "214047.142500", "214047.602500", "214048.062500", "214048.522500", "214048.982500", "214049.442500", "214049.902500", "214050.362500", "214050.822500", "214051.282500", "214051.742500", "214052.202500", "214052.662500", "214053.122500", "214053.582500", "214054.042500", "214054.502500", "214054.962500", "214055.422500", "214055.882500", "214056.342500", "214056.802500", "214057.262500", "214057.722500", "214058.182500", "214058.642500", "214059.102500", "214059.562500", "214100.022500", "214100.482500", "214100.942500", "214101.402500", "214101.862500", "214102.322500", "214102.782500", "214103.242500", "214103.702500", "214104.162500", "214104.622500", "214105.082500", "214105.542500", "214106.002500", "214106.462500", "214106.922500", "214107.382500", "214107.842500", "214108.302500", "214108.762500", "214109.222500", "214109.682500", "214110.142500", "214110.602500", "214111.062500", "214111.522500", "214111.982500", "214112.442500", "214112.902500", "214113.362500", "214113.822500", "214114.282500", "214114.742500", "214115.202500", "214115.662500", "214116.122500", "214116.582500", "214117.042500", "214117.502500", "214117.962500", "214118.422500", "214118.882500", "214119.342500", "214119.802500", "214120.262500", "214120.722500", "214121.182500", "214121.642500", "214122.102500", "214122.562500", "214123.022500", "214123.482500", "214123.942500", "214124.402500", "214124.862500", "214125.322500", "214125.782500", "214126.242500", "214126.702500", "214127.162500", "214127.622500", "214128.082500", "214128.542500", "214129.002500", "214129.462500", "214129.922500", "214130.382500", "214130.842500", "214131.302500", "214131.762500", "214132.222500", "214132.682500", "214133.142500", "214133.602500", "214134.062500", "214134.522500", "214134.982500", "214135.442500", "214135.902500", "214136.362500", "214136.822500", "214137.282500", "214137.742500", "214138.202500", "214138.662500", "214139.122500", "214139.582500", "214140.042500", "214140.502500", "214140.962500", "214141.422500", "214141.882500", "214142.342500", "214142.802500", "214143.262500", "214143.722500", "214144.182500", "214144.642500", "214145.102500", "214145.562500", "214146.022500", "214146.482500", "214146.942500", "214147.402500", "214147.862500", "214148.322500", "214148.782500", "214149.242500", "214149.702500", "214150.162500", "214150.622500", "214151.082500", "214151.542500", "214152.002500", "214152.462500", "214152.922500", "214153.382500", "214153.842500", "214154.302500", "214154.762500", "214155.222500", "214155.682500", "214156.142500", "214156.602500", "214157.062500", "214157.522500", "214157.982500", "214158.442500", "214158.902500", "214159.362500", "214159.822500", "214200.282500", "214200.742500", "214201.202500", "214201.662500", "214202.122500", "214202.582500", "214203.042500", "214203.502500", "214203.962500", "214204.422500", "214204.882500", "214205.342500", "214205.802500", "214206.262500", "214206.722500", "214207.182500", "214207.642500", "214208.102500", "214208.562500", "214209.022500", "214209.482500", "214209.942500", "214210.402500", "214210.862500", "214211.322500", "214211.782500", "214212.242500", "214212.702500", "214213.162500", "214213.622500", "214214.082500", "214214.542500", "214215.002500", "214215.462500", "214215.922500", "214216.382500", "214216.842500", "214217.302500", "214217.762500", "214218.222500", "214218.682500", "214219.142500", "214219.602500", "214220.062500", "214220.522500", "214220.982500", "214221.442500", "214221.902500", "214222.362500", "214222.822500", "214223.282500", "214223.742500", "214224.202500", "214224.662500", "214225.122500", "214225.582500", "214226.042500", "214226.502500", "214226.962500", "214227.422500", "214227.882500", "214228.342500", "214228.802500", "214229.262500", "214229.722500", "214230.182500", "214230.642500", "214231.102500", "214231.562500", "214232.022500", "214232.482500", "214232.942500", "214233.402500", "214233.862500", "214234.322500", "214234.782500", "214235.242500", "214235.702500", "214236.162500", "214236.622500", "214237.082500", "214237.542500", "214238.002500", "214238.462500", "214238.922500", "214239.382500", "214239.842500", "214240.302500", "214240.762500", "214241.222500", "214241.682500", "214242.142500", "214242.602500", "214243.062500", "214243.522500", "214243.982500", "214244.442500", "214244.902500", "214245.362500", "214245.822500", "214246.282500", "214246.742500", "214247.202500", "214247.662500", "214248.122500", "214248.582500", "214249.042500", "214249.502500", "214249.962500", "214250.422500", "214250.882500", "214251.342500", "214251.802500", "214252.262500", "214252.722500", "214253.182500", "214253.642500", "214254.102500", "214254.562500", "214255.022500", "214255.482500", "214255.942500", "214256.402500", "214256.862500", "214257.322500", "214257.782500", "214258.242500", "214258.702500", "214259.162500", "214259.622500", "214300.082500", "214300.542500", "214301.002500", "214301.462500", "214301.922500", "214302.382500", "214302.842500", "214303.302500", "214303.762500", "214304.222500", "214304.682500", "214305.142500", "214305.602500", "214306.062500", "214306.522500", "214306.982500", "214307.442500", "214307.902500", "214308.362500", "214308.822500", "214309.282500", "214309.742500", "214310.202500", "214310.662500", "214311.122500", "214311.582500", "214312.042500", "214312.502500", "214312.962500", "214313.422500", "214313.882500", "214314.342500", "214314.802500", "214315.262500", "214315.722500", "214316.182500", "214316.642500", "214317.102500", "214317.562500", "214318.022500", "214318.482500", "214318.942500", "214319.402500", "214319.862500", "214320.322500", "214320.782500", "214321.242500", "214321.702500", "214322.162500", "214322.622500", "214323.082500", "214323.542500", "214324.002500", "214324.462500", "214324.922500", "214325.382500", "214325.842500", "214326.302500", "214326.762500", "214327.222500", "214327.682500", "214328.142500", "214328.602500", "214329.062500", "214329.522500", "214329.982500", "214330.442500", "214330.902500", "214331.362500", "214331.822500", "214332.282500", "214332.742500", "214333.202500", "214333.662500", "214334.122500", "214334.582500", "214335.042500", "214335.502500", "214335.962500", "214336.422500", "214336.882500", "214337.342500", "214337.802500", "214338.262500", "214338.722500", "214339.182500", "214339.642500", "214340.102500", "214340.562500", "214341.022500", "214341.482500", "214341.942500", "214342.402500", "214342.862500", "214343.322500", "214343.782500", "214344.242500", "214344.702500", "214345.162500", "214345.622500", "214346.082500", "214346.542500", "214347.002500", "214347.462500", "214347.922500", "214348.382500", "214348.842500", "214349.302500", "214349.762500", "214350.222500", "214350.682500", "214351.142500", "214351.602500", "214352.062500", "214352.522500", "214352.982500", "214353.442500", "214353.902500", "214354.362500", "214354.822500", "214355.282500", "214355.742500", "214356.202500", "214356.662500", "214357.122500", "214357.582500", "214358.042500", "214358.502500", "214358.962500", "214359.422500", "214359.882500", "214400.342500", "214400.802500", "214401.262500", "214401.722500", "214402.182500", "214402.642500", "214403.102500", "214403.562500", "214404.022500", "214404.482500", "214404.942500", "214405.402500", "214405.862500", "214406.322500", "214406.782500", "214407.242500", "214407.702500", "214408.162500", "214408.622500", "214409.082500", "214409.542500", "214410.002500", "214410.462500", "214410.922500", "214411.382500", "214411.842500", "214412.302500", "214412.762500", "214413.222500", "214413.682500", "214414.142500", "214414.602500", "214415.062500", "214415.522500", "214415.982500", "214416.442500", "214416.902500", "214417.362500", "214417.822500", "214418.282500", "214418.742500", "214419.202500", "214419.662500", "214420.122500", "214420.582500", "214421.042500", "214421.502500", "214421.962500", "214422.422500", "214422.882500", "214423.342500", "214423.802500", "214424.262500", "214424.722500", "214425.182500", "214425.642500", "214426.102500", "214426.562500", "214427.022500", "214427.482500", "214427.942500", "214428.402500", "214428.862500", "214429.322500", "214429.782500", "214430.242500", "214430.702500", "214431.162500", "214431.622500", "214432.082500", "214432.542500", "214433.002500", "214433.462500", "214433.922500", "214434.382500", "214434.842500", "214435.302500", "214435.762500", "214436.222500", "214436.682500", "214437.142500", "214437.602500", "214438.062500", "214438.522500", "214438.982500", "214439.442500", "214439.902500", "214440.362500", "214440.822500", "214441.282500", "214441.742500", "214442.202500", "214442.662500", "214443.122500", "214443.582500", "214444.042500", "214444.502500", "214444.962500", "214445.422500", "214445.882500", "214446.342500", "214446.802500", "214447.262500", "214447.722500", "214448.182500", "214448.642500", "214449.102500", "214449.562500", "214450.022500", "214450.482500", "214450.942500", "214451.402500", "214451.862500", "214452.322500", "214452.782500", "214453.242500", "214453.702500", "214454.162500", "214454.622500", "214455.082500", "214455.542500", "214456.002500", "214456.462500", "214456.922500", "214457.382500", "214457.842500", "214458.302500", "214458.762500", "214459.222500", "214459.682500", "214500.142500", "214500.602500", "214501.062500", "214501.522500", "214501.982500", "214502.442500", "214502.902500", "214503.362500", "214503.822500", "214504.282500", "214504.742500", "214505.202500", "214505.662500", "214506.122500", "214506.582500", "214507.042500", "214507.502500", "214507.962500", "214508.422500", "214508.882500", "214509.342500", "214509.802500", "214510.262500", "214510.722500", "214511.182500", "214511.642500", "214512.102500", "214512.562500", "214513.022500", "214513.482500", "214513.942500", "214514.402500", "214514.862500", "214515.322500", "214515.782500", "214516.242500", "214516.702500", "214517.162500", "214517.622500", "214518.082500", "214518.542500", "214519.002500", "214519.462500", "214519.922500", "214520.382500", "214520.842500", "214521.302500", "214521.762500", "214522.222500", "214522.682500", "214523.142500", "214523.602500", "214524.062500", "214524.522500", "214524.982500", "214525.442500", "214525.902500", "214526.362500", "214526.822500", "214527.282500", "214527.742500", "214528.202500", "214528.662500", "214529.122500", "214529.582500", "214530.042500", "214530.502500", "214530.962500", "214531.422500", "214531.882500", "214532.342500", "214532.802500", "214533.262500", "214533.722500", "214534.182500", "214534.642500", "214535.102500", "214535.562500", "214536.022500", "214536.482500", "214536.942500", "214537.402500", "214537.862500", "214538.322500", "214538.782500", "214539.242500", "214539.702500", "214540.162500", "214540.622500", "214541.082500", "214541.542500", "214542.002500", "214542.462500", "214542.922500", "214543.382500", "214543.842500", "214544.302500", "214544.762500", "214545.222500", "214545.682500", "214546.142500", "214546.602500", "214547.062500", "214547.522500", "214547.982500", "214548.442500", "214548.902500", "214549.362500", "214549.822500", "214550.282500", "214550.742500", "214551.202500", "214551.662500", "214552.122500", "214552.582500", "214553.042500", "214553.502500", "214553.962500", "214554.422500", "214554.882500", "214555.342500", "214555.802500", "214556.262500", "214556.722500", "214557.182500", "214557.642500", "214558.102500", "214558.562500", "214559.022500", "214559.482500", "214559.942500", "214600.402500", "214600.862500", "214601.322500", "214601.782500", "214602.242500", "214602.702500", "214603.162500", "214603.622500", "214604.082500", "214604.542500", "214605.002500", "214605.462500", "214605.922500", "214606.382500", "214606.842500", "214607.302500", "214607.762500", "214608.222500", "214608.682500", "214609.142500", "214609.602500", "214610.062500", "214610.522500", "214610.982500", "214611.442500", "214611.902500", "214612.362500", "214612.822500", "214613.282500", "214613.742500", "214614.202500", "214614.662500", "214615.122500", "214615.582500", "214616.042500", "214616.502500", "214616.962500", "214617.422500", "214617.882500", "214618.342500", "214618.802500", "214619.262500", "214619.722500", "214620.182500", "214620.642500", "214621.102500", "214621.562500", "214622.022500", "214622.482500", "214622.942500", "214623.402500", "214623.862500", "214624.322500", "214624.782500", "214625.242500", "214625.702500", "214626.162500", "214626.622500", "214627.082500", "214627.542500", "214628.002500", "214628.462500", "214628.922500", "214629.382500", "214629.842500", "214630.302500", "214630.762500", "214631.222500", "214631.682500", "214632.142500", "214632.602500", "214633.062500", "214633.522500", "214633.982500", "214634.442500", "214634.902500", "214635.362500", "214635.822500", "214636.282500", "214636.742500", "214637.202500", "214637.662500", "214638.122500", "214638.582500", "214639.042500", "214639.502500", "214639.962500", "214640.422500", "214640.882500", "214641.342500", "214641.802500", "214642.262500", "214642.722500", "214643.182500", "214643.642500", "214644.102500", "214644.562500", "214645.022500", "214645.482500", "214645.942500", "214646.402500", "214646.862500", "214647.322500", "214647.782500", "214648.242500", "214648.702500", "214649.162500", "214649.622500", "214650.082500", "214650.542500", "214651.002500", "214651.462500", "214651.922500", "214652.382500", "214652.842500", "214653.302500", "214653.762500", "214654.222500", "214654.682500", "214655.142500", "214655.602500", "214656.062500", "214656.522500", "214656.982500"],
