{
  "AcquisitionMatrixPE": 82,
  "AcquisitionNumber": 1,
  "AcquisitionTime": "21:11:9.642500",
  "BandwidthPerPixelPhaseEncode": 24.888,
  "BaseResolution": 82,
  "BodyPartExamined": "BRAIN",
  "ConsistencyInfo": "N4_VE11E_LATEST_20181129",
  "ConversionSoftware": "dcm2niix",
  "ConversionSoftwareVersion": "v1.0.20201102",
  "DerivedVendorReportedEchoSpacing": 0.00049,
  "DeviceSerialNumber": "66112",
  "DwellTime": 2e-06,
  "EchoTime": 0.0272,
  "EchoTrainLength": 82,
  "EffectiveEchoSpacing": 0.00049,
  "FlipAngle": 44,
  "ImageComments": "Unaliased MB8/PE3",
  "ImageOrientationPatientDICOM": [0.999617, -0.0207263, -0.0183467, 0.0204154, 0.999647, -0.0169742],
  "ImageType": [
    "ORIGINAL",
    "PRIMARY",
    "M",
    "MB",
    "ND",
    "NORM",
    "MOSAIC"
],
  "ImagingFrequency": 123.252,
  "InPlanePhaseEncodingDirectionDICOM": "COL",
  "InstitutionAddress": "Maynard 3,Hanover,NH,US,03755",
  "InstitutionName": "Dartmouth College - PBS",
  "InstitutionalDepartmentName": "Department",
  "MRAcquisitionType": "2D",
  "MagneticFieldStrength": 3,
  "Manufacturer": "Siemens",
  "ManufacturersModelName": "Prisma",
  "Modality": "MR",
  "MultibandAccelerationFactor": 8,
  "PartialFourier": 1,
  "PatientPosition": "HFS",
  "PercentPhaseFOV": 100,
  "PercentSampling": 100,
  "PhaseEncodingDirection": "j-",
  "PhaseEncodingSteps": 82,
  "PhaseResolution": 1,
  "PixelBandwidth": 3050,
  "ProcedureStepDescription": "Wager_Wager^1076_spacetop",
  "ProtocolName": "func_run-02_task-social_acq-ap-mb8",
  "PulseSequenceDetails": "%CustomerSeq%\\cmrr_mbep2d_bold",
  "ReceiveCoilActiveElements": "HEA;HEP",
  "ReceiveCoilName": "Head_32",
  "ReconMatrixPE": 82,
  "RepetitionTime": 0.46,
  "SAR": 0.0915305,
  "ScanOptions": "FS",
  "ScanningSequence": "EP",
  "SequenceName": "epfid2d1_82",
  "SequenceVariant": "SK\\SS",
  "SeriesDescription": "func_run-02_task-social_acq-ap-mb8",
  "SeriesNumber": 14,
  "ShimSetting": [4147, -7713, -7248, 767, -42, -127, -86, 36],
  "SliceThickness": 2.7,
  "SliceTiming": [0, 0.2525, 0.065, 0.315, 0.1275, 0.3775, 0.19, 0, 0.2525, 0.065, 0.315, 0.1275, 0.3775, 0.19, 0, 0.2525, 0.065, 0.315, 0.1275, 0.3775, 0.19, 0, 0.2525, 0.065, 0.315, 0.1275, 0.3775, 0.19, 0, 0.2525, 0.065, 0.315, 0.1275, 0.3775, 0.19, 0, 0.2525, 0.065, 0.315, 0.1275, 0.3775, 0.19, 0, 0.2525, 0.065, 0.315, 0.1275, 0.3775, 0.19, 0, 0.2525, 0.065, 0.315, 0.1275, 0.3775, 0.19],
  "SoftwareVersions": "syngo MR E11",
  "SpacingBetweenSlices": 2.7,
  "StationName": "AWP66112",
  "TaskName": "social",
  "TotalReadoutTime": 0.03969,
  "TxRefAmp": 239.426,
  "WipMemBlock": "1173a426-dd3a-4910-9f24-f4febea47ebd||Sequence: R016 ve11e/master r/434b28f1; Aug  7 2019 18:53:46 by eja",
  "dcmmeta_affine": [
    [-2.681898832321167, 0.05477306619286537, -0.05046864598989487, 107.95767211914062],
    [0.05560719966888428, 2.681981086730957, -0.04480137676000595, -96.75068664550781],
    [-0.04922298341989517, 0.04554044082760811, 2.6991565227508545, -70.22222900390625],
    [0.0, 0.0, 0.0, 1.0]
],
  "dcmmeta_reorient_transform": [
    [0.0, -1.0, 0.0, 81.0],
    [1.0, 0.0, 0.0, 0.0],
    [0.0, 0.0, 1.0, 0.0],
    [0.0, 0.0, 0.0, 1.0]
],
  "dcmmeta_shape": [82, 82, 56, 872],
  "dcmmeta_slice_dim": 2,
  "dcmmeta_version": 0.6,
  "global": {
    "const": {
      "AccessionNumber": "A004157",
      "AcquisitionMatrix": [82, 0, 0, 82],
      "AngioFlag": "N",
      "BitsAllocated": 16,
      "BitsStored": 16,
      "BodyPartExamined": "BRAIN",
      "Columns": 656,
      "EchoNumbers": 1,
      "EchoTime": 27.2,
      "EchoTrainLength": 82,
      "FlipAngle": 44.0,
      "HighBit": 15,
      "ImageOrientationPatient": [0.99961683487025, -0.0207263191592, -0.0183467473437, 0.02041541454549, 0.9996474821744, -0.016974163641],
      "ImagePositionPatient": [-897.81913846227, -874.25910041288, -39.336352170027],
      "ImageType": [
        "ORIGINAL",
        "PRIMARY",
        "M",
        "MB",
        "ND",
        "NORM",
        "MOSAIC"
],
      "ImagedNucleus": "1H",
      "ImagingFrequency": 123.252215,
      "InPlanePhaseEncodingDirection": "COL",
      "MRAcquisitionType": "2D",
      "MagneticFieldStrength": 3.0,
      "Manufacturer": "SIEMENS",
      "ManufacturerModelName": "Prisma",
      "Modality": "MR",
      "NumberOfAverages": 1.0,
      "NumberOfPhaseEncodingSteps": 82,
      "PercentPhaseFieldOfView": 100.0,
      "PercentSampling": 100.0,
      "PerformedProcedureStepStartTime": "202227.934000",
      "PhotometricInterpretation": "MONOCHROME2",
      "PixelBandwidth": 3050.0,
      "PixelRepresentation": 0,
      "PixelSpacing": [2.6829268932343, 2.6829268932343],
      "ProtocolName": "func_run-02_task-social_acq-ap-mb8",
      "RepetitionTime": 460.0,
      "Rows": 656,
      "SAR": 0.09153052561491,
      "SamplesPerPixel": 1,
      "ScanOptions": "FS",
      "ScanningSequence": "EP",
      "SequenceName": "epfid2d1_82",
      "SequenceVariant": [
        "SK",
        "SS"
],
      "SeriesDescription": "func_run-02_task-social_acq-ap-mb8",
      "SeriesNumber": 14,
      "SeriesTime": "211124.625000",
      "SliceLocation": -70.612852274447,
      "SliceThickness": 2.7000000476837,
      "SmallestImagePixelValue": 0,
      "SoftwareVersions": "syngo MR E11",
      "SpacingBetweenSlices": 2.6999999774427,
      "SpecificCharacterSet": "ISO_IR 100",
      "StudyID": "1",
      "StudyTime": "202227.819000",
      "TransmitCoilName": "Body",
      "VariableFlipAngleFlag": "N",
      "WindowCenterWidthExplanation": "Algo1"
    },
    "slices": {}
  },
  "time": {
    "samples": {
      "AcquisitionNumber": [1, 2, 3, 4, 5, 6, 7, 8, 9, 10, 11, 12, 13, 14, 15, 16, 17, 18, 19, 20, 21, 22, 23, 24, 25, 26, 27, 28, 29, 30, 31, 32, 33, 34, 35, 36, 37, 38, 39, 40, 41, 42, 43, 44, 45, 46, 47, 48, 49, 50, 51, 52, 53, 54, 55, 56, 57, 58, 59, 60, 61, 62, 63, 64, 65, 66, 67, 68, 69, 70, 71, 72, 73, 74, 75, 76, 77, 78, 79, 80, 81, 82, 83, 84, 85, 86, 87, 88, 89, 90, 91, 92, 93, 94, 95, 96, 97, 98, 99, 100, 101, 102, 103, 104, 105, 106, 107, 108, 109, 110, 111, 112, 113, 114, 115, 116, 117, 118, 119, 120, 121, 122, 123, 124, 125, 126, 127, 128, 129, 130, 131, 132, 133, 134, 135, 136, 137, 138, 139, 140, 141, 142, 143, 144, 145, 146, 147, 148, 149, 150, 151, 152, 153, 154, 155, 156, 157, 158, 159, 160, 161, 162, 163, 164, 165, 166, 167, 168, 169, 170, 171, 172, 173, 174, 175, 176, 177, 178, 179, 180, 181, 182, 183, 184, 185, 186, 187, 188, 189, 190, 191, 192, 193, 194, 195, 196, 197, 198, 199, 200, 201, 202, 203, 204, 205, 206, 207, 208, 209, 210, 211, 212, 213, 214, 215, 216, 217, 218, 219, 220, 221, 222, 223, 224, 225, 226, 227, 228, 229, 230, 231, 232, 233, 234, 235, 236, 237, 238, 239, 240, 241, 242, 243, 244, 245, 246, 247, 248, 249, 250, 251, 252, 253, 254, 255, 256, 257, 258, 259, 260, 261, 262, 263, 264, 265, 266, 267, 268, 269, 270, 271, 272, 273, 274, 275, 276, 277, 278, 279, 280, 281, 282, 283, 284, 285, 286, 287, 288, 289, 290, 291, 292, 293, 294, 295, 296, 297, 298, 299, 300, 301, 302, 303, 304, 305, 306, 307, 308, 309, 310, 311, 312, 313, 314, 315, 316, 317, 318, 319, 320, 321, 322, 323, 324, 325, 326, 327, 328, 329, 330, 331, 332, 333, 334, 335, 336, 337, 338, 339, 340, 341, 342, 343, 344, 345, 346, 347, 348, 349, 350, 351, 352, 353, 354, 355, 356, 357, 358, 359, 360, 361, 362, 363, 364, 365, 366, 367, 368, 369, 370, 371, 372, 373, 374, 375, 376, 377, 378, 379, 380, 381, 382, 383, 384, 385, 386, 387, 388, 389, 390, 391, 392, 393, 394, 395, 396, 397, 398, 399, 400, 401, 402, 403, 404, 405, 406, 407, 408, 409, 410, 411, 412, 413, 414, 415, 416, 417, 418, 419, 420, 421, 422, 423, 424, 425, 426, 427, 428, 429, 430, 431, 432, 433, 434, 435, 436, 437, 438, 439, 440, 441, 442, 443, 444, 445, 446, 447, 448, 449, 450, 451, 452, 453, 454, 455, 456, 457, 458, 459, 460, 461, 462, 463, 464, 465, 466, 467, 468, 469, 470, 471, 472, 473, 474, 475, 476, 477, 478, 479, 480, 481, 482, 483, 484, 485, 486, 487, 488, 489, 490, 491, 492, 493, 494, 495, 496, 497, 498, 499, 500, 501, 502, 503, 504, 505, 506, 507, 508, 509, 510, 511, 512, 513, 514, 515, 516, 517, 518, 519, 520, 521, 522, 523, 524, 525, 526, 527, 528, 529, 530, 531, 532, 533, 534, 535, 536, 537, 538, 539, 540, 541, 542, 543, 544, 545, 546, 547, 548, 549, 550, 551, 552, 553, 554, 555, 556, 557, 558, 559, 560, 561, 562, 563, 564, 565, 566, 567, 568, 569, 570, 571, 572, 573, 574, 575, 576, 577, 578, 579, 580, 581, 582, 583, 584, 585, 586, 587, 588, 589, 590, 591, 592, 593, 594, 595, 596, 597, 598, 599, 600, 601, 602, 603, 604, 605, 606, 607, 608, 609, 610, 611, 612, 613, 614, 615, 616, 617, 618, 619, 620, 621, 622, 623, 624, 625, 626, 627, 628, 629, 630, 631, 632, 633, 634, 635, 636, 637, 638, 639, 640, 641, 642, 643, 644, 645, 646, 647, 648, 649, 650, 651, 652, 653, 654, 655, 656, 657, 658, 659, 660, 661, 662, 663, 664, 665, 666, 667, 668, 669, 670, 671, 672, 673, 674, 675, 676, 677, 678, 679, 680, 681, 682, 683, 684, 685, 686, 687, 688, 689, 690, 691, 692, 693, 694, 695, 696, 697, 698, 699, 700, 701, 702, 703, 704, 705, 706, 707, 708, 709, 710, 711, 712, 713, 714, 715, 716, 717, 718, 719, 720, 721, 722, 723, 724, 725, 726, 727, 728, 729, 730, 731, 732, 733, 734, 735, 736, 737, 738, 739, 740, 741, 742, 743, 744, 745, 746, 747, 748, 749, 750, 751, 752, 753, 754, 755, 756, 757, 758, 759, 760, 761, 762, 763, 764, 765, 766, 767, 768, 769, 770, 771, 772, 773, 774, 775, 776, 777, 778, 779, 780, 781, 782, 783, 784, 785, 786, 787, 788, 789, 790, 791, 792, 793, 794, 795, 796, 797, 798, 799, 800, 801, 802, 803, 804, 805, 806, 807, 808, 809, 810, 811, 812, 813, 814, 815, 816, 817, 818, 819, 820, 821, 822, 823, 824, 825, 826, 827, 828, 829, 830, 831, 832, 833, 834, 835, 836, 837, 838, 839, 840, 841, 842, 843, 844, 845, 846, 847, 848, 849, 850, 851, 852, 853, 854, 855, 856, 857, 858, 859, 860, 861, 862, 863, 864, 865, 866, 867, 868, 869, 870, 871, 872],
      "AcquisitionTime": ["211109.642500", "211110.102500", "211110.562500", "211111.022500", "211111.482500", "211111.942500", "211112.402500", "211112.862500", "211113.322500", "211113.782500", "211114.242500", "211114.702500", "211115.162500", "211115.622500", "211116.082500", "211116.542500", "211117.002500", "211117.462500", "211117.922500", "211118.382500", "211118.842500", "211119.302500", "211119.762500", "211120.222500", "211120.682500", "211121.142500", "211121.602500", "211122.062500", "211122.522500", "211122.982500", "211123.442500", "211123.902500", "211124.362500", "211124.822500", "211125.282500", "211125.742500", "211126.202500", "211126.662500", "211127.122500", "211127.582500", "211128.042500", "211128.502500", "211128.962500", "211129.422500", "211129.882500", "211130.342500", "211130.802500", "211131.262500", "211131.722500", "211132.182500", "211132.642500", "211133.102500", "211133.562500", "211134.022500", "211134.482500", "211134.942500", "211135.402500", "211135.862500", "211136.322500", "211136.782500", "211137.242500", "211137.702500", "211138.162500", "211138.622500", "211139.082500", "211139.542500", "211140.002500", "211140.462500", "211140.922500", "211141.382500", "211141.842500", "211142.302500", "211142.762500", "211143.222500", "211143.682500", "211144.142500", "211144.602500", "211145.062500", "211145.522500", "211145.982500", "211146.442500", "211146.902500", "211147.362500", "211147.822500", "211148.282500", "211148.742500", "211149.202500", "211149.662500", "211150.122500", "211150.582500", "211151.042500", "211151.502500", "211151.962500", "211152.422500", "211152.882500", "211153.342500", "211153.802500", "211154.262500", "211154.722500", "211155.182500", "211155.642500", "211156.102500", "211156.562500", "211157.022500", "211157.482500", "211157.942500", "211158.402500", "211158.862500", "211159.322500", "211159.782500", "211200.242500", "211200.702500", "211201.162500", "211201.622500", "211202.082500", "211202.542500", "211203.002500", "211203.462500", "211203.922500", "211204.382500", "211204.842500", "211205.302500", "211205.762500", "211206.222500", "211206.682500", "211207.142500", "211207.602500", "211208.062500", "211208.522500", "211208.982500", "211209.442500", "211209.902500", "211210.362500", "211210.822500", "211211.282500", "211211.742500", "211212.202500", "211212.662500", "211213.122500", "211213.582500", "211214.042500", "211214.502500", "211214.962500", "211215.422500", "211215.882500", "211216.342500", "211216.802500", "211217.262500", "211217.722500", "211218.182500", "211218.642500", "211219.102500", "211219.562500", "211220.022500", "211220.482500", "211220.942500", "211221.402500", "211221.862500", "211222.322500", "211222.782500", "211223.242500", "211223.702500", "211224.162500", "211224.622500", "211225.082500", "211225.542500", "211226.002500", "211226.462500", "211226.922500", "211227.382500", "211227.842500", "211228.302500", "211228.762500", "211229.222500", "211229.682500", "211230.142500", "211230.602500", "211231.062500", "211231.522500", "211231.982500", "211232.442500", "211232.902500", "211233.362500", "211233.822500", "211234.282500", "211234.742500", "211235.202500", "211235.662500", "211236.122500", "211236.582500", "211237.042500", "211237.502500", "211237.962500", "211238.422500", "211238.882500", "211239.342500", "211239.802500", "211240.262500", "211240.722500", "211241.182500", "211241.642500", "211242.102500", "211242.562500", "211243.022500", "211243.482500", "211243.942500", "211244.402500", "211244.862500", "211245.322500", "211245.782500", "211246.242500", "211246.702500", "211247.162500", "211247.622500", "211248.082500", "211248.542500", "211249.002500", "211249.462500", "211249.922500", "211250.382500", "211250.842500", "211251.302500", "211251.762500", "211252.222500", "211252.682500", "211253.142500", "211253.602500", "211254.062500", "211254.522500", "211254.982500", "211255.442500", "211255.902500", "211256.362500", "211256.822500", "211257.282500", "211257.742500", "211258.202500", "211258.662500", "211259.122500", "211259.582500", "211300.042500", "211300.502500", "211300.962500", "211301.422500", "211301.882500", "211302.342500", "211302.802500", "211303.262500", "211303.722500", "211304.182500", "211304.642500", "211305.102500", "211305.562500", "211306.022500", "211306.482500", "211306.942500", "211307.402500", "211307.862500", "211308.322500", "211308.782500", "211309.242500", "211309.702500", "211310.162500", "211310.622500", "211311.082500", "211311.542500", "211312.002500", "211312.462500", "211312.922500", "211313.382500", "211313.842500", "211314.302500", "211314.762500", "211315.222500", "211315.682500", "211316.142500", "211316.602500", "211317.062500", "211317.522500", "211317.982500", "211318.442500", "211318.902500", "211319.362500", "211319.822500", "211320.282500", "211320.742500", "211321.202500", "211321.662500", "211322.122500", "211322.582500", "211323.042500", "211323.502500", "211323.962500", "211324.422500", "211324.882500", "211325.342500", "211325.802500", "211326.262500", "211326.722500", "211327.182500", "211327.642500", "211328.102500", "211328.562500", "211329.022500", "211329.482500", "211329.942500", "211330.402500", "211330.862500", "211331.322500", "211331.782500", "211332.242500", "211332.702500", "211333.162500", "211333.622500", "211334.082500", "211334.542500", "211335.002500", "211335.462500", "211335.922500", "211336.382500", "211336.842500", "211337.302500", "211337.762500", "211338.222500", "211338.682500", "211339.142500", "211339.602500", "211340.062500", "211340.522500", "211340.982500", "211341.442500", "211341.902500", "211342.362500", "211342.822500", "211343.282500", "211343.742500", "211344.202500", "211344.662500", "211345.122500", "211345.582500", "211346.042500", "211346.502500", "211346.962500", "211347.422500", "211347.882500", "211348.342500", "211348.802500", "211349.262500", "211349.722500", "211350.182500", "211350.642500", "211351.102500", "211351.562500", "211352.022500", "211352.482500", "211352.942500", "211353.402500", "211353.862500", "211354.322500", "211354.782500", "211355.242500", "211355.702500", "211356.162500", "211356.622500", "211357.082500", "211357.542500", "211358.002500", "211358.462500", "211358.922500", "211359.382500", "211359.842500", "211400.302500", "211400.762500", "211401.222500", "211401.682500", "211402.142500", "211402.602500", "211403.062500", "211403.522500", "211403.982500", "211404.442500", "211404.902500", "211405.362500", "211405.822500", "211406.282500", "211406.742500", "211407.202500", "211407.662500", "211408.122500", "211408.582500", "211409.042500", "211409.502500", "211409.962500", "211410.422500", "211410.882500", "211411.342500", "211411.802500", "211412.262500", "211412.722500", "211413.182500", "211413.642500", "211414.102500", "211414.562500", "211415.022500", "211415.482500", "211415.942500", "211416.402500", "211416.862500", "211417.322500", "211417.782500", "211418.242500", "211418.702500", "211419.162500", "211419.622500", "211420.082500", "211420.542500", "211421.002500", "211421.462500", "211421.922500", "211422.382500", "211422.842500", "211423.302500", "211423.762500", "211424.222500", "211424.682500", "211425.142500", "211425.602500", "211426.062500", "211426.522500", "211426.982500", "211427.442500", "211427.902500", "211428.362500", "211428.822500", "211429.282500", "211429.742500", "211430.202500", "211430.662500", "211431.122500", "211431.582500", "211432.042500", "211432.502500", "211432.962500", "211433.422500", "211433.882500", "211434.342500", "211434.802500", "211435.262500", "211435.722500", "211436.182500", "211436.642500", "211437.102500", "211437.562500", "211438.022500", "211438.482500", "211438.942500", "211439.402500", "211439.862500", "211440.322500", "211440.782500", "211441.242500", "211441.702500", "211442.162500", "211442.622500", "211443.082500", "211443.542500", "211444.002500", "211444.462500", "211444.922500", "211445.382500", "211445.842500", "211446.302500", "211446.762500", "211447.222500", "211447.682500", "211448.142500", "211448.602500", "211449.062500", "211449.522500", "211449.982500", "211450.442500", "211450.902500", "211451.362500", "211451.822500", "211452.282500", "211452.742500", "211453.202500", "211453.662500", "211454.122500", "211454.582500", "211455.042500", "211455.502500", "211455.962500", "211456.422500", "211456.882500", "211457.342500", "211457.802500", "211458.262500", "211458.722500", "211459.182500", "211459.642500", "211500.102500", "211500.562500", "211501.022500", "211501.482500", "211501.942500", "211502.402500", "211502.862500", "211503.322500", "211503.782500", "211504.242500", "211504.702500", "211505.162500", "211505.622500", "211506.082500", "211506.542500", "211507.002500", "211507.462500", "211507.922500", "211508.382500", "211508.842500", "211509.302500", "211509.762500", "211510.222500", "211510.682500", "211511.142500", "211511.602500", "211512.062500", "211512.522500", "211512.982500", "211513.442500", "211513.902500", "211514.362500", "211514.822500", "211515.282500", "211515.742500", "211516.202500", "211516.662500", "211517.122500", "211517.582500", "211518.042500", "211518.502500", "211518.962500", "211519.422500", "211519.882500", "211520.342500", "211520.802500", "211521.262500", "211521.722500", "211522.182500", "211522.642500", "211523.102500", "211523.562500", "211524.022500", "211524.482500", "211524.942500", "211525.402500", "211525.862500", "211526.322500", "211526.782500", "211527.242500", "211527.702500", "211528.162500", "211528.622500", "211529.082500", "211529.542500", "211530.002500", "211530.462500", "211530.922500", "211531.382500", "211531.842500", "211532.302500", "211532.762500", "211533.222500", "211533.682500", "211534.142500", "211534.602500", "211535.062500", "211535.522500", "211535.982500", "211536.442500", "211536.902500", "211537.362500", "211537.822500", "211538.282500", "211538.742500", "211539.202500", "211539.662500", "211540.122500", "211540.582500", "211541.042500", "211541.502500", "211541.962500", "211542.422500", "211542.882500", "211543.342500", "211543.802500", "211544.262500", "211544.722500", "211545.182500", "211545.642500", "211546.102500", "211546.562500", "211547.022500", "211547.482500", "211547.942500", "211548.402500", "211548.862500", "211549.322500", "211549.782500", "211550.242500", "211550.702500", "211551.162500", "211551.622500", "211552.082500", "211552.542500", "211553.002500", "211553.462500", "211553.922500", "211554.382500", "211554.842500", "211555.302500", "211555.762500", "211556.222500", "211556.682500", "211557.142500", "211557.602500", "211558.062500", "211558.522500", "211558.982500", "211559.442500", "211559.902500", "211600.362500", "211600.822500", "211601.282500", "211601.742500", "211602.202500", "211602.662500", "211603.122500", "211603.582500", "211604.042500", "211604.502500", "211604.962500", "211605.422500", "211605.882500", "211606.342500", "211606.802500", "211607.262500", "211607.722500", "211608.182500", "211608.642500", "211609.102500", "211609.562500", "211610.022500", "211610.482500", "211610.942500", "211611.402500", "211611.862500", "211612.322500", "211612.782500", "211613.242500", "211613.702500", "211614.162500", "211614.622500", "211615.082500", "211615.542500", "211616.002500", "211616.462500", "211616.922500", "211617.382500", "211617.842500", "211618.302500", "211618.762500", "211619.222500", "211619.682500", "211620.142500", "211620.602500", "211621.062500", "211621.522500", "211621.982500", "211622.442500", "211622.902500", "211623.362500", "211623.822500", "211624.282500", "211624.742500", "211625.202500", "211625.662500", "211626.122500", "211626.582500", "211627.042500", "211627.502500", "211627.962500", "211628.422500", "211628.882500", "211629.342500", "211629.802500", "211630.262500", "211630.722500", "211631.182500", "211631.642500", "211632.102500", "211632.562500", "211633.022500", "211633.482500", "211633.942500", "211634.402500", "211634.862500", "211635.322500", "211635.782500", "211636.242500", "211636.702500", "211637.162500", "211637.622500", "211638.082500", "211638.542500", "211639.002500", "211639.462500", "211639.922500", "211640.382500", "211640.842500", "211641.302500", "211641.762500", "211642.222500", "211642.682500", "211643.142500", "211643.602500", "211644.062500", "211644.522500", "211644.982500", "211645.442500", "211645.902500", "211646.362500", "211646.822500", "211647.282500", "211647.742500", "211648.202500", "211648.662500", "211649.122500", "211649.582500", "211650.042500", "211650.502500", "211650.962500", "211651.422500", "211651.882500", "211652.342500", "211652.802500", "211653.262500", "211653.722500", "211654.182500", "211654.642500", "211655.102500", "211655.562500", "211656.022500", "211656.482500", "211656.942500", "211657.402500", "211657.862500", "211658.322500", "211658.782500", "211659.242500", "211659.702500", "211700.162500", "211700.622500", "211701.082500", "211701.542500", "211702.002500", "211702.462500", "211702.922500", "211703.382500", "211703.842500", "211704.302500", "211704.762500", "211705.222500", "211705.682500", "211706.142500", "211706.602500", "211707.062500", "211707.522500", "211707.982500", "211708.442500", "211708.902500", "211709.362500", "211709.822500", "211710.282500", "211710.742500", "211711.202500", "211711.662500", "211712.122500", "211712.582500", "211713.042500", "211713.502500", "211713.962500", "211714.422500", "211714.882500", "211715.342500", "211715.802500", "211716.262500", "211716.722500", "211717.182500", "211717.642500", "211718.102500", "211718.562500", "211719.022500", "211719.482500", "211719.942500", "211720.402500", "211720.862500", "211721.322500", "211721.782500", "211722.242500", "211722.702500", "211723.162500", "211723.622500", "211724.082500", "211724.542500", "211725.002500", "211725.462500", "211725.922500", "211726.382500", "211726.842500", "211727.302500", "211727.762500", "211728.222500", "211728.682500", "211729.142500", "211729.602500", "211730.062500", "211730.522500", "211730.982500", "211731.442500", "211731.902500", "211732.362500", "211732.822500", "211733.282500", "211733.742500", "211734.202500", "211734.662500", "211735.122500", "211735.582500", "211736.042500", "211736.502500", "211736.962500", "211737.422500", "211737.882500", "211738.342500", "211738.802500", "211739.262500", "211739.722500", "211740.182500", "211740.642500", "211741.102500", "211741.562500", "211742.022500", "211742.482500", "211742.942500", "211743.402500", "211743.862500", "211744.322500", "211744.782500", "211745.242500", "211745.702500", "211746.162500", "211746.622500", "211747.082500", "211747.542500", "211748.002500", "211748.462500", "211748.922500", "211749.382500", "211749.842500", "211750.302500"],
