{
  "AcquisitionMatrixPE": 82,
  "AcquisitionNumber": 1,
  "AcquisitionTime": "11:49:38.482500",
  "BandwidthPerPixelPhaseEncode": 24.888,
  "BaseResolution": 82,
  "BodyPartExamined": "BRAIN",
  "ConsistencyInfo": "N4_VE11E_LATEST_20181129",
  "ConversionSoftware": "dcm2niix",
  "ConversionSoftwareVersion": "v1.0.20201102",
  "DerivedVendorReportedEchoSpacing": 0.00049,
  "DeviceSerialNumber": "66112",
  "DwellTime": 2e-06,
  "EchoTime": 0.0272,
  "EchoTrainLength": 82,
  "EffectiveEchoSpacing": 0.00049,
  "FlipAngle": 44,
  "ImageComments": "Unaliased MB8/PE3",
  "ImageOrientationPatientDICOM": [0.997825, 0.0656022, 0.00652134, -0.0640018, 0.987678, -0.142811],
  "ImageType": [
    "ORIGINAL",
    "PRIMARY",
    "M",
    "MB",
    "ND",
    "NORM",
    "MOSAIC"
],
  "ImagingFrequency": 123.259,
  "InPlanePhaseEncodingDirectionDICOM": "COL",
  "InstitutionAddress": "Maynard 3,Hanover,NH,US,03755",
  "InstitutionName": "Dartmouth College - PBS",
  "InstitutionalDepartmentName": "Department",
  "MRAcquisitionType": "2D",
  "MagneticFieldStrength": 3,
  "Manufacturer": "Siemens",
  "ManufacturersModelName": "Prisma",
  "Modality": "MR",
  "MultibandAccelerationFactor": 8,
  "PartialFourier": 1,
  "PatientPosition": "HFS",
  "PercentPhaseFOV": 100,
  "PercentSampling": 100,
  "PhaseEncodingDirection": "j-",
  "PhaseEncodingSteps": 82,
  "PhaseResolution": 1,
  "PixelBandwidth": 3050,
  "ProcedureStepDescription": "Wager_Wager^1076_spacetop",
  "ProtocolName": "func_run-02_task-faces_acq-ap-mb8",
  "PulseSequenceDetails": "%CustomerSeq%\\cmrr_mbep2d_bold",
  "ReceiveCoilActiveElements": "HEA;HEP",
  "ReceiveCoilName": "Head_32",
  "ReconMatrixPE": 82,
  "RepetitionTime": 0.46,
  "SAR": 0.11532,
  "ScanOptions": "FS",
  "ScanningSequence": "EP",
  "SequenceName": "epfid2d1_82",
  "SequenceVariant": "SK\\SS",
  "SeriesDescription": "func_run-02_task-faces_acq-ap-mb8",
  "SeriesNumber": 20,
  "ShimSetting": [4219, -7780, -7243, 137, -181, -64, 77, 117],
  "SliceThickness": 2.7,
  "SliceTiming": [0, 0.2525, 0.065, 0.315, 0.1275, 0.3775, 0.19, 0, 0.2525, 0.065, 0.315, 0.1275, 0.3775, 0.19, 0, 0.2525, 0.065, 0.315, 0.1275, 0.3775, 0.19, 0, 0.2525, 0.065, 0.315, 0.1275, 0.3775, 0.19, 0, 0.2525, 0.065, 0.315, 0.1275, 0.3775, 0.19, 0, 0.2525, 0.065, 0.315, 0.1275, 0.3775, 0.19, 0, 0.2525, 0.065, 0.315, 0.1275, 0.3775, 0.19, 0, 0.2525, 0.065, 0.315, 0.1275, 0.3775, 0.19],
  "SoftwareVersions": "syngo MR E11",
  "SpacingBetweenSlices": 2.7,
  "StationName": "AWP66112",
  "TaskName": "faces",
  "TotalReadoutTime": 0.03969,
  "TxRefAmp": 304.5,
  "WipMemBlock": "55b537c9-6974-481e-bedd-855b4e255085||Sequence: R016 ve11e/master r/434b28f1; Aug  7 2019 18:53:46 by eja",
  "dcmmeta_affine": [
    [-2.6770904064178467, -0.17171218991279602, 0.04268624261021614, 121.3066177368164],
    [-0.17600597441196442, 2.649869203567505, -0.383624404668808, -85.1888656616211],
    [0.01749628409743309, 0.38315191864967346, 2.672266960144043, -99.80449676513672],
    [0.0, 0.0, 0.0, 1.0]
],
  "dcmmeta_reorient_transform": [
    [0.0, -1.0, 0.0, 81.0],
    [1.0, 0.0, 0.0, 0.0],
    [0.0, 0.0, 1.0, 0.0],
    [0.0, 0.0, 0.0, 1.0]
],
  "dcmmeta_shape": [82, 82, 56, 914],
  "dcmmeta_slice_dim": 2,
  "dcmmeta_version": 0.6,
  "global": {
    "const": {
      "AccessionNumber": "A004317",
      "AcquisitionMatrix": [82, 0, 0, 82],
      "AngioFlag": "N",
      "BitsAllocated": 16,
      "BitsStored": 16,
      "BodyPartExamined": "BRAIN",
      "Columns": 656,
      "EchoNumbers": 1,
      "EchoTime": 27.2,
      "EchoTrainLength": 82,
      "FlipAngle": 44.0,
      "HighBit": 15,
      "ImageOrientationPatient": [0.99782454382497, 0.06560222434638, 0.0065213419859, -0.0640018165009, 0.98767845861074, -0.142811168614],
      "ImagePositionPatient": [-826.44144692947, -940.47667993081, 36.173980040748],
      "ImageType": [
        "ORIGINAL",
        "PRIMARY",
        "M",
        "MB",
        "ND",
        "NORM",
        "MOSAIC"
],
      "ImagedNucleus": "1H",
      "ImagingFrequency": 123.259092,
      "InPlanePhaseEncodingDirection": "COL",
      "MRAcquisitionType": "2D",
      "MagneticFieldStrength": 3.0,
      "Manufacturer": "SIEMENS",
      "ManufacturerModelName": "Prisma",
      "Modality": "MR",
      "NumberOfAverages": 1.0,
      "NumberOfPhaseEncodingSteps": 82,
      "PercentPhaseFieldOfView": 100.0,
      "PercentSampling": 100.0,
      "PerformedProcedureStepStartTime": "104206.667000",
      "PhotometricInterpretation": "MONOCHROME2",
      "PixelBandwidth": 3050.0,
      "PixelRepresentation": 0,
      "PixelSpacing": [2.6829268932343, 2.6829268932343],
      "ProtocolName": "func_run-02_task-faces_acq-ap-mb8",
      "RepetitionTime": 460.0,
      "Rows": 656,
      "SAR": 0.11532001610321,
      "SamplesPerPixel": 1,
      "ScanOptions": "FS",
      "ScanningSequence": "EP",
      "SequenceName": "epfid2d1_82",
      "SequenceVariant": [
        "SK",
        "SS"
],
      "SeriesDescription": "func_run-02_task-faces_acq-ap-mb8",
      "SeriesNumber": 20,
      "SeriesTime": "114958.763000",
      "SliceLocation": -84.757627729404,
      "SliceThickness": 2.7000000476837,
      "SmallestImagePixelValue": 0,
      "SoftwareVersions": "syngo MR E11",
      "SpacingBetweenSlices": 2.700000079182,
      "SpecificCharacterSet": "ISO_IR 100",
      "StudyID": "2",
      "StudyTime": "104206.585000",
      "TransmitCoilName": "Body",
      "VariableFlipAngleFlag": "N",
      "WindowCenterWidthExplanation": "Algo1"
    },
    "slices": {}
  },
  "time": {
    "samples": {
      "AcquisitionNumber": [1, 2, 3, 4, 5, 6, 7, 8, 9, 10, 11, 12, 13, 14, 15, 16, 17, 18, 19, 20, 21, 22, 23, 24, 25, 26, 27, 28, 29, 30, 31, 32, 33, 34, 35, 36, 37, 38, 39, 40, 41, 42, 43, 44, 45, 46, 47, 48, 49, 50, 51, 52, 53, 54, 55, 56, 57, 58, 59, 60, 61, 62, 63, 64, 65, 66, 67, 68, 69, 70, 71, 72, 73, 74, 75, 76, 77, 78, 79, 80, 81, 82, 83, 84, 85, 86, 87, 88, 89, 90, 91, 92, 93, 94, 95, 96, 97, 98, 99, 100, 101, 102, 103, 104, 105, 106, 107, 108, 109, 110, 111, 112, 113, 114, 115, 116, 117, 118, 119, 120, 121, 122, 123, 124, 125, 126, 127, 128, 129, 130, 131, 132, 133, 134, 135, 136, 137, 138, 139, 140, 141, 142, 143, 144, 145, 146, 147, 148, 149, 150, 151, 152, 153, 154, 155, 156, 157, 158, 159, 160, 161, 162, 163, 164, 165, 166, 167, 168, 169, 170, 171, 172, 173, 174, 175, 176, 177, 178, 179, 180, 181, 182, 183, 184, 185, 186, 187, 188, 189, 190, 191, 192, 193, 194, 195, 196, 197, 198, 199, 200, 201, 202, 203, 204, 205, 206, 207, 208, 209, 210, 211, 212, 213, 214, 215, 216, 217, 218, 219, 220, 221, 222, 223, 224, 225, 226, 227, 228, 229, 230, 231, 232, 233, 234, 235, 236, 237, 238, 239, 240, 241, 242, 243, 244, 245, 246, 247, 248, 249, 250, 251, 252, 253, 254, 255, 256, 257, 258, 259, 260, 261, 262, 263, 264, 265, 266, 267, 268, 269, 270, 271, 272, 273, 274, 275, 276, 277, 278, 279, 280, 281, 282, 283, 284, 285, 286, 287, 288, 289, 290, 291, 292, 293, 294, 295, 296, 297, 298, 299, 300, 301, 302, 303, 304, 305, 306, 307, 308, 309, 310, 311, 312, 313, 314, 315, 316, 317, 318, 319, 320, 321, 322, 323, 324, 325, 326, 327, 328, 329, 330, 331, 332, 333, 334, 335, 336, 337, 338, 339, 340, 341, 342, 343, 344, 345, 346, 347, 348, 349, 350, 351, 352, 353, 354, 355, 356, 357, 358, 359, 360, 361, 362, 363, 364, 365, 366, 367, 368, 369, 370, 371, 372, 373, 374, 375, 376, 377, 378, 379, 380, 381, 382, 383, 384, 385, 386, 387, 388, 389, 390, 391, 392, 393, 394, 395, 396, 397, 398, 399, 400, 401, 402, 403, 404, 405, 406, 407, 408, 409, 410, 411, 412, 413, 414, 415, 416, 417, 418, 419, 420, 421, 422, 423, 424, 425, 426, 427, 428, 429, 430, 431, 432, 433, 434, 435, 436, 437, 438, 439, 440, 441, 442, 443, 444, 445, 446, 447, 448, 449, 450, 451, 452, 453, 454, 455, 456, 457, 458, 459, 460, 461, 462, 463, 464, 465, 466, 467, 468, 469, 470, 471, 472, 473, 474, 475, 476, 477, 478, 479, 480, 481, 482, 483, 484, 485, 486, 487, 488, 489, 490, 491, 492, 493, 494, 495, 496, 497, 498, 499, 500, 501, 502, 503, 504, 505, 506, 507, 508, 509, 510, 511, 512, 513, 514, 515, 516, 517, 518, 519, 520, 521, 522, 523, 524, 525, 526, 527, 528, 529, 530, 531, 532, 533, 534, 535, 536, 537, 538, 539, 540, 541, 542, 543, 544, 545, 546, 547, 548, 549, 550, 551, 552, 553, 554, 555, 556, 557, 558, 559, 560, 561, 562, 563, 564, 565, 566, 567, 568, 569, 570, 571, 572, 573, 574, 575, 576, 577, 578, 579, 580, 581, 582, 583, 584, 585, 586, 587, 588, 589, 590, 591, 592, 593, 594, 595, 596, 597, 598, 599, 600, 601, 602, 603, 604, 605, 606, 607, 608, 609, 610, 611, 612, 613, 614, 615, 616, 617, 618, 619, 620, 621, 622, 623, 624, 625, 626, 627, 628, 629, 630, 631, 632, 633, 634, 635, 636, 637, 638, 639, 640, 641, 642, 643, 644, 645, 646, 647, 648, 649, 650, 651, 652, 653, 654, 655, 656, 657, 658, 659, 660, 661, 662, 663, 664, 665, 666, 667, 668, 669, 670, 671, 672, 673, 674, 675, 676, 677, 678, 679, 680, 681, 682, 683, 684, 685, 686, 687, 688, 689, 690, 691, 692, 693, 694, 695, 696, 697, 698, 699, 700, 701, 702, 703, 704, 705, 706, 707, 708, 709, 710, 711, 712, 713, 714, 715, 716, 717, 718, 719, 720, 721, 722, 723, 724, 725, 726, 727, 728, 729, 730, 731, 732, 733, 734, 735, 736, 737, 738, 739, 740, 741, 742, 743, 744, 745, 746, 747, 748, 749, 750, 751, 752, 753, 754, 755, 756, 757, 758, 759, 760, 761, 762, 763, 764, 765, 766, 767, 768, 769, 770, 771, 772, 773, 774, 775, 776, 777, 778, 779, 780, 781, 782, 783, 784, 785, 786, 787, 788, 789, 790, 791, 792, 793, 794, 795, 796, 797, 798, 799, 800, 801, 802, 803, 804, 805, 806, 807, 808, 809, 810, 811, 812, 813, 814, 815, 816, 817, 818, 819, 820, 821, 822, 823, 824, 825, 826, 827, 828, 829, 830, 831, 832, 833, 834, 835, 836, 837, 838, 839, 840, 841, 842, 843, 844, 845, 846, 847, 848, 849, 850, 851, 852, 853, 854, 855, 856, 857, 858, 859, 860, 861, 862, 863, 864, 865, 866, 867, 868, 869, 870, 871, 872, 873, 874, 875, 876, 877, 878, 879, 880, 881, 882, 883, 884, 885, 886, 887, 888, 889, 890, 891, 892, 893, 894, 895, 896, 897, 898, 899, 900, 901, 902, 903, 904, 905, 906, 907, 908, 909, 910, 911, 912, 913, 914],
      "AcquisitionTime": ["114938.482500", "114938.942500", "114939.402500", "114939.862500", "114940.322500", "114940.782500", "114941.242500", "114941.702500", "114942.162500", "114942.622500", "114943.082500", "114943.542500", "114944.002500", "114944.462500", "114944.922500", "114945.382500", "114945.842500", "114946.302500", "114946.762500", "114947.222500", "114947.682500", "114948.142500", "114948.602500", "114949.062500", "114949.522500", "114949.982500", "114950.442500", "114950.902500", "114951.362500", "114951.822500", "114952.282500", "114952.742500", "114953.202500", "114953.662500", "114954.122500", "114954.582500", "114955.042500", "114955.502500", "114955.962500", "114956.422500", "114956.882500", "114957.342500", "114957.802500", "114958.262500", "114958.722500", "114959.182500", "114959.642500", "115000.102500", "115000.562500", "115001.022500", "115001.482500", "115001.942500", "115002.402500", "115002.862500", "115003.322500", "115003.782500", "115004.242500", "115004.702500", "115005.162500", "115005.622500", "115006.082500", "115006.542500", "115007.002500", "115007.462500", "115007.922500", "115008.382500", "115008.842500", "115009.302500", "115009.762500", "115010.222500", "115010.682500", "115011.142500", "115011.602500", "115012.062500", "115012.522500", "115012.982500", "115013.442500", "115013.902500", "115014.362500", "115014.822500", "115015.282500", "115015.742500", "115016.202500", "115016.662500", "115017.122500", "115017.582500", "115018.042500", "115018.502500", "115018.962500", "115019.422500", "115019.882500", "115020.342500", "115020.802500", "115021.262500", "115021.722500", "115022.182500", "115022.642500", "115023.102500", "115023.562500", "115024.022500", "115024.482500", "115024.942500", "115025.402500", "115025.862500", "115026.322500", "115026.782500", "115027.242500", "115027.702500", "115028.162500", "115028.622500", "115029.082500", "115029.542500", "115030.002500", "115030.462500", "115030.922500", "115031.382500", "115031.842500", "115032.302500", "115032.762500", "115033.222500", "115033.682500", "115034.142500", "115034.602500", "115035.062500", "115035.522500", "115035.982500", "115036.442500", "115036.902500", "115037.362500", "115037.822500", "115038.282500", "115038.742500", "115039.202500", "115039.662500", "115040.122500", "115040.582500", "115041.042500", "115041.502500", "115041.962500", "115042.422500", "115042.882500", "115043.342500", "115043.802500", "115044.262500", "115044.722500", "115045.182500", "115045.642500", "115046.102500", "115046.562500", "115047.022500", "115047.482500", "115047.942500", "115048.402500", "115048.862500", "115049.322500", "115049.782500", "115050.242500", "115050.702500", "115051.162500", "115051.622500", "115052.082500", "115052.542500", "115053.002500", "115053.462500", "115053.922500", "115054.382500", "115054.842500", "115055.302500", "115055.762500", "115056.222500", "115056.682500", "115057.142500", "115057.602500", "115058.062500", "115058.522500", "115058.982500", "115059.442500", "115059.902500", "115100.362500", "115100.822500", "115101.282500", "115101.742500", "115102.202500", "115102.662500", "115103.122500", "115103.582500", "115104.042500", "115104.502500", "115104.962500", "115105.422500", "115105.882500", "115106.342500", "115106.802500", "115107.262500", "115107.722500", "115108.182500", "115108.642500", "115109.102500", "115109.562500", "115110.022500", "115110.482500", "115110.942500", "115111.402500", "115111.862500", "115112.322500", "115112.782500", "115113.242500", "115113.702500", "115114.162500", "115114.622500", "115115.082500", "115115.542500", "115116.002500", "115116.462500", "115116.922500", "115117.382500", "115117.842500", "115118.302500", "115118.762500", "115119.222500", "115119.682500", "115120.142500", "115120.602500", "115121.062500", "115121.522500", "115121.982500", "115122.442500", "115122.902500", "115123.362500", "115123.822500", "115124.282500", "115124.742500", "115125.202500", "115125.662500", "115126.122500", "115126.582500", "115127.042500", "115127.502500", "115127.962500", "115128.422500", "115128.882500", "115129.342500", "115129.802500", "115130.262500", "115130.722500", "115131.182500", "115131.642500", "115132.102500", "115132.562500", "115133.022500", "115133.482500", "115133.942500", "115134.402500", "115134.862500", "115135.322500", "115135.782500", "115136.242500", "115136.702500", "115137.162500", "115137.622500", "115138.082500", "115138.542500", "115139.002500", "115139.462500", "115139.922500", "115140.382500", "115140.842500", "115141.302500", "115141.762500", "115142.222500", "115142.682500", "115143.142500", "115143.602500", "115144.062500", "115144.522500", "115144.982500", "115145.442500", "115145.902500", "115146.362500", "115146.822500", "115147.282500", "115147.742500", "115148.202500", "115148.662500", "115149.122500", "115149.582500", "115150.042500", "115150.502500", "115150.962500", "115151.422500", "115151.882500", "115152.342500", "115152.802500", "115153.262500", "115153.722500", "115154.182500", "115154.642500", "115155.102500", "115155.562500", "115156.022500", "115156.482500", "115156.942500", "115157.402500", "115157.862500", "115158.322500", "115158.782500", "115159.242500", "115159.702500", "115200.162500", "115200.622500", "115201.082500", "115201.542500", "115202.002500", "115202.462500", "115202.922500", "115203.382500", "115203.842500", "115204.302500", "115204.762500", "115205.222500", "115205.682500", "115206.142500", "115206.602500", "115207.062500", "115207.522500", "115207.982500", "115208.442500", "115208.902500", "115209.362500", "115209.822500", "115210.282500", "115210.742500", "115211.202500", "115211.662500", "115212.122500", "115212.582500", "115213.042500", "115213.502500", "115213.962500", "115214.422500", "115214.882500", "115215.342500", "115215.802500", "115216.262500", "115216.722500", "115217.182500", "115217.642500", "115218.102500", "115218.562500", "115219.022500", "115219.482500", "115219.942500", "115220.402500", "115220.862500", "115221.322500", "115221.782500", "115222.242500", "115222.702500", "115223.162500", "115223.622500", "115224.082500", "115224.542500", "115225.002500", "115225.462500", "115225.922500", "115226.382500", "115226.842500", "115227.302500", "115227.762500", "115228.222500", "115228.682500", "115229.142500", "115229.602500", "115230.062500", "115230.522500", "115230.982500", "115231.442500", "115231.902500", "115232.362500", "115232.822500", "115233.282500", "115233.742500", "115234.202500", "115234.662500", "115235.122500", "115235.582500", "115236.042500", "115236.502500", "115236.962500", "115237.422500", "115237.882500", "115238.342500", "115238.802500", "115239.262500", "115239.722500", "115240.182500", "115240.642500", "115241.102500", "115241.562500", "115242.022500", "115242.482500", "115242.942500", "115243.402500", "115243.862500", "115244.322500", "115244.782500", "115245.242500", "115245.702500", "115246.162500", "115246.622500", "115247.082500", "115247.542500", "115248.002500", "115248.462500", "115248.922500", "115249.382500", "115249.842500", "115250.302500", "115250.762500", "115251.222500", "115251.682500", "115252.142500", "115252.602500", "115253.062500", "115253.522500", "115253.982500", "115254.442500", "115254.902500", "115255.362500", "115255.822500", "115256.282500", "115256.742500", "115257.202500", "115257.662500", "115258.122500", "115258.582500", "115259.042500", "115259.502500", "115259.962500", "115300.422500", "115300.882500", "115301.342500", "115301.802500", "115302.262500", "115302.722500", "115303.182500", "115303.642500", "115304.102500", "115304.562500", "115305.022500", "115305.482500", "115305.942500", "115306.402500", "115306.862500", "115307.322500", "115307.782500", "115308.242500", "115308.702500", "115309.162500", "115309.622500", "115310.082500", "115310.542500", "115311.002500", "115311.462500", "115311.922500", "115312.382500", "115312.842500", "115313.302500", "115313.762500", "115314.222500", "115314.682500", "115315.142500", "115315.602500", "115316.062500", "115316.522500", "115316.982500", "115317.442500", "115317.902500", "115318.362500", "115318.822500", "115319.282500", "115319.742500", "115320.202500", "115320.662500", "115321.122500", "115321.582500", "115322.042500", "115322.502500", "115322.962500", "115323.422500", "115323.882500", "115324.342500", "115324.802500", "115325.262500", "115325.722500", "115326.182500", "115326.642500", "115327.102500", "115327.562500", "115328.022500", "115328.482500", "115328.942500", "115329.402500", "115329.862500", "115330.322500", "115330.782500", "115331.242500", "115331.702500", "115332.162500", "115332.622500", "115333.082500", "115333.542500", "115334.002500", "115334.462500", "115334.922500", "115335.382500", "115335.842500", "115336.302500", "115336.762500", "115337.222500", "115337.682500", "115338.142500", "115338.602500", "115339.062500", "115339.522500", "115339.982500", "115340.442500", "115340.902500", "115341.362500", "115341.822500", "115342.282500", "115342.742500", "115343.202500", "115343.662500", "115344.122500", "115344.582500", "115345.042500", "115345.502500", "115345.962500", "115346.422500", "115346.882500", "115347.342500", "115347.802500", "115348.262500", "115348.722500", "115349.182500", "115349.642500", "115350.102500", "115350.562500", "115351.022500", "115351.482500", "115351.942500", "115352.402500", "115352.862500", "115353.322500", "115353.782500", "115354.242500", "115354.702500", "115355.162500", "115355.622500", "115356.082500", "115356.542500", "115357.002500", "115357.462500", "115357.922500", "115358.382500", "115358.842500", "115359.302500", "115359.762500", "115400.222500", "115400.682500", "115401.142500", "115401.602500", "115402.062500", "115402.522500", "115402.982500", "115403.442500", "115403.902500", "115404.362500", "115404.822500", "115405.282500", "115405.742500", "115406.202500", "115406.662500", "115407.122500", "115407.582500", "115408.042500", "115408.502500", "115408.962500", "115409.422500", "115409.882500", "115410.342500", "115410.802500", "115411.262500", "115411.722500", "115412.182500", "115412.642500", "115413.102500", "115413.562500", "115414.022500", "115414.482500", "115414.942500", "115415.402500", "115415.862500", "115416.322500", "115416.782500", "115417.242500", "115417.702500", "115418.162500", "115418.622500", "115419.082500", "115419.542500", "115420.002500", "115420.462500", "115420.922500", "115421.382500", "115421.842500", "115422.302500", "115422.762500", "115423.222500", "115423.682500", "115424.142500", "115424.602500", "115425.062500", "115425.522500", "115425.982500", "115426.442500", "115426.902500", "115427.362500", "115427.822500", "115428.282500", "115428.742500", "115429.202500", "115429.662500", "115430.122500", "115430.582500", "115431.042500", "115431.502500", "115431.962500", "115432.422500", "115432.882500", "115433.342500", "115433.802500", "115434.262500", "115434.722500", "115435.182500", "115435.642500", "115436.102500", "115436.562500", "115437.022500", "115437.482500", "115437.942500", "115438.402500", "115438.862500", "115439.322500", "115439.782500", "115440.242500", "115440.702500", "115441.162500", "115441.622500", "115442.082500", "115442.542500", "115443.002500", "115443.462500", "115443.922500", "115444.382500", "115444.842500", "115445.302500", "115445.762500", "115446.222500", "115446.682500", "115447.142500", "115447.602500", "115448.062500", "115448.522500", "115448.982500", "115449.442500", "115449.902500", "115450.362500", "115450.822500", "115451.282500", "115451.742500", "115452.202500", "115452.662500", "115453.122500", "115453.582500", "115454.042500", "115454.502500", "115454.962500", "115455.422500", "115455.882500", "115456.342500", "115456.802500", "115457.262500", "115457.722500", "115458.182500", "115458.642500", "115459.102500", "115459.562500", "115500.022500", "115500.482500", "115500.942500", "115501.402500", "115501.862500", "115502.322500", "115502.782500", "115503.242500", "115503.702500", "115504.162500", "115504.622500", "115505.082500", "115505.542500", "115506.002500", "115506.462500", "115506.922500", "115507.382500", "115507.842500", "115508.302500", "115508.762500", "115509.222500", "115509.682500", "115510.142500", "115510.602500", "115511.062500", "115511.522500", "115511.982500", "115512.442500", "115512.902500", "115513.362500", "115513.822500", "115514.282500", "115514.742500", "115515.202500", "115515.662500", "115516.122500", "115516.582500", "115517.042500", "115517.502500", "115517.962500", "115518.422500", "115518.882500", "115519.342500", "115519.802500", "115520.262500", "115520.722500", "115521.182500", "115521.642500", "115522.102500", "115522.562500", "115523.022500", "115523.482500", "115523.942500", "115524.402500", "115524.862500", "115525.322500", "115525.782500", "115526.242500", "115526.702500", "115527.162500", "115527.622500", "115528.082500", "115528.542500", "115529.002500", "115529.462500", "115529.922500", "115530.382500", "115530.842500", "115531.302500", "115531.762500", "115532.222500", "115532.682500", "115533.142500", "115533.602500", "115534.062500", "115534.522500", "115534.982500", "115535.442500", "115535.902500", "115536.362500", "115536.822500", "115537.282500", "115537.742500", "115538.202500", "115538.662500", "115539.122500", "115539.582500", "115540.042500", "115540.502500", "115540.962500", "115541.422500", "115541.882500", "115542.342500", "115542.802500", "115543.262500", "115543.722500", "115544.182500", "115544.642500", "115545.102500", "115545.562500", "115546.022500", "115546.482500", "115546.942500", "115547.402500", "115547.862500", "115548.322500", "115548.782500", "115549.242500", "115549.702500", "115550.162500", "115550.622500", "115551.082500", "115551.542500", "115552.002500", "115552.462500", "115552.922500", "115553.382500", "115553.842500", "115554.302500", "115554.762500", "115555.222500", "115555.682500", "115556.142500", "115556.602500", "115557.062500", "115557.522500", "115557.982500", "115558.442500", "115558.902500", "115559.362500", "115559.822500", "115600.282500", "115600.742500", "115601.202500", "115601.662500", "115602.122500", "115602.582500", "115603.042500", "115603.502500", "115603.962500", "115604.422500", "115604.882500", "115605.342500", "115605.802500", "115606.262500", "115606.722500", "115607.182500", "115607.642500", "115608.102500", "115608.562500", "115609.022500", "115609.482500", "115609.942500", "115610.402500", "115610.862500", "115611.322500", "115611.782500", "115612.242500", "115612.702500", "115613.162500", "115613.622500", "115614.082500", "115614.542500", "115615.002500", "115615.462500", "115615.922500", "115616.382500", "115616.842500", "115617.302500", "115617.762500", "115618.222500", "115618.682500", "115619.142500", "115619.602500", "115620.062500", "115620.522500", "115620.982500", "115621.442500", "115621.902500", "115622.362500", "115622.822500", "115623.282500", "115623.742500", "115624.202500", "115624.662500", "115625.122500", "115625.582500", "115626.042500", "115626.502500", "115626.962500", "115627.422500", "115627.882500", "115628.342500", "115628.802500", "115629.262500", "115629.722500", "115630.182500", "115630.642500", "115631.102500", "115631.562500", "115632.022500", "115632.482500", "115632.942500", "115633.402500", "115633.862500", "115634.322500", "115634.782500", "115635.242500", "115635.702500", "115636.162500", "115636.622500", "115637.082500", "115637.542500", "115638.002500", "115638.462500"],
