{
  "AcquisitionMatrixPE": 82,
  "AcquisitionNumber": 1,
  "AcquisitionTime": "21:25:46.255000",
  "BandwidthPerPixelPhaseEncode": 24.888,
  "BaseResolution": 82,
  "BodyPartExamined": "BRAIN",
  "ConsistencyInfo": "N4_VE11E_LATEST_20181129",
  "ConversionSoftware": "dcm2niix",
  "ConversionSoftwareVersion": "v1.0.20201102",
  "DerivedVendorReportedEchoSpacing": 0.00049,
  "DeviceSerialNumber": "66112",
  "DwellTime": 2e-06,
  "EchoTime": 0.0272,
  "EchoTrainLength": 82,
  "EffectiveEchoSpacing": 0.00049,
  "FlipAngle": 44,
  "ImageComments": "Unaliased MB8/PE3",
  "ImageOrientationPatientDICOM": [0.995098, -0.0442965, 0.0884185, 0.0544151, 0.991813, -0.115525],
  "ImageType": [
    "ORIGINAL",
    "PRIMARY",
    "M",
    "MB",
    "ND",
    "NORM",
    "MOSAIC"
],
  "ImagingFrequency": 123.259,
  "InPlanePhaseEncodingDirectionDICOM": "COL",
  "InstitutionAddress": "Maynard 3,Hanover,NH,US,03755",
  "InstitutionName": "Dartmouth College - PBS",
  "InstitutionalDepartmentName": "Department",
  "MRAcquisitionType": "2D",
  "MagneticFieldStrength": 3,
  "Manufacturer": "Siemens",
  "ManufacturersModelName": "Prisma",
  "Modality": "MR",
  "MultibandAccelerationFactor": 8,
  "PartialFourier": 1,
  "PatientPosition": "HFS",
  "PercentPhaseFOV": 100,
  "PercentSampling": 100,
  "PhaseEncodingDirection": "j-",
  "PhaseEncodingSteps": 82,
  "PhaseResolution": 1,
  "PixelBandwidth": 3050,
  "ProcedureStepDescription": "Wager_Wager^1076_spacetop",
  "ProtocolName": "func_run-02_task-social_acq-ap-mb8",
  "PulseSequenceDetails": "%CustomerSeq%\\cmrr_mbep2d_bold",
  "ReceiveCoilActiveElements": "HEA;HEP",
  "ReceiveCoilName": "Head_32",
  "ReconMatrixPE": 82,
  "RepetitionTime": 0.46,
  "SAR": 0.08258,
  "ScanOptions": "FS",
  "ScanningSequence": "EP",
  "SequenceName": "epfid2d1_82",
  "SequenceVariant": "SK\\SS",
  "SeriesDescription": "func_run-02_task-social_acq-ap-mb8",
  "SeriesNumber": 14,
  "ShimSetting": [4255, -7737, -7303, 310, -195, 24, -109, 75],
  "SliceThickness": 2.7,
  "SliceTiming": [0, 0.2525, 0.0625, 0.315, 0.125, 0.3775, 0.19, 0, 0.2525, 0.0625, 0.315, 0.125, 0.3775, 0.19, 0, 0.2525, 0.0625, 0.315, 0.125, 0.3775, 0.19, 0, 0.2525, 0.0625, 0.315, 0.125, 0.3775, 0.19, 0, 0.2525, 0.0625, 0.315, 0.125, 0.3775, 0.19, 0, 0.2525, 0.0625, 0.315, 0.125, 0.3775, 0.19, 0, 0.2525, 0.0625, 0.315, 0.125, 0.3775, 0.19, 0, 0.2525, 0.0625, 0.315, 0.125, 0.3775, 0.19],
  "SoftwareVersions": "syngo MR E11",
  "SpacingBetweenSlices": 2.7,
  "StationName": "AWP66112",
  "TaskName": "social",
  "TotalReadoutTime": 0.03969,
  "TxRefAmp": 240.42,
  "WipMemBlock": "f441005c-6ba0-438e-aca6-9660b2bbdc09||Sequence: R016 ve11e/master r/434b28f1; Aug  7 2019 18:53:46 by eja",
  "dcmmeta_affine": [
    [-2.6697752475738525, 0.1459917575120926, 0.2229585498571396, 97.43636322021484],
    [0.11884413659572601, 2.660961627960205, -0.32337987422943115, -102.14352416992188],
    [0.23722034692764282, 0.3099460005760193, 2.6712758541107178, -124.54203796386719],
    [0.0, 0.0, 0.0, 1.0]
],
  "dcmmeta_reorient_transform": [
    [0.0, -1.0, 0.0, 81.0],
    [1.0, 0.0, 0.0, 0.0],
    [0.0, 0.0, 1.0, 0.0],
    [0.0, 0.0, 0.0, 1.0]
],
  "dcmmeta_shape": [82, 82, 56, 872],
  "dcmmeta_slice_dim": 2,
  "dcmmeta_version": 0.6,
  "global": {
    "const": {
      "AccessionNumber": "A004819",
      "AcquisitionMatrix": [82, 0, 0, 82],
      "AngioFlag": "N",
      "BitsAllocated": 16,
      "BitsStored": 16,
      "BodyPartExamined": "BRAIN",
      "Columns": 656,
      "EchoNumbers": 1,
      "EchoTime": 27.2,
      "EchoTrainLength": 82,
      "FlipAngle": 44.0,
      "HighBit": 15,
      "ImageOrientationPatient": [0.99509798255521, -0.044296449747, 0.08841849158614, 0.0544151109529, 0.99181293292024, -0.1155253296561],
      "ImagePositionPatient": [-917.38679374985, -842.98207039071, -78.56414141461],
      "ImageType": [
        "ORIGINAL",
        "PRIMARY",
        "M",
        "MB",
        "ND",
        "NORM",
        "MOSAIC"
],
      "ImagedNucleus": "1H",
      "ImagingFrequency": 123.259129,
      "InPlanePhaseEncodingDirection": "COL",
      "MRAcquisitionType": "2D",
      "MagneticFieldStrength": 3.0,
      "Manufacturer": "SIEMENS",
      "ManufacturerModelName": "Prisma",
      "Modality": "MR",
      "NumberOfAverages": 1.0,
      "NumberOfPhaseEncodingSteps": 82,
      "PercentPhaseFieldOfView": 100.0,
      "PercentSampling": 100.0,
      "PerformedProcedureStepStartTime": "204905.529000",
      "PhotometricInterpretation": "MONOCHROME2",
      "PixelBandwidth": 3050.0,
      "PixelRepresentation": 0,
      "PixelSpacing": [2.6829268932343, 2.6829268932343],
      "ProtocolName": "func_run-02_task-social_acq-ap-mb8",
      "RepetitionTime": 460.0,
      "Rows": 656,
      "SAR": 0.08258000417462,
      "SamplesPerPixel": 1,
      "ScanOptions": "FS",
      "ScanningSequence": "EP",
      "SequenceName": "epfid2d1_82",
      "SequenceVariant": [
        "SK",
        "SS"
],
      "SeriesDescription": "func_run-02_task-social_acq-ap-mb8",
      "SeriesNumber": 14,
      "SeriesTime": "212602.759000",
      "SliceLocation": -102.93729776482,
      "SliceThickness": 2.7000000476837,
      "SmallestImagePixelValue": 0,
      "SoftwareVersions": "syngo MR E11",
      "SpacingBetweenSlices": 2.7000000523239,
      "SpecificCharacterSet": "ISO_IR 100",
      "StudyID": "1",
      "StudyTime": "204905.478000",
      "TransmitCoilName": "Body",
      "VariableFlipAngleFlag": "N",
      "WindowCenterWidthExplanation": "Algo1"
    },
    "slices": {}
  },
  "time": {
    "samples": {
      "AcquisitionNumber": [1, 2, 3, 4, 5, 6, 7, 8, 9, 10, 11, 12, 13, 14, 15, 16, 17, 18, 19, 20, 21, 22, 23, 24, 25, 26, 27, 28, 29, 30, 31, 32, 33, 34, 35, 36, 37, 38, 39, 40, 41, 42, 43, 44, 45, 46, 47, 48, 49, 50, 51, 52, 53, 54, 55, 56, 57, 58, 59, 60, 61, 62, 63, 64, 65, 66, 67, 68, 69, 70, 71, 72, 73, 74, 75, 76, 77, 78, 79, 80, 81, 82, 83, 84, 85, 86, 87, 88, 89, 90, 91, 92, 93, 94, 95, 96, 97, 98, 99, 100, 101, 102, 103, 104, 105, 106, 107, 108, 109, 110, 111, 112, 113, 114, 115, 116, 117, 118, 119, 120, 121, 122, 123, 124, 125, 126, 127, 128, 129, 130, 131, 132, 133, 134, 135, 136, 137, 138, 139, 140, 141, 142, 143, 144, 145, 146, 147, 148, 149, 150, 151, 152, 153, 154, 155, 156, 157, 158, 159, 160, 161, 162, 163, 164, 165, 166, 167, 168, 169, 170, 171, 172, 173, 174, 175, 176, 177, 178, 179, 180, 181, 182, 183, 184, 185, 186, 187, 188, 189, 190, 191, 192, 193, 194, 195, 196, 197, 198, 199, 200, 201, 202, 203, 204, 205, 206, 207, 208, 209, 210, 211, 212, 213, 214, 215, 216, 217, 218, 219, 220, 221, 222, 223, 224, 225, 226, 227, 228, 229, 230, 231, 232, 233, 234, 235, 236, 237, 238, 239, 240, 241, 242, 243, 244, 245, 246, 247, 248, 249, 250, 251, 252, 253, 254, 255, 256, 257, 258, 259, 260, 261, 262, 263, 264, 265, 266, 267, 268, 269, 270, 271, 272, 273, 274, 275, 276, 277, 278, 279, 280, 281, 282, 283, 284, 285, 286, 287, 288, 289, 290, 291, 292, 293, 294, 295, 296, 297, 298, 299, 300, 301, 302, 303, 304, 305, 306, 307, 308, 309, 310, 311, 312, 313, 314, 315, 316, 317, 318, 319, 320, 321, 322, 323, 324, 325, 326, 327, 328, 329, 330, 331, 332, 333, 334, 335, 336, 337, 338, 339, 340, 341, 342, 343, 344, 345, 346, 347, 348, 349, 350, 351, 352, 353, 354, 355, 356, 357, 358, 359, 360, 361, 362, 363, 364, 365, 366, 367, 368, 369, 370, 371, 372, 373, 374, 375, 376, 377, 378, 379, 380, 381, 382, 383, 384, 385, 386, 387, 388, 389, 390, 391, 392, 393, 394, 395, 396, 397, 398, 399, 400, 401, 402, 403, 404, 405, 406, 407, 408, 409, 410, 411, 412, 413, 414, 415, 416, 417, 418, 419, 420, 421, 422, 423, 424, 425, 426, 427, 428, 429, 430, 431, 432, 433, 434, 435, 436, 437, 438, 439, 440, 441, 442, 443, 444, 445, 446, 447, 448, 449, 450, 451, 452, 453, 454, 455, 456, 457, 458, 459, 460, 461, 462, 463, 464, 465, 466, 467, 468, 469, 470, 471, 472, 473, 474, 475, 476, 477, 478, 479, 480, 481, 482, 483, 484, 485, 486, 487, 488, 489, 490, 491, 492, 493, 494, 495, 496, 497, 498, 499, 500, 501, 502, 503, 504, 505, 506, 507, 508, 509, 510, 511, 512, 513, 514, 515, 516, 517, 518, 519, 520, 521, 522, 523, 524, 525, 526, 527, 528, 529, 530, 531, 532, 533, 534, 535, 536, 537, 538, 539, 540, 541, 542, 543, 544, 545, 546, 547, 548, 549, 550, 551, 552, 553, 554, 555, 556, 557, 558, 559, 560, 561, 562, 563, 564, 565, 566, 567, 568, 569, 570, 571, 572, 573, 574, 575, 576, 577, 578, 579, 580, 581, 582, 583, 584, 585, 586, 587, 588, 589, 590, 591, 592, 593, 594, 595, 596, 597, 598, 599, 600, 601, 602, 603, 604, 605, 606, 607, 608, 609, 610, 611, 612, 613, 614, 615, 616, 617, 618, 619, 620, 621, 622, 623, 624, 625, 626, 627, 628, 629, 630, 631, 632, 633, 634, 635, 636, 637, 638, 639, 640, 641, 642, 643, 644, 645, 646, 647, 648, 649, 650, 651, 652, 653, 654, 655, 656, 657, 658, 659, 660, 661, 662, 663, 664, 665, 666, 667, 668, 669, 670, 671, 672, 673, 674, 675, 676, 677, 678, 679, 680, 681, 682, 683, 684, 685, 686, 687, 688, 689, 690, 691, 692, 693, 694, 695, 696, 697, 698, 699, 700, 701, 702, 703, 704, 705, 706, 707, 708, 709, 710, 711, 712, 713, 714, 715, 716, 717, 718, 719, 720, 721, 722, 723, 724, 725, 726, 727, 728, 729, 730, 731, 732, 733, 734, 735, 736, 737, 738, 739, 740, 741, 742, 743, 744, 745, 746, 747, 748, 749, 750, 751, 752, 753, 754, 755, 756, 757, 758, 759, 760, 761, 762, 763, 764, 765, 766, 767, 768, 769, 770, 771, 772, 773, 774, 775, 776, 777, 778, 779, 780, 781, 782, 783, 784, 785, 786, 787, 788, 789, 790, 791, 792, 793, 794, 795, 796, 797, 798, 799, 800, 801, 802, 803, 804, 805, 806, 807, 808, 809, 810, 811, 812, 813, 814, 815, 816, 817, 818, 819, 820, 821, 822, 823, 824, 825, 826, 827, 828, 829, 830, 831, 832, 833, 834, 835, 836, 837, 838, 839, 840, 841, 842, 843, 844, 845, 846, 847, 848, 849, 850, 851, 852, 853, 854, 855, 856, 857, 858, 859, 860, 861, 862, 863, 864, 865, 866, 867, 868, 869, 870, 871, 872],
      "AcquisitionTime": ["212546.255000", "212546.715000", "212547.175000", "212547.635000", "212548.095000", "212548.555000", "212549.015000", "212549.475000", "212549.935000", "212550.395000", "212550.855000", "212551.315000", "212551.775000", "212552.235000", "212552.695000", "212553.155000", "212553.615000", "212554.075000", "212554.535000", "212554.995000", "212555.455000", "212555.915000", "212556.375000", "212556.835000", "212557.295000", "212557.755000", "212558.215000", "212558.675000", "212559.135000", "212559.595000", "212600.055000", "212600.515000", "212600.975000", "212601.435000", "212601.895000", "212602.355000", "212602.815000", "212603.275000", "212603.735000", "212604.195000", "212604.655000", "212605.115000", "212605.575000", "212606.035000", "212606.495000", "212606.955000", "212607.415000", "212607.875000", "212608.335000", "212608.795000", "212609.255000", "212609.715000", "212610.175000", "212610.635000", "212611.095000", "212611.555000", "212612.015000", "212612.475000", "212612.935000", "212613.395000", "212613.855000", "212614.315000", "212614.775000", "212615.235000", "212615.695000", "212616.155000", "212616.615000", "212617.075000", "212617.535000", "212617.995000", "212618.455000", "212618.915000", "212619.375000", "212619.835000", "212620.295000", "212620.755000", "212621.215000", "212621.675000", "212622.135000", "212622.595000", "212623.055000", "212623.515000", "212623.975000", "212624.435000", "212624.895000", "212625.355000", "212625.815000", "212626.275000", "212626.735000", "212627.195000", "212627.655000", "212628.115000", "212628.575000", "212629.035000", "212629.495000", "212629.955000", "212630.415000", "212630.875000", "212631.335000", "212631.795000", "212632.255000", "212632.715000", "212633.175000", "212633.635000", "212634.095000", "212634.555000", "212635.015000", "212635.475000", "212635.935000", "212636.395000", "212636.855000", "212637.315000", "212637.775000", "212638.235000", "212638.695000", "212639.155000", "212639.615000", "212640.075000", "212640.535000", "212640.995000", "212641.455000", "212641.915000", "212642.375000", "212642.835000", "212643.295000", "212643.755000", "212644.215000", "212644.675000", "212645.135000", "212645.595000", "212646.055000", "212646.515000", "212646.975000", "212647.435000", "212647.895000", "212648.355000", "212648.815000", "212649.275000", "212649.735000", "212650.195000", "212650.655000", "212651.115000", "212651.575000", "212652.035000", "212652.495000", "212652.955000", "212653.415000", "212653.875000", "212654.335000", "212654.795000", "212655.255000", "212655.715000", "212656.175000", "212656.635000", "212657.095000", "212657.555000", "212658.015000", "212658.475000", "212658.935000", "212659.395000", "212659.855000", "212700.315000", "212700.775000", "212701.235000", "212701.695000", "212702.155000", "212702.615000", "212703.075000", "212703.535000", "212703.995000", "212704.455000", "212704.915000", "212705.375000", "212705.835000", "212706.295000", "212706.755000", "212707.215000", "212707.675000", "212708.135000", "212708.595000", "212709.055000", "212709.515000", "212709.975000", "212710.435000", "212710.895000", "212711.355000", "212711.815000", "212712.275000", "212712.735000", "212713.195000", "212713.655000", "212714.115000", "212714.575000", "212715.035000", "212715.495000", "212715.955000", "212716.415000", "212716.875000", "212717.335000", "212717.795000", "212718.255000", "212718.715000", "212719.175000", "212719.635000", "212720.095000", "212720.555000", "212721.015000", "212721.475000", "212721.935000", "212722.395000", "212722.855000", "212723.315000", "212723.775000", "212724.235000", "212724.695000", "212725.155000", "212725.615000", "212726.075000", "212726.535000", "212726.995000", "212727.455000", "212727.915000", "212728.375000", "212728.835000", "212729.295000", "212729.755000", "212730.215000", "212730.675000", "212731.135000", "212731.595000", "212732.055000", "212732.515000", "212732.975000", "212733.435000", "212733.895000", "212734.355000", "212734.815000", "212735.275000", "212735.735000", "212736.195000", "212736.655000", "212737.115000", "212737.575000", "212738.035000", "212738.495000", "212738.955000", "212739.415000", "212739.875000", "212740.335000", "212740.795000", "212741.255000", "212741.715000", "212742.175000", "212742.635000", "212743.095000", "212743.555000", "212744.015000", "212744.475000", "212744.935000", "212745.395000", "212745.855000", "212746.315000", "212746.775000", "212747.235000", "212747.695000", "212748.155000", "212748.615000", "212749.075000", "212749.535000", "212749.995000", "212750.455000", "212750.915000", "212751.375000", "212751.835000", "212752.295000", "212752.755000", "212753.215000", "212753.675000", "212754.135000", "212754.595000", "212755.055000", "212755.515000", "212755.975000", "212756.435000", "212756.895000", "212757.355000", "212757.815000", "212758.275000", "212758.735000", "212759.195000", "212759.655000", "212800.115000", "212800.575000", "212801.035000", "212801.495000", "212801.955000", "212802.415000", "212802.875000", "212803.335000", "212803.795000", "212804.255000", "212804.715000", "212805.175000", "212805.635000", "212806.095000", "212806.555000", "212807.015000", "212807.475000", "212807.935000", "212808.395000", "212808.855000", "212809.315000", "212809.775000", "212810.235000", "212810.695000", "212811.155000", "212811.615000", "212812.075000", "212812.535000", "212812.995000", "212813.455000", "212813.915000", "212814.375000", "212814.835000", "212815.295000", "212815.755000", "212816.215000", "212816.675000", "212817.135000", "212817.595000", "212818.055000", "212818.515000", "212818.975000", "212819.435000", "212819.895000", "212820.355000", "212820.815000", "212821.275000", "212821.735000", "212822.195000", "212822.655000", "212823.115000", "212823.575000", "212824.035000", "212824.495000", "212824.955000", "212825.415000", "212825.875000", "212826.335000", "212826.795000", "212827.255000", "212827.715000", "212828.175000", "212828.635000", "212829.095000", "212829.555000", "212830.015000", "212830.475000", "212830.935000", "212831.395000", "212831.855000", "212832.315000", "212832.775000", "212833.235000", "212833.695000", "212834.155000", "212834.615000", "212835.075000", "212835.535000", "212835.995000", "212836.455000", "212836.915000", "212837.375000", "212837.835000", "212838.295000", "212838.755000", "212839.215000", "212839.675000", "212840.135000", "212840.595000", "212841.055000", "212841.515000", "212841.975000", "212842.435000", "212842.895000", "212843.355000", "212843.815000", "212844.275000", "212844.735000", "212845.195000", "212845.655000", "212846.115000", "212846.575000", "212847.035000", "212847.495000", "212847.955000", "212848.415000", "212848.875000", "212849.335000", "212849.795000", "212850.255000", "212850.715000", "212851.175000", "212851.635000", "212852.095000", "212852.555000", "212853.015000", "212853.475000", "212853.935000", "212854.395000", "212854.855000", "212855.315000", "212855.775000", "212856.235000", "212856.695000", "212857.155000", "212857.615000", "212858.075000", "212858.535000", "212858.995000", "212859.455000", "212859.915000", "212900.375000", "212900.835000", "212901.295000", "212901.755000", "212902.215000", "212902.675000", "212903.135000", "212903.595000", "212904.055000", "212904.515000", "212904.975000", "212905.435000", "212905.895000", "212906.355000", "212906.815000", "212907.275000", "212907.735000", "212908.195000", "212908.655000", "212909.115000", "212909.575000", "212910.035000", "212910.495000", "212910.955000", "212911.415000", "212911.875000", "212912.335000", "212912.795000", "212913.255000", "212913.715000", "212914.175000", "212914.635000", "212915.095000", "212915.555000", "212916.015000", "212916.475000", "212916.935000", "212917.395000", "212917.855000", "212918.315000", "212918.775000", "212919.235000", "212919.695000", "212920.155000", "212920.615000", "212921.075000", "212921.535000", "212921.995000", "212922.455000", "212922.915000", "212923.375000", "212923.835000", "212924.295000", "212924.755000", "212925.215000", "212925.675000", "212926.135000", "212926.595000", "212927.055000", "212927.515000", "212927.975000", "212928.435000", "212928.895000", "212929.355000", "212929.815000", "212930.275000", "212930.735000", "212931.195000", "212931.655000", "212932.115000", "212932.575000", "212933.035000", "212933.495000", "212933.955000", "212934.415000", "212934.875000", "212935.335000", "212935.795000", "212936.255000", "212936.715000", "212937.175000", "212937.635000", "212938.095000", "212938.555000", "212939.015000", "212939.475000", "212939.935000", "212940.395000", "212940.855000", "212941.315000", "212941.775000", "212942.235000", "212942.695000", "212943.155000", "212943.615000", "212944.075000", "212944.535000", "212944.995000", "212945.455000", "212945.915000", "212946.375000", "212946.835000", "212947.295000", "212947.755000", "212948.215000", "212948.675000", "212949.135000", "212949.595000", "212950.055000", "212950.515000", "212950.975000", "212951.435000", "212951.895000", "212952.355000", "212952.815000", "212953.275000", "212953.735000", "212954.195000", "212954.655000", "212955.115000", "212955.575000", "212956.035000", "212956.495000", "212956.955000", "212957.415000", "212957.875000", "212958.335000", "212958.795000", "212959.255000", "212959.715000", "213000.175000", "213000.635000", "213001.095000", "213001.555000", "213002.015000", "213002.475000", "213002.935000", "213003.395000", "213003.855000", "213004.315000", "213004.775000", "213005.235000", "213005.695000", "213006.155000", "213006.615000", "213007.075000", "213007.535000", "213007.995000", "213008.455000", "213008.915000", "213009.375000", "213009.835000", "213010.295000", "213010.755000", "213011.215000", "213011.675000", "213012.135000", "213012.595000", "213013.055000", "213013.515000", "213013.975000", "213014.435000", "213014.895000", "213015.355000", "213015.815000", "213016.275000", "213016.735000", "213017.195000", "213017.655000", "213018.115000", "213018.575000", "213019.035000", "213019.495000", "213019.955000", "213020.415000", "213020.875000", "213021.335000", "213021.795000", "213022.255000", "213022.715000", "213023.175000", "213023.635000", "213024.095000", "213024.555000", "213025.015000", "213025.475000", "213025.935000", "213026.395000", "213026.855000", "213027.315000", "213027.775000", "213028.235000", "213028.695000", "213029.155000", "213029.615000", "213030.075000", "213030.535000", "213030.995000", "213031.455000", "213031.915000", "213032.375000", "213032.835000", "213033.295000", "213033.755000", "213034.215000", "213034.675000", "213035.135000", "213035.595000", "213036.055000", "213036.515000", "213036.975000", "213037.435000", "213037.895000", "213038.355000", "213038.815000", "213039.275000", "213039.735000", "213040.195000", "213040.655000", "213041.115000", "213041.575000", "213042.035000", "213042.495000", "213042.955000", "213043.415000", "213043.875000", "213044.335000", "213044.795000", "213045.255000", "213045.715000", "213046.175000", "213046.635000", "213047.095000", "213047.555000", "213048.015000", "213048.475000", "213048.935000", "213049.395000", "213049.855000", "213050.315000", "213050.775000", "213051.235000", "213051.695000", "213052.155000", "213052.615000", "213053.075000", "213053.535000", "213053.995000", "213054.455000", "213054.915000", "213055.375000", "213055.835000", "213056.295000", "213056.755000", "213057.215000", "213057.675000", "213058.135000", "213058.595000", "213059.055000", "213059.515000", "213059.975000", "213100.435000", "213100.895000", "213101.355000", "213101.815000", "213102.275000", "213102.735000", "213103.195000", "213103.655000", "213104.115000", "213104.575000", "213105.035000", "213105.495000", "213105.955000", "213106.415000", "213106.875000", "213107.335000", "213107.795000", "213108.255000", "213108.715000", "213109.175000", "213109.635000", "213110.095000", "213110.555000", "213111.015000", "213111.475000", "213111.935000", "213112.395000", "213112.855000", "213113.315000", "213113.775000", "213114.235000", "213114.695000", "213115.155000", "213115.615000", "213116.075000", "213116.535000", "213116.995000", "213117.455000", "213117.915000", "213118.375000", "213118.835000", "213119.295000", "213119.755000", "213120.215000", "213120.675000", "213121.135000", "213121.595000", "213122.055000", "213122.515000", "213122.975000", "213123.435000", "213123.895000", "213124.355000", "213124.815000", "213125.275000", "213125.735000", "213126.195000", "213126.655000", "213127.115000", "213127.575000", "213128.035000", "213128.495000", "213128.955000", "213129.415000", "213129.875000", "213130.335000", "213130.795000", "213131.255000", "213131.715000", "213132.175000", "213132.635000", "213133.095000", "213133.555000", "213134.015000", "213134.475000", "213134.935000", "213135.395000", "213135.855000", "213136.315000", "213136.775000", "213137.235000", "213137.695000", "213138.155000", "213138.615000", "213139.075000", "213139.535000", "213139.995000", "213140.455000", "213140.915000", "213141.375000", "213141.835000", "213142.295000", "213142.755000", "213143.215000", "213143.675000", "213144.135000", "213144.595000", "213145.055000", "213145.515000", "213145.975000", "213146.435000", "213146.895000", "213147.355000", "213147.815000", "213148.275000", "213148.735000", "213149.195000", "213149.655000", "213150.115000", "213150.575000", "213151.035000", "213151.495000", "213151.955000", "213152.415000", "213152.875000", "213153.335000", "213153.795000", "213154.255000", "213154.715000", "213155.175000", "213155.635000", "213156.095000", "213156.555000", "213157.015000", "213157.475000", "213157.935000", "213158.395000", "213158.855000", "213159.315000", "213159.775000", "213200.235000", "213200.695000", "213201.155000", "213201.615000", "213202.075000", "213202.535000", "213202.995000", "213203.455000", "213203.915000", "213204.375000", "213204.835000", "213205.295000", "213205.755000", "213206.215000", "213206.675000", "213207.135000", "213207.595000", "213208.055000", "213208.515000", "213208.975000", "213209.435000", "213209.895000", "213210.355000", "213210.815000", "213211.275000", "213211.735000", "213212.195000", "213212.655000", "213213.115000", "213213.575000", "213214.035000", "213214.495000", "213214.955000", "213215.415000", "213215.875000", "213216.335000", "213216.795000", "213217.255000", "213217.715000", "213218.175000", "213218.635000", "213219.095000", "213219.555000", "213220.015000", "213220.475000", "213220.935000", "213221.395000", "213221.855000", "213222.315000", "213222.775000", "213223.235000", "213223.695000", "213224.155000", "213224.615000", "213225.075000", "213225.535000", "213225.995000", "213226.455000", "213226.915000"],
