{
  "AcquisitionMatrixPE": 82,
  "AcquisitionNumber": 1,
  "AcquisitionTime": "22:07:19.822500",
  "BandwidthPerPixelPhaseEncode": 24.888,
  "BaseResolution": 82,
  "BodyPartExamined": "BRAIN",
  "ConsistencyInfo": "N4_VE11E_LATEST_20181129",
  "ConversionSoftware": "dcm2niix",
  "ConversionSoftwareVersion": "v1.0.20201102",
  "DerivedVendorReportedEchoSpacing": 0.00049,
  "DeviceSerialNumber": "66112",
  "DwellTime": 2e-06,
  "EchoTime": 0.0272,
  "EchoTrainLength": 82,
  "EffectiveEchoSpacing": 0.00049,
  "FlipAngle": 44,
  "ImageComments": "Unaliased MB8/PE3",
  "ImageOrientationPatientDICOM": [0.994872, -0.0555083, 0.0845477, 0.065033, 0.991301, -0.114422],
  "ImageType": [
    "ORIGINAL",
    "PRIMARY",
    "M",
    "MB",
    "ND",
    "NORM",
    "MOSAIC"
],
  "ImagingFrequency": 123.259,
  "InPlanePhaseEncodingDirectionDICOM": "COL",
  "InstitutionAddress": "Maynard 3,Hanover,NH,US,03755",
  "InstitutionName": "Dartmouth College - PBS",
  "InstitutionalDepartmentName": "Department",
  "MRAcquisitionType": "2D",
  "MagneticFieldStrength": 3,
  "Manufacturer": "Siemens",
  "ManufacturersModelName": "Prisma",
  "Modality": "MR",
  "MultibandAccelerationFactor": 8,
  "PartialFourier": 1,
  "PatientPosition": "HFS",
  "PercentPhaseFOV": 100,
  "PercentSampling": 100,
  "PhaseEncodingDirection": "j-",
  "PhaseEncodingSteps": 82,
  "PhaseResolution": 1,
  "PixelBandwidth": 3050,
  "ProcedureStepDescription": "Wager_Wager^1076_spacetop",
  "ProtocolName": "func_run-01_task-alignvideo_acq-ap-mb8",
  "PulseSequenceDetails": "%CustomerSeq%\\cmrr_mbep2d_bold",
  "ReceiveCoilActiveElements": "HEA;HEP",
  "ReceiveCoilName": "Head_32",
  "ReconMatrixPE": 82,
  "RepetitionTime": 0.46,
  "SAR": 0.0826763,
  "ScanOptions": "FS",
  "ScanningSequence": "EP",
  "SequenceName": "epfid2d1_82",
  "SequenceVariant": "SK\\SS",
  "SeriesDescription": "func_run-01_task-alignvideo_acq-ap-mb8",
  "SeriesNumber": 30,
  "ShimSetting": [4255, -7737, -7303, 310, -195, 24, -109, 74],
  "SliceThickness": 2.7,
  "SliceTiming": [0, 0.2525, 0.0625, 0.315, 0.125, 0.3775, 0.1875, 0, 0.2525, 0.0625, 0.315, 0.125, 0.3775, 0.1875, 0, 0.2525, 0.0625, 0.315, 0.125, 0.3775, 0.1875, 0, 0.2525, 0.0625, 0.315, 0.125, 0.3775, 0.1875, 0, 0.2525, 0.0625, 0.315, 0.125, 0.3775, 0.1875, 0, 0.2525, 0.0625, 0.315, 0.125, 0.3775, 0.1875, 0, 0.2525, 0.0625, 0.315, 0.125, 0.3775, 0.1875, 0, 0.2525, 0.0625, 0.315, 0.125, 0.3775, 0.1875],
  "SoftwareVersions": "syngo MR E11",
  "SpacingBetweenSlices": 2.7,
  "StationName": "AWP66112",
  "TaskName": "alignvideo",
  "TotalReadoutTime": 0.03969,
  "TxRefAmp": 240.42,
  "WipMemBlock": "56cb4e26-75c3-4eb1-b376-b0c0f88fe224||Sequence: R016 ve11e/master r/434b28f1; Aug  7 2019 18:53:46 by eja",
  "dcmmeta_affine": [
    [-2.6691691875457764, 0.17447873950004578, 0.20914435386657715, 96.29121398925781],
    [0.1489245891571045, 2.6595890522003174, -0.3222001791000366, -103.9493637084961],
    [0.226835235953331, 0.30698519945144653, 2.6725354194641113, -123.89370727539062],
    [0.0, 0.0, 0.0, 1.0]
],
  "dcmmeta_reorient_transform": [
    [0.0, -1.0, 0.0, 81.0],
    [1.0, 0.0, 0.0, 0.0],
    [0.0, 0.0, 1.0, 0.0],
    [0.0, 0.0, 0.0, 1.0]
],
  "dcmmeta_shape": [82, 82, 56, 1073],
  "dcmmeta_slice_dim": 2,
  "dcmmeta_version": 0.6,
  "global": {
    "const": {
      "AccessionNumber": "A004819",
      "AcquisitionMatrix": [82, 0, 0, 82],
      "AngioFlag": "N",
      "BitsAllocated": 16,
      "BitsStored": 16,
      "BodyPartExamined": "BRAIN",
      "Columns": 656,
      "EchoNumbers": 1,
      "EchoTime": 27.2,
      "EchoTrainLength": 82,
      "FlipAngle": 44.0,
      "HighBit": 15,
      "ImageOrientationPatient": [0.994872114732, -0.0555082527604, 0.08454767415002, 0.06503298116762, 0.99130135321614, -0.1144217569884],
      "ImagePositionPatient": [-926.55093112505, -832.03805480817, -76.024862871963],
      "ImageType": [
        "ORIGINAL",
        "PRIMARY",
        "M",
        "MB",
        "ND",
        "NORM",
        "MOSAIC"
],
      "ImagedNucleus": "1H",
      "ImagingFrequency": 123.259135,
      "InPlanePhaseEncodingDirection": "COL",
      "MRAcquisitionType": "2D",
      "MagneticFieldStrength": 3.0,
      "Manufacturer": "SIEMENS",
      "ManufacturerModelName": "Prisma",
      "Modality": "MR",
      "NumberOfAverages": 1.0,
      "NumberOfPhaseEncodingSteps": 82,
      "PercentPhaseFieldOfView": 100.0,
      "PercentSampling": 100.0,
      "PerformedProcedureStepStartTime": "204905.529000",
      "PhotometricInterpretation": "MONOCHROME2",
      "PixelBandwidth": 3050.0,
      "PixelRepresentation": 0,
      "PixelSpacing": [2.6829268932343, 2.6829268932343],
      "ProtocolName": "func_run-01_task-alignvideo_acq-ap-mb8",
      "RepetitionTime": 460.0,
      "Rows": 656,
      "SAR": 0.08267631069828,
      "SamplesPerPixel": 1,
      "ScanOptions": "FS",
      "ScanningSequence": "EP",
      "SequenceName": "epfid2d1_82",
      "SequenceVariant": [
        "SK",
        "SS"
],
      "SeriesDescription": "func_run-01_task-alignvideo_acq-ap-mb8",
      "SeriesNumber": 30,
      "SeriesTime": "220742.746000",
      "SliceLocation": -102.77002260958,
      "SliceThickness": 2.7000000476837,
      "SmallestImagePixelValue": 0,
      "SoftwareVersions": "syngo MR E11",
      "SpacingBetweenSlices": 2.6999999196438,
      "SpecificCharacterSet": "ISO_IR 100",
      "StudyID": "1",
      "StudyTime": "204905.478000",
      "TransmitCoilName": "Body",
      "VariableFlipAngleFlag": "N",
      "WindowCenterWidthExplanation": "Algo1"
    },
    "slices": {}
  },
  "time": {
    "samples": {
      "AcquisitionNumber": [1, 2, 3, 4, 5, 6, 7, 8, 9, 10, 11, 12, 13, 14, 15, 16, 17, 18, 19, 20, 21, 22, 23, 24, 25, 26, 27, 28, 29, 30, 31, 32, 33, 34, 35, 36, 37, 38, 39, 40, 41, 42, 43, 44, 45, 46, 47, 48, 49, 50, 51, 52, 53, 54, 55, 56, 57, 58, 59, 60, 61, 62, 63, 64, 65, 66, 67, 68, 69, 70, 71, 72, 73, 74, 75, 76, 77, 78, 79, 80, 81, 82, 83, 84, 85, 86, 87, 88, 89, 90, 91, 92, 93, 94, 95, 96, 97, 98, 99, 100, 101, 102, 103, 104, 105, 106, 107, 108, 109, 110, 111, 112, 113, 114, 115, 116, 117, 118, 119, 120, 121, 122, 123, 124, 125, 126, 127, 128, 129, 130, 131, 132, 133, 134, 135, 136, 137, 138, 139, 140, 141, 142, 143, 144, 145, 146, 147, 148, 149, 150, 151, 152, 153, 154, 155, 156, 157, 158, 159, 160, 161, 162, 163, 164, 165, 166, 167, 168, 169, 170, 171, 172, 173, 174, 175, 176, 177, 178, 179, 180, 181, 182, 183, 184, 185, 186, 187, 188, 189, 190, 191, 192, 193, 194, 195, 196, 197, 198, 199, 200, 201, 202, 203, 204, 205, 206, 207, 208, 209, 210, 211, 212, 213, 214, 215, 216, 217, 218, 219, 220, 221, 222, 223, 224, 225, 226, 227, 228, 229, 230, 231, 232, 233, 234, 235, 236, 237, 238, 239, 240, 241, 242, 243, 244, 245, 246, 247, 248, 249, 250, 251, 252, 253, 254, 255, 256, 257, 258, 259, 260, 261, 262, 263, 264, 265, 266, 267, 268, 269, 270, 271, 272, 273, 274, 275, 276, 277, 278, 279, 280, 281, 282, 283, 284, 285, 286, 287, 288, 289, 290, 291, 292, 293, 294, 295, 296, 297, 298, 299, 300, 301, 302, 303, 304, 305, 306, 307, 308, 309, 310, 311, 312, 313, 314, 315, 316, 317, 318, 319, 320, 321, 322, 323, 324, 325, 326, 327, 328, 329, 330, 331, 332, 333, 334, 335, 336, 337, 338, 339, 340, 341, 342, 343, 344, 345, 346, 347, 348, 349, 350, 351, 352, 353, 354, 355, 356, 357, 358, 359, 360, 361, 362, 363, 364, 365, 366, 367, 368, 369, 370, 371, 372, 373, 374, 375, 376, 377, 378, 379, 380, 381, 382, 383, 384, 385, 386, 387, 388, 389, 390, 391, 392, 393, 394, 395, 396, 397, 398, 399, 400, 401, 402, 403, 404, 405, 406, 407, 408, 409, 410, 411, 412, 413, 414, 415, 416, 417, 418, 419, 420, 421, 422, 423, 424, 425, 426, 427, 428, 429, 430, 431, 432, 433, 434, 435, 436, 437, 438, 439, 440, 441, 442, 443, 444, 445, 446, 447, 448, 449, 450, 451, 452, 453, 454, 455, 456, 457, 458, 459, 460, 461, 462, 463, 464, 465, 466, 467, 468, 469, 470, 471, 472, 473, 474, 475, 476, 477, 478, 479, 480, 481, 482, 483, 484, 485, 486, 487, 488, 489, 490, 491, 492, 493, 494, 495, 496, 497, 498, 499, 500, 501, 502, 503, 504, 505, 506, 507, 508, 509, 510, 511, 512, 513, 514, 515, 516, 517, 518, 519, 520, 521, 522, 523, 524, 525, 526, 527, 528, 529, 530, 531, 532, 533, 534, 535, 536, 537, 538, 539, 540, 541, 542, 543, 544, 545, 546, 547, 548, 549, 550, 551, 552, 553, 554, 555, 556, 557, 558, 559, 560, 561, 562, 563, 564, 565, 566, 567, 568, 569, 570, 571, 572, 573, 574, 575, 576, 577, 578, 579, 580, 581, 582, 583, 584, 585, 586, 587, 588, 589, 590, 591, 592, 593, 594, 595, 596, 597, 598, 599, 600, 601, 602, 603, 604, 605, 606, 607, 608, 609, 610, 611, 612, 613, 614, 615, 616, 617, 618, 619, 620, 621, 622, 623, 624, 625, 626, 627, 628, 629, 630, 631, 632, 633, 634, 635, 636, 637, 638, 639, 640, 641, 642, 643, 644, 645, 646, 647, 648, 649, 650, 651, 652, 653, 654, 655, 656, 657, 658, 659, 660, 661, 662, 663, 664, 665, 666, 667, 668, 669, 670, 671, 672, 673, 674, 675, 676, 677, 678, 679, 680, 681, 682, 683, 684, 685, 686, 687, 688, 689, 690, 691, 692, 693, 694, 695, 696, 697, 698, 699, 700, 701, 702, 703, 704, 705, 706, 707, 708, 709, 710, 711, 712, 713, 714, 715, 716, 717, 718, 719, 720, 721, 722, 723, 724, 725, 726, 727, 728, 729, 730, 731, 732, 733, 734, 735, 736, 737, 738, 739, 740, 741, 742, 743, 744, 745, 746, 747, 748, 749, 750, 751, 752, 753, 754, 755, 756, 757, 758, 759, 760, 761, 762, 763, 764, 765, 766, 767, 768, 769, 770, 771, 772, 773, 774, 775, 776, 777, 778, 779, 780, 781, 782, 783, 784, 785, 786, 787, 788, 789, 790, 791, 792, 793, 794, 795, 796, 797, 798, 799, 800, 801, 802, 803, 804, 805, 806, 807, 808, 809, 810, 811, 812, 813, 814, 815, 816, 817, 818, 819, 820, 821, 822, 823, 824, 825, 826, 827, 828, 829, 830, 831, 832, 833, 834, 835, 836, 837, 838, 839, 840, 841, 842, 843, 844, 845, 846, 847, 848, 849, 850, 851, 852, 853, 854, 855, 856, 857, 858, 859, 860, 861, 862, 863, 864, 865, 866, 867, 868, 869, 870, 871, 872, 873, 874, 875, 876, 877, 878, 879, 880, 881, 882, 883, 884, 885, 886, 887, 888, 889, 890, 891, 892, 893, 894, 895, 896, 897, 898, 899, 900, 901, 902, 903, 904, 905, 906, 907, 908, 909, 910, 911, 912, 913, 914, 915, 916, 917, 918, 919, 920, 921, 922, 923, 924, 925, 926, 927, 928, 929, 930, 931, 932, 933, 934, 935, 936, 937, 938, 939, 940, 941, 942, 943, 944, 945, 946, 947, 948, 949, 950, 951, 952, 953, 954, 955, 956, 957, 958, 959, 960, 961, 962, 963, 964, 965, 966, 967, 968, 969, 970, 971, 972, 973, 974, 975, 976, 977, 978, 979, 980, 981, 982, 983, 984, 985, 986, 987, 988, 989, 990, 991, 992, 993, 994, 995, 996, 997, 998, 999, 1000, 1001, 1002, 1003, 1004, 1005, 1006, 1007, 1008, 1009, 1010, 1011, 1012, 1013, 1014, 1015, 1016, 1017, 1018, 1019, 1020, 1021, 1022, 1023, 1024, 1025, 1026, 1027, 1028, 1029, 1030, 1031, 1032, 1033, 1034, 1035, 1036, 1037, 1038, 1039, 1040, 1041, 1042, 1043, 1044, 1045, 1046, 1047, 1048, 1049, 1050, 1051, 1052, 1053, 1054, 1055, 1056, 1057, 1058, 1059, 1060, 1061, 1062, 1063, 1064, 1065, 1066, 1067, 1068, 1069, 1070, 1071, 1072, 1073],
      "AcquisitionTime": ["220719.822500", "220720.282500", "220720.742500", "220721.202500", "220721.662500", "220722.122500", "220722.582500", "220723.042500", "220723.502500", "220723.962500", "220724.422500", "220724.882500", "220725.342500", "220725.802500", "220726.262500", "220726.722500", "220727.182500", "220727.642500", "220728.102500", "220728.562500", "220729.022500", "220729.482500", "220729.942500", "220730.402500", "220730.862500", "220731.322500", "220731.782500", "220732.242500", "220732.702500", "220733.162500", "220733.622500", "220734.082500", "220734.542500", "220735.002500", "220735.462500", "220735.922500", "220736.382500", "220736.842500", "220737.302500", "220737.762500", "220738.222500", "220738.682500", "220739.142500", "220739.602500", "220740.062500", "220740.522500", "220740.982500", "220741.442500", "220741.902500", "220742.362500", "220742.822500", "220743.282500", "220743.742500", "220744.202500", "220744.662500", "220745.122500", "220745.582500", "220746.042500", "220746.502500", "220746.962500", "220747.422500", "220747.882500", "220748.342500", "220748.802500", "220749.262500", "220749.722500", "220750.182500", "220750.642500", "220751.102500", "220751.562500", "220752.022500", "220752.482500", "220752.942500", "220753.402500", "220753.862500", "220754.322500", "220754.782500", "220755.242500", "220755.702500", "220756.162500", "220756.622500", "220757.082500", "220757.542500", "220758.002500", "220758.462500", "220758.922500", "220759.382500", "220759.842500", "220800.302500", "220800.762500", "220801.222500", "220801.682500", "220802.142500", "220802.602500", "220803.062500", "220803.522500", "220803.982500", "220804.442500", "220804.902500", "220805.362500", "220805.822500", "220806.282500", "220806.742500", "220807.202500", "220807.662500", "220808.122500", "220808.582500", "220809.042500", "220809.502500", "220809.962500", "220810.422500", "220810.882500", "220811.342500", "220811.802500", "220812.262500", "220812.722500", "220813.182500", "220813.642500", "220814.102500", "220814.562500", "220815.022500", "220815.482500", "220815.942500", "220816.402500", "220816.862500", "220817.322500", "220817.782500", "220818.242500", "220818.702500", "220819.162500", "220819.622500", "220820.082500", "220820.542500", "220821.002500", "220821.462500", "220821.922500", "220822.382500", "220822.842500", "220823.302500", "220823.762500", "220824.222500", "220824.682500", "220825.142500", "220825.602500", "220826.062500", "220826.522500", "220826.982500", "220827.442500", "220827.902500", "220828.362500", "220828.822500", "220829.282500", "220829.742500", "220830.202500", "220830.662500", "220831.122500", "220831.582500", "220832.042500", "220832.502500", "220832.962500", "220833.422500", "220833.882500", "220834.342500", "220834.802500", "220835.262500", "220835.722500", "220836.182500", "220836.642500", "220837.102500", "220837.562500", "220838.022500", "220838.482500", "220838.942500", "220839.402500", "220839.862500", "220840.322500", "220840.782500", "220841.242500", "220841.702500", "220842.162500", "220842.622500", "220843.082500", "220843.542500", "220844.002500", "220844.462500", "220844.922500", "220845.382500", "220845.842500", "220846.302500", "220846.762500", "220847.222500", "220847.682500", "220848.142500", "220848.602500", "220849.062500", "220849.522500", "220849.982500", "220850.442500", "220850.902500", "220851.362500", "220851.822500", "220852.282500", "220852.742500", "220853.202500", "220853.662500", "220854.122500", "220854.582500", "220855.042500", "220855.502500", "220855.962500", "220856.422500", "220856.882500", "220857.342500", "220857.802500", "220858.262500", "220858.722500", "220859.182500", "220859.642500", "220900.102500", "220900.562500", "220901.022500", "220901.482500", "220901.942500", "220902.402500", "220902.862500", "220903.322500", "220903.782500", "220904.242500", "220904.702500", "220905.162500", "220905.622500", "220906.082500", "220906.542500", "220907.002500", "220907.462500", "220907.922500", "220908.382500", "220908.842500", "220909.302500", "220909.762500", "220910.222500", "220910.682500", "220911.142500", "220911.602500", "220912.062500", "220912.522500", "220912.982500", "220913.442500", "220913.902500", "220914.362500", "220914.822500", "220915.282500", "220915.742500", "220916.202500", "220916.662500", "220917.122500", "220917.582500", "220918.042500", "220918.502500", "220918.962500", "220919.422500", "220919.882500", "220920.342500", "220920.802500", "220921.262500", "220921.722500", "220922.182500", "220922.642500", "220923.102500", "220923.562500", "220924.022500", "220924.482500", "220924.942500", "220925.402500", "220925.862500", "220926.322500", "220926.782500", "220927.242500", "220927.702500", "220928.162500", "220928.622500", "220929.082500", "220929.542500", "220930.002500", "220930.462500", "220930.922500", "220931.382500", "220931.842500", "220932.302500", "220932.762500", "220933.222500", "220933.682500", "220934.142500", "220934.602500", "220935.062500", "220935.522500", "220935.982500", "220936.442500", "220936.902500", "220937.362500", "220937.822500", "220938.282500", "220938.742500", "220939.202500", "220939.662500", "220940.122500", "220940.582500", "220941.042500", "220941.502500", "220941.962500", "220942.422500", "220942.882500", "220943.342500", "220943.802500", "220944.262500", "220944.722500", "220945.182500", "220945.642500", "220946.102500", "220946.562500", "220947.022500", "220947.482500", "220947.942500", "220948.402500", "220948.862500", "220949.322500", "220949.782500", "220950.242500", "220950.702500", "220951.162500", "220951.622500", "220952.082500", "220952.542500", "220953.002500", "220953.462500", "220953.922500", "220954.382500", "220954.842500", "220955.302500", "220955.762500", "220956.222500", "220956.682500", "220957.142500", "220957.602500", "220958.062500", "220958.522500", "220958.982500", "220959.442500", "220959.902500", "221000.362500", "221000.822500", "221001.282500", "221001.742500", "221002.202500", "221002.662500", "221003.122500", "221003.582500", "221004.042500", "221004.502500", "221004.962500", "221005.422500", "221005.882500", "221006.342500", "221006.802500", "221007.262500", "221007.722500", "221008.182500", "221008.642500", "221009.102500", "221009.562500", "221010.022500", "221010.482500", "221010.942500", "221011.402500", "221011.862500", "221012.322500", "221012.782500", "221013.242500", "221013.702500", "221014.162500", "221014.622500", "221015.082500", "221015.542500", "221016.002500", "221016.462500", "221016.922500", "221017.382500", "221017.842500", "221018.302500", "221018.762500", "221019.222500", "221019.682500", "221020.142500", "221020.602500", "221021.062500", "221021.522500", "221021.982500", "221022.442500", "221022.902500", "221023.362500", "221023.822500", "221024.282500", "221024.742500", "221025.202500", "221025.662500", "221026.122500", "221026.582500", "221027.042500", "221027.502500", "221027.962500", "221028.422500", "221028.882500", "221029.342500", "221029.802500", "221030.262500", "221030.722500", "221031.182500", "221031.642500", "221032.102500", "221032.562500", "221033.022500", "221033.482500", "221033.942500", "221034.402500", "221034.862500", "221035.322500", "221035.782500", "221036.242500", "221036.702500", "221037.162500", "221037.622500", "221038.082500", "221038.542500", "221039.002500", "221039.462500", "221039.922500", "221040.382500", "221040.842500", "221041.302500", "221041.762500", "221042.222500", "221042.682500", "221043.142500", "221043.602500", "221044.062500", "221044.522500", "221044.982500", "221045.442500", "221045.902500", "221046.362500", "221046.822500", "221047.282500", "221047.742500", "221048.202500", "221048.662500", "221049.122500", "221049.582500", "221050.042500", "221050.502500", "221050.962500", "221051.422500", "221051.882500", "221052.342500", "221052.802500", "221053.262500", "221053.722500", "221054.182500", "221054.642500", "221055.102500", "221055.562500", "221056.022500", "221056.482500", "221056.942500", "221057.402500", "221057.862500", "221058.322500", "221058.782500", "221059.242500", "221059.702500", "221100.162500", "221100.622500", "221101.082500", "221101.542500", "221102.002500", "221102.462500", "221102.922500", "221103.382500", "221103.842500", "221104.302500", "221104.762500", "221105.222500", "221105.682500", "221106.142500", "221106.602500", "221107.062500", "221107.522500", "221107.982500", "221108.442500", "221108.902500", "221109.362500", "221109.822500", "221110.282500", "221110.742500", "221111.202500", "221111.662500", "221112.122500", "221112.582500", "221113.042500", "221113.502500", "221113.962500", "221114.422500", "221114.882500", "221115.342500", "221115.802500", "221116.262500", "221116.722500", "221117.182500", "221117.642500", "221118.102500", "221118.562500", "221119.022500", "221119.482500", "221119.942500", "221120.402500", "221120.862500", "221121.322500", "221121.782500", "221122.242500", "221122.702500", "221123.162500", "221123.622500", "221124.082500", "221124.542500", "221125.002500", "221125.462500", "221125.922500", "221126.382500", "221126.842500", "221127.302500", "221127.762500", "221128.222500", "221128.682500", "221129.142500", "221129.602500", "221130.062500", "221130.522500", "221130.982500", "221131.442500", "221131.902500", "221132.362500", "221132.822500", "221133.282500", "221133.742500", "221134.202500", "221134.662500", "221135.122500", "221135.582500", "221136.042500", "221136.502500", "221136.962500", "221137.422500", "221137.882500", "221138.342500", "221138.802500", "221139.262500", "221139.722500", "221140.182500", "221140.642500", "221141.102500", "221141.562500", "221142.022500", "221142.482500", "221142.942500", "221143.402500", "221143.862500", "221144.322500", "221144.782500", "221145.242500", "221145.702500", "221146.162500", "221146.622500", "221147.082500", "221147.542500", "221148.002500", "221148.462500", "221148.922500", "221149.382500", "221149.842500", "221150.302500", "221150.762500", "221151.222500", "221151.682500", "221152.142500", "221152.602500", "221153.062500", "221153.522500", "221153.982500", "221154.442500", "221154.902500", "221155.362500", "221155.822500", "221156.282500", "221156.742500", "221157.202500", "221157.662500", "221158.122500", "221158.582500", "221159.042500", "221159.502500", "221159.962500", "221200.422500", "221200.882500", "221201.342500", "221201.802500", "221202.262500", "221202.722500", "221203.182500", "221203.642500", "221204.102500", "221204.562500", "221205.022500", "221205.482500", "221205.942500", "221206.402500", "221206.862500", "221207.322500", "221207.782500", "221208.242500", "221208.702500", "221209.162500", "221209.622500", "221210.082500", "221210.542500", "221211.002500", "221211.462500", "221211.922500", "221212.382500", "221212.842500", "221213.302500", "221213.762500", "221214.222500", "221214.682500", "221215.142500", "221215.602500", "221216.062500", "221216.522500", "221216.982500", "221217.442500", "221217.902500", "221218.362500", "221218.822500", "221219.282500", "221219.742500", "221220.202500", "221220.662500", "221221.122500", "221221.582500", "221222.042500", "221222.502500", "221222.962500", "221223.422500", "221223.882500", "221224.342500", "221224.802500", "221225.262500", "221225.722500", "221226.182500", "221226.642500", "221227.102500", "221227.562500", "221228.022500", "221228.482500", "221228.942500", "221229.402500", "221229.862500", "221230.322500", "221230.782500", "221231.242500", "221231.702500", "221232.162500", "221232.622500", "221233.082500", "221233.542500", "221234.002500", "221234.462500", "221234.922500", "221235.382500", "221235.842500", "221236.302500", "221236.762500", "221237.222500", "221237.682500", "221238.142500", "221238.602500", "221239.062500", "221239.522500", "221239.982500", "221240.442500", "221240.902500", "221241.362500", "221241.822500", "221242.282500", "221242.742500", "221243.202500", "221243.662500", "221244.122500", "221244.582500", "221245.042500", "221245.502500", "221245.962500", "221246.422500", "221246.882500", "221247.342500", "221247.802500", "221248.262500", "221248.722500", "221249.182500", "221249.642500", "221250.102500", "221250.562500", "221251.022500", "221251.482500", "221251.942500", "221252.402500", "221252.862500", "221253.322500", "221253.782500", "221254.242500", "221254.702500", "221255.162500", "221255.622500", "221256.082500", "221256.542500", "221257.002500", "221257.462500", "221257.922500", "221258.382500", "221258.842500", "221259.302500", "221259.762500", "221300.222500", "221300.682500", "221301.142500", "221301.602500", "221302.062500", "221302.522500", "221302.982500", "221303.442500", "221303.902500", "221304.362500", "221304.822500", "221305.282500", "221305.742500", "221306.202500", "221306.662500", "221307.122500", "221307.582500", "221308.042500", "221308.502500", "221308.962500", "221309.422500", "221309.882500", "221310.342500", "221310.802500", "221311.262500", "221311.722500", "221312.182500", "221312.642500", "221313.102500", "221313.562500", "221314.022500", "221314.482500", "221314.942500", "221315.402500", "221315.862500", "221316.322500", "221316.782500", "221317.242500", "221317.702500", "221318.162500", "221318.622500", "221319.082500", "221319.542500", "221320.002500", "221320.462500", "221320.922500", "221321.382500", "221321.842500", "221322.302500", "221322.762500", "221323.222500", "221323.682500", "221324.142500", "221324.602500", "221325.062500", "221325.522500", "221325.982500", "221326.442500", "221326.902500", "221327.362500", "221327.822500", "221328.282500", "221328.742500", "221329.202500", "221329.662500", "221330.122500", "221330.582500", "221331.042500", "221331.502500", "221331.962500", "221332.422500", "221332.882500", "221333.342500", "221333.802500", "221334.262500", "221334.722500", "221335.182500", "221335.642500", "221336.102500", "221336.562500", "221337.022500", "221337.482500", "221337.942500", "221338.402500", "221338.862500", "221339.322500", "221339.782500", "221340.242500", "221340.702500", "221341.162500", "221341.622500", "221342.082500", "221342.542500", "221343.002500", "221343.462500", "221343.922500", "221344.382500", "221344.842500", "221345.302500", "221345.762500", "221346.222500", "221346.682500", "221347.142500", "221347.602500", "221348.062500", "221348.522500", "221348.982500", "221349.442500", "221349.902500", "221350.362500", "221350.822500", "221351.282500", "221351.742500", "221352.202500", "221352.662500", "221353.122500", "221353.582500", "221354.042500", "221354.502500", "221354.962500", "221355.422500", "221355.882500", "221356.342500", "221356.802500", "221357.262500", "221357.722500", "221358.182500", "221358.642500", "221359.102500", "221359.562500", "221400.022500", "221400.482500", "221400.942500", "221401.402500", "221401.862500", "221402.322500", "221402.782500", "221403.242500", "221403.702500", "221404.162500", "221404.622500", "221405.082500", "221405.542500", "221406.002500", "221406.462500", "221406.922500", "221407.382500", "221407.842500", "221408.302500", "221408.762500", "221409.222500", "221409.682500", "221410.142500", "221410.602500", "221411.062500", "221411.522500", "221411.982500", "221412.442500", "221412.902500", "221413.362500", "221413.822500", "221414.282500", "221414.742500", "221415.202500", "221415.662500", "221416.122500", "221416.582500", "221417.042500", "221417.502500", "221417.962500", "221418.422500", "221418.882500", "221419.342500", "221419.802500", "221420.262500", "221420.722500", "221421.182500", "221421.642500", "221422.102500", "221422.562500", "221423.022500", "221423.482500", "221423.942500", "221424.402500", "221424.862500", "221425.322500", "221425.782500", "221426.242500", "221426.702500", "221427.162500", "221427.622500", "221428.082500", "221428.542500", "221429.002500", "221429.462500", "221429.922500", "221430.382500", "221430.842500", "221431.302500", "221431.762500", "221432.222500", "221432.682500", "221433.142500", "221433.602500", "221434.062500", "221434.522500", "221434.982500", "221435.442500", "221435.902500", "221436.362500", "221436.822500", "221437.282500", "221437.742500", "221438.202500", "221438.662500", "221439.122500", "221439.582500", "221440.042500", "221440.502500", "221440.962500", "221441.422500", "221441.882500", "221442.342500", "221442.802500", "221443.262500", "221443.722500", "221444.182500", "221444.642500", "221445.102500", "221445.562500", "221446.022500", "221446.482500", "221446.942500", "221447.402500", "221447.862500", "221448.322500", "221448.782500", "221449.242500", "221449.702500", "221450.162500", "221450.622500", "221451.082500", "221451.542500", "221452.002500", "221452.462500", "221452.922500", "221453.382500", "221453.842500", "221454.302500", "221454.762500", "221455.222500", "221455.682500", "221456.142500", "221456.602500", "221457.062500", "221457.522500", "221457.982500", "221458.442500", "221458.902500", "221459.362500", "221459.822500", "221500.282500", "221500.742500", "221501.202500", "221501.662500", "221502.122500", "221502.582500", "221503.042500", "221503.502500", "221503.962500", "221504.422500", "221504.882500", "221505.342500", "221505.802500", "221506.262500", "221506.722500", "221507.182500", "221507.642500", "221508.102500", "221508.562500", "221509.022500", "221509.482500", "221509.942500", "221510.402500", "221510.862500", "221511.322500", "221511.782500", "221512.242500", "221512.702500", "221513.162500", "221513.622500", "221514.082500", "221514.542500", "221515.002500", "221515.462500", "221515.922500", "221516.382500", "221516.842500", "221517.302500", "221517.762500", "221518.222500", "221518.682500", "221519.142500", "221519.602500", "221520.062500", "221520.522500", "221520.982500", "221521.442500", "221521.902500", "221522.362500", "221522.822500", "221523.282500", "221523.742500", "221524.202500", "221524.662500", "221525.122500", "221525.582500", "221526.042500", "221526.502500", "221526.962500", "221527.422500", "221527.882500", "221528.342500", "221528.802500", "221529.262500", "221529.722500", "221530.182500", "221530.642500", "221531.102500", "221531.562500", "221532.022500", "221532.482500", "221532.942500"],
