{
  "AcquisitionMatrixPE": 82,
  "AcquisitionNumber": 1,
  "AcquisitionTime": "21:18:37.177500",
  "BandwidthPerPixelPhaseEncode": 24.888,
  "BaseResolution": 82,
  "BodyPartExamined": "BRAIN",
  "ConsistencyInfo": "N4_VE11E_LATEST_20181129",
  "ConversionSoftware": "dcm2niix",
  "ConversionSoftwareVersion": "v1.0.20201102",
  "DerivedVendorReportedEchoSpacing": 0.00049,
  "DeviceSerialNumber": "66112",
  "DwellTime": 2e-06,
  "EchoTime": 0.0272,
  "EchoTrainLength": 82,
  "EffectiveEchoSpacing": 0.00049,
  "FlipAngle": 44,
  "ImageComments": "Unaliased MB8/PE3",
  "ImageOrientationPatientDICOM": [0.995098, -0.0442965, 0.0884185, 0.0544151, 0.991813, -0.115525],
  "ImageType": [
    "ORIGINAL",
    "PRIMARY",
    "M",
    "MB",
    "ND",
    "NORM",
    "MOSAIC"
],
  "ImagingFrequency": 123.259,
  "InPlanePhaseEncodingDirectionDICOM": "COL",
  "InstitutionAddress": "Maynard 3,Hanover,NH,US,03755",
  "InstitutionName": "Dartmouth College - PBS",
  "InstitutionalDepartmentName": "Department",
  "MRAcquisitionType": "2D",
  "MagneticFieldStrength": 3,
  "Manufacturer": "Siemens",
  "ManufacturersModelName": "Prisma",
  "Modality": "MR",
  "MultibandAccelerationFactor": 8,
  "PartialFourier": 1,
  "PatientPosition": "HFS",
  "PercentPhaseFOV": 100,
  "PercentSampling": 100,
  "PhaseEncodingDirection": "j-",
  "PhaseEncodingSteps": 82,
  "PhaseResolution": 1,
  "PixelBandwidth": 3050,
  "ProcedureStepDescription": "Wager_Wager^1076_spacetop",
  "ProtocolName": "func_run-01_task-social_acq-ap-mb8",
  "PulseSequenceDetails": "%CustomerSeq%\\cmrr_mbep2d_bold",
  "ReceiveCoilActiveElements": "HEA;HEP",
  "ReceiveCoilName": "Head_32",
  "ReconMatrixPE": 82,
  "RepetitionTime": 0.46,
  "SAR": 0.08258,
  "ScanOptions": "FS",
  "ScanningSequence": "EP",
  "SequenceName": "epfid2d1_82",
  "SequenceVariant": "SK\\SS",
  "SeriesDescription": "func_run-01_task-social_acq-ap-mb8",
  "SeriesNumber": 12,
  "ShimSetting": [4255, -7737, -7303, 310, -195, 24, -109, 75],
  "SliceThickness": 2.7,
  "SliceTiming": [0, 0.25, 0.0625, 0.3125, 0.125, 0.375, 0.1875, 0, 0.25, 0.0625, 0.3125, 0.125, 0.375, 0.1875, 0, 0.25, 0.0625, 0.3125, 0.125, 0.375, 0.1875, 0, 0.25, 0.0625, 0.3125, 0.125, 0.375, 0.1875, 0, 0.25, 0.0625, 0.3125, 0.125, 0.375, 0.1875, 0, 0.25, 0.0625, 0.3125, 0.125, 0.375, 0.1875, 0, 0.25, 0.0625, 0.3125, 0.125, 0.375, 0.1875, 0, 0.25, 0.0625, 0.3125, 0.125, 0.375, 0.1875],
  "SoftwareVersions": "syngo MR E11",
  "SpacingBetweenSlices": 2.7,
  "StationName": "AWP66112",
  "TaskName": "social",
  "TotalReadoutTime": 0.03969,
  "TxRefAmp": 240.42,
  "WipMemBlock": "4fb77b30-1897-4044-950e-960f0b239ec0||Sequence: R016 ve11e/master r/434b28f1; Aug  7 2019 18:53:46 by eja",
  "dcmmeta_affine": [
    [-2.6697752475738525, 0.1459917575120926, 0.2229585498571396, 97.43636322021484],
    [0.11884413659572601, 2.660961627960205, -0.32337987422943115, -102.14352416992188],
    [0.23722034692764282, 0.3099460005760193, 2.6712758541107178, -124.54203796386719],
    [0.0, 0.0, 0.0, 1.0]
],
  "dcmmeta_reorient_transform": [
    [0.0, -1.0, 0.0, 81.0],
    [1.0, 0.0, 0.0, 0.0],
    [0.0, 0.0, 1.0, 0.0],
    [0.0, 0.0, 0.0, 1.0]
],
  "dcmmeta_shape": [82, 82, 56, 872],
  "dcmmeta_slice_dim": 2,
  "dcmmeta_version": 0.6,
  "global": {
    "const": {
      "AccessionNumber": "A004819",
      "AcquisitionMatrix": [82, 0, 0, 82],
      "AngioFlag": "N",
      "BitsAllocated": 16,
      "BitsStored": 16,
      "BodyPartExamined": "BRAIN",
      "Columns": 656,
      "EchoNumbers": 1,
      "EchoTime": 27.2,
      "EchoTrainLength": 82,
      "FlipAngle": 44.0,
      "HighBit": 15,
      "ImageOrientationPatient": [0.99509798255521, -0.044296449747, 0.08841849158614, 0.0544151109529, 0.99181293292024, -0.1155253296561],
      "ImagePositionPatient": [-917.38679374985, -842.98207039071, -78.56414141461],
      "ImageType": [
        "ORIGINAL",
        "PRIMARY",
        "M",
        "MB",
        "ND",
        "NORM",
        "MOSAIC"
],
      "ImagedNucleus": "1H",
      "ImagingFrequency": 123.259124,
      "InPlanePhaseEncodingDirection": "COL",
      "MRAcquisitionType": "2D",
      "MagneticFieldStrength": 3.0,
      "Manufacturer": "SIEMENS",
      "ManufacturerModelName": "Prisma",
      "Modality": "MR",
      "NumberOfAverages": 1.0,
      "NumberOfPhaseEncodingSteps": 82,
      "PercentPhaseFieldOfView": 100.0,
      "PercentSampling": 100.0,
      "PerformedProcedureStepStartTime": "204905.529000",
      "PhotometricInterpretation": "MONOCHROME2",
      "PixelBandwidth": 3050.0,
      "PixelRepresentation": 0,
      "PixelSpacing": [2.6829268932343, 2.6829268932343],
      "ProtocolName": "func_run-01_task-social_acq-ap-mb8",
      "RepetitionTime": 460.0,
      "Rows": 656,
      "SAR": 0.08258000417462,
      "SamplesPerPixel": 1,
      "ScanOptions": "FS",
      "ScanningSequence": "EP",
      "SequenceName": "epfid2d1_82",
      "SequenceVariant": [
        "SK",
        "SS"
],
      "SeriesDescription": "func_run-01_task-social_acq-ap-mb8",
      "SeriesNumber": 12,
      "SeriesTime": "211902.647000",
      "SliceLocation": -102.93729776482,
      "SliceThickness": 2.7000000476837,
      "SmallestImagePixelValue": 0,
      "SoftwareVersions": "syngo MR E11",
      "SpacingBetweenSlices": 2.7000000523239,
      "SpecificCharacterSet": "ISO_IR 100",
      "StudyID": "1",
      "StudyTime": "204905.478000",
      "TransmitCoilName": "Body",
      "VariableFlipAngleFlag": "N",
      "WindowCenterWidthExplanation": "Algo1"
    },
    "slices": {}
  },
  "time": {
    "samples": {
      "AcquisitionNumber": [1, 2, 3, 4, 5, 6, 7, 8, 9, 10, 11, 12, 13, 14, 15, 16, 17, 18, 19, 20, 21, 22, 23, 24, 25, 26, 27, 28, 29, 30, 31, 32, 33, 34, 35, 36, 37, 38, 39, 40, 41, 42, 43, 44, 45, 46, 47, 48, 49, 50, 51, 52, 53, 54, 55, 56, 57, 58, 59, 60, 61, 62, 63, 64, 65, 66, 67, 68, 69, 70, 71, 72, 73, 74, 75, 76, 77, 78, 79, 80, 81, 82, 83, 84, 85, 86, 87, 88, 89, 90, 91, 92, 93, 94, 95, 96, 97, 98, 99, 100, 101, 102, 103, 104, 105, 106, 107, 108, 109, 110, 111, 112, 113, 114, 115, 116, 117, 118, 119, 120, 121, 122, 123, 124, 125, 126, 127, 128, 129, 130, 131, 132, 133, 134, 135, 136, 137, 138, 139, 140, 141, 142, 143, 144, 145, 146, 147, 148, 149, 150, 151, 152, 153, 154, 155, 156, 157, 158, 159, 160, 161, 162, 163, 164, 165, 166, 167, 168, 169, 170, 171, 172, 173, 174, 175, 176, 177, 178, 179, 180, 181, 182, 183, 184, 185, 186, 187, 188, 189, 190, 191, 192, 193, 194, 195, 196, 197, 198, 199, 200, 201, 202, 203, 204, 205, 206, 207, 208, 209, 210, 211, 212, 213, 214, 215, 216, 217, 218, 219, 220, 221, 222, 223, 224, 225, 226, 227, 228, 229, 230, 231, 232, 233, 234, 235, 236, 237, 238, 239, 240, 241, 242, 243, 244, 245, 246, 247, 248, 249, 250, 251, 252, 253, 254, 255, 256, 257, 258, 259, 260, 261, 262, 263, 264, 265, 266, 267, 268, 269, 270, 271, 272, 273, 274, 275, 276, 277, 278, 279, 280, 281, 282, 283, 284, 285, 286, 287, 288, 289, 290, 291, 292, 293, 294, 295, 296, 297, 298, 299, 300, 301, 302, 303, 304, 305, 306, 307, 308, 309, 310, 311, 312, 313, 314, 315, 316, 317, 318, 319, 320, 321, 322, 323, 324, 325, 326, 327, 328, 329, 330, 331, 332, 333, 334, 335, 336, 337, 338, 339, 340, 341, 342, 343, 344, 345, 346, 347, 348, 349, 350, 351, 352, 353, 354, 355, 356, 357, 358, 359, 360, 361, 362, 363, 364, 365, 366, 367, 368, 369, 370, 371, 372, 373, 374, 375, 376, 377, 378, 379, 380, 381, 382, 383, 384, 385, 386, 387, 388, 389, 390, 391, 392, 393, 394, 395, 396, 397, 398, 399, 400, 401, 402, 403, 404, 405, 406, 407, 408, 409, 410, 411, 412, 413, 414, 415, 416, 417, 418, 419, 420, 421, 422, 423, 424, 425, 426, 427, 428, 429, 430, 431, 432, 433, 434, 435, 436, 437, 438, 439, 440, 441, 442, 443, 444, 445, 446, 447, 448, 449, 450, 451, 452, 453, 454, 455, 456, 457, 458, 459, 460, 461, 462, 463, 464, 465, 466, 467, 468, 469, 470, 471, 472, 473, 474, 475, 476, 477, 478, 479, 480, 481, 482, 483, 484, 485, 486, 487, 488, 489, 490, 491, 492, 493, 494, 495, 496, 497, 498, 499, 500, 501, 502, 503, 504, 505, 506, 507, 508, 509, 510, 511, 512, 513, 514, 515, 516, 517, 518, 519, 520, 521, 522, 523, 524, 525, 526, 527, 528, 529, 530, 531, 532, 533, 534, 535, 536, 537, 538, 539, 540, 541, 542, 543, 544, 545, 546, 547, 548, 549, 550, 551, 552, 553, 554, 555, 556, 557, 558, 559, 560, 561, 562, 563, 564, 565, 566, 567, 568, 569, 570, 571, 572, 573, 574, 575, 576, 577, 578, 579, 580, 581, 582, 583, 584, 585, 586, 587, 588, 589, 590, 591, 592, 593, 594, 595, 596, 597, 598, 599, 600, 601, 602, 603, 604, 605, 606, 607, 608, 609, 610, 611, 612, 613, 614, 615, 616, 617, 618, 619, 620, 621, 622, 623, 624, 625, 626, 627, 628, 629, 630, 631, 632, 633, 634, 635, 636, 637, 638, 639, 640, 641, 642, 643, 644, 645, 646, 647, 648, 649, 650, 651, 652, 653, 654, 655, 656, 657, 658, 659, 660, 661, 662, 663, 664, 665, 666, 667, 668, 669, 670, 671, 672, 673, 674, 675, 676, 677, 678, 679, 680, 681, 682, 683, 684, 685, 686, 687, 688, 689, 690, 691, 692, 693, 694, 695, 696, 697, 698, 699, 700, 701, 702, 703, 704, 705, 706, 707, 708, 709, 710, 711, 712, 713, 714, 715, 716, 717, 718, 719, 720, 721, 722, 723, 724, 725, 726, 727, 728, 729, 730, 731, 732, 733, 734, 735, 736, 737, 738, 739, 740, 741, 742, 743, 744, 745, 746, 747, 748, 749, 750, 751, 752, 753, 754, 755, 756, 757, 758, 759, 760, 761, 762, 763, 764, 765, 766, 767, 768, 769, 770, 771, 772, 773, 774, 775, 776, 777, 778, 779, 780, 781, 782, 783, 784, 785, 786, 787, 788, 789, 790, 791, 792, 793, 794, 795, 796, 797, 798, 799, 800, 801, 802, 803, 804, 805, 806, 807, 808, 809, 810, 811, 812, 813, 814, 815, 816, 817, 818, 819, 820, 821, 822, 823, 824, 825, 826, 827, 828, 829, 830, 831, 832, 833, 834, 835, 836, 837, 838, 839, 840, 841, 842, 843, 844, 845, 846, 847, 848, 849, 850, 851, 852, 853, 854, 855, 856, 857, 858, 859, 860, 861, 862, 863, 864, 865, 866, 867, 868, 869, 870, 871, 872],
      "AcquisitionTime": ["211837.177500", "211837.637500", "211838.097500", "211838.557500", "211839.017500", "211839.477500", "211839.937500", "211840.397500", "211840.857500", "211841.317500", "211841.777500", "211842.237500", "211842.697500", "211843.157500", "211843.617500", "211844.077500", "211844.537500", "211844.997500", "211845.457500", "211845.917500", "211846.377500", "211846.837500", "211847.297500", "211847.757500", "211848.217500", "211848.677500", "211849.137500", "211849.597500", "211850.057500", "211850.517500", "211850.977500", "211851.437500", "211851.897500", "211852.357500", "211852.817500", "211853.277500", "211853.737500", "211854.197500", "211854.657500", "211855.117500", "211855.577500", "211856.037500", "211856.497500", "211856.957500", "211857.417500", "211857.877500", "211858.337500", "211858.797500", "211859.257500", "211859.717500", "211900.177500", "211900.637500", "211901.097500", "211901.557500", "211902.017500", "211902.477500", "211902.937500", "211903.397500", "211903.857500", "211904.317500", "211904.777500", "211905.237500", "211905.697500", "211906.157500", "211906.617500", "211907.077500", "211907.537500", "211907.997500", "211908.457500", "211908.917500", "211909.377500", "211909.837500", "211910.297500", "211910.757500", "211911.217500", "211911.677500", "211912.137500", "211912.597500", "211913.057500", "211913.517500", "211913.977500", "211914.437500", "211914.897500", "211915.357500", "211915.817500", "211916.277500", "211916.737500", "211917.197500", "211917.657500", "211918.117500", "211918.577500", "211919.037500", "211919.497500", "211919.957500", "211920.417500", "211920.877500", "211921.337500", "211921.797500", "211922.257500", "211922.717500", "211923.177500", "211923.637500", "211924.097500", "211924.557500", "211925.017500", "211925.477500", "211925.937500", "211926.397500", "211926.857500", "211927.317500", "211927.777500", "211928.237500", "211928.697500", "211929.157500", "211929.617500", "211930.077500", "211930.537500", "211930.997500", "211931.457500", "211931.917500", "211932.377500", "211932.837500", "211933.297500", "211933.757500", "211934.217500", "211934.677500", "211935.137500", "211935.597500", "211936.057500", "211936.517500", "211936.977500", "211937.437500", "211937.897500", "211938.357500", "211938.817500", "211939.277500", "211939.737500", "211940.197500", "211940.657500", "211941.117500", "211941.577500", "211942.037500", "211942.497500", "211942.957500", "211943.417500", "211943.877500", "211944.337500", "211944.797500", "211945.257500", "211945.717500", "211946.177500", "211946.637500", "211947.097500", "211947.557500", "211948.017500", "211948.477500", "211948.937500", "211949.397500", "211949.857500", "211950.317500", "211950.777500", "211951.237500", "211951.697500", "211952.157500", "211952.617500", "211953.077500", "211953.537500", "211953.997500", "211954.457500", "211954.917500", "211955.377500", "211955.837500", "211956.297500", "211956.757500", "211957.217500", "211957.677500", "211958.137500", "211958.597500", "211959.057500", "211959.517500", "211959.977500", "212000.437500", "212000.897500", "212001.357500", "212001.817500", "212002.277500", "212002.737500", "212003.197500", "212003.657500", "212004.117500", "212004.577500", "212005.037500", "212005.497500", "212005.957500", "212006.417500", "212006.877500", "212007.337500", "212007.797500", "212008.257500", "212008.717500", "212009.177500", "212009.637500", "212010.097500", "212010.557500", "212011.017500", "212011.477500", "212011.937500", "212012.397500", "212012.857500", "212013.317500", "212013.777500", "212014.237500", "212014.697500", "212015.157500", "212015.617500", "212016.077500", "212016.537500", "212016.997500", "212017.457500", "212017.917500", "212018.377500", "212018.837500", "212019.297500", "212019.757500", "212020.217500", "212020.677500", "212021.137500", "212021.597500", "212022.057500", "212022.517500", "212022.977500", "212023.437500", "212023.897500", "212024.357500", "212024.817500", "212025.277500", "212025.737500", "212026.197500", "212026.657500", "212027.117500", "212027.577500", "212028.037500", "212028.497500", "212028.957500", "212029.417500", "212029.877500", "212030.337500", "212030.797500", "212031.257500", "212031.717500", "212032.177500", "212032.637500", "212033.097500", "212033.557500", "212034.017500", "212034.477500", "212034.937500", "212035.397500", "212035.857500", "212036.317500", "212036.777500", "212037.237500", "212037.697500", "212038.157500", "212038.617500", "212039.077500", "212039.537500", "212039.997500", "212040.457500", "212040.917500", "212041.377500", "212041.837500", "212042.297500", "212042.757500", "212043.217500", "212043.677500", "212044.137500", "212044.597500", "212045.057500", "212045.517500", "212045.977500", "212046.437500", "212046.897500", "212047.357500", "212047.817500", "212048.277500", "212048.737500", "212049.197500", "212049.657500", "212050.117500", "212050.577500", "212051.037500", "212051.497500", "212051.957500", "212052.417500", "212052.877500", "212053.337500", "212053.797500", "212054.257500", "212054.717500", "212055.177500", "212055.637500", "212056.097500", "212056.557500", "212057.017500", "212057.477500", "212057.937500", "212058.397500", "212058.857500", "212059.317500", "212059.777500", "212100.237500", "212100.697500", "212101.157500", "212101.617500", "212102.077500", "212102.537500", "212102.997500", "212103.457500", "212103.917500", "212104.377500", "212104.837500", "212105.297500", "212105.757500", "212106.217500", "212106.677500", "212107.137500", "212107.597500", "212108.057500", "212108.517500", "212108.977500", "212109.437500", "212109.897500", "212110.357500", "212110.817500", "212111.277500", "212111.737500", "212112.197500", "212112.657500", "212113.117500", "212113.577500", "212114.037500", "212114.497500", "212114.957500", "212115.417500", "212115.877500", "212116.337500", "212116.797500", "212117.257500", "212117.717500", "212118.177500", "212118.637500", "212119.097500", "212119.557500", "212120.017500", "212120.477500", "212120.937500", "212121.397500", "212121.857500", "212122.317500", "212122.777500", "212123.237500", "212123.697500", "212124.157500", "212124.617500", "212125.077500", "212125.537500", "212125.997500", "212126.457500", "212126.917500", "212127.377500", "212127.837500", "212128.297500", "212128.757500", "212129.217500", "212129.677500", "212130.137500", "212130.597500", "212131.057500", "212131.517500", "212131.977500", "212132.437500", "212132.897500", "212133.357500", "212133.817500", "212134.277500", "212134.737500", "212135.197500", "212135.657500", "212136.117500", "212136.577500", "212137.037500", "212137.497500", "212137.957500", "212138.417500", "212138.877500", "212139.337500", "212139.797500", "212140.257500", "212140.717500", "212141.177500", "212141.637500", "212142.097500", "212142.557500", "212143.017500", "212143.477500", "212143.937500", "212144.397500", "212144.857500", "212145.317500", "212145.777500", "212146.237500", "212146.697500", "212147.157500", "212147.617500", "212148.077500", "212148.537500", "212148.997500", "212149.457500", "212149.917500", "212150.377500", "212150.837500", "212151.297500", "212151.757500", "212152.217500", "212152.677500", "212153.137500", "212153.597500", "212154.057500", "212154.517500", "212154.977500", "212155.437500", "212155.897500", "212156.357500", "212156.817500", "212157.277500", "212157.737500", "212158.197500", "212158.657500", "212159.117500", "212159.577500", "212200.037500", "212200.497500", "212200.957500", "212201.417500", "212201.877500", "212202.337500", "212202.797500", "212203.257500", "212203.717500", "212204.177500", "212204.637500", "212205.097500", "212205.557500", "212206.017500", "212206.477500", "212206.937500", "212207.397500", "212207.857500", "212208.317500", "212208.777500", "212209.237500", "212209.697500", "212210.157500", "212210.617500", "212211.077500", "212211.537500", "212211.997500", "212212.457500", "212212.917500", "212213.377500", "212213.837500", "212214.297500", "212214.757500", "212215.217500", "212215.677500", "212216.137500", "212216.597500", "212217.057500", "212217.517500", "212217.977500", "212218.437500", "212218.897500", "212219.357500", "212219.817500", "212220.277500", "212220.737500", "212221.197500", "212221.657500", "212222.117500", "212222.577500", "212223.037500", "212223.497500", "212223.957500", "212224.417500", "212224.877500", "212225.337500", "212225.797500", "212226.257500", "212226.717500", "212227.177500", "212227.637500", "212228.097500", "212228.557500", "212229.017500", "212229.477500", "212229.937500", "212230.397500", "212230.857500", "212231.317500", "212231.777500", "212232.237500", "212232.697500", "212233.157500", "212233.617500", "212234.077500", "212234.537500", "212234.997500", "212235.457500", "212235.917500", "212236.377500", "212236.837500", "212237.297500", "212237.757500", "212238.217500", "212238.677500", "212239.137500", "212239.597500", "212240.057500", "212240.517500", "212240.977500", "212241.437500", "212241.897500", "212242.357500", "212242.817500", "212243.277500", "212243.737500", "212244.197500", "212244.657500", "212245.117500", "212245.577500", "212246.037500", "212246.497500", "212246.957500", "212247.417500", "212247.877500", "212248.337500", "212248.797500", "212249.257500", "212249.717500", "212250.177500", "212250.637500", "212251.097500", "212251.557500", "212252.017500", "212252.477500", "212252.937500", "212253.397500", "212253.857500", "212254.317500", "212254.777500", "212255.237500", "212255.697500", "212256.157500", "212256.617500", "212257.077500", "212257.537500", "212257.997500", "212258.457500", "212258.917500", "212259.377500", "212259.837500", "212300.297500", "212300.757500", "212301.217500", "212301.677500", "212302.137500", "212302.597500", "212303.057500", "212303.517500", "212303.977500", "212304.437500", "212304.897500", "212305.357500", "212305.817500", "212306.277500", "212306.737500", "212307.197500", "212307.657500", "212308.117500", "212308.577500", "212309.037500", "212309.497500", "212309.957500", "212310.417500", "212310.877500", "212311.337500", "212311.797500", "212312.257500", "212312.717500", "212313.177500", "212313.637500", "212314.097500", "212314.557500", "212315.017500", "212315.477500", "212315.937500", "212316.397500", "212316.857500", "212317.317500", "212317.777500", "212318.237500", "212318.697500", "212319.157500", "212319.617500", "212320.077500", "212320.537500", "212320.997500", "212321.457500", "212321.917500", "212322.377500", "212322.837500", "212323.297500", "212323.757500", "212324.217500", "212324.677500", "212325.137500", "212325.597500", "212326.057500", "212326.517500", "212326.977500", "212327.437500", "212327.897500", "212328.357500", "212328.817500", "212329.277500", "212329.737500", "212330.197500", "212330.657500", "212331.117500", "212331.577500", "212332.037500", "212332.497500", "212332.957500", "212333.417500", "212333.877500", "212334.337500", "212334.797500", "212335.257500", "212335.717500", "212336.177500", "212336.637500", "212337.097500", "212337.557500", "212338.017500", "212338.477500", "212338.937500", "212339.397500", "212339.857500", "212340.317500", "212340.777500", "212341.237500", "212341.697500", "212342.157500", "212342.617500", "212343.077500", "212343.537500", "212343.997500", "212344.457500", "212344.917500", "212345.377500", "212345.837500", "212346.297500", "212346.757500", "212347.217500", "212347.677500", "212348.137500", "212348.597500", "212349.057500", "212349.517500", "212349.977500", "212350.437500", "212350.897500", "212351.357500", "212351.817500", "212352.277500", "212352.737500", "212353.197500", "212353.657500", "212354.117500", "212354.577500", "212355.037500", "212355.497500", "212355.957500", "212356.417500", "212356.877500", "212357.337500", "212357.797500", "212358.257500", "212358.717500", "212359.177500", "212359.637500", "212400.097500", "212400.557500", "212401.017500", "212401.477500", "212401.937500", "212402.397500", "212402.857500", "212403.317500", "212403.777500", "212404.237500", "212404.697500", "212405.157500", "212405.617500", "212406.077500", "212406.537500", "212406.997500", "212407.457500", "212407.917500", "212408.377500", "212408.837500", "212409.297500", "212409.757500", "212410.217500", "212410.677500", "212411.137500", "212411.597500", "212412.057500", "212412.517500", "212412.977500", "212413.437500", "212413.897500", "212414.357500", "212414.817500", "212415.277500", "212415.737500", "212416.197500", "212416.657500", "212417.117500", "212417.577500", "212418.037500", "212418.497500", "212418.957500", "212419.417500", "212419.877500", "212420.337500", "212420.797500", "212421.257500", "212421.717500", "212422.177500", "212422.637500", "212423.097500", "212423.557500", "212424.017500", "212424.477500", "212424.937500", "212425.397500", "212425.857500", "212426.317500", "212426.777500", "212427.237500", "212427.697500", "212428.157500", "212428.617500", "212429.077500", "212429.537500", "212429.997500", "212430.457500", "212430.917500", "212431.377500", "212431.837500", "212432.297500", "212432.757500", "212433.217500", "212433.677500", "212434.137500", "212434.597500", "212435.057500", "212435.517500", "212435.977500", "212436.437500", "212436.897500", "212437.357500", "212437.817500", "212438.277500", "212438.737500", "212439.197500", "212439.657500", "212440.117500", "212440.577500", "212441.037500", "212441.497500", "212441.957500", "212442.417500", "212442.877500", "212443.337500", "212443.797500", "212444.257500", "212444.717500", "212445.177500", "212445.637500", "212446.097500", "212446.557500", "212447.017500", "212447.477500", "212447.937500", "212448.397500", "212448.857500", "212449.317500", "212449.777500", "212450.237500", "212450.697500", "212451.157500", "212451.617500", "212452.077500", "212452.537500", "212452.997500", "212453.457500", "212453.917500", "212454.377500", "212454.837500", "212455.297500", "212455.757500", "212456.217500", "212456.677500", "212457.137500", "212457.597500", "212458.057500", "212458.517500", "212458.977500", "212459.437500", "212459.897500", "212500.357500", "212500.817500", "212501.277500", "212501.737500", "212502.197500", "212502.657500", "212503.117500", "212503.577500", "212504.037500", "212504.497500", "212504.957500", "212505.417500", "212505.877500", "212506.337500", "212506.797500", "212507.257500", "212507.717500", "212508.177500", "212508.637500", "212509.097500", "212509.557500", "212510.017500", "212510.477500", "212510.937500", "212511.397500", "212511.857500", "212512.317500", "212512.777500", "212513.237500", "212513.697500", "212514.157500", "212514.617500", "212515.077500", "212515.537500", "212515.997500", "212516.457500", "212516.917500", "212517.377500", "212517.837500"],
