{
  "AcquisitionMatrixPE": 82,
  "AcquisitionNumber": 1,
  "AcquisitionTime": "22:26:40.337500",
  "BandwidthPerPixelPhaseEncode": 24.888,
  "BaseResolution": 82,
  "BodyPartExamined": "BRAIN",
  "ConsistencyInfo": "N4_VE11E_LATEST_20181129",
  "ConversionSoftware": "dcm2niix",
  "ConversionSoftwareVersion": "v1.0.20201102",
  "DerivedVendorReportedEchoSpacing": 0.00049,
  "DeviceSerialNumber": "66112",
  "DwellTime": 2e-06,
  "EchoTime": 0.0272,
  "EchoTrainLength": 82,
  "EffectiveEchoSpacing": 0.00049,
  "FlipAngle": 44,
  "ImageComments": "Unaliased MB8/PE3",
  "ImageOrientationPatientDICOM": [0.994872, -0.0555083, 0.0845477, 0.065033, 0.991301, -0.114422],
  "ImageType": [
    "ORIGINAL",
    "PRIMARY",
    "M",
    "MB",
    "ND",
    "NORM",
    "MOSAIC"
],
  "ImagingFrequency": 123.259,
  "InPlanePhaseEncodingDirectionDICOM": "COL",
  "InstitutionAddress": "Maynard 3,Hanover,NH,US,03755",
  "InstitutionName": "Dartmouth College - PBS",
  "InstitutionalDepartmentName": "Department",
  "MRAcquisitionType": "2D",
  "MagneticFieldStrength": 3,
  "Manufacturer": "Siemens",
  "ManufacturersModelName": "Prisma",
  "Modality": "MR",
  "MultibandAccelerationFactor": 8,
  "PartialFourier": 1,
  "PatientPosition": "HFS",
  "PercentPhaseFOV": 100,
  "PercentSampling": 100,
  "PhaseEncodingDirection": "j-",
  "PhaseEncodingSteps": 82,
  "PhaseResolution": 1,
  "PixelBandwidth": 3050,
  "ProcedureStepDescription": "Wager_Wager^1076_spacetop",
  "ProtocolName": "func_run-03_task-alignvideo_acq-ap-mb8",
  "PulseSequenceDetails": "%CustomerSeq%\\cmrr_mbep2d_bold",
  "ReceiveCoilActiveElements": "HEA;HEP",
  "ReceiveCoilName": "Head_32",
  "ReconMatrixPE": 82,
  "RepetitionTime": 0.46,
  "SAR": 0.0826528,
  "ScanOptions": "FS",
  "ScanningSequence": "EP",
  "SequenceName": "epfid2d1_82",
  "SequenceVariant": "SK\\SS",
  "SeriesDescription": "func_run-03_task-alignvideo_acq-ap-mb8",
  "SeriesNumber": 34,
  "ShimSetting": [4255, -7737, -7303, 310, -195, 24, -109, 74],
  "SliceThickness": 2.7,
  "SliceTiming": [0, 0.2525, 0.0625, 0.315, 0.1275, 0.3775, 0.19, 0, 0.2525, 0.0625, 0.315, 0.1275, 0.3775, 0.19, 0, 0.2525, 0.0625, 0.315, 0.1275, 0.3775, 0.19, 0, 0.2525, 0.0625, 0.315, 0.1275, 0.3775, 0.19, 0, 0.2525, 0.0625, 0.315, 0.1275, 0.3775, 0.19, 0, 0.2525, 0.0625, 0.315, 0.1275, 0.3775, 0.19, 0, 0.2525, 0.0625, 0.315, 0.1275, 0.3775, 0.19, 0, 0.2525, 0.0625, 0.315, 0.1275, 0.3775, 0.19],
  "SoftwareVersions": "syngo MR E11",
  "SpacingBetweenSlices": 2.7,
  "StationName": "AWP66112",
  "TaskName": "alignvideo",
  "TotalReadoutTime": 0.03969,
  "TxRefAmp": 240.42,
  "WipMemBlock": "e15305fd-6626-4353-984f-75520579efbb||Sequence: R016 ve11e/master r/434b28f1; Aug  7 2019 18:53:46 by eja",
  "dcmmeta_affine": [
    [-2.6691691875457764, 0.17447873950004578, 0.20914435386657715, 96.29121398925781],
    [0.1489245891571045, 2.6595890522003174, -0.3222001791000366, -103.9493637084961],
    [0.226835235953331, 0.30698519945144653, 2.6725354194641113, -123.89370727539062],
    [0.0, 0.0, 0.0, 1.0]
],
  "dcmmeta_reorient_transform": [
    [0.0, -1.0, 0.0, 81.0],
    [1.0, 0.0, 0.0, 0.0],
    [0.0, 0.0, 1.0, 0.0],
    [0.0, 0.0, 0.0, 1.0]
],
  "dcmmeta_shape": [82, 82, 56, 1016],
  "dcmmeta_slice_dim": 2,
  "dcmmeta_version": 0.6,
  "global": {
    "const": {
      "AccessionNumber": "A004819",
      "AcquisitionMatrix": [82, 0, 0, 82],
      "AngioFlag": "N",
      "BitsAllocated": 16,
      "BitsStored": 16,
      "BodyPartExamined": "BRAIN",
      "Columns": 656,
      "EchoNumbers": 1,
      "EchoTime": 27.2,
      "EchoTrainLength": 82,
      "FlipAngle": 44.0,
      "HighBit": 15,
      "ImageOrientationPatient": [0.994872114732, -0.0555082527604, 0.08454767415002, 0.06503298116762, 0.99130135321614, -0.1144217569884],
      "ImagePositionPatient": [-926.55093112505, -832.03805480817, -76.024862871963],
      "ImageType": [
        "ORIGINAL",
        "PRIMARY",
        "M",
        "MB",
        "ND",
        "NORM",
        "MOSAIC"
],
      "ImagedNucleus": "1H",
      "ImagingFrequency": 123.259142,
      "InPlanePhaseEncodingDirection": "COL",
      "MRAcquisitionType": "2D",
      "MagneticFieldStrength": 3.0,
      "Manufacturer": "SIEMENS",
      "ManufacturerModelName": "Prisma",
      "Modality": "MR",
      "NumberOfAverages": 1.0,
      "NumberOfPhaseEncodingSteps": 82,
      "PercentPhaseFieldOfView": 100.0,
      "PercentSampling": 100.0,
      "PerformedProcedureStepStartTime": "204905.529000",
      "PhotometricInterpretation": "MONOCHROME2",
      "PixelBandwidth": 3050.0,
      "PixelRepresentation": 0,
      "PixelSpacing": [2.6829268932343, 2.6829268932343],
      "ProtocolName": "func_run-03_task-alignvideo_acq-ap-mb8",
      "RepetitionTime": 460.0,
      "Rows": 656,
      "SAR": 0.08265281504777,
      "SamplesPerPixel": 1,
      "ScanOptions": "FS",
      "ScanningSequence": "EP",
      "SequenceName": "epfid2d1_82",
      "SequenceVariant": [
        "SK",
        "SS"
],
      "SeriesDescription": "func_run-03_task-alignvideo_acq-ap-mb8",
      "SeriesNumber": 34,
      "SeriesTime": "222702.684000",
      "SliceLocation": -102.77002260958,
      "SliceThickness": 2.7000000476837,
      "SmallestImagePixelValue": 0,
      "SoftwareVersions": "syngo MR E11",
      "SpacingBetweenSlices": 2.6999999196438,
      "SpecificCharacterSet": "ISO_IR 100",
      "StudyID": "1",
      "StudyTime": "204905.478000",
      "TransmitCoilName": "Body",
      "VariableFlipAngleFlag": "N",
      "WindowCenterWidthExplanation": "Algo1"
    },
    "slices": {}
  },
  "time": {
    "samples": {
      "AcquisitionNumber": [1, 2, 3, 4, 5, 6, 7, 8, 9, 10, 11, 12, 13, 14, 15, 16, 17, 18, 19, 20, 21, 22, 23, 24, 25, 26, 27, 28, 29, 30, 31, 32, 33, 34, 35, 36, 37, 38, 39, 40, 41, 42, 43, 44, 45, 46, 47, 48, 49, 50, 51, 52, 53, 54, 55, 56, 57, 58, 59, 60, 61, 62, 63, 64, 65, 66, 67, 68, 69, 70, 71, 72, 73, 74, 75, 76, 77, 78, 79, 80, 81, 82, 83, 84, 85, 86, 87, 88, 89, 90, 91, 92, 93, 94, 95, 96, 97, 98, 99, 100, 101, 102, 103, 104, 105, 106, 107, 108, 109, 110, 111, 112, 113, 114, 115, 116, 117, 118, 119, 120, 121, 122, 123, 124, 125, 126, 127, 128, 129, 130, 131, 132, 133, 134, 135, 136, 137, 138, 139, 140, 141, 142, 143, 144, 145, 146, 147, 148, 149, 150, 151, 152, 153, 154, 155, 156, 157, 158, 159, 160, 161, 162, 163, 164, 165, 166, 167, 168, 169, 170, 171, 172, 173, 174, 175, 176, 177, 178, 179, 180, 181, 182, 183, 184, 185, 186, 187, 188, 189, 190, 191, 192, 193, 194, 195, 196, 197, 198, 199, 200, 201, 202, 203, 204, 205, 206, 207, 208, 209, 210, 211, 212, 213, 214, 215, 216, 217, 218, 219, 220, 221, 222, 223, 224, 225, 226, 227, 228, 229, 230, 231, 232, 233, 234, 235, 236, 237, 238, 239, 240, 241, 242, 243, 244, 245, 246, 247, 248, 249, 250, 251, 252, 253, 254, 255, 256, 257, 258, 259, 260, 261, 262, 263, 264, 265, 266, 267, 268, 269, 270, 271, 272, 273, 274, 275, 276, 277, 278, 279, 280, 281, 282, 283, 284, 285, 286, 287, 288, 289, 290, 291, 292, 293, 294, 295, 296, 297, 298, 299, 300, 301, 302, 303, 304, 305, 306, 307, 308, 309, 310, 311, 312, 313, 314, 315, 316, 317, 318, 319, 320, 321, 322, 323, 324, 325, 326, 327, 328, 329, 330, 331, 332, 333, 334, 335, 336, 337, 338, 339, 340, 341, 342, 343, 344, 345, 346, 347, 348, 349, 350, 351, 352, 353, 354, 355, 356, 357, 358, 359, 360, 361, 362, 363, 364, 365, 366, 367, 368, 369, 370, 371, 372, 373, 374, 375, 376, 377, 378, 379, 380, 381, 382, 383, 384, 385, 386, 387, 388, 389, 390, 391, 392, 393, 394, 395, 396, 397, 398, 399, 400, 401, 402, 403, 404, 405, 406, 407, 408, 409, 410, 411, 412, 413, 414, 415, 416, 417, 418, 419, 420, 421, 422, 423, 424, 425, 426, 427, 428, 429, 430, 431, 432, 433, 434, 435, 436, 437, 438, 439, 440, 441, 442, 443, 444, 445, 446, 447, 448, 449, 450, 451, 452, 453, 454, 455, 456, 457, 458, 459, 460, 461, 462, 463, 464, 465, 466, 467, 468, 469, 470, 471, 472, 473, 474, 475, 476, 477, 478, 479, 480, 481, 482, 483, 484, 485, 486, 487, 488, 489, 490, 491, 492, 493, 494, 495, 496, 497, 498, 499, 500, 501, 502, 503, 504, 505, 506, 507, 508, 509, 510, 511, 512, 513, 514, 515, 516, 517, 518, 519, 520, 521, 522, 523, 524, 525, 526, 527, 528, 529, 530, 531, 532, 533, 534, 535, 536, 537, 538, 539, 540, 541, 542, 543, 544, 545, 546, 547, 548, 549, 550, 551, 552, 553, 554, 555, 556, 557, 558, 559, 560, 561, 562, 563, 564, 565, 566, 567, 568, 569, 570, 571, 572, 573, 574, 575, 576, 577, 578, 579, 580, 581, 582, 583, 584, 585, 586, 587, 588, 589, 590, 591, 592, 593, 594, 595, 596, 597, 598, 599, 600, 601, 602, 603, 604, 605, 606, 607, 608, 609, 610, 611, 612, 613, 614, 615, 616, 617, 618, 619, 620, 621, 622, 623, 624, 625, 626, 627, 628, 629, 630, 631, 632, 633, 634, 635, 636, 637, 638, 639, 640, 641, 642, 643, 644, 645, 646, 647, 648, 649, 650, 651, 652, 653, 654, 655, 656, 657, 658, 659, 660, 661, 662, 663, 664, 665, 666, 667, 668, 669, 670, 671, 672, 673, 674, 675, 676, 677, 678, 679, 680, 681, 682, 683, 684, 685, 686, 687, 688, 689, 690, 691, 692, 693, 694, 695, 696, 697, 698, 699, 700, 701, 702, 703, 704, 705, 706, 707, 708, 709, 710, 711, 712, 713, 714, 715, 716, 717, 718, 719, 720, 721, 722, 723, 724, 725, 726, 727, 728, 729, 730, 731, 732, 733, 734, 735, 736, 737, 738, 739, 740, 741, 742, 743, 744, 745, 746, 747, 748, 749, 750, 751, 752, 753, 754, 755, 756, 757, 758, 759, 760, 761, 762, 763, 764, 765, 766, 767, 768, 769, 770, 771, 772, 773, 774, 775, 776, 777, 778, 779, 780, 781, 782, 783, 784, 785, 786, 787, 788, 789, 790, 791, 792, 793, 794, 795, 796, 797, 798, 799, 800, 801, 802, 803, 804, 805, 806, 807, 808, 809, 810, 811, 812, 813, 814, 815, 816, 817, 818, 819, 820, 821, 822, 823, 824, 825, 826, 827, 828, 829, 830, 831, 832, 833, 834, 835, 836, 837, 838, 839, 840, 841, 842, 843, 844, 845, 846, 847, 848, 849, 850, 851, 852, 853, 854, 855, 856, 857, 858, 859, 860, 861, 862, 863, 864, 865, 866, 867, 868, 869, 870, 871, 872, 873, 874, 875, 876, 877, 878, 879, 880, 881, 882, 883, 884, 885, 886, 887, 888, 889, 890, 891, 892, 893, 894, 895, 896, 897, 898, 899, 900, 901, 902, 903, 904, 905, 906, 907, 908, 909, 910, 911, 912, 913, 914, 915, 916, 917, 918, 919, 920, 921, 922, 923, 924, 925, 926, 927, 928, 929, 930, 931, 932, 933, 934, 935, 936, 937, 938, 939, 940, 941, 942, 943, 944, 945, 946, 947, 948, 949, 950, 951, 952, 953, 954, 955, 956, 957, 958, 959, 960, 961, 962, 963, 964, 965, 966, 967, 968, 969, 970, 971, 972, 973, 974, 975, 976, 977, 978, 979, 980, 981, 982, 983, 984, 985, 986, 987, 988, 989, 990, 991, 992, 993, 994, 995, 996, 997, 998, 999, 1000, 1001, 1002, 1003, 1004, 1005, 1006, 1007, 1008, 1009, 1010, 1011, 1012, 1013, 1014, 1015, 1016],
      "AcquisitionTime": ["222640.337500", "222640.797500", "222641.257500", "222641.717500", "222642.177500", "222642.637500", "222643.097500", "222643.557500", "222644.017500", "222644.477500", "222644.937500", "222645.397500", "222645.857500", "222646.317500", "222646.777500", "222647.237500", "222647.697500", "222648.157500", "222648.617500", "222649.077500", "222649.537500", "222649.997500", "222650.457500", "222650.917500", "222651.377500", "222651.837500", "222652.297500", "222652.757500", "222653.217500", "222653.677500", "222654.137500", "222654.597500", "222655.057500", "222655.517500", "222655.977500", "222656.437500", "222656.897500", "222657.357500", "222657.817500", "222658.277500", "222658.737500", "222659.197500", "222659.657500", "222700.117500", "222700.577500", "222701.037500", "222701.497500", "222701.957500", "222702.417500", "222702.877500", "222703.337500", "222703.797500", "222704.257500", "222704.717500", "222705.177500", "222705.637500", "222706.097500", "222706.557500", "222707.017500", "222707.477500", "222707.937500", "222708.397500", "222708.857500", "222709.317500", "222709.777500", "222710.237500", "222710.697500", "222711.157500", "222711.617500", "222712.077500", "222712.537500", "222712.997500", "222713.457500", "222713.917500", "222714.377500", "222714.837500", "222715.297500", "222715.757500", "222716.217500", "222716.677500", "222717.137500", "222717.597500", "222718.057500", "222718.517500", "222718.977500", "222719.437500", "222719.897500", "222720.357500", "222720.817500", "222721.277500", "222721.737500", "222722.197500", "222722.657500", "222723.117500", "222723.577500", "222724.037500", "222724.497500", "222724.957500", "222725.417500", "222725.877500", "222726.337500", "222726.797500", "222727.257500", "222727.717500", "222728.177500", "222728.637500", "222729.097500", "222729.557500", "222730.017500", "222730.477500", "222730.937500", "222731.397500", "222731.857500", "222732.317500", "222732.777500", "222733.237500", "222733.697500", "222734.157500", "222734.617500", "222735.077500", "222735.537500", "222735.997500", "222736.457500", "222736.917500", "222737.377500", "222737.837500", "222738.297500", "222738.757500", "222739.217500", "222739.677500", "222740.137500", "222740.597500", "222741.057500", "222741.517500", "222741.977500", "222742.437500", "222742.897500", "222743.357500", "222743.817500", "222744.277500", "222744.737500", "222745.197500", "222745.657500", "222746.117500", "222746.577500", "222747.037500", "222747.497500", "222747.957500", "222748.417500", "222748.877500", "222749.337500", "222749.797500", "222750.257500", "222750.717500", "222751.177500", "222751.637500", "222752.097500", "222752.557500", "222753.017500", "222753.477500", "222753.937500", "222754.397500", "222754.857500", "222755.317500", "222755.777500", "222756.237500", "222756.697500", "222757.157500", "222757.617500", "222758.077500", "222758.537500", "222758.997500", "222759.457500", "222759.917500", "222800.377500", "222800.837500", "222801.297500", "222801.757500", "222802.217500", "222802.677500", "222803.137500", "222803.597500", "222804.057500", "222804.517500", "222804.977500", "222805.437500", "222805.897500", "222806.357500", "222806.817500", "222807.277500", "222807.737500", "222808.197500", "222808.657500", "222809.117500", "222809.577500", "222810.037500", "222810.497500", "222810.957500", "222811.417500", "222811.877500", "222812.337500", "222812.797500", "222813.257500", "222813.717500", "222814.177500", "222814.637500", "222815.097500", "222815.557500", "222816.017500", "222816.477500", "222816.937500", "222817.397500", "222817.857500", "222818.317500", "222818.777500", "222819.237500", "222819.697500", "222820.157500", "222820.617500", "222821.077500", "222821.537500", "222821.997500", "222822.457500", "222822.917500", "222823.377500", "222823.837500", "222824.297500", "222824.757500", "222825.217500", "222825.677500", "222826.137500", "222826.597500", "222827.057500", "222827.517500", "222827.977500", "222828.437500", "222828.897500", "222829.357500", "222829.817500", "222830.277500", "222830.737500", "222831.197500", "222831.657500", "222832.117500", "222832.577500", "222833.037500", "222833.497500", "222833.957500", "222834.417500", "222834.877500", "222835.337500", "222835.797500", "222836.257500", "222836.717500", "222837.177500", "222837.637500", "222838.097500", "222838.557500", "222839.017500", "222839.477500", "222839.937500", "222840.397500", "222840.857500", "222841.317500", "222841.777500", "222842.237500", "222842.697500", "222843.157500", "222843.617500", "222844.077500", "222844.537500", "222844.997500", "222845.457500", "222845.917500", "222846.377500", "222846.837500", "222847.297500", "222847.757500", "222848.217500", "222848.677500", "222849.137500", "222849.597500", "222850.057500", "222850.517500", "222850.977500", "222851.437500", "222851.897500", "222852.357500", "222852.817500", "222853.277500", "222853.737500", "222854.197500", "222854.657500", "222855.117500", "222855.577500", "222856.037500", "222856.497500", "222856.957500", "222857.417500", "222857.877500", "222858.337500", "222858.797500", "222859.257500", "222859.717500", "222900.177500", "222900.637500", "222901.097500", "222901.557500", "222902.017500", "222902.477500", "222902.937500", "222903.397500", "222903.857500", "222904.317500", "222904.777500", "222905.237500", "222905.697500", "222906.157500", "222906.617500", "222907.077500", "222907.537500", "222907.997500", "222908.457500", "222908.917500", "222909.377500", "222909.837500", "222910.297500", "222910.757500", "222911.217500", "222911.677500", "222912.137500", "222912.597500", "222913.057500", "222913.517500", "222913.977500", "222914.437500", "222914.897500", "222915.357500", "222915.817500", "222916.277500", "222916.737500", "222917.197500", "222917.657500", "222918.117500", "222918.577500", "222919.037500", "222919.497500", "222919.957500", "222920.417500", "222920.877500", "222921.337500", "222921.797500", "222922.257500", "222922.717500", "222923.177500", "222923.637500", "222924.097500", "222924.557500", "222925.017500", "222925.477500", "222925.937500", "222926.397500", "222926.857500", "222927.317500", "222927.777500", "222928.237500", "222928.697500", "222929.157500", "222929.617500", "222930.077500", "222930.537500", "222930.997500", "222931.457500", "222931.917500", "222932.377500", "222932.837500", "222933.297500", "222933.757500", "222934.217500", "222934.677500", "222935.137500", "222935.597500", "222936.057500", "222936.517500", "222936.977500", "222937.437500", "222937.897500", "222938.357500", "222938.817500", "222939.277500", "222939.737500", "222940.197500", "222940.657500", "222941.117500", "222941.577500", "222942.037500", "222942.497500", "222942.957500", "222943.417500", "222943.877500", "222944.337500", "222944.797500", "222945.257500", "222945.717500", "222946.177500", "222946.637500", "222947.097500", "222947.557500", "222948.017500", "222948.477500", "222948.937500", "222949.397500", "222949.857500", "222950.317500", "222950.777500", "222951.237500", "222951.697500", "222952.157500", "222952.617500", "222953.077500", "222953.537500", "222953.997500", "222954.457500", "222954.917500", "222955.377500", "222955.837500", "222956.297500", "222956.757500", "222957.217500", "222957.677500", "222958.137500", "222958.597500", "222959.057500", "222959.517500", "222959.977500", "223000.437500", "223000.897500", "223001.357500", "223001.817500", "223002.277500", "223002.737500", "223003.197500", "223003.657500", "223004.117500", "223004.577500", "223005.037500", "223005.497500", "223005.957500", "223006.417500", "223006.877500", "223007.337500", "223007.797500", "223008.257500", "223008.717500", "223009.177500", "223009.637500", "223010.097500", "223010.557500", "223011.017500", "223011.477500", "223011.937500", "223012.397500", "223012.857500", "223013.317500", "223013.777500", "223014.237500", "223014.697500", "223015.157500", "223015.617500", "223016.077500", "223016.537500", "223016.997500", "223017.457500", "223017.917500", "223018.377500", "223018.837500", "223019.297500", "223019.757500", "223020.217500", "223020.677500", "223021.137500", "223021.597500", "223022.057500", "223022.517500", "223022.977500", "223023.437500", "223023.897500", "223024.357500", "223024.817500", "223025.277500", "223025.737500", "223026.197500", "223026.657500", "223027.117500", "223027.577500", "223028.037500", "223028.497500", "223028.957500", "223029.417500", "223029.877500", "223030.337500", "223030.797500", "223031.257500", "223031.717500", "223032.177500", "223032.637500", "223033.097500", "223033.557500", "223034.017500", "223034.477500", "223034.937500", "223035.397500", "223035.857500", "223036.317500", "223036.777500", "223037.237500", "223037.697500", "223038.157500", "223038.617500", "223039.077500", "223039.537500", "223039.997500", "223040.457500", "223040.917500", "223041.377500", "223041.837500", "223042.297500", "223042.757500", "223043.217500", "223043.677500", "223044.137500", "223044.597500", "223045.057500", "223045.517500", "223045.977500", "223046.437500", "223046.897500", "223047.357500", "223047.817500", "223048.277500", "223048.737500", "223049.197500", "223049.657500", "223050.117500", "223050.577500", "223051.037500", "223051.497500", "223051.957500", "223052.417500", "223052.877500", "223053.337500", "223053.797500", "223054.257500", "223054.717500", "223055.177500", "223055.637500", "223056.097500", "223056.557500", "223057.017500", "223057.477500", "223057.937500", "223058.397500", "223058.857500", "223059.317500", "223059.777500", "223100.237500", "223100.697500", "223101.157500", "223101.617500", "223102.077500", "223102.537500", "223102.997500", "223103.457500", "223103.917500", "223104.377500", "223104.837500", "223105.297500", "223105.757500", "223106.217500", "223106.677500", "223107.137500", "223107.597500", "223108.057500", "223108.517500", "223108.977500", "223109.437500", "223109.897500", "223110.357500", "223110.817500", "223111.277500", "223111.737500", "223112.197500", "223112.657500", "223113.117500", "223113.577500", "223114.037500", "223114.497500", "223114.957500", "223115.417500", "223115.877500", "223116.337500", "223116.797500", "223117.257500", "223117.717500", "223118.177500", "223118.637500", "223119.097500", "223119.557500", "223120.017500", "223120.477500", "223120.937500", "223121.397500", "223121.857500", "223122.317500", "223122.777500", "223123.237500", "223123.697500", "223124.157500", "223124.617500", "223125.077500", "223125.537500", "223125.997500", "223126.457500", "223126.917500", "223127.377500", "223127.837500", "223128.297500", "223128.757500", "223129.217500", "223129.677500", "223130.137500", "223130.597500", "223131.057500", "223131.517500", "223131.977500", "223132.437500", "223132.897500", "223133.357500", "223133.817500", "223134.277500", "223134.737500", "223135.197500", "223135.657500", "223136.117500", "223136.577500", "223137.037500", "223137.497500", "223137.957500", "223138.417500", "223138.877500", "223139.337500", "223139.797500", "223140.257500", "223140.717500", "223141.177500", "223141.637500", "223142.097500", "223142.557500", "223143.017500", "223143.477500", "223143.937500", "223144.397500", "223144.857500", "223145.317500", "223145.777500", "223146.237500", "223146.697500", "223147.157500", "223147.617500", "223148.077500", "223148.537500", "223148.997500", "223149.457500", "223149.917500", "223150.377500", "223150.837500", "223151.297500", "223151.757500", "223152.217500", "223152.677500", "223153.137500", "223153.597500", "223154.057500", "223154.517500", "223154.977500", "223155.437500", "223155.897500", "223156.357500", "223156.817500", "223157.277500", "223157.737500", "223158.197500", "223158.657500", "223159.117500", "223159.577500", "223200.037500", "223200.497500", "223200.957500", "223201.417500", "223201.877500", "223202.337500", "223202.797500", "223203.257500", "223203.717500", "223204.177500", "223204.637500", "223205.097500", "223205.557500", "223206.017500", "223206.477500", "223206.937500", "223207.397500", "223207.857500", "223208.317500", "223208.777500", "223209.237500", "223209.697500", "223210.157500", "223210.617500", "223211.077500", "223211.537500", "223211.997500", "223212.457500", "223212.917500", "223213.377500", "223213.837500", "223214.297500", "223214.757500", "223215.217500", "223215.677500", "223216.137500", "223216.597500", "223217.057500", "223217.517500", "223217.977500", "223218.437500", "223218.897500", "223219.357500", "223219.817500", "223220.277500", "223220.737500", "223221.197500", "223221.657500", "223222.117500", "223222.577500", "223223.037500", "223223.497500", "223223.957500", "223224.417500", "223224.877500", "223225.337500", "223225.797500", "223226.257500", "223226.717500", "223227.177500", "223227.637500", "223228.097500", "223228.557500", "223229.017500", "223229.477500", "223229.937500", "223230.397500", "223230.857500", "223231.317500", "223231.777500", "223232.237500", "223232.697500", "223233.157500", "223233.617500", "223234.077500", "223234.537500", "223234.997500", "223235.457500", "223235.917500", "223236.377500", "223236.837500", "223237.297500", "223237.757500", "223238.217500", "223238.677500", "223239.137500", "223239.597500", "223240.057500", "223240.517500", "223240.977500", "223241.437500", "223241.897500", "223242.357500", "223242.817500", "223243.277500", "223243.737500", "223244.197500", "223244.657500", "223245.117500", "223245.577500", "223246.037500", "223246.497500", "223246.957500", "223247.417500", "223247.877500", "223248.337500", "223248.797500", "223249.257500", "223249.717500", "223250.177500", "223250.637500", "223251.097500", "223251.557500", "223252.017500", "223252.477500", "223252.937500", "223253.397500", "223253.857500", "223254.317500", "223254.777500", "223255.237500", "223255.697500", "223256.157500", "223256.617500", "223257.077500", "223257.537500", "223257.997500", "223258.457500", "223258.917500", "223259.377500", "223259.837500", "223300.297500", "223300.757500", "223301.217500", "223301.677500", "223302.137500", "223302.597500", "223303.057500", "223303.517500", "223303.977500", "223304.437500", "223304.897500", "223305.357500", "223305.817500", "223306.277500", "223306.737500", "223307.197500", "223307.657500", "223308.117500", "223308.577500", "223309.037500", "223309.497500", "223309.957500", "223310.417500", "223310.877500", "223311.337500", "223311.797500", "223312.257500", "223312.717500", "223313.177500", "223313.637500", "223314.097500", "223314.557500", "223315.017500", "223315.477500", "223315.937500", "223316.397500", "223316.857500", "223317.317500", "223317.777500", "223318.237500", "223318.697500", "223319.157500", "223319.617500", "223320.077500", "223320.537500", "223320.997500", "223321.457500", "223321.917500", "223322.377500", "223322.837500", "223323.297500", "223323.757500", "223324.217500", "223324.677500", "223325.137500", "223325.597500", "223326.057500", "223326.517500", "223326.977500", "223327.437500", "223327.897500", "223328.357500", "223328.817500", "223329.277500", "223329.737500", "223330.197500", "223330.657500", "223331.117500", "223331.577500", "223332.037500", "223332.497500", "223332.957500", "223333.417500", "223333.877500", "223334.337500", "223334.797500", "223335.257500", "223335.717500", "223336.177500", "223336.637500", "223337.097500", "223337.557500", "223338.017500", "223338.477500", "223338.937500", "223339.397500", "223339.857500", "223340.317500", "223340.777500", "223341.237500", "223341.697500", "223342.157500", "223342.617500", "223343.077500", "223343.537500", "223343.997500", "223344.457500", "223344.917500", "223345.377500", "223345.837500", "223346.297500", "223346.757500", "223347.217500", "223347.677500", "223348.137500", "223348.597500", "223349.057500", "223349.517500", "223349.977500", "223350.437500", "223350.897500", "223351.357500", "223351.817500", "223352.277500", "223352.737500", "223353.197500", "223353.657500", "223354.117500", "223354.577500", "223355.037500", "223355.497500", "223355.957500", "223356.417500", "223356.877500", "223357.337500", "223357.797500", "223358.257500", "223358.717500", "223359.177500", "223359.637500", "223400.097500", "223400.557500", "223401.017500", "223401.477500", "223401.937500", "223402.397500", "223402.857500", "223403.317500", "223403.777500", "223404.237500", "223404.697500", "223405.157500", "223405.617500", "223406.077500", "223406.537500", "223406.997500", "223407.457500", "223407.917500", "223408.377500", "223408.837500", "223409.297500", "223409.757500", "223410.217500", "223410.677500", "223411.137500", "223411.597500", "223412.057500", "223412.517500", "223412.977500", "223413.437500", "223413.897500", "223414.357500", "223414.817500", "223415.277500", "223415.737500", "223416.197500", "223416.657500", "223417.117500", "223417.577500", "223418.037500", "223418.497500", "223418.957500", "223419.417500", "223419.877500", "223420.337500", "223420.797500", "223421.257500", "223421.717500", "223422.177500", "223422.637500", "223423.097500", "223423.557500", "223424.017500", "223424.477500", "223424.937500", "223425.397500", "223425.857500", "223426.317500", "223426.777500", "223427.237500"],
