{
  "AcquisitionMatrixPE": 82,
  "AcquisitionNumber": 1,
  "AcquisitionTime": "21:34:34.962500",
  "BandwidthPerPixelPhaseEncode": 24.888,
  "BaseResolution": 82,
  "BodyPartExamined": "BRAIN",
  "ConsistencyInfo": "N4_VE11E_LATEST_20181129",
  "ConversionSoftware": "dcm2niix",
  "ConversionSoftwareVersion": "v1.0.20201102",
  "DerivedVendorReportedEchoSpacing": 0.00049,
  "DeviceSerialNumber": "66112",
  "DwellTime": 2e-06,
  "EchoTime": 0.0272,
  "EchoTrainLength": 82,
  "EffectiveEchoSpacing": 0.00049,
  "FlipAngle": 44,
  "ImageComments": "Unaliased MB8/PE3",
  "ImageOrientationPatientDICOM": [0.995098, -0.0442965, 0.0884185, 0.0544151, 0.991813, -0.115525],
  "ImageType": [
    "ORIGINAL",
    "PRIMARY",
    "M",
    "MB",
    "ND",
    "NORM",
    "MOSAIC"
],
  "ImagingFrequency": 123.259,
  "InPlanePhaseEncodingDirectionDICOM": "COL",
  "InstitutionAddress": "Maynard 3,Hanover,NH,US,03755",
  "InstitutionName": "Dartmouth College - PBS",
  "InstitutionalDepartmentName": "Department",
  "MRAcquisitionType": "2D",
  "MagneticFieldStrength": 3,
  "Manufacturer": "Siemens",
  "ManufacturersModelName": "Prisma",
  "Modality": "MR",
  "MultibandAccelerationFactor": 8,
  "PartialFourier": 1,
  "PatientPosition": "HFS",
  "PercentPhaseFOV": 100,
  "PercentSampling": 100,
  "PhaseEncodingDirection": "j-",
  "PhaseEncodingSteps": 82,
  "PhaseResolution": 1,
  "PixelBandwidth": 3050,
  "ProcedureStepDescription": "Wager_Wager^1076_spacetop",
  "ProtocolName": "func_run-03_task-social_acq-ap-mb8",
  "PulseSequenceDetails": "%CustomerSeq%\\cmrr_mbep2d_bold",
  "ReceiveCoilActiveElements": "HEA;HEP",
  "ReceiveCoilName": "Head_32",
  "ReconMatrixPE": 82,
  "RepetitionTime": 0.46,
  "SAR": 0.08258,
  "ScanOptions": "FS",
  "ScanningSequence": "EP",
  "SequenceName": "epfid2d1_82",
  "SequenceVariant": "SK\\SS",
  "SeriesDescription": "func_run-03_task-social_acq-ap-mb8",
  "SeriesNumber": 16,
  "ShimSetting": [4255, -7737, -7303, 310, -195, 24, -109, 75],
  "SliceThickness": 2.7,
  "SliceTiming": [0, 0.25, 0.0625, 0.315, 0.125, 0.3775, 0.1875, 0, 0.25, 0.0625, 0.315, 0.125, 0.3775, 0.1875, 0, 0.25, 0.0625, 0.315, 0.125, 0.3775, 0.1875, 0, 0.25, 0.0625, 0.315, 0.125, 0.3775, 0.1875, 0, 0.25, 0.0625, 0.315, 0.125, 0.3775, 0.1875, 0, 0.25, 0.0625, 0.315, 0.125, 0.3775, 0.1875, 0, 0.25, 0.0625, 0.315, 0.125, 0.3775, 0.1875, 0, 0.25, 0.0625, 0.315, 0.125, 0.3775, 0.1875],
  "SoftwareVersions": "syngo MR E11",
  "SpacingBetweenSlices": 2.7,
  "StationName": "AWP66112",
  "TaskName": "social",
  "TotalReadoutTime": 0.03969,
  "TxRefAmp": 240.42,
  "WipMemBlock": "ef958ce6-205f-4840-a9e8-131acb05a468||Sequence: R016 ve11e/master r/434b28f1; Aug  7 2019 18:53:46 by eja",
  "dcmmeta_affine": [
    [-2.6697752475738525, 0.1459917575120926, 0.2229585498571396, 97.43636322021484],
    [0.11884413659572601, 2.660961627960205, -0.32337987422943115, -102.14352416992188],
    [0.23722034692764282, 0.3099460005760193, 2.6712758541107178, -124.54203796386719],
    [0.0, 0.0, 0.0, 1.0]
],
  "dcmmeta_reorient_transform": [
    [0.0, -1.0, 0.0, 81.0],
    [1.0, 0.0, 0.0, 0.0],
    [0.0, 0.0, 1.0, 0.0],
    [0.0, 0.0, 0.0, 1.0]
],
  "dcmmeta_shape": [82, 82, 56, 872],
  "dcmmeta_slice_dim": 2,
  "dcmmeta_version": 0.6,
  "global": {
    "const": {
      "AccessionNumber": "A004819",
      "AcquisitionMatrix": [82, 0, 0, 82],
      "AngioFlag": "N",
      "BitsAllocated": 16,
      "BitsStored": 16,
      "BodyPartExamined": "BRAIN",
      "Columns": 656,
      "EchoNumbers": 1,
      "EchoTime": 27.2,
      "EchoTrainLength": 82,
      "FlipAngle": 44.0,
      "HighBit": 15,
      "ImageOrientationPatient": [0.99509798255521, -0.044296449747, 0.08841849158614, 0.0544151109529, 0.99181293292024, -0.1155253296561],
      "ImagePositionPatient": [-917.38679374985, -842.98207039071, -78.56414141461],
      "ImageType": [
        "ORIGINAL",
        "PRIMARY",
        "M",
        "MB",
        "ND",
        "NORM",
        "MOSAIC"
],
      "ImagedNucleus": "1H",
      "ImagingFrequency": 123.259132,
      "InPlanePhaseEncodingDirection": "COL",
      "MRAcquisitionType": "2D",
      "MagneticFieldStrength": 3.0,
      "Manufacturer": "SIEMENS",
      "ManufacturerModelName": "Prisma",
      "Modality": "MR",
      "NumberOfAverages": 1.0,
      "NumberOfPhaseEncodingSteps": 82,
      "PercentPhaseFieldOfView": 100.0,
      "PercentSampling": 100.0,
      "PerformedProcedureStepStartTime": "204905.529000",
      "PhotometricInterpretation": "MONOCHROME2",
      "PixelBandwidth": 3050.0,
      "PixelRepresentation": 0,
      "PixelSpacing": [2.6829268932343, 2.6829268932343],
      "ProtocolName": "func_run-03_task-social_acq-ap-mb8",
      "RepetitionTime": 460.0,
      "Rows": 656,
      "SAR": 0.08258000417462,
      "SamplesPerPixel": 1,
      "ScanOptions": "FS",
      "ScanningSequence": "EP",
      "SequenceName": "epfid2d1_82",
      "SequenceVariant": [
        "SK",
        "SS"
],
      "SeriesDescription": "func_run-03_task-social_acq-ap-mb8",
      "SeriesNumber": 16,
      "SeriesTime": "213442.825000",
      "SliceLocation": -102.93729776482,
      "SliceThickness": 2.7000000476837,
      "SmallestImagePixelValue": 0,
      "SoftwareVersions": "syngo MR E11",
      "SpacingBetweenSlices": 2.7000000523239,
      "SpecificCharacterSet": "ISO_IR 100",
      "StudyID": "1",
      "StudyTime": "204905.478000",
      "TransmitCoilName": "Body",
      "VariableFlipAngleFlag": "N",
      "WindowCenterWidthExplanation": "Algo1"
    },
    "slices": {}
  },
  "time": {
    "samples": {
      "AcquisitionNumber": [1, 2, 3, 4, 5, 6, 7, 8, 9, 10, 11, 12, 13, 14, 15, 16, 17, 18, 19, 20, 21, 22, 23, 24, 25, 26, 27, 28, 29, 30, 31, 32, 33, 34, 35, 36, 37, 38, 39, 40, 41, 42, 43, 44, 45, 46, 47, 48, 49, 50, 51, 52, 53, 54, 55, 56, 57, 58, 59, 60, 61, 62, 63, 64, 65, 66, 67, 68, 69, 70, 71, 72, 73, 74, 75, 76, 77, 78, 79, 80, 81, 82, 83, 84, 85, 86, 87, 88, 89, 90, 91, 92, 93, 94, 95, 96, 97, 98, 99, 100, 101, 102, 103, 104, 105, 106, 107, 108, 109, 110, 111, 112, 113, 114, 115, 116, 117, 118, 119, 120, 121, 122, 123, 124, 125, 126, 127, 128, 129, 130, 131, 132, 133, 134, 135, 136, 137, 138, 139, 140, 141, 142, 143, 144, 145, 146, 147, 148, 149, 150, 151, 152, 153, 154, 155, 156, 157, 158, 159, 160, 161, 162, 163, 164, 165, 166, 167, 168, 169, 170, 171, 172, 173, 174, 175, 176, 177, 178, 179, 180, 181, 182, 183, 184, 185, 186, 187, 188, 189, 190, 191, 192, 193, 194, 195, 196, 197, 198, 199, 200, 201, 202, 203, 204, 205, 206, 207, 208, 209, 210, 211, 212, 213, 214, 215, 216, 217, 218, 219, 220, 221, 222, 223, 224, 225, 226, 227, 228, 229, 230, 231, 232, 233, 234, 235, 236, 237, 238, 239, 240, 241, 242, 243, 244, 245, 246, 247, 248, 249, 250, 251, 252, 253, 254, 255, 256, 257, 258, 259, 260, 261, 262, 263, 264, 265, 266, 267, 268, 269, 270, 271, 272, 273, 274, 275, 276, 277, 278, 279, 280, 281, 282, 283, 284, 285, 286, 287, 288, 289, 290, 291, 292, 293, 294, 295, 296, 297, 298, 299, 300, 301, 302, 303, 304, 305, 306, 307, 308, 309, 310, 311, 312, 313, 314, 315, 316, 317, 318, 319, 320, 321, 322, 323, 324, 325, 326, 327, 328, 329, 330, 331, 332, 333, 334, 335, 336, 337, 338, 339, 340, 341, 342, 343, 344, 345, 346, 347, 348, 349, 350, 351, 352, 353, 354, 355, 356, 357, 358, 359, 360, 361, 362, 363, 364, 365, 366, 367, 368, 369, 370, 371, 372, 373, 374, 375, 376, 377, 378, 379, 380, 381, 382, 383, 384, 385, 386, 387, 388, 389, 390, 391, 392, 393, 394, 395, 396, 397, 398, 399, 400, 401, 402, 403, 404, 405, 406, 407, 408, 409, 410, 411, 412, 413, 414, 415, 416, 417, 418, 419, 420, 421, 422, 423, 424, 425, 426, 427, 428, 429, 430, 431, 432, 433, 434, 435, 436, 437, 438, 439, 440, 441, 442, 443, 444, 445, 446, 447, 448, 449, 450, 451, 452, 453, 454, 455, 456, 457, 458, 459, 460, 461, 462, 463, 464, 465, 466, 467, 468, 469, 470, 471, 472, 473, 474, 475, 476, 477, 478, 479, 480, 481, 482, 483, 484, 485, 486, 487, 488, 489, 490, 491, 492, 493, 494, 495, 496, 497, 498, 499, 500, 501, 502, 503, 504, 505, 506, 507, 508, 509, 510, 511, 512, 513, 514, 515, 516, 517, 518, 519, 520, 521, 522, 523, 524, 525, 526, 527, 528, 529, 530, 531, 532, 533, 534, 535, 536, 537, 538, 539, 540, 541, 542, 543, 544, 545, 546, 547, 548, 549, 550, 551, 552, 553, 554, 555, 556, 557, 558, 559, 560, 561, 562, 563, 564, 565, 566, 567, 568, 569, 570, 571, 572, 573, 574, 575, 576, 577, 578, 579, 580, 581, 582, 583, 584, 585, 586, 587, 588, 589, 590, 591, 592, 593, 594, 595, 596, 597, 598, 599, 600, 601, 602, 603, 604, 605, 606, 607, 608, 609, 610, 611, 612, 613, 614, 615, 616, 617, 618, 619, 620, 621, 622, 623, 624, 625, 626, 627, 628, 629, 630, 631, 632, 633, 634, 635, 636, 637, 638, 639, 640, 641, 642, 643, 644, 645, 646, 647, 648, 649, 650, 651, 652, 653, 654, 655, 656, 657, 658, 659, 660, 661, 662, 663, 664, 665, 666, 667, 668, 669, 670, 671, 672, 673, 674, 675, 676, 677, 678, 679, 680, 681, 682, 683, 684, 685, 686, 687, 688, 689, 690, 691, 692, 693, 694, 695, 696, 697, 698, 699, 700, 701, 702, 703, 704, 705, 706, 707, 708, 709, 710, 711, 712, 713, 714, 715, 716, 717, 718, 719, 720, 721, 722, 723, 724, 725, 726, 727, 728, 729, 730, 731, 732, 733, 734, 735, 736, 737, 738, 739, 740, 741, 742, 743, 744, 745, 746, 747, 748, 749, 750, 751, 752, 753, 754, 755, 756, 757, 758, 759, 760, 761, 762, 763, 764, 765, 766, 767, 768, 769, 770, 771, 772, 773, 774, 775, 776, 777, 778, 779, 780, 781, 782, 783, 784, 785, 786, 787, 788, 789, 790, 791, 792, 793, 794, 795, 796, 797, 798, 799, 800, 801, 802, 803, 804, 805, 806, 807, 808, 809, 810, 811, 812, 813, 814, 815, 816, 817, 818, 819, 820, 821, 822, 823, 824, 825, 826, 827, 828, 829, 830, 831, 832, 833, 834, 835, 836, 837, 838, 839, 840, 841, 842, 843, 844, 845, 846, 847, 848, 849, 850, 851, 852, 853, 854, 855, 856, 857, 858, 859, 860, 861, 862, 863, 864, 865, 866, 867, 868, 869, 870, 871, 872],
      "AcquisitionTime": ["213434.962500", "213435.422500", "213435.882500", "213436.342500", "213436.802500", "213437.262500", "213437.722500", "213438.182500", "213438.642500", "213439.102500", "213439.562500", "213440.022500", "213440.482500", "213440.942500", "213441.402500", "213441.862500", "213442.322500", "213442.782500", "213443.242500", "213443.702500", "213444.162500", "213444.622500", "213445.082500", "213445.542500", "213446.002500", "213446.462500", "213446.922500", "213447.382500", "213447.842500", "213448.302500", "213448.762500", "213449.222500", "213449.682500", "213450.142500", "213450.602500", "213451.062500", "213451.522500", "213451.982500", "213452.442500", "213452.902500", "213453.362500", "213453.822500", "213454.282500", "213454.742500", "213455.202500", "213455.662500", "213456.122500", "213456.582500", "213457.042500", "213457.502500", "213457.962500", "213458.422500", "213458.882500", "213459.342500", "213459.802500", "213500.262500", "213500.722500", "213501.182500", "213501.642500", "213502.102500", "213502.562500", "213503.022500", "213503.482500", "213503.942500", "213504.402500", "213504.862500", "213505.322500", "213505.782500", "213506.242500", "213506.702500", "213507.162500", "213507.622500", "213508.082500", "213508.542500", "213509.002500", "213509.462500", "213509.922500", "213510.382500", "213510.842500", "213511.302500", "213511.762500", "213512.222500", "213512.682500", "213513.142500", "213513.602500", "213514.062500", "213514.522500", "213514.982500", "213515.442500", "213515.902500", "213516.362500", "213516.822500", "213517.282500", "213517.742500", "213518.202500", "213518.662500", "213519.122500", "213519.582500", "213520.042500", "213520.502500", "213520.962500", "213521.422500", "213521.882500", "213522.342500", "213522.802500", "213523.262500", "213523.722500", "213524.182500", "213524.642500", "213525.102500", "213525.562500", "213526.022500", "213526.482500", "213526.942500", "213527.402500", "213527.862500", "213528.322500", "213528.782500", "213529.242500", "213529.702500", "213530.162500", "213530.622500", "213531.082500", "213531.542500", "213532.002500", "213532.462500", "213532.922500", "213533.382500", "213533.842500", "213534.302500", "213534.762500", "213535.222500", "213535.682500", "213536.142500", "213536.602500", "213537.062500", "213537.522500", "213537.982500", "213538.442500", "213538.902500", "213539.362500", "213539.822500", "213540.282500", "213540.742500", "213541.202500", "213541.662500", "213542.122500", "213542.582500", "213543.042500", "213543.502500", "213543.962500", "213544.422500", "213544.882500", "213545.342500", "213545.802500", "213546.262500", "213546.722500", "213547.182500", "213547.642500", "213548.102500", "213548.562500", "213549.022500", "213549.482500", "213549.942500", "213550.402500", "213550.862500", "213551.322500", "213551.782500", "213552.242500", "213552.702500", "213553.162500", "213553.622500", "213554.082500", "213554.542500", "213555.002500", "213555.462500", "213555.922500", "213556.382500", "213556.842500", "213557.302500", "213557.762500", "213558.222500", "213558.682500", "213559.142500", "213559.602500", "213600.062500", "213600.522500", "213600.982500", "213601.442500", "213601.902500", "213602.362500", "213602.822500", "213603.282500", "213603.742500", "213604.202500", "213604.662500", "213605.122500", "213605.582500", "213606.042500", "213606.502500", "213606.962500", "213607.422500", "213607.882500", "213608.342500", "213608.802500", "213609.262500", "213609.722500", "213610.182500", "213610.642500", "213611.102500", "213611.562500", "213612.022500", "213612.482500", "213612.942500", "213613.402500", "213613.862500", "213614.322500", "213614.782500", "213615.242500", "213615.702500", "213616.162500", "213616.622500", "213617.082500", "213617.542500", "213618.002500", "213618.462500", "213618.922500", "213619.382500", "213619.842500", "213620.302500", "213620.762500", "213621.222500", "213621.682500", "213622.142500", "213622.602500", "213623.062500", "213623.522500", "213623.982500", "213624.442500", "213624.902500", "213625.362500", "213625.822500", "213626.282500", "213626.742500", "213627.202500", "213627.662500", "213628.122500", "213628.582500", "213629.042500", "213629.502500", "213629.962500", "213630.422500", "213630.882500", "213631.342500", "213631.802500", "213632.262500", "213632.722500", "213633.182500", "213633.642500", "213634.102500", "213634.562500", "213635.022500", "213635.482500", "213635.942500", "213636.402500", "213636.862500", "213637.322500", "213637.782500", "213638.242500", "213638.702500", "213639.162500", "213639.622500", "213640.082500", "213640.542500", "213641.002500", "213641.462500", "213641.922500", "213642.382500", "213642.842500", "213643.302500", "213643.762500", "213644.222500", "213644.682500", "213645.142500", "213645.602500", "213646.062500", "213646.522500", "213646.982500", "213647.442500", "213647.902500", "213648.362500", "213648.822500", "213649.282500", "213649.742500", "213650.202500", "213650.662500", "213651.122500", "213651.582500", "213652.042500", "213652.502500", "213652.962500", "213653.422500", "213653.882500", "213654.342500", "213654.802500", "213655.262500", "213655.722500", "213656.182500", "213656.642500", "213657.102500", "213657.562500", "213658.022500", "213658.482500", "213658.942500", "213659.402500", "213659.862500", "213700.322500", "213700.782500", "213701.242500", "213701.702500", "213702.162500", "213702.622500", "213703.082500", "213703.542500", "213704.002500", "213704.462500", "213704.922500", "213705.382500", "213705.842500", "213706.302500", "213706.762500", "213707.222500", "213707.682500", "213708.142500", "213708.602500", "213709.062500", "213709.522500", "213709.982500", "213710.442500", "213710.902500", "213711.362500", "213711.822500", "213712.282500", "213712.742500", "213713.202500", "213713.662500", "213714.122500", "213714.582500", "213715.042500", "213715.502500", "213715.962500", "213716.422500", "213716.882500", "213717.342500", "213717.802500", "213718.262500", "213718.722500", "213719.182500", "213719.642500", "213720.102500", "213720.562500", "213721.022500", "213721.482500", "213721.942500", "213722.402500", "213722.862500", "213723.322500", "213723.782500", "213724.242500", "213724.702500", "213725.162500", "213725.622500", "213726.082500", "213726.542500", "213727.002500", "213727.462500", "213727.922500", "213728.382500", "213728.842500", "213729.302500", "213729.762500", "213730.222500", "213730.682500", "213731.142500", "213731.602500", "213732.062500", "213732.522500", "213732.982500", "213733.442500", "213733.902500", "213734.362500", "213734.822500", "213735.282500", "213735.742500", "213736.202500", "213736.662500", "213737.122500", "213737.582500", "213738.042500", "213738.502500", "213738.962500", "213739.422500", "213739.882500", "213740.342500", "213740.802500", "213741.262500", "213741.722500", "213742.182500", "213742.642500", "213743.102500", "213743.562500", "213744.022500", "213744.482500", "213744.942500", "213745.402500", "213745.862500", "213746.322500", "213746.782500", "213747.242500", "213747.702500", "213748.162500", "213748.622500", "213749.082500", "213749.542500", "213750.002500", "213750.462500", "213750.922500", "213751.382500", "213751.842500", "213752.302500", "213752.762500", "213753.222500", "213753.682500", "213754.142500", "213754.602500", "213755.062500", "213755.522500", "213755.982500", "213756.442500", "213756.902500", "213757.362500", "213757.822500", "213758.282500", "213758.742500", "213759.202500", "213759.662500", "213800.122500", "213800.582500", "213801.042500", "213801.502500", "213801.962500", "213802.422500", "213802.882500", "213803.342500", "213803.802500", "213804.262500", "213804.722500", "213805.182500", "213805.642500", "213806.102500", "213806.562500", "213807.022500", "213807.482500", "213807.942500", "213808.402500", "213808.862500", "213809.322500", "213809.782500", "213810.242500", "213810.702500", "213811.162500", "213811.622500", "213812.082500", "213812.542500", "213813.002500", "213813.462500", "213813.922500", "213814.382500", "213814.842500", "213815.302500", "213815.762500", "213816.222500", "213816.682500", "213817.142500", "213817.602500", "213818.062500", "213818.522500", "213818.982500", "213819.442500", "213819.902500", "213820.362500", "213820.822500", "213821.282500", "213821.742500", "213822.202500", "213822.662500", "213823.122500", "213823.582500", "213824.042500", "213824.502500", "213824.962500", "213825.422500", "213825.882500", "213826.342500", "213826.802500", "213827.262500", "213827.722500", "213828.182500", "213828.642500", "213829.102500", "213829.562500", "213830.022500", "213830.482500", "213830.942500", "213831.402500", "213831.862500", "213832.322500", "213832.782500", "213833.242500", "213833.702500", "213834.162500", "213834.622500", "213835.082500", "213835.542500", "213836.002500", "213836.462500", "213836.922500", "213837.382500", "213837.842500", "213838.302500", "213838.762500", "213839.222500", "213839.682500", "213840.142500", "213840.602500", "213841.062500", "213841.522500", "213841.982500", "213842.442500", "213842.902500", "213843.362500", "213843.822500", "213844.282500", "213844.742500", "213845.202500", "213845.662500", "213846.122500", "213846.582500", "213847.042500", "213847.502500", "213847.962500", "213848.422500", "213848.882500", "213849.342500", "213849.802500", "213850.262500", "213850.722500", "213851.182500", "213851.642500", "213852.102500", "213852.562500", "213853.022500", "213853.482500", "213853.942500", "213854.402500", "213854.862500", "213855.322500", "213855.782500", "213856.242500", "213856.702500", "213857.162500", "213857.622500", "213858.082500", "213858.542500", "213859.002500", "213859.462500", "213859.922500", "213900.382500", "213900.842500", "213901.302500", "213901.762500", "213902.222500", "213902.682500", "213903.142500", "213903.602500", "213904.062500", "213904.522500", "213904.982500", "213905.442500", "213905.902500", "213906.362500", "213906.822500", "213907.282500", "213907.742500", "213908.202500", "213908.662500", "213909.122500", "213909.582500", "213910.042500", "213910.502500", "213910.962500", "213911.422500", "213911.882500", "213912.342500", "213912.802500", "213913.262500", "213913.722500", "213914.182500", "213914.642500", "213915.102500", "213915.562500", "213916.022500", "213916.482500", "213916.942500", "213917.402500", "213917.862500", "213918.322500", "213918.782500", "213919.242500", "213919.702500", "213920.162500", "213920.622500", "213921.082500", "213921.542500", "213922.002500", "213922.462500", "213922.922500", "213923.382500", "213923.842500", "213924.302500", "213924.762500", "213925.222500", "213925.682500", "213926.142500", "213926.602500", "213927.062500", "213927.522500", "213927.982500", "213928.442500", "213928.902500", "213929.362500", "213929.822500", "213930.282500", "213930.742500", "213931.202500", "213931.662500", "213932.122500", "213932.582500", "213933.042500", "213933.502500", "213933.962500", "213934.422500", "213934.882500", "213935.342500", "213935.802500", "213936.262500", "213936.722500", "213937.182500", "213937.642500", "213938.102500", "213938.562500", "213939.022500", "213939.482500", "213939.942500", "213940.402500", "213940.862500", "213941.322500", "213941.782500", "213942.242500", "213942.702500", "213943.162500", "213943.622500", "213944.082500", "213944.542500", "213945.002500", "213945.462500", "213945.922500", "213946.382500", "213946.842500", "213947.302500", "213947.762500", "213948.222500", "213948.682500", "213949.142500", "213949.602500", "213950.062500", "213950.522500", "213950.982500", "213951.442500", "213951.902500", "213952.362500", "213952.822500", "213953.282500", "213953.742500", "213954.202500", "213954.662500", "213955.122500", "213955.582500", "213956.042500", "213956.502500", "213956.962500", "213957.422500", "213957.882500", "213958.342500", "213958.802500", "213959.262500", "213959.722500", "214000.182500", "214000.642500", "214001.102500", "214001.562500", "214002.022500", "214002.482500", "214002.942500", "214003.402500", "214003.862500", "214004.322500", "214004.782500", "214005.242500", "214005.702500", "214006.162500", "214006.622500", "214007.082500", "214007.542500", "214008.002500", "214008.462500", "214008.922500", "214009.382500", "214009.842500", "214010.302500", "214010.762500", "214011.222500", "214011.682500", "214012.142500", "214012.602500", "214013.062500", "214013.522500", "214013.982500", "214014.442500", "214014.902500", "214015.362500", "214015.822500", "214016.282500", "214016.742500", "214017.202500", "214017.662500", "214018.122500", "214018.582500", "214019.042500", "214019.502500", "214019.962500", "214020.422500", "214020.882500", "214021.342500", "214021.802500", "214022.262500", "214022.722500", "214023.182500", "214023.642500", "214024.102500", "214024.562500", "214025.022500", "214025.482500", "214025.942500", "214026.402500", "214026.862500", "214027.322500", "214027.782500", "214028.242500", "214028.702500", "214029.162500", "214029.622500", "214030.082500", "214030.542500", "214031.002500", "214031.462500", "214031.922500", "214032.382500", "214032.842500", "214033.302500", "214033.762500", "214034.222500", "214034.682500", "214035.142500", "214035.602500", "214036.062500", "214036.522500", "214036.982500", "214037.442500", "214037.902500", "214038.362500", "214038.822500", "214039.282500", "214039.742500", "214040.202500", "214040.662500", "214041.122500", "214041.582500", "214042.042500", "214042.502500", "214042.962500", "214043.422500", "214043.882500", "214044.342500", "214044.802500", "214045.262500", "214045.722500", "214046.182500", "214046.642500", "214047.102500", "214047.562500", "214048.022500", "214048.482500", "214048.942500", "214049.402500", "214049.862500", "214050.322500", "214050.782500", "214051.242500", "214051.702500", "214052.162500", "214052.622500", "214053.082500", "214053.542500", "214054.002500", "214054.462500", "214054.922500", "214055.382500", "214055.842500", "214056.302500", "214056.762500", "214057.222500", "214057.682500", "214058.142500", "214058.602500", "214059.062500", "214059.522500", "214059.982500", "214100.442500", "214100.902500", "214101.362500", "214101.822500", "214102.282500", "214102.742500", "214103.202500", "214103.662500", "214104.122500", "214104.582500", "214105.042500", "214105.502500", "214105.962500", "214106.422500", "214106.882500", "214107.342500", "214107.802500", "214108.262500", "214108.722500", "214109.182500", "214109.642500", "214110.102500", "214110.562500", "214111.022500", "214111.482500", "214111.942500", "214112.402500", "214112.862500", "214113.322500", "214113.782500", "214114.242500", "214114.702500", "214115.162500", "214115.622500"],
