{
  "AcquisitionMatrixPE": 82,
  "AcquisitionNumber": 1,
  "AcquisitionTime": "21:48:30.592500",
  "BandwidthPerPixelPhaseEncode": 24.888,
  "BaseResolution": 82,
  "BodyPartExamined": "BRAIN",
  "ConsistencyInfo": "N4_VE11E_LATEST_20181129",
  "ConversionSoftware": "dcm2niix",
  "ConversionSoftwareVersion": "v1.0.20201102",
  "DerivedVendorReportedEchoSpacing": 0.00049,
  "DeviceSerialNumber": "66112",
  "DwellTime": 2e-06,
  "EchoTime": 0.0272,
  "EchoTrainLength": 82,
  "EffectiveEchoSpacing": 0.00049,
  "FlipAngle": 44,
  "ImageComments": "Unaliased MB8/PE3",
  "ImageOrientationPatientDICOM": [0.995098, -0.0442965, 0.0884185, 0.0544151, 0.991813, -0.115525],
  "ImageType": [
    "ORIGINAL",
    "PRIMARY",
    "M",
    "MB",
    "ND",
    "NORM",
    "MOSAIC"
],
  "ImagingFrequency": 123.259,
  "InPlanePhaseEncodingDirectionDICOM": "COL",
  "InstitutionAddress": "Maynard 3,Hanover,NH,US,03755",
  "InstitutionName": "Dartmouth College - PBS",
  "InstitutionalDepartmentName": "Department",
  "MRAcquisitionType": "2D",
  "MagneticFieldStrength": 3,
  "Manufacturer": "Siemens",
  "ManufacturersModelName": "Prisma",
  "Modality": "MR",
  "MultibandAccelerationFactor": 8,
  "PartialFourier": 1,
  "PatientPosition": "HFS",
  "PercentPhaseFOV": 100,
  "PercentSampling": 100,
  "PhaseEncodingDirection": "j-",
  "PhaseEncodingSteps": 82,
  "PhaseResolution": 1,
  "PixelBandwidth": 3050,
  "ProcedureStepDescription": "Wager_Wager^1076_spacetop",
  "ProtocolName": "func_run-05_task-social_acq-ap-mb8",
  "PulseSequenceDetails": "%CustomerSeq%\\cmrr_mbep2d_bold",
  "ReceiveCoilActiveElements": "HEA;HEP",
  "ReceiveCoilName": "Head_32",
  "ReconMatrixPE": 82,
  "RepetitionTime": 0.46,
  "SAR": 0.08258,
  "ScanOptions": "FS",
  "ScanningSequence": "EP",
  "SequenceName": "epfid2d1_82",
  "SequenceVariant": "SK\\SS",
  "SeriesDescription": "func_run-05_task-social_acq-ap-mb8",
  "SeriesNumber": 20,
  "ShimSetting": [4255, -7737, -7303, 310, -195, 24, -109, 75],
  "SliceThickness": 2.7,
  "SliceTiming": [0, 0.2525, 0.065, 0.315, 0.1275, 0.3775, 0.19, 0, 0.2525, 0.065, 0.315, 0.1275, 0.3775, 0.19, 0, 0.2525, 0.065, 0.315, 0.1275, 0.3775, 0.19, 0, 0.2525, 0.065, 0.315, 0.1275, 0.3775, 0.19, 0, 0.2525, 0.065, 0.315, 0.1275, 0.3775, 0.19, 0, 0.2525, 0.065, 0.315, 0.1275, 0.3775, 0.19, 0, 0.2525, 0.065, 0.315, 0.1275, 0.3775, 0.19, 0, 0.2525, 0.065, 0.315, 0.1275, 0.3775, 0.19],
  "SoftwareVersions": "syngo MR E11",
  "SpacingBetweenSlices": 2.7,
  "StationName": "AWP66112",
  "TaskName": "social",
  "TotalReadoutTime": 0.03969,
  "TxRefAmp": 240.42,
  "WipMemBlock": "ed534ebc-9ac9-49ae-ad03-a87eaa52619b||Sequence: R016 ve11e/master r/434b28f1; Aug  7 2019 18:53:46 by eja",
  "dcmmeta_affine": [
    [-2.6697752475738525, 0.1459917575120926, 0.2229585498571396, 97.43636322021484],
    [0.11884413659572601, 2.660961627960205, -0.32337987422943115, -102.14352416992188],
    [0.23722034692764282, 0.3099460005760193, 2.6712758541107178, -124.54203796386719],
    [0.0, 0.0, 0.0, 1.0]
],
  "dcmmeta_reorient_transform": [
    [0.0, -1.0, 0.0, 81.0],
    [1.0, 0.0, 0.0, 0.0],
    [0.0, 0.0, 1.0, 0.0],
    [0.0, 0.0, 0.0, 1.0]
],
  "dcmmeta_shape": [82, 82, 56, 872],
  "dcmmeta_slice_dim": 2,
  "dcmmeta_version": 0.6,
  "global": {
    "const": {
      "AccessionNumber": "A004819",
      "AcquisitionMatrix": [82, 0, 0, 82],
      "AngioFlag": "N",
      "BitsAllocated": 16,
      "BitsStored": 16,
      "BodyPartExamined": "BRAIN",
      "Columns": 656,
      "EchoNumbers": 1,
      "EchoTime": 27.2,
      "EchoTrainLength": 82,
      "FlipAngle": 44.0,
      "HighBit": 15,
      "ImageOrientationPatient": [0.99509798255521, -0.044296449747, 0.08841849158614, 0.0544151109529, 0.99181293292024, -0.1155253296561],
      "ImagePositionPatient": [-917.38679374985, -842.98207039071, -78.56414141461],
      "ImageType": [
        "ORIGINAL",
        "PRIMARY",
        "M",
        "MB",
        "ND",
        "NORM",
        "MOSAIC"
],
      "ImagedNucleus": "1H",
      "ImagingFrequency": 123.259132,
      "InPlanePhaseEncodingDirection": "COL",
      "MRAcquisitionType": "2D",
      "MagneticFieldStrength": 3.0,
      "Manufacturer": "SIEMENS",
      "ManufacturerModelName": "Prisma",
      "Modality": "MR",
      "NumberOfAverages": 1.0,
      "NumberOfPhaseEncodingSteps": 82,
      "PercentPhaseFieldOfView": 100.0,
      "PercentSampling": 100.0,
      "PerformedProcedureStepStartTime": "204905.529000",
      "PhotometricInterpretation": "MONOCHROME2",
      "PixelBandwidth": 3050.0,
      "PixelRepresentation": 0,
      "PixelSpacing": [2.6829268932343, 2.6829268932343],
      "ProtocolName": "func_run-05_task-social_acq-ap-mb8",
      "RepetitionTime": 460.0,
      "Rows": 656,
      "SAR": 0.08258000417462,
      "SamplesPerPixel": 1,
      "ScanOptions": "FS",
      "ScanningSequence": "EP",
      "SequenceName": "epfid2d1_82",
      "SequenceVariant": [
        "SK",
        "SS"
],
      "SeriesDescription": "func_run-05_task-social_acq-ap-mb8",
      "SeriesNumber": 20,
      "SeriesTime": "214842.748000",
      "SliceLocation": -102.93729776482,
      "SliceThickness": 2.7000000476837,
      "SmallestImagePixelValue": 0,
      "SoftwareVersions": "syngo MR E11",
      "SpacingBetweenSlices": 2.7000000523239,
      "SpecificCharacterSet": "ISO_IR 100",
      "StudyID": "1",
      "StudyTime": "204905.478000",
      "TransmitCoilName": "Body",
      "VariableFlipAngleFlag": "N",
      "WindowCenterWidthExplanation": "Algo1"
    },
    "slices": {}
  },
  "time": {
    "samples": {
      "AcquisitionNumber": [1, 2, 3, 4, 5, 6, 7, 8, 9, 10, 11, 12, 13, 14, 15, 16, 17, 18, 19, 20, 21, 22, 23, 24, 25, 26, 27, 28, 29, 30, 31, 32, 33, 34, 35, 36, 37, 38, 39, 40, 41, 42, 43, 44, 45, 46, 47, 48, 49, 50, 51, 52, 53, 54, 55, 56, 57, 58, 59, 60, 61, 62, 63, 64, 65, 66, 67, 68, 69, 70, 71, 72, 73, 74, 75, 76, 77, 78, 79, 80, 81, 82, 83, 84, 85, 86, 87, 88, 89, 90, 91, 92, 93, 94, 95, 96, 97, 98, 99, 100, 101, 102, 103, 104, 105, 106, 107, 108, 109, 110, 111, 112, 113, 114, 115, 116, 117, 118, 119, 120, 121, 122, 123, 124, 125, 126, 127, 128, 129, 130, 131, 132, 133, 134, 135, 136, 137, 138, 139, 140, 141, 142, 143, 144, 145, 146, 147, 148, 149, 150, 151, 152, 153, 154, 155, 156, 157, 158, 159, 160, 161, 162, 163, 164, 165, 166, 167, 168, 169, 170, 171, 172, 173, 174, 175, 176, 177, 178, 179, 180, 181, 182, 183, 184, 185, 186, 187, 188, 189, 190, 191, 192, 193, 194, 195, 196, 197, 198, 199, 200, 201, 202, 203, 204, 205, 206, 207, 208, 209, 210, 211, 212, 213, 214, 215, 216, 217, 218, 219, 220, 221, 222, 223, 224, 225, 226, 227, 228, 229, 230, 231, 232, 233, 234, 235, 236, 237, 238, 239, 240, 241, 242, 243, 244, 245, 246, 247, 248, 249, 250, 251, 252, 253, 254, 255, 256, 257, 258, 259, 260, 261, 262, 263, 264, 265, 266, 267, 268, 269, 270, 271, 272, 273, 274, 275, 276, 277, 278, 279, 280, 281, 282, 283, 284, 285, 286, 287, 288, 289, 290, 291, 292, 293, 294, 295, 296, 297, 298, 299, 300, 301, 302, 303, 304, 305, 306, 307, 308, 309, 310, 311, 312, 313, 314, 315, 316, 317, 318, 319, 320, 321, 322, 323, 324, 325, 326, 327, 328, 329, 330, 331, 332, 333, 334, 335, 336, 337, 338, 339, 340, 341, 342, 343, 344, 345, 346, 347, 348, 349, 350, 351, 352, 353, 354, 355, 356, 357, 358, 359, 360, 361, 362, 363, 364, 365, 366, 367, 368, 369, 370, 371, 372, 373, 374, 375, 376, 377, 378, 379, 380, 381, 382, 383, 384, 385, 386, 387, 388, 389, 390, 391, 392, 393, 394, 395, 396, 397, 398, 399, 400, 401, 402, 403, 404, 405, 406, 407, 408, 409, 410, 411, 412, 413, 414, 415, 416, 417, 418, 419, 420, 421, 422, 423, 424, 425, 426, 427, 428, 429, 430, 431, 432, 433, 434, 435, 436, 437, 438, 439, 440, 441, 442, 443, 444, 445, 446, 447, 448, 449, 450, 451, 452, 453, 454, 455, 456, 457, 458, 459, 460, 461, 462, 463, 464, 465, 466, 467, 468, 469, 470, 471, 472, 473, 474, 475, 476, 477, 478, 479, 480, 481, 482, 483, 484, 485, 486, 487, 488, 489, 490, 491, 492, 493, 494, 495, 496, 497, 498, 499, 500, 501, 502, 503, 504, 505, 506, 507, 508, 509, 510, 511, 512, 513, 514, 515, 516, 517, 518, 519, 520, 521, 522, 523, 524, 525, 526, 527, 528, 529, 530, 531, 532, 533, 534, 535, 536, 537, 538, 539, 540, 541, 542, 543, 544, 545, 546, 547, 548, 549, 550, 551, 552, 553, 554, 555, 556, 557, 558, 559, 560, 561, 562, 563, 564, 565, 566, 567, 568, 569, 570, 571, 572, 573, 574, 575, 576, 577, 578, 579, 580, 581, 582, 583, 584, 585, 586, 587, 588, 589, 590, 591, 592, 593, 594, 595, 596, 597, 598, 599, 600, 601, 602, 603, 604, 605, 606, 607, 608, 609, 610, 611, 612, 613, 614, 615, 616, 617, 618, 619, 620, 621, 622, 623, 624, 625, 626, 627, 628, 629, 630, 631, 632, 633, 634, 635, 636, 637, 638, 639, 640, 641, 642, 643, 644, 645, 646, 647, 648, 649, 650, 651, 652, 653, 654, 655, 656, 657, 658, 659, 660, 661, 662, 663, 664, 665, 666, 667, 668, 669, 670, 671, 672, 673, 674, 675, 676, 677, 678, 679, 680, 681, 682, 683, 684, 685, 686, 687, 688, 689, 690, 691, 692, 693, 694, 695, 696, 697, 698, 699, 700, 701, 702, 703, 704, 705, 706, 707, 708, 709, 710, 711, 712, 713, 714, 715, 716, 717, 718, 719, 720, 721, 722, 723, 724, 725, 726, 727, 728, 729, 730, 731, 732, 733, 734, 735, 736, 737, 738, 739, 740, 741, 742, 743, 744, 745, 746, 747, 748, 749, 750, 751, 752, 753, 754, 755, 756, 757, 758, 759, 760, 761, 762, 763, 764, 765, 766, 767, 768, 769, 770, 771, 772, 773, 774, 775, 776, 777, 778, 779, 780, 781, 782, 783, 784, 785, 786, 787, 788, 789, 790, 791, 792, 793, 794, 795, 796, 797, 798, 799, 800, 801, 802, 803, 804, 805, 806, 807, 808, 809, 810, 811, 812, 813, 814, 815, 816, 817, 818, 819, 820, 821, 822, 823, 824, 825, 826, 827, 828, 829, 830, 831, 832, 833, 834, 835, 836, 837, 838, 839, 840, 841, 842, 843, 844, 845, 846, 847, 848, 849, 850, 851, 852, 853, 854, 855, 856, 857, 858, 859, 860, 861, 862, 863, 864, 865, 866, 867, 868, 869, 870, 871, 872],
      "AcquisitionTime": ["214830.592500", "214831.052500", "214831.512500", "214831.972500", "214832.432500", "214832.892500", "214833.352500", "214833.812500", "214834.272500", "214834.732500", "214835.192500", "214835.652500", "214836.112500", "214836.572500", "214837.032500", "214837.492500", "214837.952500", "214838.412500", "214838.872500", "214839.332500", "214839.792500", "214840.252500", "214840.712500", "214841.172500", "214841.632500", "214842.092500", "214842.552500", "214843.012500", "214843.472500", "214843.932500", "214844.392500", "214844.852500", "214845.312500", "214845.772500", "214846.232500", "214846.692500", "214847.152500", "214847.612500", "214848.072500", "214848.532500", "214848.992500", "214849.452500", "214849.912500", "214850.372500", "214850.832500", "214851.292500", "214851.752500", "214852.212500", "214852.672500", "214853.132500", "214853.592500", "214854.052500", "214854.512500", "214854.972500", "214855.432500", "214855.892500", "214856.352500", "214856.812500", "214857.272500", "214857.732500", "214858.192500", "214858.652500", "214859.112500", "214859.572500", "214900.032500", "214900.492500", "214900.952500", "214901.412500", "214901.872500", "214902.332500", "214902.792500", "214903.252500", "214903.712500", "214904.172500", "214904.632500", "214905.092500", "214905.552500", "214906.012500", "214906.472500", "214906.932500", "214907.392500", "214907.852500", "214908.312500", "214908.772500", "214909.232500", "214909.692500", "214910.152500", "214910.612500", "214911.072500", "214911.532500", "214911.992500", "214912.452500", "214912.912500", "214913.372500", "214913.832500", "214914.292500", "214914.752500", "214915.212500", "214915.672500", "214916.132500", "214916.592500", "214917.052500", "214917.512500", "214917.972500", "214918.432500", "214918.892500", "214919.352500", "214919.812500", "214920.272500", "214920.732500", "214921.192500", "214921.652500", "214922.112500", "214922.572500", "214923.032500", "214923.492500", "214923.952500", "214924.412500", "214924.872500", "214925.332500", "214925.792500", "214926.252500", "214926.712500", "214927.172500", "214927.632500", "214928.092500", "214928.552500", "214929.012500", "214929.472500", "214929.932500", "214930.392500", "214930.852500", "214931.312500", "214931.772500", "214932.232500", "214932.692500", "214933.152500", "214933.612500", "214934.072500", "214934.532500", "214934.992500", "214935.452500", "214935.912500", "214936.372500", "214936.832500", "214937.292500", "214937.752500", "214938.212500", "214938.672500", "214939.132500", "214939.592500", "214940.052500", "214940.512500", "214940.972500", "214941.432500", "214941.892500", "214942.352500", "214942.812500", "214943.272500", "214943.732500", "214944.192500", "214944.652500", "214945.112500", "214945.572500", "214946.032500", "214946.492500", "214946.952500", "214947.412500", "214947.872500", "214948.332500", "214948.792500", "214949.252500", "214949.712500", "214950.172500", "214950.632500", "214951.092500", "214951.552500", "214952.012500", "214952.472500", "214952.932500", "214953.392500", "214953.852500", "214954.312500", "214954.772500", "214955.232500", "214955.692500", "214956.152500", "214956.612500", "214957.072500", "214957.532500", "214957.992500", "214958.452500", "214958.912500", "214959.372500", "214959.832500", "215000.292500", "215000.752500", "215001.212500", "215001.672500", "215002.132500", "215002.592500", "215003.052500", "215003.512500", "215003.972500", "215004.432500", "215004.892500", "215005.352500", "215005.812500", "215006.272500", "215006.732500", "215007.192500", "215007.652500", "215008.112500", "215008.572500", "215009.032500", "215009.492500", "215009.952500", "215010.412500", "215010.872500", "215011.332500", "215011.792500", "215012.252500", "215012.712500", "215013.172500", "215013.632500", "215014.092500", "215014.552500", "215015.012500", "215015.472500", "215015.932500", "215016.392500", "215016.852500", "215017.312500", "215017.772500", "215018.232500", "215018.692500", "215019.152500", "215019.612500", "215020.072500", "215020.532500", "215020.992500", "215021.452500", "215021.912500", "215022.372500", "215022.832500", "215023.292500", "215023.752500", "215024.212500", "215024.672500", "215025.132500", "215025.592500", "215026.052500", "215026.512500", "215026.972500", "215027.432500", "215027.892500", "215028.352500", "215028.812500", "215029.272500", "215029.732500", "215030.192500", "215030.652500", "215031.112500", "215031.572500", "215032.032500", "215032.492500", "215032.952500", "215033.412500", "215033.872500", "215034.332500", "215034.792500", "215035.252500", "215035.712500", "215036.172500", "215036.632500", "215037.092500", "215037.552500", "215038.012500", "215038.472500", "215038.932500", "215039.392500", "215039.852500", "215040.312500", "215040.772500", "215041.232500", "215041.692500", "215042.152500", "215042.612500", "215043.072500", "215043.532500", "215043.992500", "215044.452500", "215044.912500", "215045.372500", "215045.832500", "215046.292500", "215046.752500", "215047.212500", "215047.672500", "215048.132500", "215048.592500", "215049.052500", "215049.512500", "215049.972500", "215050.432500", "215050.892500", "215051.352500", "215051.812500", "215052.272500", "215052.732500", "215053.192500", "215053.652500", "215054.112500", "215054.572500", "215055.032500", "215055.492500", "215055.952500", "215056.412500", "215056.872500", "215057.332500", "215057.792500", "215058.252500", "215058.712500", "215059.172500", "215059.632500", "215100.092500", "215100.552500", "215101.012500", "215101.472500", "215101.932500", "215102.392500", "215102.852500", "215103.312500", "215103.772500", "215104.232500", "215104.692500", "215105.152500", "215105.612500", "215106.072500", "215106.532500", "215106.992500", "215107.452500", "215107.912500", "215108.372500", "215108.832500", "215109.292500", "215109.752500", "215110.212500", "215110.672500", "215111.132500", "215111.592500", "215112.052500", "215112.512500", "215112.972500", "215113.432500", "215113.892500", "215114.352500", "215114.812500", "215115.272500", "215115.732500", "215116.192500", "215116.652500", "215117.112500", "215117.572500", "215118.032500", "215118.492500", "215118.952500", "215119.412500", "215119.872500", "215120.332500", "215120.792500", "215121.252500", "215121.712500", "215122.172500", "215122.632500", "215123.092500", "215123.552500", "215124.012500", "215124.472500", "215124.932500", "215125.392500", "215125.852500", "215126.312500", "215126.772500", "215127.232500", "215127.692500", "215128.152500", "215128.612500", "215129.072500", "215129.532500", "215129.992500", "215130.452500", "215130.912500", "215131.372500", "215131.832500", "215132.292500", "215132.752500", "215133.212500", "215133.672500", "215134.132500", "215134.592500", "215135.052500", "215135.512500", "215135.972500", "215136.432500", "215136.892500", "215137.352500", "215137.812500", "215138.272500", "215138.732500", "215139.192500", "215139.652500", "215140.112500", "215140.572500", "215141.032500", "215141.492500", "215141.952500", "215142.412500", "215142.872500", "215143.332500", "215143.792500", "215144.252500", "215144.712500", "215145.172500", "215145.632500", "215146.092500", "215146.552500", "215147.012500", "215147.472500", "215147.932500", "215148.392500", "215148.852500", "215149.312500", "215149.772500", "215150.232500", "215150.692500", "215151.152500", "215151.612500", "215152.072500", "215152.532500", "215152.992500", "215153.452500", "215153.912500", "215154.372500", "215154.832500", "215155.292500", "215155.752500", "215156.212500", "215156.672500", "215157.132500", "215157.592500", "215158.052500", "215158.512500", "215158.972500", "215159.432500", "215159.892500", "215200.352500", "215200.812500", "215201.272500", "215201.732500", "215202.192500", "215202.652500", "215203.112500", "215203.572500", "215204.032500", "215204.492500", "215204.952500", "215205.412500", "215205.872500", "215206.332500", "215206.792500", "215207.252500", "215207.712500", "215208.172500", "215208.632500", "215209.092500", "215209.552500", "215210.012500", "215210.472500", "215210.932500", "215211.392500", "215211.852500", "215212.312500", "215212.772500", "215213.232500", "215213.692500", "215214.152500", "215214.612500", "215215.072500", "215215.532500", "215215.992500", "215216.452500", "215216.912500", "215217.372500", "215217.832500", "215218.292500", "215218.752500", "215219.212500", "215219.672500", "215220.132500", "215220.592500", "215221.052500", "215221.512500", "215221.972500", "215222.432500", "215222.892500", "215223.352500", "215223.812500", "215224.272500", "215224.732500", "215225.192500", "215225.652500", "215226.112500", "215226.572500", "215227.032500", "215227.492500", "215227.952500", "215228.412500", "215228.872500", "215229.332500", "215229.792500", "215230.252500", "215230.712500", "215231.172500", "215231.632500", "215232.092500", "215232.552500", "215233.012500", "215233.472500", "215233.932500", "215234.392500", "215234.852500", "215235.312500", "215235.772500", "215236.232500", "215236.692500", "215237.152500", "215237.612500", "215238.072500", "215238.532500", "215238.992500", "215239.452500", "215239.912500", "215240.372500", "215240.832500", "215241.292500", "215241.752500", "215242.212500", "215242.672500", "215243.132500", "215243.592500", "215244.052500", "215244.512500", "215244.972500", "215245.432500", "215245.892500", "215246.352500", "215246.812500", "215247.272500", "215247.732500", "215248.192500", "215248.652500", "215249.112500", "215249.572500", "215250.032500", "215250.492500", "215250.952500", "215251.412500", "215251.872500", "215252.332500", "215252.792500", "215253.252500", "215253.712500", "215254.172500", "215254.632500", "215255.092500", "215255.552500", "215256.012500", "215256.472500", "215256.932500", "215257.392500", "215257.852500", "215258.312500", "215258.772500", "215259.232500", "215259.692500", "215300.152500", "215300.612500", "215301.072500", "215301.532500", "215301.992500", "215302.452500", "215302.912500", "215303.372500", "215303.832500", "215304.292500", "215304.752500", "215305.212500", "215305.672500", "215306.132500", "215306.592500", "215307.052500", "215307.512500", "215307.972500", "215308.432500", "215308.892500", "215309.352500", "215309.812500", "215310.272500", "215310.732500", "215311.192500", "215311.652500", "215312.112500", "215312.572500", "215313.032500", "215313.492500", "215313.952500", "215314.412500", "215314.872500", "215315.332500", "215315.792500", "215316.252500", "215316.712500", "215317.172500", "215317.632500", "215318.092500", "215318.552500", "215319.012500", "215319.472500", "215319.932500", "215320.392500", "215320.852500", "215321.312500", "215321.772500", "215322.232500", "215322.692500", "215323.152500", "215323.612500", "215324.072500", "215324.532500", "215324.992500", "215325.452500", "215325.912500", "215326.372500", "215326.832500", "215327.292500", "215327.752500", "215328.212500", "215328.672500", "215329.132500", "215329.592500", "215330.052500", "215330.512500", "215330.972500", "215331.432500", "215331.892500", "215332.352500", "215332.812500", "215333.272500", "215333.732500", "215334.192500", "215334.652500", "215335.112500", "215335.572500", "215336.032500", "215336.492500", "215336.952500", "215337.412500", "215337.872500", "215338.332500", "215338.792500", "215339.252500", "215339.712500", "215340.172500", "215340.632500", "215341.092500", "215341.552500", "215342.012500", "215342.472500", "215342.932500", "215343.392500", "215343.852500", "215344.312500", "215344.772500", "215345.232500", "215345.692500", "215346.152500", "215346.612500", "215347.072500", "215347.532500", "215347.992500", "215348.452500", "215348.912500", "215349.372500", "215349.832500", "215350.292500", "215350.752500", "215351.212500", "215351.672500", "215352.132500", "215352.592500", "215353.052500", "215353.512500", "215353.972500", "215354.432500", "215354.892500", "215355.352500", "215355.812500", "215356.272500", "215356.732500", "215357.192500", "215357.652500", "215358.112500", "215358.572500", "215359.032500", "215359.492500", "215359.952500", "215400.412500", "215400.872500", "215401.332500", "215401.792500", "215402.252500", "215402.712500", "215403.172500", "215403.632500", "215404.092500", "215404.552500", "215405.012500", "215405.472500", "215405.932500", "215406.392500", "215406.852500", "215407.312500", "215407.772500", "215408.232500", "215408.692500", "215409.152500", "215409.612500", "215410.072500", "215410.532500", "215410.992500", "215411.452500", "215411.912500", "215412.372500", "215412.832500", "215413.292500", "215413.752500", "215414.212500", "215414.672500", "215415.132500", "215415.592500", "215416.052500", "215416.512500", "215416.972500", "215417.432500", "215417.892500", "215418.352500", "215418.812500", "215419.272500", "215419.732500", "215420.192500", "215420.652500", "215421.112500", "215421.572500", "215422.032500", "215422.492500", "215422.952500", "215423.412500", "215423.872500", "215424.332500", "215424.792500", "215425.252500", "215425.712500", "215426.172500", "215426.632500", "215427.092500", "215427.552500", "215428.012500", "215428.472500", "215428.932500", "215429.392500", "215429.852500", "215430.312500", "215430.772500", "215431.232500", "215431.692500", "215432.152500", "215432.612500", "215433.072500", "215433.532500", "215433.992500", "215434.452500", "215434.912500", "215435.372500", "215435.832500", "215436.292500", "215436.752500", "215437.212500", "215437.672500", "215438.132500", "215438.592500", "215439.052500", "215439.512500", "215439.972500", "215440.432500", "215440.892500", "215441.352500", "215441.812500", "215442.272500", "215442.732500", "215443.192500", "215443.652500", "215444.112500", "215444.572500", "215445.032500", "215445.492500", "215445.952500", "215446.412500", "215446.872500", "215447.332500", "215447.792500", "215448.252500", "215448.712500", "215449.172500", "215449.632500", "215450.092500", "215450.552500", "215451.012500", "215451.472500", "215451.932500", "215452.392500", "215452.852500", "215453.312500", "215453.772500", "215454.232500", "215454.692500", "215455.152500", "215455.612500", "215456.072500", "215456.532500", "215456.992500", "215457.452500", "215457.912500", "215458.372500", "215458.832500", "215459.292500", "215459.752500", "215500.212500", "215500.672500", "215501.132500", "215501.592500", "215502.052500", "215502.512500", "215502.972500", "215503.432500", "215503.892500", "215504.352500", "215504.812500", "215505.272500", "215505.732500", "215506.192500", "215506.652500", "215507.112500", "215507.572500", "215508.032500", "215508.492500", "215508.952500", "215509.412500", "215509.872500", "215510.332500", "215510.792500", "215511.252500"],
