{
  "AcquisitionMatrixPE": 82,
  "AcquisitionNumber": 1,
  "AcquisitionTime": "15:58:54.935000",
  "BandwidthPerPixelPhaseEncode": 24.888,
  "BaseResolution": 82,
  "BodyPartExamined": "BRAIN",
  "ConsistencyInfo": "N4_VE11C_LATEST_20160120",
  "ConversionSoftware": "dcm2niix",
  "ConversionSoftwareVersion": "v1.0.20201102",
  "DerivedVendorReportedEchoSpacing": 0.00049,
  "DeviceSerialNumber": "66112",
  "DwellTime": 2e-06,
  "EchoTime": 0.0272,
  "EchoTrainLength": 82,
  "EffectiveEchoSpacing": 0.00049,
  "FlipAngle": 44,
  "ImageComments": "Unaliased MB8/PE3",
  "ImageOrientationPatientDICOM": [0.994305, 0.0017246, 0.106556, -0.0203069, 0.984615, 0.173554],
  "ImageType": [
    "ORIGINAL",
    "PRIMARY",
    "M",
    "MB",
    "ND",
    "NORM",
    "MOSAIC"
],
  "ImagingFrequency": 123.252,
  "InPlanePhaseEncodingDirectionDICOM": "COL",
  "InstitutionAddress": "Maynard 3,Hanover,NH,US,03755",
  "InstitutionName": "dartmouth_brain_imaging_center",
  "InstitutionalDepartmentName": "Department",
  "MRAcquisitionType": "2D",
  "MagneticFieldStrength": 3,
  "Manufacturer": "Siemens",
  "ManufacturersModelName": "Prisma",
  "Modality": "MR",
  "MultibandAccelerationFactor": 8,
  "PartialFourier": 1,
  "PatientPosition": "HFS",
  "PercentPhaseFOV": 100,
  "PercentSampling": 100,
  "PhaseEncodingDirection": "j-",
  "PhaseEncodingSteps": 82,
  "PhaseResolution": 1,
  "PixelBandwidth": 3050,
  "ProcedureStepDescription": "Wager_Wager^1076_spacetop",
  "ProtocolName": "func_run-05_task-social_acq-ap-mb8",
  "PulseSequenceDetails": "%CustomerSeq%\\cmrr_mbep2d_bold",
  "ReceiveCoilActiveElements": "HEA;HEP",
  "ReceiveCoilName": "Head_32",
  "ReconMatrixPE": 82,
  "RepetitionTime": 0.46,
  "SAR": 0.0828737,
  "ScanOptions": "FS",
  "ScanningSequence": "EP",
  "SequenceName": "epfid2d1_82",
  "SequenceVariant": "SK\\SS",
  "SeriesDescription": "func_run-05_task-social_acq-ap-mb8",
  "SeriesNumber": 16,
  "ShimSetting": [4174, -7742, -7282, 467, -26, -35, 26, 21],
  "SliceThickness": 2.7,
  "SliceTiming": [0, 0.2525, 0.065, 0.315, 0.1275, 0.3775, 0.19, 0, 0.2525, 0.065, 0.315, 0.1275, 0.3775, 0.19, 0, 0.2525, 0.065, 0.315, 0.1275, 0.3775, 0.19, 0, 0.2525, 0.065, 0.315, 0.1275, 0.3775, 0.19, 0, 0.2525, 0.065, 0.315, 0.1275, 0.3775, 0.19, 0, 0.2525, 0.065, 0.315, 0.1275, 0.3775, 0.19, 0, 0.2525, 0.065, 0.315, 0.1275, 0.3775, 0.19, 0, 0.2525, 0.065, 0.315, 0.1275, 0.3775, 0.19],
  "SoftwareVersions": "syngo MR E11",
  "SpacingBetweenSlices": 2.7,
  "StationName": "AWP66112",
  "TaskName": "social",
  "TotalReadoutTime": 0.03969,
  "TxRefAmp": 249.46,
  "WipMemBlock": "fa5d6fb8-0655-4536-b2a5-275a1466f8b6||Sequence: R016 ve11c/master r/e634e98; Dec 19 2017 11:00:25 by eja",
  "dcmmeta_affine": [
    [-2.6676483154296875, -0.05448189005255699, 0.28246620297431946, 107.69414520263672],
    [-0.004626962821930647, 2.6416499614715576, 0.4717695116996765, -96.63047790527344],
    [0.2858814001083374, -0.4656326472759247, 2.643415689468384, -68.07160186767578],
    [0.0, 0.0, 0.0, 1.0]
],
  "dcmmeta_reorient_transform": [
    [0.0, -1.0, 0.0, 81.0],
    [1.0, 0.0, 0.0, 0.0],
    [0.0, 0.0, 1.0, 0.0],
    [0.0, 0.0, 0.0, 1.0]
],
  "dcmmeta_shape": [82, 82, 56, 872],
  "dcmmeta_slice_dim": 2,
  "dcmmeta_version": 0.6,
  "global": {
    "const": {
      "AccessionNumber": "A003561",
      "AcquisitionMatrix": [82, 0, 0, 82],
      "AngioFlag": "N",
      "BitsAllocated": 16,
      "BitsStored": 16,
      "BodyPartExamined": "BRAIN",
      "Columns": 656,
      "EchoNumbers": 1,
      "EchoTime": 27.2,
      "EchoTrainLength": 82,
      "FlipAngle": 44.0,
      "HighBit": 15,
      "ImageOrientationPatient": [0.99430522973271, 0.00172459510716, 0.10655578772601, -0.0203068862267, 0.9846149737531, 0.17355397959415],
      "ImagePositionPatient": [-853.25985767679, -876.82465504247, -321.47237016165],
      "ImageType": [
        "ORIGINAL",
        "PRIMARY",
        "M",
        "MB",
        "ND",
        "NORM",
        "MOSAIC"
],
      "ImagedNucleus": "1H",
      "ImagingFrequency": 123.252173,
      "InPlanePhaseEncodingDirection": "COL",
      "MRAcquisitionType": "2D",
      "MagneticFieldStrength": 3.0,
      "Manufacturer": "SIEMENS",
      "ManufacturerModelName": "Prisma",
      "Modality": "MR",
      "NumberOfAverages": 1.0,
      "NumberOfPhaseEncodingSteps": 82,
      "PercentPhaseFieldOfView": 100.0,
      "PercentSampling": 100.0,
      "PerformedProcedureStepStartTime": "142512.668000",
      "PhotometricInterpretation": "MONOCHROME2",
      "PixelBandwidth": 3050.0,
      "PixelRepresentation": 0,
      "PixelSpacing": [2.6829268932343, 2.6829268932343],
      "ProtocolName": "func_run-05_task-social_acq-ap-mb8",
      "RepetitionTime": 460.0,
      "Rows": 656,
      "SAR": 0.08287369483773,
      "SamplesPerPixel": 1,
      "ScanOptions": "FS",
      "ScanningSequence": "EP",
      "SequenceName": "epfid2d1_82",
      "SequenceVariant": [
        "SK",
        "SS"
],
      "SeriesDescription": "func_run-05_task-social_acq-ap-mb8",
      "SeriesNumber": 16,
      "SeriesTime": "155908.280000",
      "SliceLocation": -72.262552217642,
      "SliceThickness": 2.7000000476837,
      "SmallestImagePixelValue": 0,
      "SoftwareVersions": "syngo MR E11",
      "SpacingBetweenSlices": 2.7000000302271,
      "SpecificCharacterSet": "ISO_IR 100",
      "StudyID": "1",
      "StudyTime": "142512.586000",
      "TransmitCoilName": "Body",
      "VariableFlipAngleFlag": "N",
      "WindowCenterWidthExplanation": "Algo1",
      "dBdt": 0.0},
    "slices": {}
  },
  "time": {
    "samples": {
      "AcquisitionNumber": [1, 2, 3, 4, 5, 6, 7, 8, 9, 10, 11, 12, 13, 14, 15, 16, 17, 18, 19, 20, 21, 22, 23, 24, 25, 26, 27, 28, 29, 30, 31, 32, 33, 34, 35, 36, 37, 38, 39, 40, 41, 42, 43, 44, 45, 46, 47, 48, 49, 50, 51, 52, 53, 54, 55, 56, 57, 58, 59, 60, 61, 62, 63, 64, 65, 66, 67, 68, 69, 70, 71, 72, 73, 74, 75, 76, 77, 78, 79, 80, 81, 82, 83, 84, 85, 86, 87, 88, 89, 90, 91, 92, 93, 94, 95, 96, 97, 98, 99, 100, 101, 102, 103, 104, 105, 106, 107, 108, 109, 110, 111, 112, 113, 114, 115, 116, 117, 118, 119, 120, 121, 122, 123, 124, 125, 126, 127, 128, 129, 130, 131, 132, 133, 134, 135, 136, 137, 138, 139, 140, 141, 142, 143, 144, 145, 146, 147, 148, 149, 150, 151, 152, 153, 154, 155, 156, 157, 158, 159, 160, 161, 162, 163, 164, 165, 166, 167, 168, 169, 170, 171, 172, 173, 174, 175, 176, 177, 178, 179, 180, 181, 182, 183, 184, 185, 186, 187, 188, 189, 190, 191, 192, 193, 194, 195, 196, 197, 198, 199, 200, 201, 202, 203, 204, 205, 206, 207, 208, 209, 210, 211, 212, 213, 214, 215, 216, 217, 218, 219, 220, 221, 222, 223, 224, 225, 226, 227, 228, 229, 230, 231, 232, 233, 234, 235, 236, 237, 238, 239, 240, 241, 242, 243, 244, 245, 246, 247, 248, 249, 250, 251, 252, 253, 254, 255, 256, 257, 258, 259, 260, 261, 262, 263, 264, 265, 266, 267, 268, 269, 270, 271, 272, 273, 274, 275, 276, 277, 278, 279, 280, 281, 282, 283, 284, 285, 286, 287, 288, 289, 290, 291, 292, 293, 294, 295, 296, 297, 298, 299, 300, 301, 302, 303, 304, 305, 306, 307, 308, 309, 310, 311, 312, 313, 314, 315, 316, 317, 318, 319, 320, 321, 322, 323, 324, 325, 326, 327, 328, 329, 330, 331, 332, 333, 334, 335, 336, 337, 338, 339, 340, 341, 342, 343, 344, 345, 346, 347, 348, 349, 350, 351, 352, 353, 354, 355, 356, 357, 358, 359, 360, 361, 362, 363, 364, 365, 366, 367, 368, 369, 370, 371, 372, 373, 374, 375, 376, 377, 378, 379, 380, 381, 382, 383, 384, 385, 386, 387, 388, 389, 390, 391, 392, 393, 394, 395, 396, 397, 398, 399, 400, 401, 402, 403, 404, 405, 406, 407, 408, 409, 410, 411, 412, 413, 414, 415, 416, 417, 418, 419, 420, 421, 422, 423, 424, 425, 426, 427, 428, 429, 430, 431, 432, 433, 434, 435, 436, 437, 438, 439, 440, 441, 442, 443, 444, 445, 446, 447, 448, 449, 450, 451, 452, 453, 454, 455, 456, 457, 458, 459, 460, 461, 462, 463, 464, 465, 466, 467, 468, 469, 470, 471, 472, 473, 474, 475, 476, 477, 478, 479, 480, 481, 482, 483, 484, 485, 486, 487, 488, 489, 490, 491, 492, 493, 494, 495, 496, 497, 498, 499, 500, 501, 502, 503, 504, 505, 506, 507, 508, 509, 510, 511, 512, 513, 514, 515, 516, 517, 518, 519, 520, 521, 522, 523, 524, 525, 526, 527, 528, 529, 530, 531, 532, 533, 534, 535, 536, 537, 538, 539, 540, 541, 542, 543, 544, 545, 546, 547, 548, 549, 550, 551, 552, 553, 554, 555, 556, 557, 558, 559, 560, 561, 562, 563, 564, 565, 566, 567, 568, 569, 570, 571, 572, 573, 574, 575, 576, 577, 578, 579, 580, 581, 582, 583, 584, 585, 586, 587, 588, 589, 590, 591, 592, 593, 594, 595, 596, 597, 598, 599, 600, 601, 602, 603, 604, 605, 606, 607, 608, 609, 610, 611, 612, 613, 614, 615, 616, 617, 618, 619, 620, 621, 622, 623, 624, 625, 626, 627, 628, 629, 630, 631, 632, 633, 634, 635, 636, 637, 638, 639, 640, 641, 642, 643, 644, 645, 646, 647, 648, 649, 650, 651, 652, 653, 654, 655, 656, 657, 658, 659, 660, 661, 662, 663, 664, 665, 666, 667, 668, 669, 670, 671, 672, 673, 674, 675, 676, 677, 678, 679, 680, 681, 682, 683, 684, 685, 686, 687, 688, 689, 690, 691, 692, 693, 694, 695, 696, 697, 698, 699, 700, 701, 702, 703, 704, 705, 706, 707, 708, 709, 710, 711, 712, 713, 714, 715, 716, 717, 718, 719, 720, 721, 722, 723, 724, 725, 726, 727, 728, 729, 730, 731, 732, 733, 734, 735, 736, 737, 738, 739, 740, 741, 742, 743, 744, 745, 746, 747, 748, 749, 750, 751, 752, 753, 754, 755, 756, 757, 758, 759, 760, 761, 762, 763, 764, 765, 766, 767, 768, 769, 770, 771, 772, 773, 774, 775, 776, 777, 778, 779, 780, 781, 782, 783, 784, 785, 786, 787, 788, 789, 790, 791, 792, 793, 794, 795, 796, 797, 798, 799, 800, 801, 802, 803, 804, 805, 806, 807, 808, 809, 810, 811, 812, 813, 814, 815, 816, 817, 818, 819, 820, 821, 822, 823, 824, 825, 826, 827, 828, 829, 830, 831, 832, 833, 834, 835, 836, 837, 838, 839, 840, 841, 842, 843, 844, 845, 846, 847, 848, 849, 850, 851, 852, 853, 854, 855, 856, 857, 858, 859, 860, 861, 862, 863, 864, 865, 866, 867, 868, 869, 870, 871, 872],
      "AcquisitionTime": ["155854.935000", "155855.395000", "155855.855000", "155856.315000", "155856.775000", "155857.235000", "155857.695000", "155858.155000", "155858.615000", "155859.075000", "155859.535000", "155859.995000", "155900.455000", "155900.915000", "155901.375000", "155901.835000", "155902.295000", "155902.755000", "155903.215000", "155903.675000", "155904.135000", "155904.595000", "155905.055000", "155905.515000", "155905.975000", "155906.435000", "155906.895000", "155907.355000", "155907.815000", "155908.275000", "155908.735000", "155909.195000", "155909.655000", "155910.115000", "155910.575000", "155911.035000", "155911.495000", "155911.955000", "155912.415000", "155912.875000", "155913.335000", "155913.795000", "155914.255000", "155914.715000", "155915.175000", "155915.635000", "155916.095000", "155916.555000", "155917.015000", "155917.475000", "155917.935000", "155918.395000", "155918.855000", "155919.315000", "155919.775000", "155920.235000", "155920.695000", "155921.155000", "155921.615000", "155922.075000", "155922.535000", "155922.995000", "155923.455000", "155923.915000", "155924.375000", "155924.835000", "155925.295000", "155925.755000", "155926.215000", "155926.675000", "155927.135000", "155927.595000", "155928.055000", "155928.515000", "155928.975000", "155929.435000", "155929.895000", "155930.355000", "155930.815000", "155931.275000", "155931.735000", "155932.195000", "155932.655000", "155933.115000", "155933.575000", "155934.035000", "155934.495000", "155934.955000", "155935.415000", "155935.875000", "155936.335000", "155936.795000", "155937.255000", "155937.715000", "155938.175000", "155938.635000", "155939.095000", "155939.555000", "155940.015000", "155940.475000", "155940.935000", "155941.395000", "155941.855000", "155942.315000", "155942.775000", "155943.235000", "155943.695000", "155944.155000", "155944.615000", "155945.075000", "155945.535000", "155945.995000", "155946.455000", "155946.915000", "155947.375000", "155947.835000", "155948.295000", "155948.755000", "155949.215000", "155949.675000", "155950.135000", "155950.595000", "155951.055000", "155951.515000", "155951.975000", "155952.435000", "155952.895000", "155953.355000", "155953.815000", "155954.275000", "155954.735000", "155955.195000", "155955.655000", "155956.115000", "155956.575000", "155957.035000", "155957.495000", "155957.955000", "155958.415000", "155958.875000", "155959.335000", "155959.795000", "160000.255000", "160000.715000", "160001.175000", "160001.635000", "160002.095000", "160002.555000", "160003.015000", "160003.475000", "160003.935000", "160004.395000", "160004.855000", "160005.315000", "160005.775000", "160006.235000", "160006.695000", "160007.155000", "160007.615000", "160008.075000", "160008.535000", "160008.995000", "160009.455000", "160009.915000", "160010.375000", "160010.835000", "160011.295000", "160011.755000", "160012.215000", "160012.675000", "160013.135000", "160013.595000", "160014.055000", "160014.515000", "160014.975000", "160015.435000", "160015.895000", "160016.355000", "160016.815000", "160017.275000", "160017.735000", "160018.195000", "160018.655000", "160019.115000", "160019.575000", "160020.035000", "160020.495000", "160020.955000", "160021.415000", "160021.875000", "160022.335000", "160022.795000", "160023.255000", "160023.715000", "160024.175000", "160024.635000", "160025.095000", "160025.555000", "160026.015000", "160026.475000", "160026.935000", "160027.395000", "160027.855000", "160028.315000", "160028.775000", "160029.235000", "160029.695000", "160030.155000", "160030.615000", "160031.075000", "160031.535000", "160031.995000", "160032.455000", "160032.915000", "160033.375000", "160033.835000", "160034.295000", "160034.755000", "160035.215000", "160035.675000", "160036.135000", "160036.595000", "160037.055000", "160037.515000", "160037.975000", "160038.435000", "160038.895000", "160039.355000", "160039.815000", "160040.275000", "160040.735000", "160041.195000", "160041.655000", "160042.115000", "160042.575000", "160043.035000", "160043.495000", "160043.955000", "160044.415000", "160044.875000", "160045.335000", "160045.795000", "160046.255000", "160046.715000", "160047.175000", "160047.635000", "160048.095000", "160048.555000", "160049.015000", "160049.475000", "160049.935000", "160050.395000", "160050.855000", "160051.315000", "160051.775000", "160052.235000", "160052.695000", "160053.155000", "160053.615000", "160054.075000", "160054.535000", "160054.995000", "160055.455000", "160055.915000", "160056.375000", "160056.835000", "160057.295000", "160057.755000", "160058.215000", "160058.675000", "160059.135000", "160059.595000", "160100.055000", "160100.515000", "160100.975000", "160101.435000", "160101.895000", "160102.355000", "160102.815000", "160103.275000", "160103.735000", "160104.195000", "160104.655000", "160105.115000", "160105.575000", "160106.035000", "160106.495000", "160106.955000", "160107.415000", "160107.875000", "160108.335000", "160108.795000", "160109.255000", "160109.715000", "160110.175000", "160110.635000", "160111.095000", "160111.555000", "160112.015000", "160112.475000", "160112.935000", "160113.395000", "160113.855000", "160114.315000", "160114.775000", "160115.235000", "160115.695000", "160116.155000", "160116.615000", "160117.075000", "160117.535000", "160117.995000", "160118.455000", "160118.915000", "160119.375000", "160119.835000", "160120.295000", "160120.755000", "160121.215000", "160121.675000", "160122.135000", "160122.595000", "160123.055000", "160123.515000", "160123.975000", "160124.435000", "160124.895000", "160125.355000", "160125.815000", "160126.275000", "160126.735000", "160127.195000", "160127.655000", "160128.115000", "160128.575000", "160129.035000", "160129.495000", "160129.955000", "160130.415000", "160130.875000", "160131.335000", "160131.795000", "160132.255000", "160132.715000", "160133.175000", "160133.635000", "160134.095000", "160134.555000", "160135.015000", "160135.475000", "160135.935000", "160136.395000", "160136.855000", "160137.315000", "160137.775000", "160138.235000", "160138.695000", "160139.155000", "160139.615000", "160140.075000", "160140.535000", "160140.995000", "160141.455000", "160141.915000", "160142.375000", "160142.835000", "160143.295000", "160143.755000", "160144.215000", "160144.675000", "160145.135000", "160145.595000", "160146.055000", "160146.515000", "160146.975000", "160147.435000", "160147.895000", "160148.355000", "160148.815000", "160149.275000", "160149.735000", "160150.195000", "160150.655000", "160151.115000", "160151.575000", "160152.035000", "160152.495000", "160152.955000", "160153.415000", "160153.875000", "160154.335000", "160154.795000", "160155.255000", "160155.715000", "160156.175000", "160156.635000", "160157.095000", "160157.555000", "160158.015000", "160158.475000", "160158.935000", "160159.395000", "160159.855000", "160200.315000", "160200.775000", "160201.235000", "160201.695000", "160202.155000", "160202.615000", "160203.075000", "160203.535000", "160203.995000", "160204.455000", "160204.915000", "160205.375000", "160205.835000", "160206.295000", "160206.755000", "160207.215000", "160207.675000", "160208.135000", "160208.595000", "160209.055000", "160209.515000", "160209.975000", "160210.435000", "160210.895000", "160211.355000", "160211.815000", "160212.275000", "160212.735000", "160213.195000", "160213.655000", "160214.115000", "160214.575000", "160215.035000", "160215.495000", "160215.955000", "160216.415000", "160216.875000", "160217.335000", "160217.795000", "160218.255000", "160218.715000", "160219.175000", "160219.635000", "160220.095000", "160220.555000", "160221.015000", "160221.475000", "160221.935000", "160222.395000", "160222.855000", "160223.315000", "160223.775000", "160224.235000", "160224.695000", "160225.155000", "160225.615000", "160226.075000", "160226.535000", "160226.995000", "160227.455000", "160227.915000", "160228.375000", "160228.835000", "160229.295000", "160229.755000", "160230.215000", "160230.675000", "160231.135000", "160231.595000", "160232.055000", "160232.515000", "160232.975000", "160233.435000", "160233.895000", "160234.355000", "160234.815000", "160235.275000", "160235.735000", "160236.195000", "160236.655000", "160237.115000", "160237.575000", "160238.035000", "160238.495000", "160238.955000", "160239.415000", "160239.875000", "160240.335000", "160240.795000", "160241.255000", "160241.715000", "160242.175000", "160242.635000", "160243.095000", "160243.555000", "160244.015000", "160244.475000", "160244.935000", "160245.395000", "160245.855000", "160246.315000", "160246.775000", "160247.235000", "160247.695000", "160248.155000", "160248.615000", "160249.075000", "160249.535000", "160249.995000", "160250.455000", "160250.915000", "160251.375000", "160251.835000", "160252.295000", "160252.755000", "160253.215000", "160253.675000", "160254.135000", "160254.595000", "160255.055000", "160255.515000", "160255.975000", "160256.435000", "160256.895000", "160257.355000", "160257.815000", "160258.275000", "160258.735000", "160259.195000", "160259.655000", "160300.115000", "160300.575000", "160301.035000", "160301.495000", "160301.955000", "160302.415000", "160302.875000", "160303.335000", "160303.795000", "160304.255000", "160304.715000", "160305.175000", "160305.635000", "160306.095000", "160306.555000", "160307.015000", "160307.475000", "160307.935000", "160308.395000", "160308.855000", "160309.315000", "160309.775000", "160310.235000", "160310.695000", "160311.155000", "160311.615000", "160312.075000", "160312.535000", "160312.995000", "160313.455000", "160313.915000", "160314.375000", "160314.835000", "160315.295000", "160315.755000", "160316.215000", "160316.675000", "160317.135000", "160317.595000", "160318.055000", "160318.515000", "160318.975000", "160319.435000", "160319.895000", "160320.355000", "160320.815000", "160321.275000", "160321.735000", "160322.195000", "160322.655000", "160323.115000", "160323.575000", "160324.035000", "160324.495000", "160324.955000", "160325.415000", "160325.875000", "160326.335000", "160326.795000", "160327.255000", "160327.715000", "160328.175000", "160328.635000", "160329.095000", "160329.555000", "160330.015000", "160330.475000", "160330.935000", "160331.395000", "160331.855000", "160332.315000", "160332.775000", "160333.235000", "160333.695000", "160334.155000", "160334.615000", "160335.075000", "160335.535000", "160335.995000", "160336.455000", "160336.915000", "160337.375000", "160337.835000", "160338.295000", "160338.755000", "160339.215000", "160339.675000", "160340.135000", "160340.595000", "160341.055000", "160341.515000", "160341.975000", "160342.435000", "160342.895000", "160343.355000", "160343.815000", "160344.275000", "160344.735000", "160345.195000", "160345.655000", "160346.115000", "160346.575000", "160347.035000", "160347.495000", "160347.955000", "160348.415000", "160348.875000", "160349.335000", "160349.795000", "160350.255000", "160350.715000", "160351.175000", "160351.635000", "160352.095000", "160352.555000", "160353.015000", "160353.475000", "160353.935000", "160354.395000", "160354.855000", "160355.315000", "160355.775000", "160356.235000", "160356.695000", "160357.155000", "160357.615000", "160358.075000", "160358.535000", "160358.995000", "160359.455000", "160359.915000", "160400.375000", "160400.835000", "160401.295000", "160401.755000", "160402.215000", "160402.675000", "160403.135000", "160403.595000", "160404.055000", "160404.515000", "160404.975000", "160405.435000", "160405.895000", "160406.355000", "160406.815000", "160407.275000", "160407.735000", "160408.195000", "160408.655000", "160409.115000", "160409.575000", "160410.035000", "160410.495000", "160410.955000", "160411.415000", "160411.875000", "160412.335000", "160412.795000", "160413.255000", "160413.715000", "160414.175000", "160414.635000", "160415.095000", "160415.555000", "160416.015000", "160416.475000", "160416.935000", "160417.395000", "160417.855000", "160418.315000", "160418.775000", "160419.235000", "160419.695000", "160420.155000", "160420.615000", "160421.075000", "160421.535000", "160421.995000", "160422.455000", "160422.915000", "160423.375000", "160423.835000", "160424.295000", "160424.755000", "160425.215000", "160425.675000", "160426.135000", "160426.595000", "160427.055000", "160427.515000", "160427.975000", "160428.435000", "160428.895000", "160429.355000", "160429.815000", "160430.275000", "160430.735000", "160431.195000", "160431.655000", "160432.115000", "160432.575000", "160433.035000", "160433.495000", "160433.955000", "160434.415000", "160434.875000", "160435.335000", "160435.795000", "160436.255000", "160436.715000", "160437.175000", "160437.635000", "160438.095000", "160438.555000", "160439.015000", "160439.475000", "160439.935000", "160440.395000", "160440.855000", "160441.315000", "160441.775000", "160442.235000", "160442.695000", "160443.155000", "160443.615000", "160444.075000", "160444.535000", "160444.995000", "160445.455000", "160445.915000", "160446.375000", "160446.835000", "160447.295000", "160447.755000", "160448.215000", "160448.675000", "160449.135000", "160449.595000", "160450.055000", "160450.515000", "160450.975000", "160451.435000", "160451.895000", "160452.355000", "160452.815000", "160453.275000", "160453.735000", "160454.195000", "160454.655000", "160455.115000", "160455.575000", "160456.035000", "160456.495000", "160456.955000", "160457.415000", "160457.875000", "160458.335000", "160458.795000", "160459.255000", "160459.715000", "160500.175000", "160500.635000", "160501.095000", "160501.555000", "160502.015000", "160502.475000", "160502.935000", "160503.395000", "160503.855000", "160504.315000", "160504.775000", "160505.235000", "160505.695000", "160506.155000", "160506.615000", "160507.075000", "160507.535000", "160507.995000", "160508.455000", "160508.915000", "160509.375000", "160509.835000", "160510.295000", "160510.755000", "160511.215000", "160511.675000", "160512.135000", "160512.595000", "160513.055000", "160513.515000", "160513.975000", "160514.435000", "160514.895000", "160515.355000", "160515.815000", "160516.275000", "160516.735000", "160517.195000", "160517.655000", "160518.115000", "160518.575000", "160519.035000", "160519.495000", "160519.955000", "160520.415000", "160520.875000", "160521.335000", "160521.795000", "160522.255000", "160522.715000", "160523.175000", "160523.635000", "160524.095000", "160524.555000", "160525.015000", "160525.475000", "160525.935000", "160526.395000", "160526.855000", "160527.315000", "160527.775000", "160528.235000", "160528.695000", "160529.155000", "160529.615000", "160530.075000", "160530.535000", "160530.995000", "160531.455000", "160531.915000", "160532.375000", "160532.835000", "160533.295000", "160533.755000", "160534.215000", "160534.675000", "160535.135000", "160535.595000"],
