{
  "AcquisitionMatrixPE": 82,
  "AcquisitionNumber": 1,
  "AcquisitionTime": "13:02:17.365000",
  "BandwidthPerPixelPhaseEncode": 24.888,
  "BaseResolution": 82,
  "BodyPartExamined": "BRAIN",
  "ConsistencyInfo": "N4_VE11E_LATEST_20181129",
  "ConversionSoftware": "dcm2niix",
  "ConversionSoftwareVersion": "v1.0.20201102",
  "DerivedVendorReportedEchoSpacing": 0.00049,
  "DeviceSerialNumber": "66112",
  "DwellTime": 2e-06,
  "EchoTime": 0.0272,
  "EchoTrainLength": 82,
  "EffectiveEchoSpacing": 0.00049,
  "FlipAngle": 44,
  "ImageComments": "Unaliased MB8/PE3",
  "ImageOrientationPatientDICOM": [0.99998, -0.00587619, 0.00243509, 0.00523595, 0.977811, 0.209422],
  "ImageType": [
    "ORIGINAL",
    "PRIMARY",
    "M",
    "MB",
    "ND",
    "NORM",
    "MOSAIC"
],
  "ImagingFrequency": 123.252,
  "InPlanePhaseEncodingDirectionDICOM": "COL",
  "InstitutionAddress": "Maynard 3,Hanover,NH,US,03755",
  "InstitutionName": "Dartmouth College - PBS",
  "InstitutionalDepartmentName": "Department",
  "MRAcquisitionType": "2D",
  "MagneticFieldStrength": 3,
  "Manufacturer": "Siemens",
  "ManufacturersModelName": "Prisma",
  "Modality": "MR",
  "MultibandAccelerationFactor": 8,
  "PartialFourier": 1,
  "PatientPosition": "HFS",
  "PercentPhaseFOV": 100,
  "PercentSampling": 100,
  "PhaseEncodingDirection": "j-",
  "PhaseEncodingSteps": 82,
  "PhaseResolution": 1,
  "PixelBandwidth": 3050,
  "ProcedureStepDescription": "Wager_Wager^1076_spacetop",
  "ProtocolName": "func_run-02_task-social_acq-ap-mb8",
  "PulseSequenceDetails": "%CustomerSeq%\\cmrr_mbep2d_bold",
  "ReceiveCoilActiveElements": "HEA;HEP",
  "ReceiveCoilName": "Head_32",
  "ReconMatrixPE": 82,
  "RepetitionTime": 0.46,
  "SAR": 0.0932892,
  "ScanOptions": "FS",
  "ScanningSequence": "EP",
  "SequenceName": "epfid2d1_82",
  "SequenceVariant": "SK\\SS",
  "SeriesDescription": "func_run-02_task-social_acq-ap-mb8",
  "SeriesNumber": 14,
  "ShimSetting": [4132, -7718, -7312, 768, -32, -29, 54, 86],
  "SliceThickness": 2.7,
  "SliceTiming": [0, 0.25, 0.0625, 0.3125, 0.125, 0.3775, 0.1875, 0, 0.25, 0.0625, 0.3125, 0.125, 0.3775, 0.1875, 0, 0.25, 0.0625, 0.3125, 0.125, 0.3775, 0.1875, 0, 0.25, 0.0625, 0.3125, 0.125, 0.3775, 0.1875, 0, 0.25, 0.0625, 0.3125, 0.125, 0.3775, 0.1875, 0, 0.25, 0.0625, 0.3125, 0.125, 0.3775, 0.1875, 0, 0.25, 0.0625, 0.3125, 0.125, 0.3775, 0.1875, 0, 0.25, 0.0625, 0.3125, 0.125, 0.3775, 0.1875],
  "SoftwareVersions": "syngo MR E11",
  "SpacingBetweenSlices": 2.7,
  "StationName": "AWP66112",
  "TaskName": "social",
  "TotalReadoutTime": 0.03969,
  "TxRefAmp": 238.843,
  "WipMemBlock": "412d1b4b-f102-414a-b92e-aa9269c76f09||Sequence: R016 ve11e/master r/434b28f1; Aug  7 2019 18:53:46 by eja",
  "dcmmeta_affine": [
    [-2.6828725337982178, 0.01404766645282507, 0.009751496836543083, 112.39926147460938],
    [0.015765387564897537, 2.623396158218384, 0.5653942823410034, -107.45210266113281],
    [0.006533174309879541, -0.5618646144866943, 2.640120029449463, -42.216590881347656],
    [0.0, 0.0, 0.0, 1.0]
],
  "dcmmeta_reorient_transform": [
    [0.0, -1.0, 0.0, 81.0],
    [1.0, 0.0, 0.0, 0.0],
    [0.0, 0.0, 1.0, 0.0],
    [0.0, 0.0, 0.0, 1.0]
],
  "dcmmeta_shape": [82, 82, 56, 872],
  "dcmmeta_slice_dim": 2,
  "dcmmeta_version": 0.6,
  "global": {
    "const": {
      "AccessionNumber": "A003956",
      "AcquisitionMatrix": [82, 0, 0, 82],
      "AngioFlag": "N",
      "BitsAllocated": 16,
      "BitsStored": 16,
      "BodyPartExamined": "BRAIN",
      "Columns": 656,
      "EchoNumbers": 1,
      "EchoTime": 27.2,
      "EchoTrainLength": 82,
      "FlipAngle": 44.0,
      "HighBit": 15,
      "ImageOrientationPatient": [0.9999797701547, -0.0058761898628, 0.00243509220407, 0.00523594811306, 0.97781127924536, 0.20942226965612],
      "ImagePositionPatient": [-887.55324065522, -853.43302683624, -250.85779983748],
      "ImageType": [
        "ORIGINAL",
        "PRIMARY",
        "M",
        "MB",
        "ND",
        "NORM",
        "MOSAIC"
],
      "ImagedNucleus": "1H",
      "ImagingFrequency": 123.252247,
      "InPlanePhaseEncodingDirection": "COL",
      "MRAcquisitionType": "2D",
      "MagneticFieldStrength": 3.0,
      "Manufacturer": "SIEMENS",
      "ManufacturerModelName": "Prisma",
      "Modality": "MR",
      "NumberOfAverages": 1.0,
      "NumberOfPhaseEncodingSteps": 82,
      "PercentPhaseFieldOfView": 100.0,
      "PercentSampling": 100.0,
      "PerformedProcedureStepStartTime": "121511.139000",
      "PhotometricInterpretation": "MONOCHROME2",
      "PixelBandwidth": 3050.0,
      "PixelRepresentation": 0,
      "PixelSpacing": [2.6829268932343, 2.6829268932343],
      "ProtocolName": "func_run-02_task-social_acq-ap-mb8",
      "RepetitionTime": 460.0,
      "Rows": 656,
      "SAR": 0.09328919664117,
      "SamplesPerPixel": 1,
      "ScanOptions": "FS",
      "ScanningSequence": "EP",
      "SequenceName": "epfid2d1_82",
      "SequenceVariant": [
        "SK",
        "SS"
],
      "SeriesDescription": "func_run-02_task-social_acq-ap-mb8",
      "SeriesNumber": 14,
      "SeriesTime": "130230.811000",
      "SliceLocation": -63.375412104528,
      "SliceThickness": 2.7000000476837,
      "SmallestImagePixelValue": 0,
      "SoftwareVersions": "syngo MR E11",
      "SpacingBetweenSlices": 2.6999999565233,
      "SpecificCharacterSet": "ISO_IR 100",
      "StudyID": "2",
      "StudyTime": "121511.098000",
      "TransmitCoilName": "Body",
      "VariableFlipAngleFlag": "N",
      "WindowCenterWidthExplanation": "Algo1"
    },
    "slices": {}
  },
  "time": {
    "samples": {
      "AcquisitionNumber": [1, 2, 3, 4, 5, 6, 7, 8, 9, 10, 11, 12, 13, 14, 15, 16, 17, 18, 19, 20, 21, 22, 23, 24, 25, 26, 27, 28, 29, 30, 31, 32, 33, 34, 35, 36, 37, 38, 39, 40, 41, 42, 43, 44, 45, 46, 47, 48, 49, 50, 51, 52, 53, 54, 55, 56, 57, 58, 59, 60, 61, 62, 63, 64, 65, 66, 67, 68, 69, 70, 71, 72, 73, 74, 75, 76, 77, 78, 79, 80, 81, 82, 83, 84, 85, 86, 87, 88, 89, 90, 91, 92, 93, 94, 95, 96, 97, 98, 99, 100, 101, 102, 103, 104, 105, 106, 107, 108, 109, 110, 111, 112, 113, 114, 115, 116, 117, 118, 119, 120, 121, 122, 123, 124, 125, 126, 127, 128, 129, 130, 131, 132, 133, 134, 135, 136, 137, 138, 139, 140, 141, 142, 143, 144, 145, 146, 147, 148, 149, 150, 151, 152, 153, 154, 155, 156, 157, 158, 159, 160, 161, 162, 163, 164, 165, 166, 167, 168, 169, 170, 171, 172, 173, 174, 175, 176, 177, 178, 179, 180, 181, 182, 183, 184, 185, 186, 187, 188, 189, 190, 191, 192, 193, 194, 195, 196, 197, 198, 199, 200, 201, 202, 203, 204, 205, 206, 207, 208, 209, 210, 211, 212, 213, 214, 215, 216, 217, 218, 219, 220, 221, 222, 223, 224, 225, 226, 227, 228, 229, 230, 231, 232, 233, 234, 235, 236, 237, 238, 239, 240, 241, 242, 243, 244, 245, 246, 247, 248, 249, 250, 251, 252, 253, 254, 255, 256, 257, 258, 259, 260, 261, 262, 263, 264, 265, 266, 267, 268, 269, 270, 271, 272, 273, 274, 275, 276, 277, 278, 279, 280, 281, 282, 283, 284, 285, 286, 287, 288, 289, 290, 291, 292, 293, 294, 295, 296, 297, 298, 299, 300, 301, 302, 303, 304, 305, 306, 307, 308, 309, 310, 311, 312, 313, 314, 315, 316, 317, 318, 319, 320, 321, 322, 323, 324, 325, 326, 327, 328, 329, 330, 331, 332, 333, 334, 335, 336, 337, 338, 339, 340, 341, 342, 343, 344, 345, 346, 347, 348, 349, 350, 351, 352, 353, 354, 355, 356, 357, 358, 359, 360, 361, 362, 363, 364, 365, 366, 367, 368, 369, 370, 371, 372, 373, 374, 375, 376, 377, 378, 379, 380, 381, 382, 383, 384, 385, 386, 387, 388, 389, 390, 391, 392, 393, 394, 395, 396, 397, 398, 399, 400, 401, 402, 403, 404, 405, 406, 407, 408, 409, 410, 411, 412, 413, 414, 415, 416, 417, 418, 419, 420, 421, 422, 423, 424, 425, 426, 427, 428, 429, 430, 431, 432, 433, 434, 435, 436, 437, 438, 439, 440, 441, 442, 443, 444, 445, 446, 447, 448, 449, 450, 451, 452, 453, 454, 455, 456, 457, 458, 459, 460, 461, 462, 463, 464, 465, 466, 467, 468, 469, 470, 471, 472, 473, 474, 475, 476, 477, 478, 479, 480, 481, 482, 483, 484, 485, 486, 487, 488, 489, 490, 491, 492, 493, 494, 495, 496, 497, 498, 499, 500, 501, 502, 503, 504, 505, 506, 507, 508, 509, 510, 511, 512, 513, 514, 515, 516, 517, 518, 519, 520, 521, 522, 523, 524, 525, 526, 527, 528, 529, 530, 531, 532, 533, 534, 535, 536, 537, 538, 539, 540, 541, 542, 543, 544, 545, 546, 547, 548, 549, 550, 551, 552, 553, 554, 555, 556, 557, 558, 559, 560, 561, 562, 563, 564, 565, 566, 567, 568, 569, 570, 571, 572, 573, 574, 575, 576, 577, 578, 579, 580, 581, 582, 583, 584, 585, 586, 587, 588, 589, 590, 591, 592, 593, 594, 595, 596, 597, 598, 599, 600, 601, 602, 603, 604, 605, 606, 607, 608, 609, 610, 611, 612, 613, 614, 615, 616, 617, 618, 619, 620, 621, 622, 623, 624, 625, 626, 627, 628, 629, 630, 631, 632, 633, 634, 635, 636, 637, 638, 639, 640, 641, 642, 643, 644, 645, 646, 647, 648, 649, 650, 651, 652, 653, 654, 655, 656, 657, 658, 659, 660, 661, 662, 663, 664, 665, 666, 667, 668, 669, 670, 671, 672, 673, 674, 675, 676, 677, 678, 679, 680, 681, 682, 683, 684, 685, 686, 687, 688, 689, 690, 691, 692, 693, 694, 695, 696, 697, 698, 699, 700, 701, 702, 703, 704, 705, 706, 707, 708, 709, 710, 711, 712, 713, 714, 715, 716, 717, 718, 719, 720, 721, 722, 723, 724, 725, 726, 727, 728, 729, 730, 731, 732, 733, 734, 735, 736, 737, 738, 739, 740, 741, 742, 743, 744, 745, 746, 747, 748, 749, 750, 751, 752, 753, 754, 755, 756, 757, 758, 759, 760, 761, 762, 763, 764, 765, 766, 767, 768, 769, 770, 771, 772, 773, 774, 775, 776, 777, 778, 779, 780, 781, 782, 783, 784, 785, 786, 787, 788, 789, 790, 791, 792, 793, 794, 795, 796, 797, 798, 799, 800, 801, 802, 803, 804, 805, 806, 807, 808, 809, 810, 811, 812, 813, 814, 815, 816, 817, 818, 819, 820, 821, 822, 823, 824, 825, 826, 827, 828, 829, 830, 831, 832, 833, 834, 835, 836, 837, 838, 839, 840, 841, 842, 843, 844, 845, 846, 847, 848, 849, 850, 851, 852, 853, 854, 855, 856, 857, 858, 859, 860, 861, 862, 863, 864, 865, 866, 867, 868, 869, 870, 871, 872],
      "AcquisitionTime": ["130217.365000", "130217.825000", "130218.285000", "130218.745000", "130219.205000", "130219.665000", "130220.125000", "130220.585000", "130221.045000", "130221.505000", "130221.965000", "130222.425000", "130222.885000", "130223.345000", "130223.805000", "130224.265000", "130224.725000", "130225.185000", "130225.645000", "130226.105000", "130226.565000", "130227.025000", "130227.485000", "130227.945000", "130228.405000", "130228.865000", "130229.325000", "130229.785000", "130230.245000", "130230.705000", "130231.165000", "130231.625000", "130232.085000", "130232.545000", "130233.005000", "130233.465000", "130233.925000", "130234.385000", "130234.845000", "130235.305000", "130235.765000", "130236.225000", "130236.685000", "130237.145000", "130237.605000", "130238.065000", "130238.525000", "130238.985000", "130239.445000", "130239.905000", "130240.365000", "130240.825000", "130241.285000", "130241.745000", "130242.205000", "130242.665000", "130243.125000", "130243.585000", "130244.045000", "130244.505000", "130244.965000", "130245.425000", "130245.885000", "130246.345000", "130246.805000", "130247.265000", "130247.725000", "130248.185000", "130248.645000", "130249.105000", "130249.565000", "130250.025000", "130250.485000", "130250.945000", "130251.405000", "130251.865000", "130252.325000", "130252.785000", "130253.245000", "130253.705000", "130254.165000", "130254.625000", "130255.085000", "130255.545000", "130256.005000", "130256.465000", "130256.925000", "130257.385000", "130257.845000", "130258.305000", "130258.765000", "130259.225000", "130259.685000", "130300.145000", "130300.605000", "130301.065000", "130301.525000", "130301.985000", "130302.445000", "130302.905000", "130303.365000", "130303.825000", "130304.285000", "130304.745000", "130305.205000", "130305.665000", "130306.125000", "130306.585000", "130307.045000", "130307.505000", "130307.965000", "130308.425000", "130308.885000", "130309.345000", "130309.805000", "130310.265000", "130310.725000", "130311.185000", "130311.645000", "130312.105000", "130312.565000", "130313.025000", "130313.485000", "130313.945000", "130314.405000", "130314.865000", "130315.325000", "130315.785000", "130316.245000", "130316.705000", "130317.165000", "130317.625000", "130318.085000", "130318.545000", "130319.005000", "130319.465000", "130319.925000", "130320.385000", "130320.845000", "130321.305000", "130321.765000", "130322.225000", "130322.685000", "130323.145000", "130323.605000", "130324.065000", "130324.525000", "130324.985000", "130325.445000", "130325.905000", "130326.365000", "130326.825000", "130327.285000", "130327.745000", "130328.205000", "130328.665000", "130329.125000", "130329.585000", "130330.045000", "130330.505000", "130330.965000", "130331.425000", "130331.885000", "130332.345000", "130332.805000", "130333.265000", "130333.725000", "130334.185000", "130334.645000", "130335.105000", "130335.565000", "130336.025000", "130336.485000", "130336.945000", "130337.405000", "130337.865000", "130338.325000", "130338.785000", "130339.245000", "130339.705000", "130340.165000", "130340.625000", "130341.085000", "130341.545000", "130342.005000", "130342.465000", "130342.925000", "130343.385000", "130343.845000", "130344.305000", "130344.765000", "130345.225000", "130345.685000", "130346.145000", "130346.605000", "130347.065000", "130347.525000", "130347.985000", "130348.445000", "130348.905000", "130349.365000", "130349.825000", "130350.285000", "130350.745000", "130351.205000", "130351.665000", "130352.125000", "130352.585000", "130353.045000", "130353.505000", "130353.965000", "130354.425000", "130354.885000", "130355.345000", "130355.805000", "130356.265000", "130356.725000", "130357.185000", "130357.645000", "130358.105000", "130358.565000", "130359.025000", "130359.485000", "130359.945000", "130400.405000", "130400.865000", "130401.325000", "130401.785000", "130402.245000", "130402.705000", "130403.165000", "130403.625000", "130404.085000", "130404.545000", "130405.005000", "130405.465000", "130405.925000", "130406.385000", "130406.845000", "130407.305000", "130407.765000", "130408.225000", "130408.685000", "130409.145000", "130409.605000", "130410.065000", "130410.525000", "130410.985000", "130411.445000", "130411.905000", "130412.365000", "130412.825000", "130413.285000", "130413.745000", "130414.205000", "130414.665000", "130415.125000", "130415.585000", "130416.045000", "130416.505000", "130416.965000", "130417.425000", "130417.885000", "130418.345000", "130418.805000", "130419.265000", "130419.725000", "130420.185000", "130420.645000", "130421.105000", "130421.565000", "130422.025000", "130422.485000", "130422.945000", "130423.405000", "130423.865000", "130424.325000", "130424.785000", "130425.245000", "130425.705000", "130426.165000", "130426.625000", "130427.085000", "130427.545000", "130428.005000", "130428.465000", "130428.925000", "130429.385000", "130429.845000", "130430.305000", "130430.765000", "130431.225000", "130431.685000", "130432.145000", "130432.605000", "130433.065000", "130433.525000", "130433.985000", "130434.445000", "130434.905000", "130435.365000", "130435.825000", "130436.285000", "130436.745000", "130437.205000", "130437.665000", "130438.125000", "130438.585000", "130439.045000", "130439.505000", "130439.965000", "130440.425000", "130440.885000", "130441.345000", "130441.805000", "130442.265000", "130442.725000", "130443.185000", "130443.645000", "130444.105000", "130444.565000", "130445.025000", "130445.485000", "130445.945000", "130446.405000", "130446.865000", "130447.325000", "130447.785000", "130448.245000", "130448.705000", "130449.165000", "130449.625000", "130450.085000", "130450.545000", "130451.005000", "130451.465000", "130451.925000", "130452.385000", "130452.845000", "130453.305000", "130453.765000", "130454.225000", "130454.685000", "130455.145000", "130455.605000", "130456.065000", "130456.525000", "130456.985000", "130457.445000", "130457.905000", "130458.365000", "130458.825000", "130459.285000", "130459.745000", "130500.205000", "130500.665000", "130501.125000", "130501.585000", "130502.045000", "130502.505000", "130502.965000", "130503.425000", "130503.885000", "130504.345000", "130504.805000", "130505.265000", "130505.725000", "130506.185000", "130506.645000", "130507.105000", "130507.565000", "130508.025000", "130508.485000", "130508.945000", "130509.405000", "130509.865000", "130510.325000", "130510.785000", "130511.245000", "130511.705000", "130512.165000", "130512.625000", "130513.085000", "130513.545000", "130514.005000", "130514.465000", "130514.925000", "130515.385000", "130515.845000", "130516.305000", "130516.765000", "130517.225000", "130517.685000", "130518.145000", "130518.605000", "130519.065000", "130519.525000", "130519.985000", "130520.445000", "130520.905000", "130521.365000", "130521.825000", "130522.285000", "130522.745000", "130523.205000", "130523.665000", "130524.125000", "130524.585000", "130525.045000", "130525.505000", "130525.965000", "130526.425000", "130526.885000", "130527.345000", "130527.805000", "130528.265000", "130528.725000", "130529.185000", "130529.645000", "130530.105000", "130530.565000", "130531.025000", "130531.485000", "130531.945000", "130532.405000", "130532.865000", "130533.325000", "130533.785000", "130534.245000", "130534.705000", "130535.165000", "130535.625000", "130536.085000", "130536.545000", "130537.005000", "130537.465000", "130537.925000", "130538.385000", "130538.845000", "130539.305000", "130539.765000", "130540.225000", "130540.685000", "130541.145000", "130541.605000", "130542.065000", "130542.525000", "130542.985000", "130543.445000", "130543.905000", "130544.365000", "130544.825000", "130545.285000", "130545.745000", "130546.205000", "130546.665000", "130547.125000", "130547.585000", "130548.045000", "130548.505000", "130548.965000", "130549.425000", "130549.885000", "130550.345000", "130550.805000", "130551.265000", "130551.725000", "130552.185000", "130552.645000", "130553.105000", "130553.565000", "130554.025000", "130554.485000", "130554.945000", "130555.405000", "130555.865000", "130556.325000", "130556.785000", "130557.245000", "130557.705000", "130558.165000", "130558.625000", "130559.085000", "130559.545000", "130600.005000", "130600.465000", "130600.925000", "130601.385000", "130601.845000", "130602.305000", "130602.765000", "130603.225000", "130603.685000", "130604.145000", "130604.605000", "130605.065000", "130605.525000", "130605.985000", "130606.445000", "130606.905000", "130607.365000", "130607.825000", "130608.285000", "130608.745000", "130609.205000", "130609.665000", "130610.125000", "130610.585000", "130611.045000", "130611.505000", "130611.965000", "130612.425000", "130612.885000", "130613.345000", "130613.805000", "130614.265000", "130614.725000", "130615.185000", "130615.645000", "130616.105000", "130616.565000", "130617.025000", "130617.485000", "130617.945000", "130618.405000", "130618.865000", "130619.325000", "130619.785000", "130620.245000", "130620.705000", "130621.165000", "130621.625000", "130622.085000", "130622.545000", "130623.005000", "130623.465000", "130623.925000", "130624.385000", "130624.845000", "130625.305000", "130625.765000", "130626.225000", "130626.685000", "130627.145000", "130627.605000", "130628.065000", "130628.525000", "130628.985000", "130629.445000", "130629.905000", "130630.365000", "130630.825000", "130631.285000", "130631.745000", "130632.205000", "130632.665000", "130633.125000", "130633.585000", "130634.045000", "130634.505000", "130634.965000", "130635.425000", "130635.885000", "130636.345000", "130636.805000", "130637.265000", "130637.725000", "130638.185000", "130638.645000", "130639.105000", "130639.565000", "130640.025000", "130640.485000", "130640.945000", "130641.405000", "130641.865000", "130642.325000", "130642.785000", "130643.245000", "130643.705000", "130644.165000", "130644.625000", "130645.085000", "130645.545000", "130646.005000", "130646.465000", "130646.925000", "130647.385000", "130647.845000", "130648.305000", "130648.765000", "130649.225000", "130649.685000", "130650.145000", "130650.605000", "130651.065000", "130651.525000", "130651.985000", "130652.445000", "130652.905000", "130653.365000", "130653.825000", "130654.285000", "130654.745000", "130655.205000", "130655.665000", "130656.125000", "130656.585000", "130657.045000", "130657.505000", "130657.965000", "130658.425000", "130658.885000", "130659.345000", "130659.805000", "130700.265000", "130700.725000", "130701.185000", "130701.645000", "130702.105000", "130702.565000", "130703.025000", "130703.485000", "130703.945000", "130704.405000", "130704.865000", "130705.325000", "130705.785000", "130706.245000", "130706.705000", "130707.165000", "130707.625000", "130708.085000", "130708.545000", "130709.005000", "130709.465000", "130709.925000", "130710.385000", "130710.845000", "130711.305000", "130711.765000", "130712.225000", "130712.685000", "130713.145000", "130713.605000", "130714.065000", "130714.525000", "130714.985000", "130715.445000", "130715.905000", "130716.365000", "130716.825000", "130717.285000", "130717.745000", "130718.205000", "130718.665000", "130719.125000", "130719.585000", "130720.045000", "130720.505000", "130720.965000", "130721.425000", "130721.885000", "130722.345000", "130722.805000", "130723.265000", "130723.725000", "130724.185000", "130724.645000", "130725.105000", "130725.565000", "130726.025000", "130726.485000", "130726.945000", "130727.405000", "130727.865000", "130728.325000", "130728.785000", "130729.245000", "130729.705000", "130730.165000", "130730.625000", "130731.085000", "130731.545000", "130732.005000", "130732.465000", "130732.925000", "130733.385000", "130733.845000", "130734.305000", "130734.765000", "130735.225000", "130735.685000", "130736.145000", "130736.605000", "130737.065000", "130737.525000", "130737.985000", "130738.445000", "130738.905000", "130739.365000", "130739.825000", "130740.285000", "130740.745000", "130741.205000", "130741.665000", "130742.125000", "130742.585000", "130743.045000", "130743.505000", "130743.965000", "130744.425000", "130744.885000", "130745.345000", "130745.805000", "130746.265000", "130746.725000", "130747.185000", "130747.645000", "130748.105000", "130748.565000", "130749.025000", "130749.485000", "130749.945000", "130750.405000", "130750.865000", "130751.325000", "130751.785000", "130752.245000", "130752.705000", "130753.165000", "130753.625000", "130754.085000", "130754.545000", "130755.005000", "130755.465000", "130755.925000", "130756.385000", "130756.845000", "130757.305000", "130757.765000", "130758.225000", "130758.685000", "130759.145000", "130759.605000", "130800.065000", "130800.525000", "130800.985000", "130801.445000", "130801.905000", "130802.365000", "130802.825000", "130803.285000", "130803.745000", "130804.205000", "130804.665000", "130805.125000", "130805.585000", "130806.045000", "130806.505000", "130806.965000", "130807.425000", "130807.885000", "130808.345000", "130808.805000", "130809.265000", "130809.725000", "130810.185000", "130810.645000", "130811.105000", "130811.565000", "130812.025000", "130812.485000", "130812.945000", "130813.405000", "130813.865000", "130814.325000", "130814.785000", "130815.245000", "130815.705000", "130816.165000", "130816.625000", "130817.085000", "130817.545000", "130818.005000", "130818.465000", "130818.925000", "130819.385000", "130819.845000", "130820.305000", "130820.765000", "130821.225000", "130821.685000", "130822.145000", "130822.605000", "130823.065000", "130823.525000", "130823.985000", "130824.445000", "130824.905000", "130825.365000", "130825.825000", "130826.285000", "130826.745000", "130827.205000", "130827.665000", "130828.125000", "130828.585000", "130829.045000", "130829.505000", "130829.965000", "130830.425000", "130830.885000", "130831.345000", "130831.805000", "130832.265000", "130832.725000", "130833.185000", "130833.645000", "130834.105000", "130834.565000", "130835.025000", "130835.485000", "130835.945000", "130836.405000", "130836.865000", "130837.325000", "130837.785000", "130838.245000", "130838.705000", "130839.165000", "130839.625000", "130840.085000", "130840.545000", "130841.005000", "130841.465000", "130841.925000", "130842.385000", "130842.845000", "130843.305000", "130843.765000", "130844.225000", "130844.685000", "130845.145000", "130845.605000", "130846.065000", "130846.525000", "130846.985000", "130847.445000", "130847.905000", "130848.365000", "130848.825000", "130849.285000", "130849.745000", "130850.205000", "130850.665000", "130851.125000", "130851.585000", "130852.045000", "130852.505000", "130852.965000", "130853.425000", "130853.885000", "130854.345000", "130854.805000", "130855.265000", "130855.725000", "130856.185000", "130856.645000", "130857.105000", "130857.565000", "130858.025000"],
