{
  "AcquisitionMatrixPE": 82,
  "AcquisitionNumber": 1,
  "AcquisitionTime": "12:55:19.710000",
  "BandwidthPerPixelPhaseEncode": 24.888,
  "BaseResolution": 82,
  "BodyPartExamined": "BRAIN",
  "ConsistencyInfo": "N4_VE11E_LATEST_20181129",
  "ConversionSoftware": "dcm2niix",
  "ConversionSoftwareVersion": "v1.0.20201102",
  "DerivedVendorReportedEchoSpacing": 0.00049,
  "DeviceSerialNumber": "66112",
  "DwellTime": 2e-06,
  "EchoTime": 0.0272,
  "EchoTrainLength": 82,
  "EffectiveEchoSpacing": 0.00049,
  "FlipAngle": 44,
  "ImageComments": "Unaliased MB8/PE3",
  "ImageOrientationPatientDICOM": [0.99998, -0.00587619, 0.00243509, 0.00523595, 0.977811, 0.209422],
  "ImageType": [
    "ORIGINAL",
    "PRIMARY",
    "M",
    "MB",
    "ND",
    "NORM",
    "MOSAIC"
],
  "ImagingFrequency": 123.252,
  "InPlanePhaseEncodingDirectionDICOM": "COL",
  "InstitutionAddress": "Maynard 3,Hanover,NH,US,03755",
  "InstitutionName": "Dartmouth College - PBS",
  "InstitutionalDepartmentName": "Department",
  "MRAcquisitionType": "2D",
  "MagneticFieldStrength": 3,
  "Manufacturer": "Siemens",
  "ManufacturersModelName": "Prisma",
  "Modality": "MR",
  "MultibandAccelerationFactor": 8,
  "PartialFourier": 1,
  "PatientPosition": "HFS",
  "PercentPhaseFOV": 100,
  "PercentSampling": 100,
  "PhaseEncodingDirection": "j-",
  "PhaseEncodingSteps": 82,
  "PhaseResolution": 1,
  "PixelBandwidth": 3050,
  "ProcedureStepDescription": "Wager_Wager^1076_spacetop",
  "ProtocolName": "func_run-01_task-social_acq-ap-mb8",
  "PulseSequenceDetails": "%CustomerSeq%\\cmrr_mbep2d_bold",
  "ReceiveCoilActiveElements": "HEA;HEP",
  "ReceiveCoilName": "Head_32",
  "ReconMatrixPE": 82,
  "RepetitionTime": 0.46,
  "SAR": 0.0932892,
  "ScanOptions": "FS",
  "ScanningSequence": "EP",
  "SequenceName": "epfid2d1_82",
  "SequenceVariant": "SK\\SS",
  "SeriesDescription": "func_run-01_task-social_acq-ap-mb8",
  "SeriesNumber": 12,
  "ShimSetting": [4132, -7718, -7312, 768, -32, -29, 54, 86],
  "SliceThickness": 2.7,
  "SliceTiming": [0, 0.2525, 0.0625, 0.315, 0.1275, 0.3775, 0.19, 0, 0.2525, 0.0625, 0.315, 0.1275, 0.3775, 0.19, 0, 0.2525, 0.0625, 0.315, 0.1275, 0.3775, 0.19, 0, 0.2525, 0.0625, 0.315, 0.1275, 0.3775, 0.19, 0, 0.2525, 0.0625, 0.315, 0.1275, 0.3775, 0.19, 0, 0.2525, 0.0625, 0.315, 0.1275, 0.3775, 0.19, 0, 0.2525, 0.0625, 0.315, 0.1275, 0.3775, 0.19, 0, 0.2525, 0.0625, 0.315, 0.1275, 0.3775, 0.19],
  "SoftwareVersions": "syngo MR E11",
  "SpacingBetweenSlices": 2.7,
  "StationName": "AWP66112",
  "TaskName": "social",
  "TotalReadoutTime": 0.03969,
  "TxRefAmp": 238.843,
  "WipMemBlock": "3ae2e5dc-29a0-4768-882e-deaf8f334393||Sequence: R016 ve11e/master r/434b28f1; Aug  7 2019 18:53:46 by eja",
  "dcmmeta_affine": [
    [-2.6828725337982178, 0.01404766645282507, 0.009751496836543083, 112.39926147460938],
    [0.015765387564897537, 2.623396158218384, 0.5653942823410034, -107.45210266113281],
    [0.006533174309879541, -0.5618646144866943, 2.640120029449463, -42.216590881347656],
    [0.0, 0.0, 0.0, 1.0]
],
  "dcmmeta_reorient_transform": [
    [0.0, -1.0, 0.0, 81.0],
    [1.0, 0.0, 0.0, 0.0],
    [0.0, 0.0, 1.0, 0.0],
    [0.0, 0.0, 0.0, 1.0]
],
  "dcmmeta_shape": [82, 82, 56, 872],
  "dcmmeta_slice_dim": 2,
  "dcmmeta_version": 0.6,
  "global": {
    "const": {
      "AccessionNumber": "A003956",
      "AcquisitionMatrix": [82, 0, 0, 82],
      "AngioFlag": "N",
      "BitsAllocated": 16,
      "BitsStored": 16,
      "BodyPartExamined": "BRAIN",
      "Columns": 656,
      "EchoNumbers": 1,
      "EchoTime": 27.2,
      "EchoTrainLength": 82,
      "FlipAngle": 44.0,
      "HighBit": 15,
      "ImageOrientationPatient": [0.9999797701547, -0.0058761898628, 0.00243509220407, 0.00523594811306, 0.97781127924536, 0.20942226965612],
      "ImagePositionPatient": [-887.55324065522, -853.43302683624, -250.85779983748],
      "ImageType": [
        "ORIGINAL",
        "PRIMARY",
        "M",
        "MB",
        "ND",
        "NORM",
        "MOSAIC"
],
      "ImagedNucleus": "1H",
      "ImagingFrequency": 123.252244,
      "InPlanePhaseEncodingDirection": "COL",
      "MRAcquisitionType": "2D",
      "MagneticFieldStrength": 3.0,
      "Manufacturer": "SIEMENS",
      "ManufacturerModelName": "Prisma",
      "Modality": "MR",
      "NumberOfAverages": 1.0,
      "NumberOfPhaseEncodingSteps": 82,
      "PercentPhaseFieldOfView": 100.0,
      "PercentSampling": 100.0,
      "PerformedProcedureStepStartTime": "121511.139000",
      "PhotometricInterpretation": "MONOCHROME2",
      "PixelBandwidth": 3050.0,
      "PixelRepresentation": 0,
      "PixelSpacing": [2.6829268932343, 2.6829268932343],
      "ProtocolName": "func_run-01_task-social_acq-ap-mb8",
      "RepetitionTime": 460.0,
      "Rows": 656,
      "SAR": 0.09328919664117,
      "SamplesPerPixel": 1,
      "ScanOptions": "FS",
      "ScanningSequence": "EP",
      "SequenceName": "epfid2d1_82",
      "SequenceVariant": [
        "SK",
        "SS"
],
      "SeriesDescription": "func_run-01_task-social_acq-ap-mb8",
      "SeriesNumber": 12,
      "SeriesTime": "125530.727000",
      "SliceLocation": -63.375412104528,
      "SliceThickness": 2.7000000476837,
      "SmallestImagePixelValue": 0,
      "SoftwareVersions": "syngo MR E11",
      "SpacingBetweenSlices": 2.6999999565233,
      "SpecificCharacterSet": "ISO_IR 100",
      "StudyID": "2",
      "StudyTime": "121511.098000",
      "TransmitCoilName": "Body",
      "VariableFlipAngleFlag": "N",
      "WindowCenterWidthExplanation": "Algo1"
    },
    "slices": {}
  },
  "time": {
    "samples": {
      "AcquisitionNumber": [1, 2, 3, 4, 5, 6, 7, 8, 9, 10, 11, 12, 13, 14, 15, 16, 17, 18, 19, 20, 21, 22, 23, 24, 25, 26, 27, 28, 29, 30, 31, 32, 33, 34, 35, 36, 37, 38, 39, 40, 41, 42, 43, 44, 45, 46, 47, 48, 49, 50, 51, 52, 53, 54, 55, 56, 57, 58, 59, 60, 61, 62, 63, 64, 65, 66, 67, 68, 69, 70, 71, 72, 73, 74, 75, 76, 77, 78, 79, 80, 81, 82, 83, 84, 85, 86, 87, 88, 89, 90, 91, 92, 93, 94, 95, 96, 97, 98, 99, 100, 101, 102, 103, 104, 105, 106, 107, 108, 109, 110, 111, 112, 113, 114, 115, 116, 117, 118, 119, 120, 121, 122, 123, 124, 125, 126, 127, 128, 129, 130, 131, 132, 133, 134, 135, 136, 137, 138, 139, 140, 141, 142, 143, 144, 145, 146, 147, 148, 149, 150, 151, 152, 153, 154, 155, 156, 157, 158, 159, 160, 161, 162, 163, 164, 165, 166, 167, 168, 169, 170, 171, 172, 173, 174, 175, 176, 177, 178, 179, 180, 181, 182, 183, 184, 185, 186, 187, 188, 189, 190, 191, 192, 193, 194, 195, 196, 197, 198, 199, 200, 201, 202, 203, 204, 205, 206, 207, 208, 209, 210, 211, 212, 213, 214, 215, 216, 217, 218, 219, 220, 221, 222, 223, 224, 225, 226, 227, 228, 229, 230, 231, 232, 233, 234, 235, 236, 237, 238, 239, 240, 241, 242, 243, 244, 245, 246, 247, 248, 249, 250, 251, 252, 253, 254, 255, 256, 257, 258, 259, 260, 261, 262, 263, 264, 265, 266, 267, 268, 269, 270, 271, 272, 273, 274, 275, 276, 277, 278, 279, 280, 281, 282, 283, 284, 285, 286, 287, 288, 289, 290, 291, 292, 293, 294, 295, 296, 297, 298, 299, 300, 301, 302, 303, 304, 305, 306, 307, 308, 309, 310, 311, 312, 313, 314, 315, 316, 317, 318, 319, 320, 321, 322, 323, 324, 325, 326, 327, 328, 329, 330, 331, 332, 333, 334, 335, 336, 337, 338, 339, 340, 341, 342, 343, 344, 345, 346, 347, 348, 349, 350, 351, 352, 353, 354, 355, 356, 357, 358, 359, 360, 361, 362, 363, 364, 365, 366, 367, 368, 369, 370, 371, 372, 373, 374, 375, 376, 377, 378, 379, 380, 381, 382, 383, 384, 385, 386, 387, 388, 389, 390, 391, 392, 393, 394, 395, 396, 397, 398, 399, 400, 401, 402, 403, 404, 405, 406, 407, 408, 409, 410, 411, 412, 413, 414, 415, 416, 417, 418, 419, 420, 421, 422, 423, 424, 425, 426, 427, 428, 429, 430, 431, 432, 433, 434, 435, 436, 437, 438, 439, 440, 441, 442, 443, 444, 445, 446, 447, 448, 449, 450, 451, 452, 453, 454, 455, 456, 457, 458, 459, 460, 461, 462, 463, 464, 465, 466, 467, 468, 469, 470, 471, 472, 473, 474, 475, 476, 477, 478, 479, 480, 481, 482, 483, 484, 485, 486, 487, 488, 489, 490, 491, 492, 493, 494, 495, 496, 497, 498, 499, 500, 501, 502, 503, 504, 505, 506, 507, 508, 509, 510, 511, 512, 513, 514, 515, 516, 517, 518, 519, 520, 521, 522, 523, 524, 525, 526, 527, 528, 529, 530, 531, 532, 533, 534, 535, 536, 537, 538, 539, 540, 541, 542, 543, 544, 545, 546, 547, 548, 549, 550, 551, 552, 553, 554, 555, 556, 557, 558, 559, 560, 561, 562, 563, 564, 565, 566, 567, 568, 569, 570, 571, 572, 573, 574, 575, 576, 577, 578, 579, 580, 581, 582, 583, 584, 585, 586, 587, 588, 589, 590, 591, 592, 593, 594, 595, 596, 597, 598, 599, 600, 601, 602, 603, 604, 605, 606, 607, 608, 609, 610, 611, 612, 613, 614, 615, 616, 617, 618, 619, 620, 621, 622, 623, 624, 625, 626, 627, 628, 629, 630, 631, 632, 633, 634, 635, 636, 637, 638, 639, 640, 641, 642, 643, 644, 645, 646, 647, 648, 649, 650, 651, 652, 653, 654, 655, 656, 657, 658, 659, 660, 661, 662, 663, 664, 665, 666, 667, 668, 669, 670, 671, 672, 673, 674, 675, 676, 677, 678, 679, 680, 681, 682, 683, 684, 685, 686, 687, 688, 689, 690, 691, 692, 693, 694, 695, 696, 697, 698, 699, 700, 701, 702, 703, 704, 705, 706, 707, 708, 709, 710, 711, 712, 713, 714, 715, 716, 717, 718, 719, 720, 721, 722, 723, 724, 725, 726, 727, 728, 729, 730, 731, 732, 733, 734, 735, 736, 737, 738, 739, 740, 741, 742, 743, 744, 745, 746, 747, 748, 749, 750, 751, 752, 753, 754, 755, 756, 757, 758, 759, 760, 761, 762, 763, 764, 765, 766, 767, 768, 769, 770, 771, 772, 773, 774, 775, 776, 777, 778, 779, 780, 781, 782, 783, 784, 785, 786, 787, 788, 789, 790, 791, 792, 793, 794, 795, 796, 797, 798, 799, 800, 801, 802, 803, 804, 805, 806, 807, 808, 809, 810, 811, 812, 813, 814, 815, 816, 817, 818, 819, 820, 821, 822, 823, 824, 825, 826, 827, 828, 829, 830, 831, 832, 833, 834, 835, 836, 837, 838, 839, 840, 841, 842, 843, 844, 845, 846, 847, 848, 849, 850, 851, 852, 853, 854, 855, 856, 857, 858, 859, 860, 861, 862, 863, 864, 865, 866, 867, 868, 869, 870, 871, 872],
      "AcquisitionTime": ["125519.710000", "125520.170000", "125520.630000", "125521.090000", "125521.550000", "125522.010000", "125522.470000", "125522.930000", "125523.390000", "125523.850000", "125524.310000", "125524.770000", "125525.230000", "125525.690000", "125526.150000", "125526.610000", "125527.070000", "125527.530000", "125527.990000", "125528.450000", "125528.910000", "125529.370000", "125529.830000", "125530.290000", "125530.750000", "125531.210000", "125531.670000", "125532.130000", "125532.590000", "125533.050000", "125533.510000", "125533.970000", "125534.430000", "125534.890000", "125535.350000", "125535.810000", "125536.270000", "125536.730000", "125537.190000", "125537.650000", "125538.110000", "125538.570000", "125539.030000", "125539.490000", "125539.950000", "125540.410000", "125540.870000", "125541.330000", "125541.790000", "125542.250000", "125542.710000", "125543.170000", "125543.630000", "125544.090000", "125544.550000", "125545.010000", "125545.470000", "125545.930000", "125546.390000", "125546.850000", "125547.310000", "125547.770000", "125548.230000", "125548.690000", "125549.150000", "125549.610000", "125550.070000", "125550.530000", "125550.990000", "125551.450000", "125551.910000", "125552.370000", "125552.830000", "125553.290000", "125553.750000", "125554.210000", "125554.670000", "125555.130000", "125555.590000", "125556.050000", "125556.510000", "125556.970000", "125557.430000", "125557.890000", "125558.350000", "125558.810000", "125559.270000", "125559.730000", "125600.190000", "125600.650000", "125601.110000", "125601.570000", "125602.030000", "125602.490000", "125602.950000", "125603.410000", "125603.870000", "125604.330000", "125604.790000", "125605.250000", "125605.710000", "125606.170000", "125606.630000", "125607.090000", "125607.550000", "125608.010000", "125608.470000", "125608.930000", "125609.390000", "125609.850000", "125610.310000", "125610.770000", "125611.230000", "125611.690000", "125612.150000", "125612.610000", "125613.070000", "125613.530000", "125613.990000", "125614.450000", "125614.910000", "125615.370000", "125615.830000", "125616.290000", "125616.750000", "125617.210000", "125617.670000", "125618.130000", "125618.590000", "125619.050000", "125619.510000", "125619.970000", "125620.430000", "125620.890000", "125621.350000", "125621.810000", "125622.270000", "125622.730000", "125623.190000", "125623.650000", "125624.110000", "125624.570000", "125625.030000", "125625.490000", "125625.950000", "125626.410000", "125626.870000", "125627.330000", "125627.790000", "125628.250000", "125628.710000", "125629.170000", "125629.630000", "125630.090000", "125630.550000", "125631.010000", "125631.470000", "125631.930000", "125632.390000", "125632.850000", "125633.310000", "125633.770000", "125634.230000", "125634.690000", "125635.150000", "125635.610000", "125636.070000", "125636.530000", "125636.990000", "125637.450000", "125637.910000", "125638.370000", "125638.830000", "125639.290000", "125639.750000", "125640.210000", "125640.670000", "125641.130000", "125641.590000", "125642.050000", "125642.510000", "125642.970000", "125643.430000", "125643.890000", "125644.350000", "125644.810000", "125645.270000", "125645.730000", "125646.190000", "125646.650000", "125647.110000", "125647.570000", "125648.030000", "125648.490000", "125648.950000", "125649.410000", "125649.870000", "125650.330000", "125650.790000", "125651.250000", "125651.710000", "125652.170000", "125652.630000", "125653.090000", "125653.550000", "125654.010000", "125654.470000", "125654.930000", "125655.390000", "125655.850000", "125656.310000", "125656.770000", "125657.230000", "125657.690000", "125658.150000", "125658.610000", "125659.070000", "125659.530000", "125659.990000", "125700.450000", "125700.910000", "125701.370000", "125701.830000", "125702.290000", "125702.750000", "125703.210000", "125703.670000", "125704.130000", "125704.590000", "125705.050000", "125705.510000", "125705.970000", "125706.430000", "125706.890000", "125707.350000", "125707.810000", "125708.270000", "125708.730000", "125709.190000", "125709.650000", "125710.110000", "125710.570000", "125711.030000", "125711.490000", "125711.950000", "125712.410000", "125712.870000", "125713.330000", "125713.790000", "125714.250000", "125714.710000", "125715.170000", "125715.630000", "125716.090000", "125716.550000", "125717.010000", "125717.470000", "125717.930000", "125718.390000", "125718.850000", "125719.310000", "125719.770000", "125720.230000", "125720.690000", "125721.150000", "125721.610000", "125722.070000", "125722.530000", "125722.990000", "125723.450000", "125723.910000", "125724.370000", "125724.830000", "125725.290000", "125725.750000", "125726.210000", "125726.670000", "125727.130000", "125727.590000", "125728.050000", "125728.510000", "125728.970000", "125729.430000", "125729.890000", "125730.350000", "125730.810000", "125731.270000", "125731.730000", "125732.190000", "125732.650000", "125733.110000", "125733.570000", "125734.030000", "125734.490000", "125734.950000", "125735.410000", "125735.870000", "125736.330000", "125736.790000", "125737.250000", "125737.710000", "125738.170000", "125738.630000", "125739.090000", "125739.550000", "125740.010000", "125740.470000", "125740.930000", "125741.390000", "125741.850000", "125742.310000", "125742.770000", "125743.230000", "125743.690000", "125744.150000", "125744.610000", "125745.070000", "125745.530000", "125745.990000", "125746.450000", "125746.910000", "125747.370000", "125747.830000", "125748.290000", "125748.750000", "125749.210000", "125749.670000", "125750.130000", "125750.590000", "125751.050000", "125751.510000", "125751.970000", "125752.430000", "125752.890000", "125753.350000", "125753.810000", "125754.270000", "125754.730000", "125755.190000", "125755.650000", "125756.110000", "125756.570000", "125757.030000", "125757.490000", "125757.950000", "125758.410000", "125758.870000", "125759.330000", "125759.790000", "125800.250000", "125800.710000", "125801.170000", "125801.630000", "125802.090000", "125802.550000", "125803.010000", "125803.470000", "125803.930000", "125804.390000", "125804.850000", "125805.310000", "125805.770000", "125806.230000", "125806.690000", "125807.150000", "125807.610000", "125808.070000", "125808.530000", "125808.990000", "125809.450000", "125809.910000", "125810.370000", "125810.830000", "125811.290000", "125811.750000", "125812.210000", "125812.670000", "125813.130000", "125813.590000", "125814.050000", "125814.510000", "125814.970000", "125815.430000", "125815.890000", "125816.350000", "125816.810000", "125817.270000", "125817.730000", "125818.190000", "125818.650000", "125819.110000", "125819.570000", "125820.030000", "125820.490000", "125820.950000", "125821.410000", "125821.870000", "125822.330000", "125822.790000", "125823.250000", "125823.710000", "125824.170000", "125824.630000", "125825.090000", "125825.550000", "125826.010000", "125826.470000", "125826.930000", "125827.390000", "125827.850000", "125828.310000", "125828.770000", "125829.230000", "125829.690000", "125830.150000", "125830.610000", "125831.070000", "125831.530000", "125831.990000", "125832.450000", "125832.910000", "125833.370000", "125833.830000", "125834.290000", "125834.750000", "125835.210000", "125835.670000", "125836.130000", "125836.590000", "125837.050000", "125837.510000", "125837.970000", "125838.430000", "125838.890000", "125839.350000", "125839.810000", "125840.270000", "125840.730000", "125841.190000", "125841.650000", "125842.110000", "125842.570000", "125843.030000", "125843.490000", "125843.950000", "125844.410000", "125844.870000", "125845.330000", "125845.790000", "125846.250000", "125846.710000", "125847.170000", "125847.630000", "125848.090000", "125848.550000", "125849.010000", "125849.470000", "125849.930000", "125850.390000", "125850.850000", "125851.310000", "125851.770000", "125852.230000", "125852.690000", "125853.150000", "125853.610000", "125854.070000", "125854.530000", "125854.990000", "125855.450000", "125855.910000", "125856.370000", "125856.830000", "125857.290000", "125857.750000", "125858.210000", "125858.670000", "125859.130000", "125859.590000", "125900.050000", "125900.510000", "125900.970000", "125901.430000", "125901.890000", "125902.350000", "125902.810000", "125903.270000", "125903.730000", "125904.190000", "125904.650000", "125905.110000", "125905.570000", "125906.030000", "125906.490000", "125906.950000", "125907.410000", "125907.870000", "125908.330000", "125908.790000", "125909.250000", "125909.710000", "125910.170000", "125910.630000", "125911.090000", "125911.550000", "125912.010000", "125912.470000", "125912.930000", "125913.390000", "125913.850000", "125914.310000", "125914.770000", "125915.230000", "125915.690000", "125916.150000", "125916.610000", "125917.070000", "125917.530000", "125917.990000", "125918.450000", "125918.910000", "125919.370000", "125919.830000", "125920.290000", "125920.750000", "125921.210000", "125921.670000", "125922.130000", "125922.590000", "125923.050000", "125923.510000", "125923.970000", "125924.430000", "125924.890000", "125925.350000", "125925.810000", "125926.270000", "125926.730000", "125927.190000", "125927.650000", "125928.110000", "125928.570000", "125929.030000", "125929.490000", "125929.950000", "125930.410000", "125930.870000", "125931.330000", "125931.790000", "125932.250000", "125932.710000", "125933.170000", "125933.630000", "125934.090000", "125934.550000", "125935.010000", "125935.470000", "125935.930000", "125936.390000", "125936.850000", "125937.310000", "125937.770000", "125938.230000", "125938.690000", "125939.150000", "125939.610000", "125940.070000", "125940.530000", "125940.990000", "125941.450000", "125941.910000", "125942.370000", "125942.830000", "125943.290000", "125943.750000", "125944.210000", "125944.670000", "125945.130000", "125945.590000", "125946.050000", "125946.510000", "125946.970000", "125947.430000", "125947.890000", "125948.350000", "125948.810000", "125949.270000", "125949.730000", "125950.190000", "125950.650000", "125951.110000", "125951.570000", "125952.030000", "125952.490000", "125952.950000", "125953.410000", "125953.870000", "125954.330000", "125954.790000", "125955.250000", "125955.710000", "125956.170000", "125956.630000", "125957.090000", "125957.550000", "125958.010000", "125958.470000", "125958.930000", "125959.390000", "125959.850000", "130000.310000", "130000.770000", "130001.230000", "130001.690000", "130002.150000", "130002.610000", "130003.070000", "130003.530000", "130003.990000", "130004.450000", "130004.910000", "130005.370000", "130005.830000", "130006.290000", "130006.750000", "130007.210000", "130007.670000", "130008.130000", "130008.590000", "130009.050000", "130009.510000", "130009.970000", "130010.430000", "130010.890000", "130011.350000", "130011.810000", "130012.270000", "130012.730000", "130013.190000", "130013.650000", "130014.110000", "130014.570000", "130015.030000", "130015.490000", "130015.950000", "130016.410000", "130016.870000", "130017.330000", "130017.790000", "130018.250000", "130018.710000", "130019.170000", "130019.630000", "130020.090000", "130020.550000", "130021.010000", "130021.470000", "130021.930000", "130022.390000", "130022.850000", "130023.310000", "130023.770000", "130024.230000", "130024.690000", "130025.150000", "130025.610000", "130026.070000", "130026.530000", "130026.990000", "130027.450000", "130027.910000", "130028.370000", "130028.830000", "130029.290000", "130029.750000", "130030.210000", "130030.670000", "130031.130000", "130031.590000", "130032.050000", "130032.510000", "130032.970000", "130033.430000", "130033.890000", "130034.350000", "130034.810000", "130035.270000", "130035.730000", "130036.190000", "130036.650000", "130037.110000", "130037.570000", "130038.030000", "130038.490000", "130038.950000", "130039.410000", "130039.870000", "130040.330000", "130040.790000", "130041.250000", "130041.710000", "130042.170000", "130042.630000", "130043.090000", "130043.550000", "130044.010000", "130044.470000", "130044.930000", "130045.390000", "130045.850000", "130046.310000", "130046.770000", "130047.230000", "130047.690000", "130048.150000", "130048.610000", "130049.070000", "130049.530000", "130049.990000", "130050.450000", "130050.910000", "130051.370000", "130051.830000", "130052.290000", "130052.750000", "130053.210000", "130053.670000", "130054.130000", "130054.590000", "130055.050000", "130055.510000", "130055.970000", "130056.430000", "130056.890000", "130057.350000", "130057.810000", "130058.270000", "130058.730000", "130059.190000", "130059.650000", "130100.110000", "130100.570000", "130101.030000", "130101.490000", "130101.950000", "130102.410000", "130102.870000", "130103.330000", "130103.790000", "130104.250000", "130104.710000", "130105.170000", "130105.630000", "130106.090000", "130106.550000", "130107.010000", "130107.470000", "130107.930000", "130108.390000", "130108.850000", "130109.310000", "130109.770000", "130110.230000", "130110.690000", "130111.150000", "130111.610000", "130112.070000", "130112.530000", "130112.990000", "130113.450000", "130113.910000", "130114.370000", "130114.830000", "130115.290000", "130115.750000", "130116.210000", "130116.670000", "130117.130000", "130117.590000", "130118.050000", "130118.510000", "130118.970000", "130119.430000", "130119.890000", "130120.350000", "130120.810000", "130121.270000", "130121.730000", "130122.190000", "130122.650000", "130123.110000", "130123.570000", "130124.030000", "130124.490000", "130124.950000", "130125.410000", "130125.870000", "130126.330000", "130126.790000", "130127.250000", "130127.710000", "130128.170000", "130128.630000", "130129.090000", "130129.550000", "130130.010000", "130130.470000", "130130.930000", "130131.390000", "130131.850000", "130132.310000", "130132.770000", "130133.230000", "130133.690000", "130134.150000", "130134.610000", "130135.070000", "130135.530000", "130135.990000", "130136.450000", "130136.910000", "130137.370000", "130137.830000", "130138.290000", "130138.750000", "130139.210000", "130139.670000", "130140.130000", "130140.590000", "130141.050000", "130141.510000", "130141.970000", "130142.430000", "130142.890000", "130143.350000", "130143.810000", "130144.270000", "130144.730000", "130145.190000", "130145.650000", "130146.110000", "130146.570000", "130147.030000", "130147.490000", "130147.950000", "130148.410000", "130148.870000", "130149.330000", "130149.790000", "130150.250000", "130150.710000", "130151.170000", "130151.630000", "130152.090000", "130152.550000", "130153.010000", "130153.470000", "130153.930000", "130154.390000", "130154.850000", "130155.310000", "130155.770000", "130156.230000", "130156.690000", "130157.150000", "130157.610000", "130158.070000", "130158.530000", "130158.990000", "130159.450000", "130159.910000", "130200.370000"],
