{
  "AcquisitionMatrixPE": 82,
  "AcquisitionNumber": 1,
  "AcquisitionTime": "13:27:16.047500",
  "BandwidthPerPixelPhaseEncode": 24.888,
  "BaseResolution": 82,
  "BodyPartExamined": "BRAIN",
  "ConsistencyInfo": "N4_VE11E_LATEST_20181129",
  "ConversionSoftware": "dcm2niix",
  "ConversionSoftwareVersion": "v1.0.20201102",
  "DerivedVendorReportedEchoSpacing": 0.00049,
  "DeviceSerialNumber": "66112",
  "DwellTime": 2e-06,
  "EchoTime": 0.0272,
  "EchoTrainLength": 82,
  "EffectiveEchoSpacing": 0.00049,
  "FlipAngle": 44,
  "ImageComments": "Unaliased MB8/PE3",
  "ImageOrientationPatientDICOM": [0.99998, -0.00587619, 0.00243509, 0.00523595, 0.977811, 0.209422],
  "ImageType": [
    "ORIGINAL",
    "PRIMARY",
    "M",
    "MB",
    "ND",
    "NORM",
    "MOSAIC"
],
  "ImagingFrequency": 123.252,
  "InPlanePhaseEncodingDirectionDICOM": "COL",
  "InstitutionAddress": "Maynard 3,Hanover,NH,US,03755",
  "InstitutionName": "Dartmouth College - PBS",
  "InstitutionalDepartmentName": "Department",
  "MRAcquisitionType": "2D",
  "MagneticFieldStrength": 3,
  "Manufacturer": "Siemens",
  "ManufacturersModelName": "Prisma",
  "Modality": "MR",
  "MultibandAccelerationFactor": 8,
  "PartialFourier": 1,
  "PatientPosition": "HFS",
  "PercentPhaseFOV": 100,
  "PercentSampling": 100,
  "PhaseEncodingDirection": "j-",
  "PhaseEncodingSteps": 82,
  "PhaseResolution": 1,
  "PixelBandwidth": 3050,
  "ProcedureStepDescription": "Wager_Wager^1076_spacetop",
  "ProtocolName": "func_run-05_task-social_acq-ap-mb8",
  "PulseSequenceDetails": "%CustomerSeq%\\cmrr_mbep2d_bold",
  "ReceiveCoilActiveElements": "HEA;HEP",
  "ReceiveCoilName": "Head_32",
  "ReconMatrixPE": 82,
  "RepetitionTime": 0.46,
  "SAR": 0.0932892,
  "ScanOptions": "FS",
  "ScanningSequence": "EP",
  "SequenceName": "epfid2d1_82",
  "SequenceVariant": "SK\\SS",
  "SeriesDescription": "func_run-05_task-social_acq-ap-mb8",
  "SeriesNumber": 20,
  "ShimSetting": [4132, -7718, -7312, 768, -32, -29, 54, 86],
  "SliceThickness": 2.7,
  "SliceTiming": [0, 0.25, 0.0625, 0.315, 0.125, 0.3775, 0.1875, 0, 0.25, 0.0625, 0.315, 0.125, 0.3775, 0.1875, 0, 0.25, 0.0625, 0.315, 0.125, 0.3775, 0.1875, 0, 0.25, 0.0625, 0.315, 0.125, 0.3775, 0.1875, 0, 0.25, 0.0625, 0.315, 0.125, 0.3775, 0.1875, 0, 0.25, 0.0625, 0.315, 0.125, 0.3775, 0.1875, 0, 0.25, 0.0625, 0.315, 0.125, 0.3775, 0.1875, 0, 0.25, 0.0625, 0.315, 0.125, 0.3775, 0.1875],
  "SoftwareVersions": "syngo MR E11",
  "SpacingBetweenSlices": 2.7,
  "StationName": "AWP66112",
  "TaskName": "social",
  "TotalReadoutTime": 0.03969,
  "TxRefAmp": 238.843,
  "WipMemBlock": "b89fa95b-61e5-497e-a038-fa57ce0450c5||Sequence: R016 ve11e/master r/434b28f1; Aug  7 2019 18:53:46 by eja",
  "dcmmeta_affine": [
    [-2.6828725337982178, 0.01404766645282507, 0.009751496836543083, 112.39926147460938],
    [0.015765387564897537, 2.623396158218384, 0.5653942823410034, -107.45210266113281],
    [0.006533174309879541, -0.5618646144866943, 2.640120029449463, -42.216590881347656],
    [0.0, 0.0, 0.0, 1.0]
],
  "dcmmeta_reorient_transform": [
    [0.0, -1.0, 0.0, 81.0],
    [1.0, 0.0, 0.0, 0.0],
    [0.0, 0.0, 1.0, 0.0],
    [0.0, 0.0, 0.0, 1.0]
],
  "dcmmeta_shape": [82, 82, 56, 872],
  "dcmmeta_slice_dim": 2,
  "dcmmeta_version": 0.6,
  "global": {
    "const": {
      "AccessionNumber": "A003956",
      "AcquisitionMatrix": [82, 0, 0, 82],
      "AngioFlag": "N",
      "BitsAllocated": 16,
      "BitsStored": 16,
      "BodyPartExamined": "BRAIN",
      "Columns": 656,
      "EchoNumbers": 1,
      "EchoTime": 27.2,
      "EchoTrainLength": 82,
      "FlipAngle": 44.0,
      "HighBit": 15,
      "ImageOrientationPatient": [0.9999797701547, -0.0058761898628, 0.00243509220407, 0.00523594811306, 0.97781127924536, 0.20942226965612],
      "ImagePositionPatient": [-887.55324065522, -853.43302683624, -250.85779983748],
      "ImageType": [
        "ORIGINAL",
        "PRIMARY",
        "M",
        "MB",
        "ND",
        "NORM",
        "MOSAIC"
],
      "ImagedNucleus": "1H",
      "ImagingFrequency": 123.252245,
      "InPlanePhaseEncodingDirection": "COL",
      "MRAcquisitionType": "2D",
      "MagneticFieldStrength": 3.0,
      "Manufacturer": "SIEMENS",
      "ManufacturerModelName": "Prisma",
      "Modality": "MR",
      "NumberOfAverages": 1.0,
      "NumberOfPhaseEncodingSteps": 82,
      "PercentPhaseFieldOfView": 100.0,
      "PercentSampling": 100.0,
      "PerformedProcedureStepStartTime": "121511.139000",
      "PhotometricInterpretation": "MONOCHROME2",
      "PixelBandwidth": 3050.0,
      "PixelRepresentation": 0,
      "PixelSpacing": [2.6829268932343, 2.6829268932343],
      "ProtocolName": "func_run-05_task-social_acq-ap-mb8",
      "RepetitionTime": 460.0,
      "Rows": 656,
      "SAR": 0.09328919664117,
      "SamplesPerPixel": 1,
      "ScanOptions": "FS",
      "ScanningSequence": "EP",
      "SequenceName": "epfid2d1_82",
      "SequenceVariant": [
        "SK",
        "SS"
],
      "SeriesDescription": "func_run-05_task-social_acq-ap-mb8",
      "SeriesNumber": 20,
      "SeriesTime": "132730.825000",
      "SliceLocation": -63.375412104528,
      "SliceThickness": 2.7000000476837,
      "SmallestImagePixelValue": 0,
      "SoftwareVersions": "syngo MR E11",
      "SpacingBetweenSlices": 2.6999999565233,
      "SpecificCharacterSet": "ISO_IR 100",
      "StudyID": "2",
      "StudyTime": "121511.098000",
      "TransmitCoilName": "Body",
      "VariableFlipAngleFlag": "N",
      "WindowCenterWidthExplanation": "Algo1"
    },
    "slices": {}
  },
  "time": {
    "samples": {
      "AcquisitionNumber": [1, 2, 3, 4, 5, 6, 7, 8, 9, 10, 11, 12, 13, 14, 15, 16, 17, 18, 19, 20, 21, 22, 23, 24, 25, 26, 27, 28, 29, 30, 31, 32, 33, 34, 35, 36, 37, 38, 39, 40, 41, 42, 43, 44, 45, 46, 47, 48, 49, 50, 51, 52, 53, 54, 55, 56, 57, 58, 59, 60, 61, 62, 63, 64, 65, 66, 67, 68, 69, 70, 71, 72, 73, 74, 75, 76, 77, 78, 79, 80, 81, 82, 83, 84, 85, 86, 87, 88, 89, 90, 91, 92, 93, 94, 95, 96, 97, 98, 99, 100, 101, 102, 103, 104, 105, 106, 107, 108, 109, 110, 111, 112, 113, 114, 115, 116, 117, 118, 119, 120, 121, 122, 123, 124, 125, 126, 127, 128, 129, 130, 131, 132, 133, 134, 135, 136, 137, 138, 139, 140, 141, 142, 143, 144, 145, 146, 147, 148, 149, 150, 151, 152, 153, 154, 155, 156, 157, 158, 159, 160, 161, 162, 163, 164, 165, 166, 167, 168, 169, 170, 171, 172, 173, 174, 175, 176, 177, 178, 179, 180, 181, 182, 183, 184, 185, 186, 187, 188, 189, 190, 191, 192, 193, 194, 195, 196, 197, 198, 199, 200, 201, 202, 203, 204, 205, 206, 207, 208, 209, 210, 211, 212, 213, 214, 215, 216, 217, 218, 219, 220, 221, 222, 223, 224, 225, 226, 227, 228, 229, 230, 231, 232, 233, 234, 235, 236, 237, 238, 239, 240, 241, 242, 243, 244, 245, 246, 247, 248, 249, 250, 251, 252, 253, 254, 255, 256, 257, 258, 259, 260, 261, 262, 263, 264, 265, 266, 267, 268, 269, 270, 271, 272, 273, 274, 275, 276, 277, 278, 279, 280, 281, 282, 283, 284, 285, 286, 287, 288, 289, 290, 291, 292, 293, 294, 295, 296, 297, 298, 299, 300, 301, 302, 303, 304, 305, 306, 307, 308, 309, 310, 311, 312, 313, 314, 315, 316, 317, 318, 319, 320, 321, 322, 323, 324, 325, 326, 327, 328, 329, 330, 331, 332, 333, 334, 335, 336, 337, 338, 339, 340, 341, 342, 343, 344, 345, 346, 347, 348, 349, 350, 351, 352, 353, 354, 355, 356, 357, 358, 359, 360, 361, 362, 363, 364, 365, 366, 367, 368, 369, 370, 371, 372, 373, 374, 375, 376, 377, 378, 379, 380, 381, 382, 383, 384, 385, 386, 387, 388, 389, 390, 391, 392, 393, 394, 395, 396, 397, 398, 399, 400, 401, 402, 403, 404, 405, 406, 407, 408, 409, 410, 411, 412, 413, 414, 415, 416, 417, 418, 419, 420, 421, 422, 423, 424, 425, 426, 427, 428, 429, 430, 431, 432, 433, 434, 435, 436, 437, 438, 439, 440, 441, 442, 443, 444, 445, 446, 447, 448, 449, 450, 451, 452, 453, 454, 455, 456, 457, 458, 459, 460, 461, 462, 463, 464, 465, 466, 467, 468, 469, 470, 471, 472, 473, 474, 475, 476, 477, 478, 479, 480, 481, 482, 483, 484, 485, 486, 487, 488, 489, 490, 491, 492, 493, 494, 495, 496, 497, 498, 499, 500, 501, 502, 503, 504, 505, 506, 507, 508, 509, 510, 511, 512, 513, 514, 515, 516, 517, 518, 519, 520, 521, 522, 523, 524, 525, 526, 527, 528, 529, 530, 531, 532, 533, 534, 535, 536, 537, 538, 539, 540, 541, 542, 543, 544, 545, 546, 547, 548, 549, 550, 551, 552, 553, 554, 555, 556, 557, 558, 559, 560, 561, 562, 563, 564, 565, 566, 567, 568, 569, 570, 571, 572, 573, 574, 575, 576, 577, 578, 579, 580, 581, 582, 583, 584, 585, 586, 587, 588, 589, 590, 591, 592, 593, 594, 595, 596, 597, 598, 599, 600, 601, 602, 603, 604, 605, 606, 607, 608, 609, 610, 611, 612, 613, 614, 615, 616, 617, 618, 619, 620, 621, 622, 623, 624, 625, 626, 627, 628, 629, 630, 631, 632, 633, 634, 635, 636, 637, 638, 639, 640, 641, 642, 643, 644, 645, 646, 647, 648, 649, 650, 651, 652, 653, 654, 655, 656, 657, 658, 659, 660, 661, 662, 663, 664, 665, 666, 667, 668, 669, 670, 671, 672, 673, 674, 675, 676, 677, 678, 679, 680, 681, 682, 683, 684, 685, 686, 687, 688, 689, 690, 691, 692, 693, 694, 695, 696, 697, 698, 699, 700, 701, 702, 703, 704, 705, 706, 707, 708, 709, 710, 711, 712, 713, 714, 715, 716, 717, 718, 719, 720, 721, 722, 723, 724, 725, 726, 727, 728, 729, 730, 731, 732, 733, 734, 735, 736, 737, 738, 739, 740, 741, 742, 743, 744, 745, 746, 747, 748, 749, 750, 751, 752, 753, 754, 755, 756, 757, 758, 759, 760, 761, 762, 763, 764, 765, 766, 767, 768, 769, 770, 771, 772, 773, 774, 775, 776, 777, 778, 779, 780, 781, 782, 783, 784, 785, 786, 787, 788, 789, 790, 791, 792, 793, 794, 795, 796, 797, 798, 799, 800, 801, 802, 803, 804, 805, 806, 807, 808, 809, 810, 811, 812, 813, 814, 815, 816, 817, 818, 819, 820, 821, 822, 823, 824, 825, 826, 827, 828, 829, 830, 831, 832, 833, 834, 835, 836, 837, 838, 839, 840, 841, 842, 843, 844, 845, 846, 847, 848, 849, 850, 851, 852, 853, 854, 855, 856, 857, 858, 859, 860, 861, 862, 863, 864, 865, 866, 867, 868, 869, 870, 871, 872],
      "AcquisitionTime": ["132716.047500", "132716.507500", "132716.967500", "132717.427500", "132717.887500", "132718.347500", "132718.807500", "132719.267500", "132719.727500", "132720.187500", "132720.647500", "132721.107500", "132721.567500", "132722.027500", "132722.487500", "132722.947500", "132723.407500", "132723.867500", "132724.327500", "132724.787500", "132725.247500", "132725.707500", "132726.167500", "132726.627500", "132727.087500", "132727.547500", "132728.007500", "132728.467500", "132728.927500", "132729.387500", "132729.847500", "132730.307500", "132730.767500", "132731.227500", "132731.687500", "132732.147500", "132732.607500", "132733.067500", "132733.527500", "132733.987500", "132734.447500", "132734.907500", "132735.367500", "132735.827500", "132736.287500", "132736.747500", "132737.207500", "132737.667500", "132738.127500", "132738.587500", "132739.047500", "132739.507500", "132739.967500", "132740.427500", "132740.887500", "132741.347500", "132741.807500", "132742.267500", "132742.727500", "132743.187500", "132743.647500", "132744.107500", "132744.567500", "132745.027500", "132745.487500", "132745.947500", "132746.407500", "132746.867500", "132747.327500", "132747.787500", "132748.247500", "132748.707500", "132749.167500", "132749.627500", "132750.087500", "132750.547500", "132751.007500", "132751.467500", "132751.927500", "132752.387500", "132752.847500", "132753.307500", "132753.767500", "132754.227500", "132754.687500", "132755.147500", "132755.607500", "132756.067500", "132756.527500", "132756.987500", "132757.447500", "132757.907500", "132758.367500", "132758.827500", "132759.287500", "132759.747500", "132800.207500", "132800.667500", "132801.127500", "132801.587500", "132802.047500", "132802.507500", "132802.967500", "132803.427500", "132803.887500", "132804.347500", "132804.807500", "132805.267500", "132805.727500", "132806.187500", "132806.647500", "132807.107500", "132807.567500", "132808.027500", "132808.487500", "132808.947500", "132809.407500", "132809.867500", "132810.327500", "132810.787500", "132811.247500", "132811.707500", "132812.167500", "132812.627500", "132813.087500", "132813.547500", "132814.007500", "132814.467500", "132814.927500", "132815.387500", "132815.847500", "132816.307500", "132816.767500", "132817.227500", "132817.687500", "132818.147500", "132818.607500", "132819.067500", "132819.527500", "132819.987500", "132820.447500", "132820.907500", "132821.367500", "132821.827500", "132822.287500", "132822.747500", "132823.207500", "132823.667500", "132824.127500", "132824.587500", "132825.047500", "132825.507500", "132825.967500", "132826.427500", "132826.887500", "132827.347500", "132827.807500", "132828.267500", "132828.727500", "132829.187500", "132829.647500", "132830.107500", "132830.567500", "132831.027500", "132831.487500", "132831.947500", "132832.407500", "132832.867500", "132833.327500", "132833.787500", "132834.247500", "132834.707500", "132835.167500", "132835.627500", "132836.087500", "132836.547500", "132837.007500", "132837.467500", "132837.927500", "132838.387500", "132838.847500", "132839.307500", "132839.767500", "132840.227500", "132840.687500", "132841.147500", "132841.607500", "132842.067500", "132842.527500", "132842.987500", "132843.447500", "132843.907500", "132844.367500", "132844.827500", "132845.287500", "132845.747500", "132846.207500", "132846.667500", "132847.127500", "132847.587500", "132848.047500", "132848.507500", "132848.967500", "132849.427500", "132849.887500", "132850.347500", "132850.807500", "132851.267500", "132851.727500", "132852.187500", "132852.647500", "132853.107500", "132853.567500", "132854.027500", "132854.487500", "132854.947500", "132855.407500", "132855.867500", "132856.327500", "132856.787500", "132857.247500", "132857.707500", "132858.167500", "132858.627500", "132859.087500", "132859.547500", "132900.007500", "132900.467500", "132900.927500", "132901.387500", "132901.847500", "132902.307500", "132902.767500", "132903.227500", "132903.687500", "132904.147500", "132904.607500", "132905.067500", "132905.527500", "132905.987500", "132906.447500", "132906.907500", "132907.367500", "132907.827500", "132908.287500", "132908.747500", "132909.207500", "132909.667500", "132910.127500", "132910.587500", "132911.047500", "132911.507500", "132911.967500", "132912.427500", "132912.887500", "132913.347500", "132913.807500", "132914.267500", "132914.727500", "132915.187500", "132915.647500", "132916.107500", "132916.567500", "132917.027500", "132917.487500", "132917.947500", "132918.407500", "132918.867500", "132919.327500", "132919.787500", "132920.247500", "132920.707500", "132921.167500", "132921.627500", "132922.087500", "132922.547500", "132923.007500", "132923.467500", "132923.927500", "132924.387500", "132924.847500", "132925.307500", "132925.767500", "132926.227500", "132926.687500", "132927.147500", "132927.607500", "132928.067500", "132928.527500", "132928.987500", "132929.447500", "132929.907500", "132930.367500", "132930.827500", "132931.287500", "132931.747500", "132932.207500", "132932.667500", "132933.127500", "132933.587500", "132934.047500", "132934.507500", "132934.967500", "132935.427500", "132935.887500", "132936.347500", "132936.807500", "132937.267500", "132937.727500", "132938.187500", "132938.647500", "132939.107500", "132939.567500", "132940.027500", "132940.487500", "132940.947500", "132941.407500", "132941.867500", "132942.327500", "132942.787500", "132943.247500", "132943.707500", "132944.167500", "132944.627500", "132945.087500", "132945.547500", "132946.007500", "132946.467500", "132946.927500", "132947.387500", "132947.847500", "132948.307500", "132948.767500", "132949.227500", "132949.687500", "132950.147500", "132950.607500", "132951.067500", "132951.527500", "132951.987500", "132952.447500", "132952.907500", "132953.367500", "132953.827500", "132954.287500", "132954.747500", "132955.207500", "132955.667500", "132956.127500", "132956.587500", "132957.047500", "132957.507500", "132957.967500", "132958.427500", "132958.887500", "132959.347500", "132959.807500", "133000.267500", "133000.727500", "133001.187500", "133001.647500", "133002.107500", "133002.567500", "133003.027500", "133003.487500", "133003.947500", "133004.407500", "133004.867500", "133005.327500", "133005.787500", "133006.247500", "133006.707500", "133007.167500", "133007.627500", "133008.087500", "133008.547500", "133009.007500", "133009.467500", "133009.927500", "133010.387500", "133010.847500", "133011.307500", "133011.767500", "133012.227500", "133012.687500", "133013.147500", "133013.607500", "133014.067500", "133014.527500", "133014.987500", "133015.447500", "133015.907500", "133016.367500", "133016.827500", "133017.287500", "133017.747500", "133018.207500", "133018.667500", "133019.127500", "133019.587500", "133020.047500", "133020.507500", "133020.967500", "133021.427500", "133021.887500", "133022.347500", "133022.807500", "133023.267500", "133023.727500", "133024.187500", "133024.647500", "133025.107500", "133025.567500", "133026.027500", "133026.487500", "133026.947500", "133027.407500", "133027.867500", "133028.327500", "133028.787500", "133029.247500", "133029.707500", "133030.167500", "133030.627500", "133031.087500", "133031.547500", "133032.007500", "133032.467500", "133032.927500", "133033.387500", "133033.847500", "133034.307500", "133034.767500", "133035.227500", "133035.687500", "133036.147500", "133036.607500", "133037.067500", "133037.527500", "133037.987500", "133038.447500", "133038.907500", "133039.367500", "133039.827500", "133040.287500", "133040.747500", "133041.207500", "133041.667500", "133042.127500", "133042.587500", "133043.047500", "133043.507500", "133043.967500", "133044.427500", "133044.887500", "133045.347500", "133045.807500", "133046.267500", "133046.727500", "133047.187500", "133047.647500", "133048.107500", "133048.567500", "133049.027500", "133049.487500", "133049.947500", "133050.407500", "133050.867500", "133051.327500", "133051.787500", "133052.247500", "133052.707500", "133053.167500", "133053.627500", "133054.087500", "133054.547500", "133055.007500", "133055.467500", "133055.927500", "133056.387500", "133056.847500", "133057.307500", "133057.767500", "133058.227500", "133058.687500", "133059.147500", "133059.607500", "133100.067500", "133100.527500", "133100.987500", "133101.447500", "133101.907500", "133102.367500", "133102.827500", "133103.287500", "133103.747500", "133104.207500", "133104.667500", "133105.127500", "133105.587500", "133106.047500", "133106.507500", "133106.967500", "133107.427500", "133107.887500", "133108.347500", "133108.807500", "133109.267500", "133109.727500", "133110.187500", "133110.647500", "133111.107500", "133111.567500", "133112.027500", "133112.487500", "133112.947500", "133113.407500", "133113.867500", "133114.327500", "133114.787500", "133115.247500", "133115.707500", "133116.167500", "133116.627500", "133117.087500", "133117.547500", "133118.007500", "133118.467500", "133118.927500", "133119.387500", "133119.847500", "133120.307500", "133120.767500", "133121.227500", "133121.687500", "133122.147500", "133122.607500", "133123.067500", "133123.527500", "133123.987500", "133124.447500", "133124.907500", "133125.367500", "133125.827500", "133126.287500", "133126.747500", "133127.207500", "133127.667500", "133128.127500", "133128.587500", "133129.047500", "133129.507500", "133129.967500", "133130.427500", "133130.887500", "133131.347500", "133131.807500", "133132.267500", "133132.727500", "133133.187500", "133133.647500", "133134.107500", "133134.567500", "133135.027500", "133135.487500", "133135.947500", "133136.407500", "133136.867500", "133137.327500", "133137.787500", "133138.247500", "133138.707500", "133139.167500", "133139.627500", "133140.087500", "133140.547500", "133141.007500", "133141.467500", "133141.927500", "133142.387500", "133142.847500", "133143.307500", "133143.767500", "133144.227500", "133144.687500", "133145.147500", "133145.607500", "133146.067500", "133146.527500", "133146.987500", "133147.447500", "133147.907500", "133148.367500", "133148.827500", "133149.287500", "133149.747500", "133150.207500", "133150.667500", "133151.127500", "133151.587500", "133152.047500", "133152.507500", "133152.967500", "133153.427500", "133153.887500", "133154.347500", "133154.807500", "133155.267500", "133155.727500", "133156.187500", "133156.647500", "133157.107500", "133157.567500", "133158.027500", "133158.487500", "133158.947500", "133159.407500", "133159.867500", "133200.327500", "133200.787500", "133201.247500", "133201.707500", "133202.167500", "133202.627500", "133203.087500", "133203.547500", "133204.007500", "133204.467500", "133204.927500", "133205.387500", "133205.847500", "133206.307500", "133206.767500", "133207.227500", "133207.687500", "133208.147500", "133208.607500", "133209.067500", "133209.527500", "133209.987500", "133210.447500", "133210.907500", "133211.367500", "133211.827500", "133212.287500", "133212.747500", "133213.207500", "133213.667500", "133214.127500", "133214.587500", "133215.047500", "133215.507500", "133215.967500", "133216.427500", "133216.887500", "133217.347500", "133217.807500", "133218.267500", "133218.727500", "133219.187500", "133219.647500", "133220.107500", "133220.567500", "133221.027500", "133221.487500", "133221.947500", "133222.407500", "133222.867500", "133223.327500", "133223.787500", "133224.247500", "133224.707500", "133225.167500", "133225.627500", "133226.087500", "133226.547500", "133227.007500", "133227.467500", "133227.927500", "133228.387500", "133228.847500", "133229.307500", "133229.767500", "133230.227500", "133230.687500", "133231.147500", "133231.607500", "133232.067500", "133232.527500", "133232.987500", "133233.447500", "133233.907500", "133234.367500", "133234.827500", "133235.287500", "133235.747500", "133236.207500", "133236.667500", "133237.127500", "133237.587500", "133238.047500", "133238.507500", "133238.967500", "133239.427500", "133239.887500", "133240.347500", "133240.807500", "133241.267500", "133241.727500", "133242.187500", "133242.647500", "133243.107500", "133243.567500", "133244.027500", "133244.487500", "133244.947500", "133245.407500", "133245.867500", "133246.327500", "133246.787500", "133247.247500", "133247.707500", "133248.167500", "133248.627500", "133249.087500", "133249.547500", "133250.007500", "133250.467500", "133250.927500", "133251.387500", "133251.847500", "133252.307500", "133252.767500", "133253.227500", "133253.687500", "133254.147500", "133254.607500", "133255.067500", "133255.527500", "133255.987500", "133256.447500", "133256.907500", "133257.367500", "133257.827500", "133258.287500", "133258.747500", "133259.207500", "133259.667500", "133300.127500", "133300.587500", "133301.047500", "133301.507500", "133301.967500", "133302.427500", "133302.887500", "133303.347500", "133303.807500", "133304.267500", "133304.727500", "133305.187500", "133305.647500", "133306.107500", "133306.567500", "133307.027500", "133307.487500", "133307.947500", "133308.407500", "133308.867500", "133309.327500", "133309.787500", "133310.247500", "133310.707500", "133311.167500", "133311.627500", "133312.087500", "133312.547500", "133313.007500", "133313.467500", "133313.927500", "133314.387500", "133314.847500", "133315.307500", "133315.767500", "133316.227500", "133316.687500", "133317.147500", "133317.607500", "133318.067500", "133318.527500", "133318.987500", "133319.447500", "133319.907500", "133320.367500", "133320.827500", "133321.287500", "133321.747500", "133322.207500", "133322.667500", "133323.127500", "133323.587500", "133324.047500", "133324.507500", "133324.967500", "133325.427500", "133325.887500", "133326.347500", "133326.807500", "133327.267500", "133327.727500", "133328.187500", "133328.647500", "133329.107500", "133329.567500", "133330.027500", "133330.487500", "133330.947500", "133331.407500", "133331.867500", "133332.327500", "133332.787500", "133333.247500", "133333.707500", "133334.167500", "133334.627500", "133335.087500", "133335.547500", "133336.007500", "133336.467500", "133336.927500", "133337.387500", "133337.847500", "133338.307500", "133338.767500", "133339.227500", "133339.687500", "133340.147500", "133340.607500", "133341.067500", "133341.527500", "133341.987500", "133342.447500", "133342.907500", "133343.367500", "133343.827500", "133344.287500", "133344.747500", "133345.207500", "133345.667500", "133346.127500", "133346.587500", "133347.047500", "133347.507500", "133347.967500", "133348.427500", "133348.887500", "133349.347500", "133349.807500", "133350.267500", "133350.727500", "133351.187500", "133351.647500", "133352.107500", "133352.567500", "133353.027500", "133353.487500", "133353.947500", "133354.407500", "133354.867500", "133355.327500", "133355.787500", "133356.247500", "133356.707500"],
