{
  "AcquisitionMatrixPE": 82,
  "AcquisitionNumber": 1,
  "AcquisitionTime": "13:34:17.852500",
  "BandwidthPerPixelPhaseEncode": 24.888,
  "BaseResolution": 82,
  "BodyPartExamined": "BRAIN",
  "ConsistencyInfo": "N4_VE11E_LATEST_20181129",
  "ConversionSoftware": "dcm2niix",
  "ConversionSoftwareVersion": "v1.0.20201102",
  "DerivedVendorReportedEchoSpacing": 0.00049,
  "DeviceSerialNumber": "66112",
  "DwellTime": 2e-06,
  "EchoTime": 0.0272,
  "EchoTrainLength": 82,
  "EffectiveEchoSpacing": 0.00049,
  "FlipAngle": 44,
  "ImageComments": "Unaliased MB8/PE3",
  "ImageOrientationPatientDICOM": [0.99998, -0.00587619, 0.00243509, 0.00523595, 0.977811, 0.209422],
  "ImageType": [
    "ORIGINAL",
    "PRIMARY",
    "M",
    "MB",
    "ND",
    "NORM",
    "MOSAIC"
],
  "ImagingFrequency": 123.252,
  "InPlanePhaseEncodingDirectionDICOM": "COL",
  "InstitutionAddress": "Maynard 3,Hanover,NH,US,03755",
  "InstitutionName": "Dartmouth College - PBS",
  "InstitutionalDepartmentName": "Department",
  "MRAcquisitionType": "2D",
  "MagneticFieldStrength": 3,
  "Manufacturer": "Siemens",
  "ManufacturersModelName": "Prisma",
  "Modality": "MR",
  "MultibandAccelerationFactor": 8,
  "PartialFourier": 1,
  "PatientPosition": "HFS",
  "PercentPhaseFOV": 100,
  "PercentSampling": 100,
  "PhaseEncodingDirection": "j-",
  "PhaseEncodingSteps": 82,
  "PhaseResolution": 1,
  "PixelBandwidth": 3050,
  "ProcedureStepDescription": "Wager_Wager^1076_spacetop",
  "ProtocolName": "func_run-06_task-social_acq-ap-mb8",
  "PulseSequenceDetails": "%CustomerSeq%\\cmrr_mbep2d_bold",
  "ReceiveCoilActiveElements": "HEA;HEP",
  "ReceiveCoilName": "Head_32",
  "ReconMatrixPE": 82,
  "RepetitionTime": 0.46,
  "SAR": 0.0932892,
  "ScanOptions": "FS",
  "ScanningSequence": "EP",
  "SequenceName": "epfid2d1_82",
  "SequenceVariant": "SK\\SS",
  "SeriesDescription": "func_run-06_task-social_acq-ap-mb8",
  "SeriesNumber": 22,
  "ShimSetting": [4132, -7718, -7312, 768, -32, -29, 54, 86],
  "SliceThickness": 2.7,
  "SliceTiming": [0, 0.25, 0.0625, 0.3125, 0.125, 0.3775, 0.1875, 0, 0.25, 0.0625, 0.3125, 0.125, 0.3775, 0.1875, 0, 0.25, 0.0625, 0.3125, 0.125, 0.3775, 0.1875, 0, 0.25, 0.0625, 0.3125, 0.125, 0.3775, 0.1875, 0, 0.25, 0.0625, 0.3125, 0.125, 0.3775, 0.1875, 0, 0.25, 0.0625, 0.3125, 0.125, 0.3775, 0.1875, 0, 0.25, 0.0625, 0.3125, 0.125, 0.3775, 0.1875, 0, 0.25, 0.0625, 0.3125, 0.125, 0.3775, 0.1875],
  "SoftwareVersions": "syngo MR E11",
  "SpacingBetweenSlices": 2.7,
  "StationName": "AWP66112",
  "TaskName": "social",
  "TotalReadoutTime": 0.03969,
  "TxRefAmp": 238.843,
  "WipMemBlock": "0d07feea-cd67-4c4d-a71d-c852e50da3bd||Sequence: R016 ve11e/master r/434b28f1; Aug  7 2019 18:53:46 by eja",
  "dcmmeta_affine": [
    [-2.6828725337982178, 0.01404766645282507, 0.009751496836543083, 112.39926147460938],
    [0.015765387564897537, 2.623396158218384, 0.5653942823410034, -107.45210266113281],
    [0.006533174309879541, -0.5618646144866943, 2.640120029449463, -42.216590881347656],
    [0.0, 0.0, 0.0, 1.0]
],
  "dcmmeta_reorient_transform": [
    [0.0, -1.0, 0.0, 81.0],
    [1.0, 0.0, 0.0, 0.0],
    [0.0, 0.0, 1.0, 0.0],
    [0.0, 0.0, 0.0, 1.0]
],
  "dcmmeta_shape": [82, 82, 56, 872],
  "dcmmeta_slice_dim": 2,
  "dcmmeta_version": 0.6,
  "global": {
    "const": {
      "AccessionNumber": "A003956",
      "AcquisitionMatrix": [82, 0, 0, 82],
      "AngioFlag": "N",
      "BitsAllocated": 16,
      "BitsStored": 16,
      "BodyPartExamined": "BRAIN",
      "Columns": 656,
      "EchoNumbers": 1,
      "EchoTime": 27.2,
      "EchoTrainLength": 82,
      "FlipAngle": 44.0,
      "HighBit": 15,
      "ImageOrientationPatient": [0.9999797701547, -0.0058761898628, 0.00243509220407, 0.00523594811306, 0.97781127924536, 0.20942226965612],
      "ImagePositionPatient": [-887.55324065522, -853.43302683624, -250.85779983748],
      "ImageType": [
        "ORIGINAL",
        "PRIMARY",
        "M",
        "MB",
        "ND",
        "NORM",
        "MOSAIC"
],
      "ImagedNucleus": "1H",
      "ImagingFrequency": 123.25226,
      "InPlanePhaseEncodingDirection": "COL",
      "MRAcquisitionType": "2D",
      "MagneticFieldStrength": 3.0,
      "Manufacturer": "SIEMENS",
      "ManufacturerModelName": "Prisma",
      "Modality": "MR",
      "NumberOfAverages": 1.0,
      "NumberOfPhaseEncodingSteps": 82,
      "PercentPhaseFieldOfView": 100.0,
      "PercentSampling": 100.0,
      "PerformedProcedureStepStartTime": "121511.139000",
      "PhotometricInterpretation": "MONOCHROME2",
      "PixelBandwidth": 3050.0,
      "PixelRepresentation": 0,
      "PixelSpacing": [2.6829268932343, 2.6829268932343],
      "ProtocolName": "func_run-06_task-social_acq-ap-mb8",
      "RepetitionTime": 460.0,
      "Rows": 656,
      "SAR": 0.09328919664117,
      "SamplesPerPixel": 1,
      "ScanOptions": "FS",
      "ScanningSequence": "EP",
      "SequenceName": "epfid2d1_82",
      "SequenceVariant": [
        "SK",
        "SS"
],
      "SeriesDescription": "func_run-06_task-social_acq-ap-mb8",
      "SeriesNumber": 22,
      "SeriesTime": "133430.893000",
      "SliceLocation": -63.375412104528,
      "SliceThickness": 2.7000000476837,
      "SmallestImagePixelValue": 0,
      "SoftwareVersions": "syngo MR E11",
      "SpacingBetweenSlices": 2.6999999565233,
      "SpecificCharacterSet": "ISO_IR 100",
      "StudyID": "2",
      "StudyTime": "121511.098000",
      "TransmitCoilName": "Body",
      "VariableFlipAngleFlag": "N",
      "WindowCenterWidthExplanation": "Algo1"
    },
    "slices": {}
  },
  "time": {
    "samples": {
      "AcquisitionNumber": [1, 2, 3, 4, 5, 6, 7, 8, 9, 10, 11, 12, 13, 14, 15, 16, 17, 18, 19, 20, 21, 22, 23, 24, 25, 26, 27, 28, 29, 30, 31, 32, 33, 34, 35, 36, 37, 38, 39, 40, 41, 42, 43, 44, 45, 46, 47, 48, 49, 50, 51, 52, 53, 54, 55, 56, 57, 58, 59, 60, 61, 62, 63, 64, 65, 66, 67, 68, 69, 70, 71, 72, 73, 74, 75, 76, 77, 78, 79, 80, 81, 82, 83, 84, 85, 86, 87, 88, 89, 90, 91, 92, 93, 94, 95, 96, 97, 98, 99, 100, 101, 102, 103, 104, 105, 106, 107, 108, 109, 110, 111, 112, 113, 114, 115, 116, 117, 118, 119, 120, 121, 122, 123, 124, 125, 126, 127, 128, 129, 130, 131, 132, 133, 134, 135, 136, 137, 138, 139, 140, 141, 142, 143, 144, 145, 146, 147, 148, 149, 150, 151, 152, 153, 154, 155, 156, 157, 158, 159, 160, 161, 162, 163, 164, 165, 166, 167, 168, 169, 170, 171, 172, 173, 174, 175, 176, 177, 178, 179, 180, 181, 182, 183, 184, 185, 186, 187, 188, 189, 190, 191, 192, 193, 194, 195, 196, 197, 198, 199, 200, 201, 202, 203, 204, 205, 206, 207, 208, 209, 210, 211, 212, 213, 214, 215, 216, 217, 218, 219, 220, 221, 222, 223, 224, 225, 226, 227, 228, 229, 230, 231, 232, 233, 234, 235, 236, 237, 238, 239, 240, 241, 242, 243, 244, 245, 246, 247, 248, 249, 250, 251, 252, 253, 254, 255, 256, 257, 258, 259, 260, 261, 262, 263, 264, 265, 266, 267, 268, 269, 270, 271, 272, 273, 274, 275, 276, 277, 278, 279, 280, 281, 282, 283, 284, 285, 286, 287, 288, 289, 290, 291, 292, 293, 294, 295, 296, 297, 298, 299, 300, 301, 302, 303, 304, 305, 306, 307, 308, 309, 310, 311, 312, 313, 314, 315, 316, 317, 318, 319, 320, 321, 322, 323, 324, 325, 326, 327, 328, 329, 330, 331, 332, 333, 334, 335, 336, 337, 338, 339, 340, 341, 342, 343, 344, 345, 346, 347, 348, 349, 350, 351, 352, 353, 354, 355, 356, 357, 358, 359, 360, 361, 362, 363, 364, 365, 366, 367, 368, 369, 370, 371, 372, 373, 374, 375, 376, 377, 378, 379, 380, 381, 382, 383, 384, 385, 386, 387, 388, 389, 390, 391, 392, 393, 394, 395, 396, 397, 398, 399, 400, 401, 402, 403, 404, 405, 406, 407, 408, 409, 410, 411, 412, 413, 414, 415, 416, 417, 418, 419, 420, 421, 422, 423, 424, 425, 426, 427, 428, 429, 430, 431, 432, 433, 434, 435, 436, 437, 438, 439, 440, 441, 442, 443, 444, 445, 446, 447, 448, 449, 450, 451, 452, 453, 454, 455, 456, 457, 458, 459, 460, 461, 462, 463, 464, 465, 466, 467, 468, 469, 470, 471, 472, 473, 474, 475, 476, 477, 478, 479, 480, 481, 482, 483, 484, 485, 486, 487, 488, 489, 490, 491, 492, 493, 494, 495, 496, 497, 498, 499, 500, 501, 502, 503, 504, 505, 506, 507, 508, 509, 510, 511, 512, 513, 514, 515, 516, 517, 518, 519, 520, 521, 522, 523, 524, 525, 526, 527, 528, 529, 530, 531, 532, 533, 534, 535, 536, 537, 538, 539, 540, 541, 542, 543, 544, 545, 546, 547, 548, 549, 550, 551, 552, 553, 554, 555, 556, 557, 558, 559, 560, 561, 562, 563, 564, 565, 566, 567, 568, 569, 570, 571, 572, 573, 574, 575, 576, 577, 578, 579, 580, 581, 582, 583, 584, 585, 586, 587, 588, 589, 590, 591, 592, 593, 594, 595, 596, 597, 598, 599, 600, 601, 602, 603, 604, 605, 606, 607, 608, 609, 610, 611, 612, 613, 614, 615, 616, 617, 618, 619, 620, 621, 622, 623, 624, 625, 626, 627, 628, 629, 630, 631, 632, 633, 634, 635, 636, 637, 638, 639, 640, 641, 642, 643, 644, 645, 646, 647, 648, 649, 650, 651, 652, 653, 654, 655, 656, 657, 658, 659, 660, 661, 662, 663, 664, 665, 666, 667, 668, 669, 670, 671, 672, 673, 674, 675, 676, 677, 678, 679, 680, 681, 682, 683, 684, 685, 686, 687, 688, 689, 690, 691, 692, 693, 694, 695, 696, 697, 698, 699, 700, 701, 702, 703, 704, 705, 706, 707, 708, 709, 710, 711, 712, 713, 714, 715, 716, 717, 718, 719, 720, 721, 722, 723, 724, 725, 726, 727, 728, 729, 730, 731, 732, 733, 734, 735, 736, 737, 738, 739, 740, 741, 742, 743, 744, 745, 746, 747, 748, 749, 750, 751, 752, 753, 754, 755, 756, 757, 758, 759, 760, 761, 762, 763, 764, 765, 766, 767, 768, 769, 770, 771, 772, 773, 774, 775, 776, 777, 778, 779, 780, 781, 782, 783, 784, 785, 786, 787, 788, 789, 790, 791, 792, 793, 794, 795, 796, 797, 798, 799, 800, 801, 802, 803, 804, 805, 806, 807, 808, 809, 810, 811, 812, 813, 814, 815, 816, 817, 818, 819, 820, 821, 822, 823, 824, 825, 826, 827, 828, 829, 830, 831, 832, 833, 834, 835, 836, 837, 838, 839, 840, 841, 842, 843, 844, 845, 846, 847, 848, 849, 850, 851, 852, 853, 854, 855, 856, 857, 858, 859, 860, 861, 862, 863, 864, 865, 866, 867, 868, 869, 870, 871, 872],
      "AcquisitionTime": ["133417.852500", "133418.312500", "133418.772500", "133419.232500", "133419.692500", "133420.152500", "133420.612500", "133421.072500", "133421.532500", "133421.992500", "133422.452500", "133422.912500", "133423.372500", "133423.832500", "133424.292500", "133424.752500", "133425.212500", "133425.672500", "133426.132500", "133426.592500", "133427.052500", "133427.512500", "133427.972500", "133428.432500", "133428.892500", "133429.352500", "133429.812500", "133430.272500", "133430.732500", "133431.192500", "133431.652500", "133432.112500", "133432.572500", "133433.032500", "133433.492500", "133433.952500", "133434.412500", "133434.872500", "133435.332500", "133435.792500", "133436.252500", "133436.712500", "133437.172500", "133437.632500", "133438.092500", "133438.552500", "133439.012500", "133439.472500", "133439.932500", "133440.392500", "133440.852500", "133441.312500", "133441.772500", "133442.232500", "133442.692500", "133443.152500", "133443.612500", "133444.072500", "133444.532500", "133444.992500", "133445.452500", "133445.912500", "133446.372500", "133446.832500", "133447.292500", "133447.752500", "133448.212500", "133448.672500", "133449.132500", "133449.592500", "133450.052500", "133450.512500", "133450.972500", "133451.432500", "133451.892500", "133452.352500", "133452.812500", "133453.272500", "133453.732500", "133454.192500", "133454.652500", "133455.112500", "133455.572500", "133456.032500", "133456.492500", "133456.952500", "133457.412500", "133457.872500", "133458.332500", "133458.792500", "133459.252500", "133459.712500", "133500.172500", "133500.632500", "133501.092500", "133501.552500", "133502.012500", "133502.472500", "133502.932500", "133503.392500", "133503.852500", "133504.312500", "133504.772500", "133505.232500", "133505.692500", "133506.152500", "133506.612500", "133507.072500", "133507.532500", "133507.992500", "133508.452500", "133508.912500", "133509.372500", "133509.832500", "133510.292500", "133510.752500", "133511.212500", "133511.672500", "133512.132500", "133512.592500", "133513.052500", "133513.512500", "133513.972500", "133514.432500", "133514.892500", "133515.352500", "133515.812500", "133516.272500", "133516.732500", "133517.192500", "133517.652500", "133518.112500", "133518.572500", "133519.032500", "133519.492500", "133519.952500", "133520.412500", "133520.872500", "133521.332500", "133521.792500", "133522.252500", "133522.712500", "133523.172500", "133523.632500", "133524.092500", "133524.552500", "133525.012500", "133525.472500", "133525.932500", "133526.392500", "133526.852500", "133527.312500", "133527.772500", "133528.232500", "133528.692500", "133529.152500", "133529.612500", "133530.072500", "133530.532500", "133530.992500", "133531.452500", "133531.912500", "133532.372500", "133532.832500", "133533.292500", "133533.752500", "133534.212500", "133534.672500", "133535.132500", "133535.592500", "133536.052500", "133536.512500", "133536.972500", "133537.432500", "133537.892500", "133538.352500", "133538.812500", "133539.272500", "133539.732500", "133540.192500", "133540.652500", "133541.112500", "133541.572500", "133542.032500", "133542.492500", "133542.952500", "133543.412500", "133543.872500", "133544.332500", "133544.792500", "133545.252500", "133545.712500", "133546.172500", "133546.632500", "133547.092500", "133547.552500", "133548.012500", "133548.472500", "133548.932500", "133549.392500", "133549.852500", "133550.312500", "133550.772500", "133551.232500", "133551.692500", "133552.152500", "133552.612500", "133553.072500", "133553.532500", "133553.992500", "133554.452500", "133554.912500", "133555.372500", "133555.832500", "133556.292500", "133556.752500", "133557.212500", "133557.672500", "133558.132500", "133558.592500", "133559.052500", "133559.512500", "133559.972500", "133600.432500", "133600.892500", "133601.352500", "133601.812500", "133602.272500", "133602.732500", "133603.192500", "133603.652500", "133604.112500", "133604.572500", "133605.032500", "133605.492500", "133605.952500", "133606.412500", "133606.872500", "133607.332500", "133607.792500", "133608.252500", "133608.712500", "133609.172500", "133609.632500", "133610.092500", "133610.552500", "133611.012500", "133611.472500", "133611.932500", "133612.392500", "133612.852500", "133613.312500", "133613.772500", "133614.232500", "133614.692500", "133615.152500", "133615.612500", "133616.072500", "133616.532500", "133616.992500", "133617.452500", "133617.912500", "133618.372500", "133618.832500", "133619.292500", "133619.752500", "133620.212500", "133620.672500", "133621.132500", "133621.592500", "133622.052500", "133622.512500", "133622.972500", "133623.432500", "133623.892500", "133624.352500", "133624.812500", "133625.272500", "133625.732500", "133626.192500", "133626.652500", "133627.112500", "133627.572500", "133628.032500", "133628.492500", "133628.952500", "133629.412500", "133629.872500", "133630.332500", "133630.792500", "133631.252500", "133631.712500", "133632.172500", "133632.632500", "133633.092500", "133633.552500", "133634.012500", "133634.472500", "133634.932500", "133635.392500", "133635.852500", "133636.312500", "133636.772500", "133637.232500", "133637.692500", "133638.152500", "133638.612500", "133639.072500", "133639.532500", "133639.992500", "133640.452500", "133640.912500", "133641.372500", "133641.832500", "133642.292500", "133642.752500", "133643.212500", "133643.672500", "133644.132500", "133644.592500", "133645.052500", "133645.512500", "133645.972500", "133646.432500", "133646.892500", "133647.352500", "133647.812500", "133648.272500", "133648.732500", "133649.192500", "133649.652500", "133650.112500", "133650.572500", "133651.032500", "133651.492500", "133651.952500", "133652.412500", "133652.872500", "133653.332500", "133653.792500", "133654.252500", "133654.712500", "133655.172500", "133655.632500", "133656.092500", "133656.552500", "133657.012500", "133657.472500", "133657.932500", "133658.392500", "133658.852500", "133659.312500", "133659.772500", "133700.232500", "133700.692500", "133701.152500", "133701.612500", "133702.072500", "133702.532500", "133702.992500", "133703.452500", "133703.912500", "133704.372500", "133704.832500", "133705.292500", "133705.752500", "133706.212500", "133706.672500", "133707.132500", "133707.592500", "133708.052500", "133708.512500", "133708.972500", "133709.432500", "133709.892500", "133710.352500", "133710.812500", "133711.272500", "133711.732500", "133712.192500", "133712.652500", "133713.112500", "133713.572500", "133714.032500", "133714.492500", "133714.952500", "133715.412500", "133715.872500", "133716.332500", "133716.792500", "133717.252500", "133717.712500", "133718.172500", "133718.632500", "133719.092500", "133719.552500", "133720.012500", "133720.472500", "133720.932500", "133721.392500", "133721.852500", "133722.312500", "133722.772500", "133723.232500", "133723.692500", "133724.152500", "133724.612500", "133725.072500", "133725.532500", "133725.992500", "133726.452500", "133726.912500", "133727.372500", "133727.832500", "133728.292500", "133728.752500", "133729.212500", "133729.672500", "133730.132500", "133730.592500", "133731.052500", "133731.512500", "133731.972500", "133732.432500", "133732.892500", "133733.352500", "133733.812500", "133734.272500", "133734.732500", "133735.192500", "133735.652500", "133736.112500", "133736.572500", "133737.032500", "133737.492500", "133737.952500", "133738.412500", "133738.872500", "133739.332500", "133739.792500", "133740.252500", "133740.712500", "133741.172500", "133741.632500", "133742.092500", "133742.552500", "133743.012500", "133743.472500", "133743.932500", "133744.392500", "133744.852500", "133745.312500", "133745.772500", "133746.232500", "133746.692500", "133747.152500", "133747.612500", "133748.072500", "133748.532500", "133748.992500", "133749.452500", "133749.912500", "133750.372500", "133750.832500", "133751.292500", "133751.752500", "133752.212500", "133752.672500", "133753.132500", "133753.592500", "133754.052500", "133754.512500", "133754.972500", "133755.432500", "133755.892500", "133756.352500", "133756.812500", "133757.272500", "133757.732500", "133758.192500", "133758.652500", "133759.112500", "133759.572500", "133800.032500", "133800.492500", "133800.952500", "133801.412500", "133801.872500", "133802.332500", "133802.792500", "133803.252500", "133803.712500", "133804.172500", "133804.632500", "133805.092500", "133805.552500", "133806.012500", "133806.472500", "133806.932500", "133807.392500", "133807.852500", "133808.312500", "133808.772500", "133809.232500", "133809.692500", "133810.152500", "133810.612500", "133811.072500", "133811.532500", "133811.992500", "133812.452500", "133812.912500", "133813.372500", "133813.832500", "133814.292500", "133814.752500", "133815.212500", "133815.672500", "133816.132500", "133816.592500", "133817.052500", "133817.512500", "133817.972500", "133818.432500", "133818.892500", "133819.352500", "133819.812500", "133820.272500", "133820.732500", "133821.192500", "133821.652500", "133822.112500", "133822.572500", "133823.032500", "133823.492500", "133823.952500", "133824.412500", "133824.872500", "133825.332500", "133825.792500", "133826.252500", "133826.712500", "133827.172500", "133827.632500", "133828.092500", "133828.552500", "133829.012500", "133829.472500", "133829.932500", "133830.392500", "133830.852500", "133831.312500", "133831.772500", "133832.232500", "133832.692500", "133833.152500", "133833.612500", "133834.072500", "133834.532500", "133834.992500", "133835.452500", "133835.912500", "133836.372500", "133836.832500", "133837.292500", "133837.752500", "133838.212500", "133838.672500", "133839.132500", "133839.592500", "133840.052500", "133840.512500", "133840.972500", "133841.432500", "133841.892500", "133842.352500", "133842.812500", "133843.272500", "133843.732500", "133844.192500", "133844.652500", "133845.112500", "133845.572500", "133846.032500", "133846.492500", "133846.952500", "133847.412500", "133847.872500", "133848.332500", "133848.792500", "133849.252500", "133849.712500", "133850.172500", "133850.632500", "133851.092500", "133851.552500", "133852.012500", "133852.472500", "133852.932500", "133853.392500", "133853.852500", "133854.312500", "133854.772500", "133855.232500", "133855.692500", "133856.152500", "133856.612500", "133857.072500", "133857.532500", "133857.992500", "133858.452500", "133858.912500", "133859.372500", "133859.832500", "133900.292500", "133900.752500", "133901.212500", "133901.672500", "133902.132500", "133902.592500", "133903.052500", "133903.512500", "133903.972500", "133904.432500", "133904.892500", "133905.352500", "133905.812500", "133906.272500", "133906.732500", "133907.192500", "133907.652500", "133908.112500", "133908.572500", "133909.032500", "133909.492500", "133909.952500", "133910.412500", "133910.872500", "133911.332500", "133911.792500", "133912.252500", "133912.712500", "133913.172500", "133913.632500", "133914.092500", "133914.552500", "133915.012500", "133915.472500", "133915.932500", "133916.392500", "133916.852500", "133917.312500", "133917.772500", "133918.232500", "133918.692500", "133919.152500", "133919.612500", "133920.072500", "133920.532500", "133920.992500", "133921.452500", "133921.912500", "133922.372500", "133922.832500", "133923.292500", "133923.752500", "133924.212500", "133924.672500", "133925.132500", "133925.592500", "133926.052500", "133926.512500", "133926.972500", "133927.432500", "133927.892500", "133928.352500", "133928.812500", "133929.272500", "133929.732500", "133930.192500", "133930.652500", "133931.112500", "133931.572500", "133932.032500", "133932.492500", "133932.952500", "133933.412500", "133933.872500", "133934.332500", "133934.792500", "133935.252500", "133935.712500", "133936.172500", "133936.632500", "133937.092500", "133937.552500", "133938.012500", "133938.472500", "133938.932500", "133939.392500", "133939.852500", "133940.312500", "133940.772500", "133941.232500", "133941.692500", "133942.152500", "133942.612500", "133943.072500", "133943.532500", "133943.992500", "133944.452500", "133944.912500", "133945.372500", "133945.832500", "133946.292500", "133946.752500", "133947.212500", "133947.672500", "133948.132500", "133948.592500", "133949.052500", "133949.512500", "133949.972500", "133950.432500", "133950.892500", "133951.352500", "133951.812500", "133952.272500", "133952.732500", "133953.192500", "133953.652500", "133954.112500", "133954.572500", "133955.032500", "133955.492500", "133955.952500", "133956.412500", "133956.872500", "133957.332500", "133957.792500", "133958.252500", "133958.712500", "133959.172500", "133959.632500", "134000.092500", "134000.552500", "134001.012500", "134001.472500", "134001.932500", "134002.392500", "134002.852500", "134003.312500", "134003.772500", "134004.232500", "134004.692500", "134005.152500", "134005.612500", "134006.072500", "134006.532500", "134006.992500", "134007.452500", "134007.912500", "134008.372500", "134008.832500", "134009.292500", "134009.752500", "134010.212500", "134010.672500", "134011.132500", "134011.592500", "134012.052500", "134012.512500", "134012.972500", "134013.432500", "134013.892500", "134014.352500", "134014.812500", "134015.272500", "134015.732500", "134016.192500", "134016.652500", "134017.112500", "134017.572500", "134018.032500", "134018.492500", "134018.952500", "134019.412500", "134019.872500", "134020.332500", "134020.792500", "134021.252500", "134021.712500", "134022.172500", "134022.632500", "134023.092500", "134023.552500", "134024.012500", "134024.472500", "134024.932500", "134025.392500", "134025.852500", "134026.312500", "134026.772500", "134027.232500", "134027.692500", "134028.152500", "134028.612500", "134029.072500", "134029.532500", "134029.992500", "134030.452500", "134030.912500", "134031.372500", "134031.832500", "134032.292500", "134032.752500", "134033.212500", "134033.672500", "134034.132500", "134034.592500", "134035.052500", "134035.512500", "134035.972500", "134036.432500", "134036.892500", "134037.352500", "134037.812500", "134038.272500", "134038.732500", "134039.192500", "134039.652500", "134040.112500", "134040.572500", "134041.032500", "134041.492500", "134041.952500", "134042.412500", "134042.872500", "134043.332500", "134043.792500", "134044.252500", "134044.712500", "134045.172500", "134045.632500", "134046.092500", "134046.552500", "134047.012500", "134047.472500", "134047.932500", "134048.392500", "134048.852500", "134049.312500", "134049.772500", "134050.232500", "134050.692500", "134051.152500", "134051.612500", "134052.072500", "134052.532500", "134052.992500", "134053.452500", "134053.912500", "134054.372500", "134054.832500", "134055.292500", "134055.752500", "134056.212500", "134056.672500", "134057.132500", "134057.592500", "134058.052500", "134058.512500"],
