{
  "AcquisitionMatrixPE": 82,
  "AcquisitionNumber": 1,
  "AcquisitionTime": "12:33:13.195000",
  "BandwidthPerPixelPhaseEncode": 24.888,
  "BaseResolution": 82,
  "BodyPartExamined": "BRAIN",
  "ConsistencyInfo": "N4_VE11E_LATEST_20181129",
  "ConversionSoftware": "dcm2niix",
  "ConversionSoftwareVersion": "v1.0.20201102",
  "DerivedVendorReportedEchoSpacing": 0.00049,
  "DeviceSerialNumber": "66112",
  "DwellTime": 2e-06,
  "EchoTime": 0.0272,
  "EchoTrainLength": 82,
  "EffectiveEchoSpacing": 0.00049,
  "FlipAngle": 44,
  "ImageComments": "Unaliased MB8/PE3",
  "ImageOrientationPatientDICOM": [0.998671, 0.0390786, 0.0335939, -0.0387142, 0.999185, -0.0114278],
  "ImageType": [
    "ORIGINAL",
    "PRIMARY",
    "M",
    "MB",
    "ND",
    "NORM",
    "MOSAIC"
],
  "ImagingFrequency": 123.252,
  "InPlanePhaseEncodingDirectionDICOM": "COL",
  "InstitutionAddress": "Maynard 3,Hanover,NH,US,03755",
  "InstitutionName": "Dartmouth College - PBS",
  "InstitutionalDepartmentName": "Department",
  "MRAcquisitionType": "2D",
  "MagneticFieldStrength": 3,
  "Manufacturer": "Siemens",
  "ManufacturersModelName": "Prisma",
  "Modality": "MR",
  "MultibandAccelerationFactor": 8,
  "PartialFourier": 1,
  "PatientPosition": "HFS",
  "PercentPhaseFOV": 100,
  "PercentSampling": 100,
  "PhaseEncodingDirection": "j-",
  "PhaseEncodingSteps": 82,
  "PhaseResolution": 1,
  "PixelBandwidth": 3050,
  "ProcedureStepDescription": "Wager_Wager^1076_spacetop",
  "ProtocolName": "func_run-02_task-social_acq-ap-mb8",
  "PulseSequenceDetails": "%CustomerSeq%\\cmrr_mbep2d_bold",
  "ReceiveCoilActiveElements": "HEA;HEP",
  "ReceiveCoilName": "Head_32",
  "ReconMatrixPE": 82,
  "RepetitionTime": 0.46,
  "SAR": 0.108209,
  "ScanOptions": "FS",
  "ScanningSequence": "EP",
  "SequenceName": "epfid2d1_82",
  "SequenceVariant": "SK\\SS",
  "SeriesDescription": "func_run-02_task-social_acq-ap-mb8",
  "SeriesNumber": 10,
  "ShimSetting": [4148, -7740, -7267, 453, -60, -281, 131, 65],
  "SliceThickness": 2.7,
  "SliceTiming": [0, 0.25, 0.0625, 0.3125, 0.125, 0.375, 0.1875, 0, 0.25, 0.0625, 0.3125, 0.125, 0.375, 0.1875, 0, 0.25, 0.0625, 0.3125, 0.125, 0.375, 0.1875, 0, 0.25, 0.0625, 0.3125, 0.125, 0.375, 0.1875, 0, 0.25, 0.0625, 0.3125, 0.125, 0.375, 0.1875, 0, 0.25, 0.0625, 0.3125, 0.125, 0.375, 0.1875, 0, 0.25, 0.0625, 0.3125, 0.125, 0.375, 0.1875, 0, 0.25, 0.0625, 0.3125, 0.125, 0.375, 0.1875],
  "SoftwareVersions": "syngo MR E11",
  "SpacingBetweenSlices": 2.7,
  "StationName": "AWP66112",
  "TaskName": "social",
  "TotalReadoutTime": 0.03969,
  "TxRefAmp": 281.353,
  "WipMemBlock": "47bb7da5-5acc-4fdc-82f0-53f9f0b2e9f1||Sequence: R016 ve11e/master r/434b28f1; Aug  7 2019 18:53:46 by eja",
  "dcmmeta_affine": [
    [-2.6793620586395264, -0.10386747121810913, 0.09183529764413834, 116.36433410644531],
    [-0.10484489798545837, 2.6807403564453125, -0.027302658185362816, -92.03230285644531],
    [0.09012989699840546, 0.030660061165690422, 2.6982996463775635, -83.92647552490234],
    [0.0, 0.0, 0.0, 1.0]
],
  "dcmmeta_reorient_transform": [
    [0.0, -1.0, 0.0, 81.0],
    [1.0, 0.0, 0.0, 0.0],
    [0.0, 0.0, 1.0, 0.0],
    [0.0, 0.0, 0.0, 1.0]
],
  "dcmmeta_shape": [82, 82, 56, 872],
  "dcmmeta_slice_dim": 2,
  "dcmmeta_version": 0.6,
  "global": {
    "const": {
      "AccessionNumber": "A004147",
      "AcquisitionMatrix": [82, 0, 0, 82],
      "AngioFlag": "N",
      "BitsAllocated": 16,
      "BitsStored": 16,
      "BodyPartExamined": "BRAIN",
      "Columns": 656,
      "EchoNumbers": 1,
      "EchoTime": 27.2,
      "EchoTrainLength": 82,
      "FlipAngle": 44.0,
      "HighBit": 15,
      "ImageOrientationPatient": [0.99867127660191, 0.0390785520623, 0.03359386936671, -0.0387142371451, 0.99918497401357, -0.0114278409059],
      "ImagePositionPatient": [-847.11801072302, -924.57059015856, -98.510850993993],
      "ImageType": [
        "ORIGINAL",
        "PRIMARY",
        "M",
        "MB",
        "ND",
        "NORM",
        "MOSAIC"
],
      "ImagedNucleus": "1H",
      "ImagingFrequency": 123.252126,
      "InPlanePhaseEncodingDirection": "COL",
      "MRAcquisitionType": "2D",
      "MagneticFieldStrength": 3.0,
      "Manufacturer": "SIEMENS",
      "ManufacturerModelName": "Prisma",
      "Modality": "MR",
      "NumberOfAverages": 1.0,
      "NumberOfPhaseEncodingSteps": 82,
      "PercentPhaseFieldOfView": 100.0,
      "PercentSampling": 100.0,
      "PerformedProcedureStepStartTime": "113104.571000",
      "PhotometricInterpretation": "MONOCHROME2",
      "PixelBandwidth": 3050.0,
      "PixelRepresentation": 0,
      "PixelSpacing": [2.6829268932343, 2.6829268932343],
      "ProtocolName": "func_run-02_task-social_acq-ap-mb8",
      "RepetitionTime": 460.0,
      "Rows": 656,
      "SAR": 0.10820941998415,
      "SamplesPerPixel": 1,
      "ScanOptions": "FS",
      "ScanningSequence": "EP",
      "SequenceName": "epfid2d1_82",
      "SequenceVariant": [
        "SK",
        "SS"
],
      "SeriesDescription": "func_run-02_task-social_acq-ap-mb8",
      "SeriesNumber": 10,
      "SeriesTime": "123339.057000",
      "SliceLocation": -78.985071144756,
      "SliceThickness": 2.7000000476837,
      "SmallestImagePixelValue": 0,
      "SoftwareVersions": "syngo MR E11",
      "SpacingBetweenSlices": 2.6999999950921,
      "SpecificCharacterSet": "ISO_IR 100",
      "StudyID": "1",
      "StudyTime": "113104.518000",
      "TransmitCoilName": "Body",
      "VariableFlipAngleFlag": "N",
      "WindowCenterWidthExplanation": "Algo1"
    },
    "slices": {}
  },
  "time": {
    "samples": {
      "AcquisitionNumber": [1, 2, 3, 4, 5, 6, 7, 8, 9, 10, 11, 12, 13, 14, 15, 16, 17, 18, 19, 20, 21, 22, 23, 24, 25, 26, 27, 28, 29, 30, 31, 32, 33, 34, 35, 36, 37, 38, 39, 40, 41, 42, 43, 44, 45, 46, 47, 48, 49, 50, 51, 52, 53, 54, 55, 56, 57, 58, 59, 60, 61, 62, 63, 64, 65, 66, 67, 68, 69, 70, 71, 72, 73, 74, 75, 76, 77, 78, 79, 80, 81, 82, 83, 84, 85, 86, 87, 88, 89, 90, 91, 92, 93, 94, 95, 96, 97, 98, 99, 100, 101, 102, 103, 104, 105, 106, 107, 108, 109, 110, 111, 112, 113, 114, 115, 116, 117, 118, 119, 120, 121, 122, 123, 124, 125, 126, 127, 128, 129, 130, 131, 132, 133, 134, 135, 136, 137, 138, 139, 140, 141, 142, 143, 144, 145, 146, 147, 148, 149, 150, 151, 152, 153, 154, 155, 156, 157, 158, 159, 160, 161, 162, 163, 164, 165, 166, 167, 168, 169, 170, 171, 172, 173, 174, 175, 176, 177, 178, 179, 180, 181, 182, 183, 184, 185, 186, 187, 188, 189, 190, 191, 192, 193, 194, 195, 196, 197, 198, 199, 200, 201, 202, 203, 204, 205, 206, 207, 208, 209, 210, 211, 212, 213, 214, 215, 216, 217, 218, 219, 220, 221, 222, 223, 224, 225, 226, 227, 228, 229, 230, 231, 232, 233, 234, 235, 236, 237, 238, 239, 240, 241, 242, 243, 244, 245, 246, 247, 248, 249, 250, 251, 252, 253, 254, 255, 256, 257, 258, 259, 260, 261, 262, 263, 264, 265, 266, 267, 268, 269, 270, 271, 272, 273, 274, 275, 276, 277, 278, 279, 280, 281, 282, 283, 284, 285, 286, 287, 288, 289, 290, 291, 292, 293, 294, 295, 296, 297, 298, 299, 300, 301, 302, 303, 304, 305, 306, 307, 308, 309, 310, 311, 312, 313, 314, 315, 316, 317, 318, 319, 320, 321, 322, 323, 324, 325, 326, 327, 328, 329, 330, 331, 332, 333, 334, 335, 336, 337, 338, 339, 340, 341, 342, 343, 344, 345, 346, 347, 348, 349, 350, 351, 352, 353, 354, 355, 356, 357, 358, 359, 360, 361, 362, 363, 364, 365, 366, 367, 368, 369, 370, 371, 372, 373, 374, 375, 376, 377, 378, 379, 380, 381, 382, 383, 384, 385, 386, 387, 388, 389, 390, 391, 392, 393, 394, 395, 396, 397, 398, 399, 400, 401, 402, 403, 404, 405, 406, 407, 408, 409, 410, 411, 412, 413, 414, 415, 416, 417, 418, 419, 420, 421, 422, 423, 424, 425, 426, 427, 428, 429, 430, 431, 432, 433, 434, 435, 436, 437, 438, 439, 440, 441, 442, 443, 444, 445, 446, 447, 448, 449, 450, 451, 452, 453, 454, 455, 456, 457, 458, 459, 460, 461, 462, 463, 464, 465, 466, 467, 468, 469, 470, 471, 472, 473, 474, 475, 476, 477, 478, 479, 480, 481, 482, 483, 484, 485, 486, 487, 488, 489, 490, 491, 492, 493, 494, 495, 496, 497, 498, 499, 500, 501, 502, 503, 504, 505, 506, 507, 508, 509, 510, 511, 512, 513, 514, 515, 516, 517, 518, 519, 520, 521, 522, 523, 524, 525, 526, 527, 528, 529, 530, 531, 532, 533, 534, 535, 536, 537, 538, 539, 540, 541, 542, 543, 544, 545, 546, 547, 548, 549, 550, 551, 552, 553, 554, 555, 556, 557, 558, 559, 560, 561, 562, 563, 564, 565, 566, 567, 568, 569, 570, 571, 572, 573, 574, 575, 576, 577, 578, 579, 580, 581, 582, 583, 584, 585, 586, 587, 588, 589, 590, 591, 592, 593, 594, 595, 596, 597, 598, 599, 600, 601, 602, 603, 604, 605, 606, 607, 608, 609, 610, 611, 612, 613, 614, 615, 616, 617, 618, 619, 620, 621, 622, 623, 624, 625, 626, 627, 628, 629, 630, 631, 632, 633, 634, 635, 636, 637, 638, 639, 640, 641, 642, 643, 644, 645, 646, 647, 648, 649, 650, 651, 652, 653, 654, 655, 656, 657, 658, 659, 660, 661, 662, 663, 664, 665, 666, 667, 668, 669, 670, 671, 672, 673, 674, 675, 676, 677, 678, 679, 680, 681, 682, 683, 684, 685, 686, 687, 688, 689, 690, 691, 692, 693, 694, 695, 696, 697, 698, 699, 700, 701, 702, 703, 704, 705, 706, 707, 708, 709, 710, 711, 712, 713, 714, 715, 716, 717, 718, 719, 720, 721, 722, 723, 724, 725, 726, 727, 728, 729, 730, 731, 732, 733, 734, 735, 736, 737, 738, 739, 740, 741, 742, 743, 744, 745, 746, 747, 748, 749, 750, 751, 752, 753, 754, 755, 756, 757, 758, 759, 760, 761, 762, 763, 764, 765, 766, 767, 768, 769, 770, 771, 772, 773, 774, 775, 776, 777, 778, 779, 780, 781, 782, 783, 784, 785, 786, 787, 788, 789, 790, 791, 792, 793, 794, 795, 796, 797, 798, 799, 800, 801, 802, 803, 804, 805, 806, 807, 808, 809, 810, 811, 812, 813, 814, 815, 816, 817, 818, 819, 820, 821, 822, 823, 824, 825, 826, 827, 828, 829, 830, 831, 832, 833, 834, 835, 836, 837, 838, 839, 840, 841, 842, 843, 844, 845, 846, 847, 848, 849, 850, 851, 852, 853, 854, 855, 856, 857, 858, 859, 860, 861, 862, 863, 864, 865, 866, 867, 868, 869, 870, 871, 872],
      "AcquisitionTime": ["123313.195000", "123313.655000", "123314.115000", "123314.575000", "123315.035000", "123315.495000", "123315.955000", "123316.415000", "123316.875000", "123317.335000", "123317.795000", "123318.255000", "123318.715000", "123319.175000", "123319.635000", "123320.095000", "123320.555000", "123321.015000", "123321.475000", "123321.935000", "123322.395000", "123322.855000", "123323.315000", "123323.775000", "123324.235000", "123324.695000", "123325.155000", "123325.615000", "123326.075000", "123326.535000", "123326.995000", "123327.455000", "123327.915000", "123328.375000", "123328.835000", "123329.295000", "123329.755000", "123330.215000", "123330.675000", "123331.135000", "123331.595000", "123332.055000", "123332.515000", "123332.975000", "123333.435000", "123333.895000", "123334.355000", "123334.815000", "123335.275000", "123335.735000", "123336.195000", "123336.655000", "123337.115000", "123337.575000", "123338.035000", "123338.495000", "123338.955000", "123339.415000", "123339.875000", "123340.335000", "123340.795000", "123341.255000", "123341.715000", "123342.175000", "123342.635000", "123343.095000", "123343.555000", "123344.015000", "123344.475000", "123344.935000", "123345.395000", "123345.855000", "123346.315000", "123346.775000", "123347.235000", "123347.695000", "123348.155000", "123348.615000", "123349.075000", "123349.535000", "123349.995000", "123350.455000", "123350.915000", "123351.375000", "123351.835000", "123352.295000", "123352.755000", "123353.215000", "123353.675000", "123354.135000", "123354.595000", "123355.055000", "123355.515000", "123355.975000", "123356.435000", "123356.895000", "123357.355000", "123357.815000", "123358.275000", "123358.735000", "123359.195000", "123359.655000", "123400.115000", "123400.575000", "123401.035000", "123401.495000", "123401.955000", "123402.415000", "123402.875000", "123403.335000", "123403.795000", "123404.255000", "123404.715000", "123405.175000", "123405.635000", "123406.095000", "123406.555000", "123407.015000", "123407.475000", "123407.935000", "123408.395000", "123408.855000", "123409.315000", "123409.775000", "123410.235000", "123410.695000", "123411.155000", "123411.615000", "123412.075000", "123412.535000", "123412.995000", "123413.455000", "123413.915000", "123414.375000", "123414.835000", "123415.295000", "123415.755000", "123416.215000", "123416.675000", "123417.135000", "123417.595000", "123418.055000", "123418.515000", "123418.975000", "123419.435000", "123419.895000", "123420.355000", "123420.815000", "123421.275000", "123421.735000", "123422.195000", "123422.655000", "123423.115000", "123423.575000", "123424.035000", "123424.495000", "123424.955000", "123425.415000", "123425.875000", "123426.335000", "123426.795000", "123427.255000", "123427.715000", "123428.175000", "123428.635000", "123429.095000", "123429.555000", "123430.015000", "123430.475000", "123430.935000", "123431.395000", "123431.855000", "123432.315000", "123432.775000", "123433.235000", "123433.695000", "123434.155000", "123434.615000", "123435.075000", "123435.535000", "123435.995000", "123436.455000", "123436.915000", "123437.375000", "123437.835000", "123438.295000", "123438.755000", "123439.215000", "123439.675000", "123440.135000", "123440.595000", "123441.055000", "123441.515000", "123441.975000", "123442.435000", "123442.895000", "123443.355000", "123443.815000", "123444.275000", "123444.735000", "123445.195000", "123445.655000", "123446.115000", "123446.575000", "123447.035000", "123447.495000", "123447.955000", "123448.415000", "123448.875000", "123449.335000", "123449.795000", "123450.255000", "123450.715000", "123451.175000", "123451.635000", "123452.095000", "123452.555000", "123453.015000", "123453.475000", "123453.935000", "123454.395000", "123454.855000", "123455.315000", "123455.775000", "123456.235000", "123456.695000", "123457.155000", "123457.615000", "123458.075000", "123458.535000", "123458.995000", "123459.455000", "123459.915000", "123500.375000", "123500.835000", "123501.295000", "123501.755000", "123502.215000", "123502.675000", "123503.135000", "123503.595000", "123504.055000", "123504.515000", "123504.975000", "123505.435000", "123505.895000", "123506.355000", "123506.815000", "123507.275000", "123507.735000", "123508.195000", "123508.655000", "123509.115000", "123509.575000", "123510.035000", "123510.495000", "123510.955000", "123511.415000", "123511.875000", "123512.335000", "123512.795000", "123513.255000", "123513.715000", "123514.175000", "123514.635000", "123515.095000", "123515.555000", "123516.015000", "123516.475000", "123516.935000", "123517.395000", "123517.855000", "123518.315000", "123518.775000", "123519.235000", "123519.695000", "123520.155000", "123520.615000", "123521.075000", "123521.535000", "123521.995000", "123522.455000", "123522.915000", "123523.375000", "123523.835000", "123524.295000", "123524.755000", "123525.215000", "123525.675000", "123526.135000", "123526.595000", "123527.055000", "123527.515000", "123527.975000", "123528.435000", "123528.895000", "123529.355000", "123529.815000", "123530.275000", "123530.735000", "123531.195000", "123531.655000", "123532.115000", "123532.575000", "123533.035000", "123533.495000", "123533.955000", "123534.415000", "123534.875000", "123535.335000", "123535.795000", "123536.255000", "123536.715000", "123537.175000", "123537.635000", "123538.095000", "123538.555000", "123539.015000", "123539.475000", "123539.935000", "123540.395000", "123540.855000", "123541.315000", "123541.775000", "123542.235000", "123542.695000", "123543.155000", "123543.615000", "123544.075000", "123544.535000", "123544.995000", "123545.455000", "123545.915000", "123546.375000", "123546.835000", "123547.295000", "123547.755000", "123548.215000", "123548.675000", "123549.135000", "123549.595000", "123550.055000", "123550.515000", "123550.975000", "123551.435000", "123551.895000", "123552.355000", "123552.815000", "123553.275000", "123553.735000", "123554.195000", "123554.655000", "123555.115000", "123555.575000", "123556.035000", "123556.495000", "123556.955000", "123557.415000", "123557.875000", "123558.335000", "123558.795000", "123559.255000", "123559.715000", "123600.175000", "123600.635000", "123601.095000", "123601.555000", "123602.015000", "123602.475000", "123602.935000", "123603.395000", "123603.855000", "123604.315000", "123604.775000", "123605.235000", "123605.695000", "123606.155000", "123606.615000", "123607.075000", "123607.535000", "123607.995000", "123608.455000", "123608.915000", "123609.375000", "123609.835000", "123610.295000", "123610.755000", "123611.215000", "123611.675000", "123612.135000", "123612.595000", "123613.055000", "123613.515000", "123613.975000", "123614.435000", "123614.895000", "123615.355000", "123615.815000", "123616.275000", "123616.735000", "123617.195000", "123617.655000", "123618.115000", "123618.575000", "123619.035000", "123619.495000", "123619.955000", "123620.415000", "123620.875000", "123621.335000", "123621.795000", "123622.255000", "123622.715000", "123623.175000", "123623.635000", "123624.095000", "123624.555000", "123625.015000", "123625.475000", "123625.935000", "123626.395000", "123626.855000", "123627.315000", "123627.775000", "123628.235000", "123628.695000", "123629.155000", "123629.615000", "123630.075000", "123630.535000", "123630.995000", "123631.455000", "123631.915000", "123632.375000", "123632.835000", "123633.295000", "123633.755000", "123634.215000", "123634.675000", "123635.135000", "123635.595000", "123636.055000", "123636.515000", "123636.975000", "123637.435000", "123637.895000", "123638.355000", "123638.815000", "123639.275000", "123639.735000", "123640.195000", "123640.655000", "123641.115000", "123641.575000", "123642.035000", "123642.495000", "123642.955000", "123643.415000", "123643.875000", "123644.335000", "123644.795000", "123645.255000", "123645.715000", "123646.175000", "123646.635000", "123647.095000", "123647.555000", "123648.015000", "123648.475000", "123648.935000", "123649.395000", "123649.855000", "123650.315000", "123650.775000", "123651.235000", "123651.695000", "123652.155000", "123652.615000", "123653.075000", "123653.535000", "123653.995000", "123654.455000", "123654.915000", "123655.375000", "123655.835000", "123656.295000", "123656.755000", "123657.215000", "123657.675000", "123658.135000", "123658.595000", "123659.055000", "123659.515000", "123659.975000", "123700.435000", "123700.895000", "123701.355000", "123701.815000", "123702.275000", "123702.735000", "123703.195000", "123703.655000", "123704.115000", "123704.575000", "123705.035000", "123705.495000", "123705.955000", "123706.415000", "123706.875000", "123707.335000", "123707.795000", "123708.255000", "123708.715000", "123709.175000", "123709.635000", "123710.095000", "123710.555000", "123711.015000", "123711.475000", "123711.935000", "123712.395000", "123712.855000", "123713.315000", "123713.775000", "123714.235000", "123714.695000", "123715.155000", "123715.615000", "123716.075000", "123716.535000", "123716.995000", "123717.455000", "123717.915000", "123718.375000", "123718.835000", "123719.295000", "123719.755000", "123720.215000", "123720.675000", "123721.135000", "123721.595000", "123722.055000", "123722.515000", "123722.975000", "123723.435000", "123723.895000", "123724.355000", "123724.815000", "123725.275000", "123725.735000", "123726.195000", "123726.655000", "123727.115000", "123727.575000", "123728.035000", "123728.495000", "123728.955000", "123729.415000", "123729.875000", "123730.335000", "123730.795000", "123731.255000", "123731.715000", "123732.175000", "123732.635000", "123733.095000", "123733.555000", "123734.015000", "123734.475000", "123734.935000", "123735.395000", "123735.855000", "123736.315000", "123736.775000", "123737.235000", "123737.695000", "123738.155000", "123738.615000", "123739.075000", "123739.535000", "123739.995000", "123740.455000", "123740.915000", "123741.375000", "123741.835000", "123742.295000", "123742.755000", "123743.215000", "123743.675000", "123744.135000", "123744.595000", "123745.055000", "123745.515000", "123745.975000", "123746.435000", "123746.895000", "123747.355000", "123747.815000", "123748.275000", "123748.735000", "123749.195000", "123749.655000", "123750.115000", "123750.575000", "123751.035000", "123751.495000", "123751.955000", "123752.415000", "123752.875000", "123753.335000", "123753.795000", "123754.255000", "123754.715000", "123755.175000", "123755.635000", "123756.095000", "123756.555000", "123757.015000", "123757.475000", "123757.935000", "123758.395000", "123758.855000", "123759.315000", "123759.775000", "123800.235000", "123800.695000", "123801.155000", "123801.615000", "123802.075000", "123802.535000", "123802.995000", "123803.455000", "123803.915000", "123804.375000", "123804.835000", "123805.295000", "123805.755000", "123806.215000", "123806.675000", "123807.135000", "123807.595000", "123808.055000", "123808.515000", "123808.975000", "123809.435000", "123809.895000", "123810.355000", "123810.815000", "123811.275000", "123811.735000", "123812.195000", "123812.655000", "123813.115000", "123813.575000", "123814.035000", "123814.495000", "123814.955000", "123815.415000", "123815.875000", "123816.335000", "123816.795000", "123817.255000", "123817.715000", "123818.175000", "123818.635000", "123819.095000", "123819.555000", "123820.015000", "123820.475000", "123820.935000", "123821.395000", "123821.855000", "123822.315000", "123822.775000", "123823.235000", "123823.695000", "123824.155000", "123824.615000", "123825.075000", "123825.535000", "123825.995000", "123826.455000", "123826.915000", "123827.375000", "123827.835000", "123828.295000", "123828.755000", "123829.215000", "123829.675000", "123830.135000", "123830.595000", "123831.055000", "123831.515000", "123831.975000", "123832.435000", "123832.895000", "123833.355000", "123833.815000", "123834.275000", "123834.735000", "123835.195000", "123835.655000", "123836.115000", "123836.575000", "123837.035000", "123837.495000", "123837.955000", "123838.415000", "123838.875000", "123839.335000", "123839.795000", "123840.255000", "123840.715000", "123841.175000", "123841.635000", "123842.095000", "123842.555000", "123843.015000", "123843.475000", "123843.935000", "123844.395000", "123844.855000", "123845.315000", "123845.775000", "123846.235000", "123846.695000", "123847.155000", "123847.615000", "123848.075000", "123848.535000", "123848.995000", "123849.455000", "123849.915000", "123850.375000", "123850.835000", "123851.295000", "123851.755000", "123852.215000", "123852.675000", "123853.135000", "123853.595000", "123854.055000", "123854.515000", "123854.975000", "123855.435000", "123855.895000", "123856.355000", "123856.815000", "123857.275000", "123857.735000", "123858.195000", "123858.655000", "123859.115000", "123859.575000", "123900.035000", "123900.495000", "123900.955000", "123901.415000", "123901.875000", "123902.335000", "123902.795000", "123903.255000", "123903.715000", "123904.175000", "123904.635000", "123905.095000", "123905.555000", "123906.015000", "123906.475000", "123906.935000", "123907.395000", "123907.855000", "123908.315000", "123908.775000", "123909.235000", "123909.695000", "123910.155000", "123910.615000", "123911.075000", "123911.535000", "123911.995000", "123912.455000", "123912.915000", "123913.375000", "123913.835000", "123914.295000", "123914.755000", "123915.215000", "123915.675000", "123916.135000", "123916.595000", "123917.055000", "123917.515000", "123917.975000", "123918.435000", "123918.895000", "123919.355000", "123919.815000", "123920.275000", "123920.735000", "123921.195000", "123921.655000", "123922.115000", "123922.575000", "123923.035000", "123923.495000", "123923.955000", "123924.415000", "123924.875000", "123925.335000", "123925.795000", "123926.255000", "123926.715000", "123927.175000", "123927.635000", "123928.095000", "123928.555000", "123929.015000", "123929.475000", "123929.935000", "123930.395000", "123930.855000", "123931.315000", "123931.775000", "123932.235000", "123932.695000", "123933.155000", "123933.615000", "123934.075000", "123934.535000", "123934.995000", "123935.455000", "123935.915000", "123936.375000", "123936.835000", "123937.295000", "123937.755000", "123938.215000", "123938.675000", "123939.135000", "123939.595000", "123940.055000", "123940.515000", "123940.975000", "123941.435000", "123941.895000", "123942.355000", "123942.815000", "123943.275000", "123943.735000", "123944.195000", "123944.655000", "123945.115000", "123945.575000", "123946.035000", "123946.495000", "123946.955000", "123947.415000", "123947.875000", "123948.335000", "123948.795000", "123949.255000", "123949.715000", "123950.175000", "123950.635000", "123951.095000", "123951.555000", "123952.015000", "123952.475000", "123952.935000", "123953.395000", "123953.855000"],
