{
  "AcquisitionMatrixPE": 82,
  "AcquisitionNumber": 1,
  "AcquisitionTime": "13:19:58.930000",
  "BandwidthPerPixelPhaseEncode": 24.888,
  "BaseResolution": 82,
  "BodyPartExamined": "BRAIN",
  "ConsistencyInfo": "N4_VE11E_LATEST_20181129",
  "ConversionSoftware": "dcm2niix",
  "ConversionSoftwareVersion": "v1.0.20201102",
  "DerivedVendorReportedEchoSpacing": 0.00049,
  "DeviceSerialNumber": "66112",
  "DwellTime": 2e-06,
  "EchoTime": 0.0272,
  "EchoTrainLength": 82,
  "EffectiveEchoSpacing": 0.00049,
  "FlipAngle": 44,
  "ImageComments": "Unaliased MB8/PE3",
  "ImageOrientationPatientDICOM": [0.997389, 0.0673803, 0.0259899, -0.0671207, 0.997687, -0.0107339],
  "ImageType": [
    "ORIGINAL",
    "PRIMARY",
    "M",
    "MB",
    "ND",
    "NORM",
    "MOSAIC"
],
  "ImagingFrequency": 123.252,
  "InPlanePhaseEncodingDirectionDICOM": "COL",
  "InstitutionAddress": "Maynard 3,Hanover,NH,US,03755",
  "InstitutionName": "Dartmouth College - PBS",
  "InstitutionalDepartmentName": "Department",
  "MRAcquisitionType": "2D",
  "MagneticFieldStrength": 3,
  "Manufacturer": "Siemens",
  "ManufacturersModelName": "Prisma",
  "Modality": "MR",
  "MultibandAccelerationFactor": 8,
  "PartialFourier": 1,
  "PatientPosition": "HFS",
  "PercentPhaseFOV": 100,
  "PercentSampling": 100,
  "PhaseEncodingDirection": "j-",
  "PhaseEncodingSteps": 82,
  "PhaseResolution": 1,
  "PixelBandwidth": 3050,
  "ProcedureStepDescription": "Wager_Wager^1076_spacetop",
  "ProtocolName": "func_run-01_task-alignvideo_acq-ap-mb8",
  "PulseSequenceDetails": "%CustomerSeq%\\cmrr_mbep2d_bold",
  "ReceiveCoilActiveElements": "HEA;HEP",
  "ReceiveCoilName": "Head_32",
  "ReconMatrixPE": 82,
  "RepetitionTime": 0.46,
  "SAR": 0.108376,
  "ScanOptions": "FS",
  "ScanningSequence": "EP",
  "SequenceName": "epfid2d1_82",
  "SequenceVariant": "SK\\SS",
  "SeriesDescription": "func_run-01_task-alignvideo_acq-ap-mb8",
  "SeriesNumber": 26,
  "ShimSetting": [4148, -7740, -7270, 469, -62, -284, 127, 67],
  "SliceThickness": 2.7,
  "SliceTiming": [0, 0.25, 0.0625, 0.3125, 0.125, 0.375, 0.1875, 0, 0.25, 0.0625, 0.3125, 0.125, 0.375, 0.1875, 0, 0.25, 0.0625, 0.3125, 0.125, 0.375, 0.1875, 0, 0.25, 0.0625, 0.3125, 0.125, 0.375, 0.1875, 0, 0.25, 0.0625, 0.3125, 0.125, 0.375, 0.1875, 0, 0.25, 0.0625, 0.3125, 0.125, 0.375, 0.1875, 0, 0.25, 0.0625, 0.3125, 0.125, 0.375, 0.1875, 0, 0.25, 0.0625, 0.3125, 0.125, 0.375, 0.1875],
  "SoftwareVersions": "syngo MR E11",
  "SpacingBetweenSlices": 2.7,
  "StationName": "AWP66112",
  "TaskName": "alignvideo",
  "TotalReadoutTime": 0.03969,
  "TxRefAmp": 281.353,
  "WipMemBlock": "38803d94-03d4-4558-ab0f-eeca50a564d7||Sequence: R016 ve11e/master r/434b28f1; Aug  7 2019 18:53:46 by eja",
  "dcmmeta_affine": [
    [-2.6759212017059326, -0.18008005619049072, 0.0719631165266037, 118.70271301269531],
    [-0.18077640235424042, 2.6767215728759766, -0.02419591322541237, -89.18363189697266],
    [0.06972890347242355, 0.028798367828130722, 2.698932409286499, -83.7527847290039],
    [0.0, 0.0, 0.0, 1.0]
],
  "dcmmeta_reorient_transform": [
    [0.0, -1.0, 0.0, 81.0],
    [1.0, 0.0, 0.0, 0.0],
    [0.0, 0.0, 1.0, 0.0],
    [0.0, 0.0, 0.0, 1.0]
],
  "dcmmeta_shape": [82, 82, 56, 520],
  "dcmmeta_slice_dim": 2,
  "dcmmeta_version": 0.6,
  "global": {
    "const": {
      "AccessionNumber": "A004147",
      "AcquisitionMatrix": [82, 0, 0, 82],
      "AngioFlag": "N",
      "BitsAllocated": 16,
      "BitsStored": 16,
      "BodyPartExamined": "BRAIN",
      "Columns": 656,
      "EchoNumbers": 1,
      "EchoTime": 27.2,
      "EchoTrainLength": 82,
      "FlipAngle": 44.0,
      "HighBit": 15,
      "ImageOrientationPatient": [0.99738880228304, 0.06738029468858, 0.0259898627948, -0.0671207441049, 0.99768711944773, -0.0107339367851],
      "ImagePositionPatient": [-820.42265256735, -947.73274690193, -93.167181456166],
      "ImageType": [
        "ORIGINAL",
        "PRIMARY",
        "M",
        "MB",
        "ND",
        "NORM",
        "MOSAIC"
],
      "ImagedNucleus": "1H",
      "ImagingFrequency": 123.252145,
      "InPlanePhaseEncodingDirection": "COL",
      "MRAcquisitionType": "2D",
      "MagneticFieldStrength": 3.0,
      "Manufacturer": "SIEMENS",
      "ManufacturerModelName": "Prisma",
      "Modality": "MR",
      "NumberOfAverages": 1.0,
      "NumberOfPhaseEncodingSteps": 82,
      "PercentPhaseFieldOfView": 100.0,
      "PercentSampling": 100.0,
      "PerformedProcedureStepStartTime": "113104.571000",
      "PhotometricInterpretation": "MONOCHROME2",
      "PixelBandwidth": 3050.0,
      "PixelRepresentation": 0,
      "PixelSpacing": [2.6829268932343, 2.6829268932343],
      "ProtocolName": "func_run-01_task-alignvideo_acq-ap-mb8",
      "RepetitionTime": 460.0,
      "Rows": 656,
      "SAR": 0.10837551700401,
      "SamplesPerPixel": 1,
      "ScanOptions": "FS",
      "ScanningSequence": "EP",
      "SequenceName": "epfid2d1_82",
      "SequenceVariant": [
        "SK",
        "SS"
],
      "SeriesDescription": "func_run-01_task-alignvideo_acq-ap-mb8",
      "SeriesNumber": 26,
      "SeriesTime": "132019.068000",
      "SliceLocation": -79.75666921309,
      "SliceThickness": 2.7000000476837,
      "SmallestImagePixelValue": 0,
      "SoftwareVersions": "syngo MR E11",
      "SpacingBetweenSlices": 2.6999999439672,
      "SpecificCharacterSet": "ISO_IR 100",
      "StudyID": "1",
      "StudyTime": "113104.518000",
      "TransmitCoilName": "Body",
      "VariableFlipAngleFlag": "N",
      "WindowCenterWidthExplanation": "Algo1"
    },
    "slices": {}
  },
  "time": {
    "samples": {
      "AcquisitionNumber": [1, 2, 3, 4, 5, 6, 7, 8, 9, 10, 11, 12, 13, 14, 15, 16, 17, 18, 19, 20, 21, 22, 23, 24, 25, 26, 27, 28, 29, 30, 31, 32, 33, 34, 35, 36, 37, 38, 39, 40, 41, 42, 43, 44, 45, 46, 47, 48, 49, 50, 51, 52, 53, 54, 55, 56, 57, 58, 59, 60, 61, 62, 63, 64, 65, 66, 67, 68, 69, 70, 71, 72, 73, 74, 75, 76, 77, 78, 79, 80, 81, 82, 83, 84, 85, 86, 87, 88, 89, 90, 91, 92, 93, 94, 95, 96, 97, 98, 99, 100, 101, 102, 103, 104, 105, 106, 107, 108, 109, 110, 111, 112, 113, 114, 115, 116, 117, 118, 119, 120, 121, 122, 123, 124, 125, 126, 127, 128, 129, 130, 131, 132, 133, 134, 135, 136, 137, 138, 139, 140, 141, 142, 143, 144, 145, 146, 147, 148, 149, 150, 151, 152, 153, 154, 155, 156, 157, 158, 159, 160, 161, 162, 163, 164, 165, 166, 167, 168, 169, 170, 171, 172, 173, 174, 175, 176, 177, 178, 179, 180, 181, 182, 183, 184, 185, 186, 187, 188, 189, 190, 191, 192, 193, 194, 195, 196, 197, 198, 199, 200, 201, 202, 203, 204, 205, 206, 207, 208, 209, 210, 211, 212, 213, 214, 215, 216, 217, 218, 219, 220, 221, 222, 223, 224, 225, 226, 227, 228, 229, 230, 231, 232, 233, 234, 235, 236, 237, 238, 239, 240, 241, 242, 243, 244, 245, 246, 247, 248, 249, 250, 251, 252, 253, 254, 255, 256, 257, 258, 259, 260, 261, 262, 263, 264, 265, 266, 267, 268, 269, 270, 271, 272, 273, 274, 275, 276, 277, 278, 279, 280, 281, 282, 283, 284, 285, 286, 287, 288, 289, 290, 291, 292, 293, 294, 295, 296, 297, 298, 299, 300, 301, 302, 303, 304, 305, 306, 307, 308, 309, 310, 311, 312, 313, 314, 315, 316, 317, 318, 319, 320, 321, 322, 323, 324, 325, 326, 327, 328, 329, 330, 331, 332, 333, 334, 335, 336, 337, 338, 339, 340, 341, 342, 343, 344, 345, 346, 347, 348, 349, 350, 351, 352, 353, 354, 355, 356, 357, 358, 359, 360, 361, 362, 363, 364, 365, 366, 367, 368, 369, 370, 371, 372, 373, 374, 375, 376, 377, 378, 379, 380, 381, 382, 383, 384, 385, 386, 387, 388, 389, 390, 391, 392, 393, 394, 395, 396, 397, 398, 399, 400, 401, 402, 403, 404, 405, 406, 407, 408, 409, 410, 411, 412, 413, 414, 415, 416, 417, 418, 419, 420, 421, 422, 423, 424, 425, 426, 427, 428, 429, 430, 431, 432, 433, 434, 435, 436, 437, 438, 439, 440, 441, 442, 443, 444, 445, 446, 447, 448, 449, 450, 451, 452, 453, 454, 455, 456, 457, 458, 459, 460, 461, 462, 463, 464, 465, 466, 467, 468, 469, 470, 471, 472, 473, 474, 475, 476, 477, 478, 479, 480, 481, 482, 483, 484, 485, 486, 487, 488, 489, 490, 491, 492, 493, 494, 495, 496, 497, 498, 499, 500, 501, 502, 503, 504, 505, 506, 507, 508, 509, 510, 511, 512, 513, 514, 515, 516, 517, 518, 519, 520],
      "AcquisitionTime": ["131958.930000", "131959.390000", "131959.850000", "132000.310000", "132000.770000", "132001.230000", "132001.690000", "132002.150000", "132002.610000", "132003.070000", "132003.530000", "132003.990000", "132004.450000", "132004.910000", "132005.370000", "132005.830000", "132006.290000", "132006.750000", "132007.210000", "132007.670000", "132008.130000", "132008.590000", "132009.050000", "132009.510000", "132009.970000", "132010.430000", "132010.890000", "132011.350000", "132011.810000", "132012.270000", "132012.730000", "132013.190000", "132013.650000", "132014.110000", "132014.570000", "132015.030000", "132015.490000", "132015.950000", "132016.410000", "132016.870000", "132017.330000", "132017.790000", "132018.250000", "132018.710000", "132019.170000", "132019.630000", "132020.090000", "132020.550000", "132021.010000", "132021.470000", "132021.930000", "132022.390000", "132022.850000", "132023.310000", "132023.770000", "132024.230000", "132024.690000", "132025.150000", "132025.610000", "132026.070000", "132026.530000", "132026.990000", "132027.450000", "132027.910000", "132028.370000", "132028.830000", "132029.290000", "132029.750000", "132030.210000", "132030.670000", "132031.130000", "132031.590000", "132032.050000", "132032.510000", "132032.970000", "132033.430000", "132033.890000", "132034.350000", "132034.810000", "132035.270000", "132035.730000", "132036.190000", "132036.650000", "132037.110000", "132037.570000", "132038.030000", "132038.490000", "132038.950000", "132039.410000", "132039.870000", "132040.330000", "132040.790000", "132041.250000", "132041.710000", "132042.170000", "132042.630000", "132043.090000", "132043.550000", "132044.010000", "132044.470000", "132044.930000", "132045.390000", "132045.850000", "132046.310000", "132046.770000", "132047.230000", "132047.690000", "132048.150000", "132048.610000", "132049.070000", "132049.530000", "132049.990000", "132050.450000", "132050.910000", "132051.370000", "132051.830000", "132052.290000", "132052.750000", "132053.210000", "132053.670000", "132054.130000", "132054.590000", "132055.050000", "132055.510000", "132055.970000", "132056.430000", "132056.890000", "132057.350000", "132057.810000", "132058.270000", "132058.730000", "132059.190000", "132059.650000", "132100.110000", "132100.570000", "132101.030000", "132101.490000", "132101.950000", "132102.410000", "132102.870000", "132103.330000", "132103.790000", "132104.250000", "132104.710000", "132105.170000", "132105.630000", "132106.090000", "132106.550000", "132107.010000", "132107.470000", "132107.930000", "132108.390000", "132108.850000", "132109.310000", "132109.770000", "132110.230000", "132110.690000", "132111.150000", "132111.610000", "132112.070000", "132112.530000", "132112.990000", "132113.450000", "132113.910000", "132114.370000", "132114.830000", "132115.290000", "132115.750000", "132116.210000", "132116.670000", "132117.130000", "132117.590000", "132118.050000", "132118.510000", "132118.970000", "132119.430000", "132119.890000", "132120.350000", "132120.810000", "132121.270000", "132121.730000", "132122.190000", "132122.650000", "132123.110000", "132123.570000", "132124.030000", "132124.490000", "132124.950000", "132125.410000", "132125.870000", "132126.330000", "132126.790000", "132127.250000", "132127.710000", "132128.170000", "132128.630000", "132129.090000", "132129.550000", "132130.010000", "132130.470000", "132130.930000", "132131.390000", "132131.850000", "132132.310000", "132132.770000", "132133.230000", "132133.690000", "132134.150000", "132134.610000", "132135.070000", "132135.530000", "132135.990000", "132136.450000", "132136.910000", "132137.370000", "132137.830000", "132138.290000", "132138.750000", "132139.210000", "132139.670000", "132140.130000", "132140.590000", "132141.050000", "132141.510000", "132141.970000", "132142.430000", "132142.890000", "132143.350000", "132143.810000", "132144.270000", "132144.730000", "132145.190000", "132145.650000", "132146.110000", "132146.570000", "132147.030000", "132147.490000", "132147.950000", "132148.410000", "132148.870000", "132149.330000", "132149.790000", "132150.250000", "132150.710000", "132151.170000", "132151.630000", "132152.090000", "132152.550000", "132153.010000", "132153.470000", "132153.930000", "132154.390000", "132154.850000", "132155.310000", "132155.770000", "132156.230000", "132156.690000", "132157.150000", "132157.610000", "132158.070000", "132158.530000", "132158.990000", "132159.450000", "132159.910000", "132200.370000", "132200.830000", "132201.290000", "132201.750000", "132202.210000", "132202.670000", "132203.130000", "132203.590000", "132204.050000", "132204.510000", "132204.970000", "132205.430000", "132205.890000", "132206.350000", "132206.810000", "132207.270000", "132207.730000", "132208.190000", "132208.650000", "132209.110000", "132209.570000", "132210.030000", "132210.490000", "132210.950000", "132211.410000", "132211.870000", "132212.330000", "132212.790000", "132213.250000", "132213.710000", "132214.170000", "132214.630000", "132215.090000", "132215.550000", "132216.010000", "132216.470000", "132216.930000", "132217.390000", "132217.850000", "132218.310000", "132218.770000", "132219.230000", "132219.690000", "132220.150000", "132220.610000", "132221.070000", "132221.530000", "132221.990000", "132222.450000", "132222.910000", "132223.370000", "132223.830000", "132224.290000", "132224.750000", "132225.210000", "132225.670000", "132226.130000", "132226.590000", "132227.050000", "132227.510000", "132227.970000", "132228.430000", "132228.890000", "132229.350000", "132229.810000", "132230.270000", "132230.730000", "132231.190000", "132231.650000", "132232.110000", "132232.570000", "132233.030000", "132233.490000", "132233.950000", "132234.410000", "132234.870000", "132235.330000", "132235.790000", "132236.250000", "132236.710000", "132237.170000", "132237.630000", "132238.090000", "132238.550000", "132239.010000", "132239.470000", "132239.930000", "132240.390000", "132240.850000", "132241.310000", "132241.770000", "132242.230000", "132242.690000", "132243.150000", "132243.610000", "132244.070000", "132244.530000", "132244.990000", "132245.450000", "132245.910000", "132246.370000", "132246.830000", "132247.290000", "132247.750000", "132248.210000", "132248.670000", "132249.130000", "132249.590000", "132250.050000", "132250.510000", "132250.970000", "132251.430000", "132251.890000", "132252.350000", "132252.810000", "132253.270000", "132253.730000", "132254.190000", "132254.650000", "132255.110000", "132255.570000", "132256.030000", "132256.490000", "132256.950000", "132257.410000", "132257.870000", "132258.330000", "132258.790000", "132259.250000", "132259.710000", "132300.170000", "132300.630000", "132301.090000", "132301.550000", "132302.010000", "132302.470000", "132302.930000", "132303.390000", "132303.850000", "132304.310000", "132304.770000", "132305.230000", "132305.690000", "132306.150000", "132306.610000", "132307.070000", "132307.530000", "132307.990000", "132308.450000", "132308.910000", "132309.370000", "132309.830000", "132310.290000", "132310.750000", "132311.210000", "132311.670000", "132312.130000", "132312.590000", "132313.050000", "132313.510000", "132313.970000", "132314.430000", "132314.890000", "132315.350000", "132315.810000", "132316.270000", "132316.730000", "132317.190000", "132317.650000", "132318.110000", "132318.570000", "132319.030000", "132319.490000", "132319.950000", "132320.410000", "132320.870000", "132321.330000", "132321.790000", "132322.250000", "132322.710000", "132323.170000", "132323.630000", "132324.090000", "132324.550000", "132325.010000", "132325.470000", "132325.930000", "132326.390000", "132326.850000", "132327.310000", "132327.770000", "132328.230000", "132328.690000", "132329.150000", "132329.610000", "132330.070000", "132330.530000", "132330.990000", "132331.450000", "132331.910000", "132332.370000", "132332.830000", "132333.290000", "132333.750000", "132334.210000", "132334.670000", "132335.130000", "132335.590000", "132336.050000", "132336.510000", "132336.970000", "132337.430000", "132337.890000", "132338.350000", "132338.810000", "132339.270000", "132339.730000", "132340.190000", "132340.650000", "132341.110000", "132341.570000", "132342.030000", "132342.490000", "132342.950000", "132343.410000", "132343.870000", "132344.330000", "132344.790000", "132345.250000", "132345.710000", "132346.170000", "132346.630000", "132347.090000", "132347.550000", "132348.010000", "132348.470000", "132348.930000", "132349.390000", "132349.850000", "132350.310000", "132350.770000", "132351.230000", "132351.690000", "132352.150000", "132352.610000", "132353.070000", "132353.530000", "132353.990000", "132354.450000", "132354.910000", "132355.370000", "132355.830000", "132356.290000", "132356.750000", "132357.210000", "132357.670000"],
      "ContentTime": ["132019.071000", "132019.074000", "132019.076000", "132019.079000", "132019.082000", "132019.084000", "132019.087000", "132019.090000", "132019.092000", "132019.095000", "132019.097000", "132019.100000", "132019.107000", "132019.110000", "132019.112000", "132019.115000", "132019.118000", "132019.120000", "132019.123000", "132019.125000", "132019.128000", "132019.130000", "132019.133000", "132019.136000", "132019.138000", "132019.141000", "132019.143000", "132019.157000", "132019.159000", "132019.162000", "132019.164000", "132019.167000", "132019.170000", "132019.172000", "132019.175000", "132019.177000", "132019.180000", "132019.182000", "132019.185000", "132019.187000", "132019.190000", "132039.024000", "132039.026000", "132039.029000", "132039.032000", "132039.034000", "132039.037000", "132039.039000", "132039.042000", "132039.045000", "132039.047000", "132039.050000", "132039.052000", "132039.055000", "132039.057000", "132039.060000", "132039.063000", "132039.066000", "132039.068000", "132039.071000", "132039.073000", "132039.076000", "132039.078000", "132039.081000", "132039.084000", "132039.086000", "132039.089000", "132039.091000", "132039.094000", "132039.097000", "132039.099000", "132039.102000", "132039.104000", "132039.107000", "132039.109000", "132039.112000", "132039.115000", "132039.117000", "132039.120000", "132039.122000", "132039.125000", "132039.127000", "132039.130000", "132039.132000", "132059.024000", "132059.026000", "132059.029000", "132059.031000", "132059.034000", "132059.037000", "132059.040000", "132059.042000", "132059.045000", "132059.047000", "132059.050000", "132059.052000", "132059.055000", "132059.058000", "132059.060000", "132059.064000", "132059.067000", "132059.070000", "132059.072000", "132059.075000", "132059.077000", "132059.080000", "132059.083000", "132059.085000", "132059.088000", "132059.090000", "132059.093000", "132059.095000", "132059.098000", "132059.101000", "132059.103000", "132059.106000", "132059.109000", "132059.111000", "132059.114000", "132059.116000", "132059.119000", "132059.122000", "132059.124000", "132059.127000", "132059.129000", "132059.132000", "132059.135000", "132059.137000", "132119.023000", "132119.026000", "132119.029000", "132119.032000", "132119.034000", "132119.037000", "132119.040000", "132119.042000", "132119.045000", "132119.047000", "132119.050000", "132119.053000", "132119.055000", "132119.058000", "132119.060000", "132119.063000", "132119.066000", "132119.068000", "132119.071000", "132119.073000", "132119.076000", "132119.078000", "132119.081000", "132119.084000", "132119.086000", "132119.089000", "132119.092000", "132119.094000", "132119.097000", "132119.099000", "132119.102000", "132119.104000", "132119.107000", "132119.110000", "132119.117000", "132119.119000", "132119.122000", "132119.124000", "132119.127000", "132119.130000", "132119.132000", "132119.135000", "132119.138000", "132139.023000", "132139.025000", "132139.028000", "132139.031000", "132139.033000", "132139.036000", "132139.038000", "132139.041000", "132139.043000", "132139.046000", "132139.048000", "132139.051000", "132139.054000", "132139.057000", "132139.059000", "132139.062000", "132139.064000", "132139.067000", "132139.069000", "132139.072000", "132139.075000", "132139.077000", "132139.080000", "132139.083000", "132139.085000", "132139.088000", "132139.091000", "132139.093000", "132139.096000", "132139.098000", "132139.101000", "132139.103000", "132139.106000", "132139.109000", "132139.111000", "132139.114000", "132139.117000", "132139.119000", "132139.122000", "132139.124000", "132139.127000", "132139.129000", "132139.132000", "132139.135000", "132159.022000", "132159.025000", "132159.028000", "132159.031000", "132159.033000", "132159.036000", "132159.038000", "132159.041000", "132159.044000", "132159.046000", "132159.049000", "132159.051000", "132159.054000", "132159.057000", "132159.060000", "132159.062000", "132159.065000", "132159.067000", "132159.070000", "132159.072000", "132159.075000", "132159.078000", "132159.080000", "132159.083000", "132159.085000", "132159.101000", "132159.103000", "132159.106000", "132159.109000", "132159.111000", "132159.114000", "132159.116000", "132159.119000", "132159.122000", "132159.124000", "132159.131000", "132159.133000", "132159.136000", "132159.139000", "132159.141000", "132159.144000", "132159.146000", "132159.149000", "132219.023000", "132219.025000", "132219.028000", "132219.030000", "132219.033000", "132219.036000", "132219.039000", "132219.042000", "132219.044000", "132219.047000", "132219.050000", "132219.053000", "132219.055000", "132219.058000", "132219.061000", "132219.063000", "132219.066000", "132219.069000", "132219.071000", "132219.074000", "132219.076000", "132219.079000", "132219.081000", "132219.084000", "132219.087000", "132219.089000", "132219.092000", "132219.095000", "132219.097000", "132219.100000", "132219.102000", "132219.105000", "132219.108000", "132219.110000", "132219.113000", "132219.116000", "132219.118000", "132219.121000", "132219.123000", "132219.126000", "132219.129000", "132219.131000", "132219.134000", "132219.136000", "132239.022000", "132239.025000", "132239.028000", "132239.030000", "132239.033000", "132239.036000", "132239.038000", "132239.041000", "132239.043000", "132239.046000", "132239.049000", "132239.051000", "132239.054000", "132239.056000", "132239.059000", "132239.062000", "132239.064000", "132239.067000", "132239.069000", "132239.072000", "132239.080000", "132239.082000", "132239.085000", "132239.088000", "132239.091000", "132239.094000", "132239.097000", "132239.099000", "132239.102000", "132239.105000", "132239.107000", "132239.110000", "132239.112000", "132239.115000", "132239.118000", "132239.120000", "132239.123000", "132239.126000", "132239.128000", "132239.131000", "132239.133000", "132239.136000", "132239.139000", "132259.024000", "132259.026000", "132259.029000", "132259.031000", "132259.034000", "132259.037000", "132259.039000", "132259.042000", "132259.045000", "132259.047000", "132259.050000", "132259.052000", "132259.055000", "132259.058000", "132259.060000", "132259.063000", "132259.065000", "132259.068000", "132259.070000", "132259.073000", "132259.076000", "132259.078000", "132259.081000", "132259.083000", "132259.086000", "132259.089000", "132259.091000", "132259.094000", "132259.096000", "132259.099000", "132259.102000", "132259.104000", "132259.107000", "132259.110000", "132259.112000", "132259.115000", "132259.117000", "132259.120000", "132259.123000", "132259.125000", "132259.128000", "132259.130000", "132259.133000", "132259.136000", "132319.024000", "132319.026000", "132319.029000", "132319.032000", "132319.034000", "132319.037000", "132319.039000", "132319.042000", "132319.045000", "132319.047000", "132319.050000", "132319.052000", "132319.055000", "132319.058000", "132319.060000", "132319.063000", "132319.065000", "132319.068000", "132319.070000", "132319.073000", "132319.076000", "132319.078000", "132319.081000", "132319.084000", "132319.086000", "132319.089000", "132319.091000", "132319.094000", "132319.097000", "132319.099000", "132319.102000", "132319.105000", "132319.107000", "132319.110000", "132319.112000", "132319.115000", "132319.118000", "132319.120000", "132319.123000", "132319.125000", "132319.128000", "132319.131000", "132319.133000", "132339.024000", "132339.027000", "132339.029000", "132339.032000", "132339.035000", "132339.037000", "132339.040000", "132339.053000", "132339.056000", "132339.058000", "132339.061000", "132339.063000", "132339.066000", "132339.068000", "132339.071000", "132339.074000", "132339.076000", "132339.080000", "132339.082000", "132339.085000", "132339.088000", "132339.090000", "132339.093000", "132339.096000", "132339.098000", "132339.101000", "132339.103000", "132339.106000", "132339.109000", "132339.111000", "132339.114000", "132339.117000", "132339.120000", "132339.122000", "132339.125000", "132339.128000", "132339.130000", "132339.133000", "132339.136000", "132339.138000", "132339.141000", "132339.144000", "132339.146000", "132359.022000", "132359.025000", "132359.028000", "132359.031000", "132359.033000", "132359.036000", "132359.038000", "132359.041000", "132359.044000", "132359.046000", "132359.049000", "132359.051000", "132359.054000", "132359.057000", "132359.059000", "132359.062000", "132359.065000", "132359.067000", "132359.070000", "132359.072000", "132359.075000", "132359.078000", "132359.080000", "132359.083000", "132359.085000", "132359.088000", "132359.091000", "132359.093000", "132359.096000", "132359.098000", "132359.101000", "132359.104000", "132359.106000", "132359.109000", "132359.111000", "132359.114000", "132359.117000", "132359.119000", "132359.122000", "132359.124000", "132359.127000", "132359.129000", "132359.132000", "132359.135000", "132359.487000"],
