{
  "AcquisitionMatrixPE": 82,
  "AcquisitionNumber": 1,
  "AcquisitionTime": "12:26:9.120000",
  "BandwidthPerPixelPhaseEncode": 24.888,
  "BaseResolution": 82,
  "BodyPartExamined": "BRAIN",
  "ConsistencyInfo": "N4_VE11E_LATEST_20181129",
  "ConversionSoftware": "dcm2niix",
  "ConversionSoftwareVersion": "v1.0.20201102",
  "DerivedVendorReportedEchoSpacing": 0.00049,
  "DeviceSerialNumber": "66112",
  "DwellTime": 2e-06,
  "EchoTime": 0.0272,
  "EchoTrainLength": 82,
  "EffectiveEchoSpacing": 0.00049,
  "FlipAngle": 44,
  "ImageComments": "Unaliased MB8/PE3",
  "ImageOrientationPatientDICOM": [0.998671, 0.0390786, 0.0335939, -0.0387142, 0.999185, -0.0114278],
  "ImageType": [
    "ORIGINAL",
    "PRIMARY",
    "M",
    "MB",
    "ND",
    "NORM",
    "MOSAIC"
],
  "ImagingFrequency": 123.252,
  "InPlanePhaseEncodingDirectionDICOM": "COL",
  "InstitutionAddress": "Maynard 3,Hanover,NH,US,03755",
  "InstitutionName": "Dartmouth College - PBS",
  "InstitutionalDepartmentName": "Department",
  "MRAcquisitionType": "2D",
  "MagneticFieldStrength": 3,
  "Manufacturer": "Siemens",
  "ManufacturersModelName": "Prisma",
  "Modality": "MR",
  "MultibandAccelerationFactor": 8,
  "PartialFourier": 1,
  "PatientPosition": "HFS",
  "PercentPhaseFOV": 100,
  "PercentSampling": 100,
  "PhaseEncodingDirection": "j-",
  "PhaseEncodingSteps": 82,
  "PhaseResolution": 1,
  "PixelBandwidth": 3050,
  "ProcedureStepDescription": "Wager_Wager^1076_spacetop",
  "ProtocolName": "func_run-01_task-social_acq-ap-mb8",
  "PulseSequenceDetails": "%CustomerSeq%\\cmrr_mbep2d_bold",
  "ReceiveCoilActiveElements": "HEA;HEP",
  "ReceiveCoilName": "Head_32",
  "ReconMatrixPE": 82,
  "RepetitionTime": 0.46,
  "SAR": 0.108209,
  "ScanOptions": "FS",
  "ScanningSequence": "EP",
  "SequenceName": "epfid2d1_82",
  "SequenceVariant": "SK\\SS",
  "SeriesDescription": "func_run-01_task-social_acq-ap-mb8",
  "SeriesNumber": 8,
  "ShimSetting": [4148, -7740, -7267, 453, -60, -281, 131, 65],
  "SliceThickness": 2.7,
  "SliceTiming": [0, 0.25, 0.0625, 0.3125, 0.125, 0.3775, 0.1875, 0, 0.25, 0.0625, 0.3125, 0.125, 0.3775, 0.1875, 0, 0.25, 0.0625, 0.3125, 0.125, 0.3775, 0.1875, 0, 0.25, 0.0625, 0.3125, 0.125, 0.3775, 0.1875, 0, 0.25, 0.0625, 0.3125, 0.125, 0.3775, 0.1875, 0, 0.25, 0.0625, 0.3125, 0.125, 0.3775, 0.1875, 0, 0.25, 0.0625, 0.3125, 0.125, 0.3775, 0.1875, 0, 0.25, 0.0625, 0.3125, 0.125, 0.3775, 0.1875],
  "SoftwareVersions": "syngo MR E11",
  "SpacingBetweenSlices": 2.7,
  "StationName": "AWP66112",
  "TaskName": "social",
  "TotalReadoutTime": 0.03969,
  "TxRefAmp": 281.353,
  "WipMemBlock": "e1f51987-ccdf-4ec9-80f1-a75b16cb2199||Sequence: R016 ve11e/master r/434b28f1; Aug  7 2019 18:53:46 by eja",
  "dcmmeta_affine": [
    [-2.6793620586395264, -0.10386747121810913, 0.09183529764413834, 116.36433410644531],
    [-0.10484489798545837, 2.6807403564453125, -0.027302658185362816, -92.03230285644531],
    [0.09012989699840546, 0.030660061165690422, 2.6982996463775635, -83.92647552490234],
    [0.0, 0.0, 0.0, 1.0]
],
  "dcmmeta_reorient_transform": [
    [0.0, -1.0, 0.0, 81.0],
    [1.0, 0.0, 0.0, 0.0],
    [0.0, 0.0, 1.0, 0.0],
    [0.0, 0.0, 0.0, 1.0]
],
  "dcmmeta_shape": [82, 82, 56, 872],
  "dcmmeta_slice_dim": 2,
  "dcmmeta_version": 0.6,
  "global": {
    "const": {
      "AccessionNumber": "A004147",
      "AcquisitionMatrix": [82, 0, 0, 82],
      "AngioFlag": "N",
      "BitsAllocated": 16,
      "BitsStored": 16,
      "BodyPartExamined": "BRAIN",
      "Columns": 656,
      "EchoNumbers": 1,
      "EchoTime": 27.2,
      "EchoTrainLength": 82,
      "FlipAngle": 44.0,
      "HighBit": 15,
      "ImageOrientationPatient": [0.99867127660191, 0.0390785520623, 0.03359386936671, -0.0387142371451, 0.99918497401357, -0.0114278409059],
      "ImagePositionPatient": [-847.11801072302, -924.57059015856, -98.510850993993],
      "ImageType": [
        "ORIGINAL",
        "PRIMARY",
        "M",
        "MB",
        "ND",
        "NORM",
        "MOSAIC"
],
      "ImagedNucleus": "1H",
      "ImagingFrequency": 123.252119,
      "InPlanePhaseEncodingDirection": "COL",
      "MRAcquisitionType": "2D",
      "MagneticFieldStrength": 3.0,
      "Manufacturer": "SIEMENS",
      "ManufacturerModelName": "Prisma",
      "Modality": "MR",
      "NumberOfAverages": 1.0,
      "NumberOfPhaseEncodingSteps": 82,
      "PercentPhaseFieldOfView": 100.0,
      "PercentSampling": 100.0,
      "PerformedProcedureStepStartTime": "113104.571000",
      "PhotometricInterpretation": "MONOCHROME2",
      "PixelBandwidth": 3050.0,
      "PixelRepresentation": 0,
      "PixelSpacing": [2.6829268932343, 2.6829268932343],
      "ProtocolName": "func_run-01_task-social_acq-ap-mb8",
      "RepetitionTime": 460.0,
      "Rows": 656,
      "SAR": 0.10820941998415,
      "SamplesPerPixel": 1,
      "ScanOptions": "FS",
      "ScanningSequence": "EP",
      "SequenceName": "epfid2d1_82",
      "SequenceVariant": [
        "SK",
        "SS"
],
      "SeriesDescription": "func_run-01_task-social_acq-ap-mb8",
      "SeriesNumber": 8,
      "SeriesTime": "122638.960000",
      "SliceLocation": -78.985071144756,
      "SliceThickness": 2.7000000476837,
      "SmallestImagePixelValue": 0,
      "SoftwareVersions": "syngo MR E11",
      "SpacingBetweenSlices": 2.6999999950921,
      "SpecificCharacterSet": "ISO_IR 100",
      "StudyID": "1",
      "StudyTime": "113104.518000",
      "TransmitCoilName": "Body",
      "VariableFlipAngleFlag": "N",
      "WindowCenterWidthExplanation": "Algo1"
    },
    "slices": {}
  },
  "time": {
    "samples": {
      "AcquisitionNumber": [1, 2, 3, 4, 5, 6, 7, 8, 9, 10, 11, 12, 13, 14, 15, 16, 17, 18, 19, 20, 21, 22, 23, 24, 25, 26, 27, 28, 29, 30, 31, 32, 33, 34, 35, 36, 37, 38, 39, 40, 41, 42, 43, 44, 45, 46, 47, 48, 49, 50, 51, 52, 53, 54, 55, 56, 57, 58, 59, 60, 61, 62, 63, 64, 65, 66, 67, 68, 69, 70, 71, 72, 73, 74, 75, 76, 77, 78, 79, 80, 81, 82, 83, 84, 85, 86, 87, 88, 89, 90, 91, 92, 93, 94, 95, 96, 97, 98, 99, 100, 101, 102, 103, 104, 105, 106, 107, 108, 109, 110, 111, 112, 113, 114, 115, 116, 117, 118, 119, 120, 121, 122, 123, 124, 125, 126, 127, 128, 129, 130, 131, 132, 133, 134, 135, 136, 137, 138, 139, 140, 141, 142, 143, 144, 145, 146, 147, 148, 149, 150, 151, 152, 153, 154, 155, 156, 157, 158, 159, 160, 161, 162, 163, 164, 165, 166, 167, 168, 169, 170, 171, 172, 173, 174, 175, 176, 177, 178, 179, 180, 181, 182, 183, 184, 185, 186, 187, 188, 189, 190, 191, 192, 193, 194, 195, 196, 197, 198, 199, 200, 201, 202, 203, 204, 205, 206, 207, 208, 209, 210, 211, 212, 213, 214, 215, 216, 217, 218, 219, 220, 221, 222, 223, 224, 225, 226, 227, 228, 229, 230, 231, 232, 233, 234, 235, 236, 237, 238, 239, 240, 241, 242, 243, 244, 245, 246, 247, 248, 249, 250, 251, 252, 253, 254, 255, 256, 257, 258, 259, 260, 261, 262, 263, 264, 265, 266, 267, 268, 269, 270, 271, 272, 273, 274, 275, 276, 277, 278, 279, 280, 281, 282, 283, 284, 285, 286, 287, 288, 289, 290, 291, 292, 293, 294, 295, 296, 297, 298, 299, 300, 301, 302, 303, 304, 305, 306, 307, 308, 309, 310, 311, 312, 313, 314, 315, 316, 317, 318, 319, 320, 321, 322, 323, 324, 325, 326, 327, 328, 329, 330, 331, 332, 333, 334, 335, 336, 337, 338, 339, 340, 341, 342, 343, 344, 345, 346, 347, 348, 349, 350, 351, 352, 353, 354, 355, 356, 357, 358, 359, 360, 361, 362, 363, 364, 365, 366, 367, 368, 369, 370, 371, 372, 373, 374, 375, 376, 377, 378, 379, 380, 381, 382, 383, 384, 385, 386, 387, 388, 389, 390, 391, 392, 393, 394, 395, 396, 397, 398, 399, 400, 401, 402, 403, 404, 405, 406, 407, 408, 409, 410, 411, 412, 413, 414, 415, 416, 417, 418, 419, 420, 421, 422, 423, 424, 425, 426, 427, 428, 429, 430, 431, 432, 433, 434, 435, 436, 437, 438, 439, 440, 441, 442, 443, 444, 445, 446, 447, 448, 449, 450, 451, 452, 453, 454, 455, 456, 457, 458, 459, 460, 461, 462, 463, 464, 465, 466, 467, 468, 469, 470, 471, 472, 473, 474, 475, 476, 477, 478, 479, 480, 481, 482, 483, 484, 485, 486, 487, 488, 489, 490, 491, 492, 493, 494, 495, 496, 497, 498, 499, 500, 501, 502, 503, 504, 505, 506, 507, 508, 509, 510, 511, 512, 513, 514, 515, 516, 517, 518, 519, 520, 521, 522, 523, 524, 525, 526, 527, 528, 529, 530, 531, 532, 533, 534, 535, 536, 537, 538, 539, 540, 541, 542, 543, 544, 545, 546, 547, 548, 549, 550, 551, 552, 553, 554, 555, 556, 557, 558, 559, 560, 561, 562, 563, 564, 565, 566, 567, 568, 569, 570, 571, 572, 573, 574, 575, 576, 577, 578, 579, 580, 581, 582, 583, 584, 585, 586, 587, 588, 589, 590, 591, 592, 593, 594, 595, 596, 597, 598, 599, 600, 601, 602, 603, 604, 605, 606, 607, 608, 609, 610, 611, 612, 613, 614, 615, 616, 617, 618, 619, 620, 621, 622, 623, 624, 625, 626, 627, 628, 629, 630, 631, 632, 633, 634, 635, 636, 637, 638, 639, 640, 641, 642, 643, 644, 645, 646, 647, 648, 649, 650, 651, 652, 653, 654, 655, 656, 657, 658, 659, 660, 661, 662, 663, 664, 665, 666, 667, 668, 669, 670, 671, 672, 673, 674, 675, 676, 677, 678, 679, 680, 681, 682, 683, 684, 685, 686, 687, 688, 689, 690, 691, 692, 693, 694, 695, 696, 697, 698, 699, 700, 701, 702, 703, 704, 705, 706, 707, 708, 709, 710, 711, 712, 713, 714, 715, 716, 717, 718, 719, 720, 721, 722, 723, 724, 725, 726, 727, 728, 729, 730, 731, 732, 733, 734, 735, 736, 737, 738, 739, 740, 741, 742, 743, 744, 745, 746, 747, 748, 749, 750, 751, 752, 753, 754, 755, 756, 757, 758, 759, 760, 761, 762, 763, 764, 765, 766, 767, 768, 769, 770, 771, 772, 773, 774, 775, 776, 777, 778, 779, 780, 781, 782, 783, 784, 785, 786, 787, 788, 789, 790, 791, 792, 793, 794, 795, 796, 797, 798, 799, 800, 801, 802, 803, 804, 805, 806, 807, 808, 809, 810, 811, 812, 813, 814, 815, 816, 817, 818, 819, 820, 821, 822, 823, 824, 825, 826, 827, 828, 829, 830, 831, 832, 833, 834, 835, 836, 837, 838, 839, 840, 841, 842, 843, 844, 845, 846, 847, 848, 849, 850, 851, 852, 853, 854, 855, 856, 857, 858, 859, 860, 861, 862, 863, 864, 865, 866, 867, 868, 869, 870, 871, 872],
      "AcquisitionTime": ["122609.120000", "122609.580000", "122610.040000", "122610.500000", "122610.960000", "122611.420000", "122611.880000", "122612.340000", "122612.800000", "122613.260000", "122613.720000", "122614.180000", "122614.640000", "122615.100000", "122615.560000", "122616.020000", "122616.480000", "122616.940000", "122617.400000", "122617.860000", "122618.320000", "122618.780000", "122619.240000", "122619.700000", "122620.160000", "122620.620000", "122621.080000", "122621.540000", "122622.000000", "122622.460000", "122622.920000", "122623.380000", "122623.840000", "122624.300000", "122624.760000", "122625.220000", "122625.680000", "122626.140000", "122626.600000", "122627.060000", "122627.520000", "122627.980000", "122628.440000", "122628.900000", "122629.360000", "122629.820000", "122630.280000", "122630.740000", "122631.200000", "122631.660000", "122632.120000", "122632.580000", "122633.040000", "122633.500000", "122633.960000", "122634.420000", "122634.880000", "122635.340000", "122635.800000", "122636.260000", "122636.720000", "122637.180000", "122637.640000", "122638.100000", "122638.560000", "122639.020000", "122639.480000", "122639.940000", "122640.400000", "122640.860000", "122641.320000", "122641.780000", "122642.240000", "122642.700000", "122643.160000", "122643.620000", "122644.080000", "122644.540000", "122645.000000", "122645.460000", "122645.920000", "122646.380000", "122646.840000", "122647.300000", "122647.760000", "122648.220000", "122648.680000", "122649.140000", "122649.600000", "122650.060000", "122650.520000", "122650.980000", "122651.440000", "122651.900000", "122652.360000", "122652.820000", "122653.280000", "122653.740000", "122654.200000", "122654.660000", "122655.120000", "122655.580000", "122656.040000", "122656.500000", "122656.960000", "122657.420000", "122657.880000", "122658.340000", "122658.800000", "122659.260000", "122659.720000", "122700.180000", "122700.640000", "122701.100000", "122701.560000", "122702.020000", "122702.480000", "122702.940000", "122703.400000", "122703.860000", "122704.320000", "122704.780000", "122705.240000", "122705.700000", "122706.160000", "122706.620000", "122707.080000", "122707.540000", "122708.000000", "122708.460000", "122708.920000", "122709.380000", "122709.840000", "122710.300000", "122710.760000", "122711.220000", "122711.680000", "122712.140000", "122712.600000", "122713.060000", "122713.520000", "122713.980000", "122714.440000", "122714.900000", "122715.360000", "122715.820000", "122716.280000", "122716.740000", "122717.200000", "122717.660000", "122718.120000", "122718.580000", "122719.040000", "122719.500000", "122719.960000", "122720.420000", "122720.880000", "122721.340000", "122721.800000", "122722.260000", "122722.720000", "122723.180000", "122723.640000", "122724.100000", "122724.560000", "122725.020000", "122725.480000", "122725.940000", "122726.400000", "122726.860000", "122727.320000", "122727.780000", "122728.240000", "122728.700000", "122729.160000", "122729.620000", "122730.080000", "122730.540000", "122731.000000", "122731.460000", "122731.920000", "122732.380000", "122732.840000", "122733.300000", "122733.760000", "122734.220000", "122734.680000", "122735.140000", "122735.600000", "122736.060000", "122736.520000", "122736.980000", "122737.440000", "122737.900000", "122738.360000", "122738.820000", "122739.280000", "122739.740000", "122740.200000", "122740.660000", "122741.120000", "122741.580000", "122742.040000", "122742.500000", "122742.960000", "122743.420000", "122743.880000", "122744.340000", "122744.800000", "122745.260000", "122745.720000", "122746.180000", "122746.640000", "122747.100000", "122747.560000", "122748.020000", "122748.480000", "122748.940000", "122749.400000", "122749.860000", "122750.320000", "122750.780000", "122751.240000", "122751.700000", "122752.160000", "122752.620000", "122753.080000", "122753.540000", "122754.000000", "122754.460000", "122754.920000", "122755.380000", "122755.840000", "122756.300000", "122756.760000", "122757.220000", "122757.680000", "122758.140000", "122758.600000", "122759.060000", "122759.520000", "122759.980000", "122800.440000", "122800.900000", "122801.360000", "122801.820000", "122802.280000", "122802.740000", "122803.200000", "122803.660000", "122804.120000", "122804.580000", "122805.040000", "122805.500000", "122805.960000", "122806.420000", "122806.880000", "122807.340000", "122807.800000", "122808.260000", "122808.720000", "122809.180000", "122809.640000", "122810.100000", "122810.560000", "122811.020000", "122811.480000", "122811.940000", "122812.400000", "122812.860000", "122813.320000", "122813.780000", "122814.240000", "122814.700000", "122815.160000", "122815.620000", "122816.080000", "122816.540000", "122817.000000", "122817.460000", "122817.920000", "122818.380000", "122818.840000", "122819.300000", "122819.760000", "122820.220000", "122820.680000", "122821.140000", "122821.600000", "122822.060000", "122822.520000", "122822.980000", "122823.440000", "122823.900000", "122824.360000", "122824.820000", "122825.280000", "122825.740000", "122826.200000", "122826.660000", "122827.120000", "122827.580000", "122828.040000", "122828.500000", "122828.960000", "122829.420000", "122829.880000", "122830.340000", "122830.800000", "122831.260000", "122831.720000", "122832.180000", "122832.640000", "122833.100000", "122833.560000", "122834.020000", "122834.480000", "122834.940000", "122835.400000", "122835.860000", "122836.320000", "122836.780000", "122837.240000", "122837.700000", "122838.160000", "122838.620000", "122839.080000", "122839.540000", "122840.000000", "122840.460000", "122840.920000", "122841.380000", "122841.840000", "122842.300000", "122842.760000", "122843.220000", "122843.680000", "122844.140000", "122844.600000", "122845.060000", "122845.520000", "122845.980000", "122846.440000", "122846.900000", "122847.360000", "122847.820000", "122848.280000", "122848.740000", "122849.200000", "122849.660000", "122850.120000", "122850.580000", "122851.040000", "122851.500000", "122851.960000", "122852.420000", "122852.880000", "122853.340000", "122853.800000", "122854.260000", "122854.720000", "122855.180000", "122855.640000", "122856.100000", "122856.560000", "122857.020000", "122857.480000", "122857.940000", "122858.400000", "122858.860000", "122859.320000", "122859.780000", "122900.240000", "122900.700000", "122901.160000", "122901.620000", "122902.080000", "122902.540000", "122903.000000", "122903.460000", "122903.920000", "122904.380000", "122904.840000", "122905.300000", "122905.760000", "122906.220000", "122906.680000", "122907.140000", "122907.600000", "122908.060000", "122908.520000", "122908.980000", "122909.440000", "122909.900000", "122910.360000", "122910.820000", "122911.280000", "122911.740000", "122912.200000", "122912.660000", "122913.120000", "122913.580000", "122914.040000", "122914.500000", "122914.960000", "122915.420000", "122915.880000", "122916.340000", "122916.800000", "122917.260000", "122917.720000", "122918.180000", "122918.640000", "122919.100000", "122919.560000", "122920.020000", "122920.480000", "122920.940000", "122921.400000", "122921.860000", "122922.320000", "122922.780000", "122923.240000", "122923.700000", "122924.160000", "122924.620000", "122925.080000", "122925.540000", "122926.000000", "122926.460000", "122926.920000", "122927.380000", "122927.840000", "122928.300000", "122928.760000", "122929.220000", "122929.680000", "122930.140000", "122930.600000", "122931.060000", "122931.520000", "122931.980000", "122932.440000", "122932.900000", "122933.360000", "122933.820000", "122934.280000", "122934.740000", "122935.200000", "122935.660000", "122936.120000", "122936.580000", "122937.040000", "122937.500000", "122937.960000", "122938.420000", "122938.880000", "122939.340000", "122939.800000", "122940.260000", "122940.720000", "122941.180000", "122941.640000", "122942.100000", "122942.560000", "122943.020000", "122943.480000", "122943.940000", "122944.400000", "122944.860000", "122945.320000", "122945.780000", "122946.240000", "122946.700000", "122947.160000", "122947.620000", "122948.080000", "122948.540000", "122949.000000", "122949.460000", "122949.920000", "122950.380000", "122950.840000", "122951.300000", "122951.760000", "122952.220000", "122952.680000", "122953.140000", "122953.600000", "122954.060000", "122954.520000", "122954.980000", "122955.440000", "122955.900000", "122956.360000", "122956.820000", "122957.280000", "122957.740000", "122958.200000", "122958.660000", "122959.120000", "122959.580000", "123000.040000", "123000.500000", "123000.960000", "123001.420000", "123001.880000", "123002.340000", "123002.800000", "123003.260000", "123003.720000", "123004.180000", "123004.640000", "123005.100000", "123005.560000", "123006.020000", "123006.480000", "123006.940000", "123007.400000", "123007.860000", "123008.320000", "123008.780000", "123009.240000", "123009.700000", "123010.160000", "123010.620000", "123011.080000", "123011.540000", "123012.000000", "123012.460000", "123012.920000", "123013.380000", "123013.840000", "123014.300000", "123014.760000", "123015.220000", "123015.680000", "123016.140000", "123016.600000", "123017.060000", "123017.520000", "123017.980000", "123018.440000", "123018.900000", "123019.360000", "123019.820000", "123020.280000", "123020.740000", "123021.200000", "123021.660000", "123022.120000", "123022.580000", "123023.040000", "123023.500000", "123023.960000", "123024.420000", "123024.880000", "123025.340000", "123025.800000", "123026.260000", "123026.720000", "123027.180000", "123027.640000", "123028.100000", "123028.560000", "123029.020000", "123029.480000", "123029.940000", "123030.400000", "123030.860000", "123031.320000", "123031.780000", "123032.240000", "123032.700000", "123033.160000", "123033.620000", "123034.080000", "123034.540000", "123035.000000", "123035.460000", "123035.920000", "123036.380000", "123036.840000", "123037.300000", "123037.760000", "123038.220000", "123038.680000", "123039.140000", "123039.600000", "123040.060000", "123040.520000", "123040.980000", "123041.440000", "123041.900000", "123042.360000", "123042.820000", "123043.280000", "123043.740000", "123044.200000", "123044.660000", "123045.120000", "123045.580000", "123046.040000", "123046.500000", "123046.960000", "123047.420000", "123047.880000", "123048.340000", "123048.800000", "123049.260000", "123049.720000", "123050.180000", "123050.640000", "123051.100000", "123051.560000", "123052.020000", "123052.480000", "123052.940000", "123053.400000", "123053.860000", "123054.320000", "123054.780000", "123055.240000", "123055.700000", "123056.160000", "123056.620000", "123057.080000", "123057.540000", "123058.000000", "123058.460000", "123058.920000", "123059.380000", "123059.840000", "123100.300000", "123100.760000", "123101.220000", "123101.680000", "123102.140000", "123102.600000", "123103.060000", "123103.520000", "123103.980000", "123104.440000", "123104.900000", "123105.360000", "123105.820000", "123106.280000", "123106.740000", "123107.200000", "123107.660000", "123108.120000", "123108.580000", "123109.040000", "123109.500000", "123109.960000", "123110.420000", "123110.880000", "123111.340000", "123111.800000", "123112.260000", "123112.720000", "123113.180000", "123113.640000", "123114.100000", "123114.560000", "123115.020000", "123115.480000", "123115.940000", "123116.400000", "123116.860000", "123117.320000", "123117.780000", "123118.240000", "123118.700000", "123119.160000", "123119.620000", "123120.080000", "123120.540000", "123121.000000", "123121.460000", "123121.920000", "123122.380000", "123122.840000", "123123.300000", "123123.760000", "123124.220000", "123124.680000", "123125.140000", "123125.600000", "123126.060000", "123126.520000", "123126.980000", "123127.440000", "123127.900000", "123128.360000", "123128.820000", "123129.280000", "123129.740000", "123130.200000", "123130.660000", "123131.120000", "123131.580000", "123132.040000", "123132.500000", "123132.960000", "123133.420000", "123133.880000", "123134.340000", "123134.800000", "123135.260000", "123135.720000", "123136.180000", "123136.640000", "123137.100000", "123137.560000", "123138.020000", "123138.480000", "123138.940000", "123139.400000", "123139.860000", "123140.320000", "123140.780000", "123141.240000", "123141.700000", "123142.160000", "123142.620000", "123143.080000", "123143.540000", "123144.000000", "123144.460000", "123144.920000", "123145.380000", "123145.840000", "123146.300000", "123146.760000", "123147.220000", "123147.680000", "123148.140000", "123148.600000", "123149.060000", "123149.520000", "123149.980000", "123150.440000", "123150.900000", "123151.360000", "123151.820000", "123152.280000", "123152.740000", "123153.200000", "123153.660000", "123154.120000", "123154.580000", "123155.040000", "123155.500000", "123155.960000", "123156.420000", "123156.880000", "123157.340000", "123157.800000", "123158.260000", "123158.720000", "123159.180000", "123159.640000", "123200.100000", "123200.560000", "123201.020000", "123201.480000", "123201.940000", "123202.400000", "123202.860000", "123203.320000", "123203.780000", "123204.240000", "123204.700000", "123205.160000", "123205.620000", "123206.080000", "123206.540000", "123207.000000", "123207.460000", "123207.920000", "123208.380000", "123208.840000", "123209.300000", "123209.760000", "123210.220000", "123210.680000", "123211.140000", "123211.600000", "123212.060000", "123212.520000", "123212.980000", "123213.440000", "123213.900000", "123214.360000", "123214.820000", "123215.280000", "123215.740000", "123216.200000", "123216.660000", "123217.120000", "123217.580000", "123218.040000", "123218.500000", "123218.960000", "123219.420000", "123219.880000", "123220.340000", "123220.800000", "123221.260000", "123221.720000", "123222.180000", "123222.640000", "123223.100000", "123223.560000", "123224.020000", "123224.480000", "123224.940000", "123225.400000", "123225.860000", "123226.320000", "123226.780000", "123227.240000", "123227.700000", "123228.160000", "123228.620000", "123229.080000", "123229.540000", "123230.000000", "123230.460000", "123230.920000", "123231.380000", "123231.840000", "123232.300000", "123232.760000", "123233.220000", "123233.680000", "123234.140000", "123234.600000", "123235.060000", "123235.520000", "123235.980000", "123236.440000", "123236.900000", "123237.360000", "123237.820000", "123238.280000", "123238.740000", "123239.200000", "123239.660000", "123240.120000", "123240.580000", "123241.040000", "123241.500000", "123241.960000", "123242.420000", "123242.880000", "123243.340000", "123243.800000", "123244.260000", "123244.720000", "123245.180000", "123245.640000", "123246.100000", "123246.560000", "123247.020000", "123247.480000", "123247.940000", "123248.400000", "123248.860000", "123249.320000", "123249.780000"],
