{
  "AcquisitionMatrixPE": 82,
  "AcquisitionNumber": 1,
  "AcquisitionTime": "13:38:11.682500",
  "BandwidthPerPixelPhaseEncode": 24.888,
  "BaseResolution": 82,
  "BodyPartExamined": "BRAIN",
  "ConsistencyInfo": "N4_VE11E_LATEST_20181129",
  "ConversionSoftware": "dcm2niix",
  "ConversionSoftwareVersion": "v1.0.20201102",
  "DerivedVendorReportedEchoSpacing": 0.00049,
  "DeviceSerialNumber": "66112",
  "DwellTime": 2e-06,
  "EchoTime": 0.0272,
  "EchoTrainLength": 82,
  "EffectiveEchoSpacing": 0.00049,
  "FlipAngle": 44,
  "ImageComments": "Unaliased MB8/PE3",
  "ImageOrientationPatientDICOM": [0.997389, 0.0673803, 0.0259899, -0.0671207, 0.997687, -0.0107339],
  "ImageType": [
    "ORIGINAL",
    "PRIMARY",
    "M",
    "MB",
    "ND",
    "NORM",
    "MOSAIC"
],
  "ImagingFrequency": 123.252,
  "InPlanePhaseEncodingDirectionDICOM": "COL",
  "InstitutionAddress": "Maynard 3,Hanover,NH,US,03755",
  "InstitutionName": "Dartmouth College - PBS",
  "InstitutionalDepartmentName": "Department",
  "MRAcquisitionType": "2D",
  "MagneticFieldStrength": 3,
  "Manufacturer": "Siemens",
  "ManufacturersModelName": "Prisma",
  "Modality": "MR",
  "MultibandAccelerationFactor": 8,
  "PartialFourier": 1,
  "PatientPosition": "HFS",
  "PercentPhaseFOV": 100,
  "PercentSampling": 100,
  "PhaseEncodingDirection": "j-",
  "PhaseEncodingSteps": 82,
  "PhaseResolution": 1,
  "PixelBandwidth": 3050,
  "ProcedureStepDescription": "Wager_Wager^1076_spacetop",
  "ProtocolName": "func_run-03_task-alignvideo_acq-ap-mb8",
  "PulseSequenceDetails": "%CustomerSeq%\\cmrr_mbep2d_bold",
  "ReceiveCoilActiveElements": "HEA;HEP",
  "ReceiveCoilName": "Head_32",
  "ReconMatrixPE": 82,
  "RepetitionTime": 0.46,
  "SAR": 0.108331,
  "ScanOptions": "FS",
  "ScanningSequence": "EP",
  "SequenceName": "epfid2d1_82",
  "SequenceVariant": "SK\\SS",
  "SeriesDescription": "func_run-03_task-alignvideo_acq-ap-mb8",
  "SeriesNumber": 30,
  "ShimSetting": [4148, -7740, -7270, 469, -62, -284, 127, 67],
  "SliceThickness": 2.7,
  "SliceTiming": [0, 0.2525, 0.065, 0.315, 0.1275, 0.3775, 0.19, 0, 0.2525, 0.065, 0.315, 0.1275, 0.3775, 0.19, 0, 0.2525, 0.065, 0.315, 0.1275, 0.3775, 0.19, 0, 0.2525, 0.065, 0.315, 0.1275, 0.3775, 0.19, 0, 0.2525, 0.065, 0.315, 0.1275, 0.3775, 0.19, 0, 0.2525, 0.065, 0.315, 0.1275, 0.3775, 0.19, 0, 0.2525, 0.065, 0.315, 0.1275, 0.3775, 0.19, 0, 0.2525, 0.065, 0.315, 0.1275, 0.3775, 0.19],
  "SoftwareVersions": "syngo MR E11",
  "SpacingBetweenSlices": 2.7,
  "StationName": "AWP66112",
  "TaskName": "alignvideo",
  "TotalReadoutTime": 0.03969,
  "TxRefAmp": 281.353,
  "WipMemBlock": "e260caa1-eb0c-41e8-bcf0-068cce6516e9||Sequence: R016 ve11e/master r/434b28f1; Aug  7 2019 18:53:46 by eja",
  "dcmmeta_affine": [
    [-2.6759212017059326, -0.18008005619049072, 0.0719631165266037, 118.70271301269531],
    [-0.18077640235424042, 2.6767215728759766, -0.02419591322541237, -89.18363189697266],
    [0.06972890347242355, 0.028798367828130722, 2.698932409286499, -83.7527847290039],
    [0.0, 0.0, 0.0, 1.0]
],
  "dcmmeta_reorient_transform": [
    [0.0, -1.0, 0.0, 81.0],
    [1.0, 0.0, 0.0, 0.0],
    [0.0, 0.0, 1.0, 0.0],
    [0.0, 0.0, 0.0, 1.0]
],
  "dcmmeta_shape": [82, 82, 56, 1065],
  "dcmmeta_slice_dim": 2,
  "dcmmeta_version": 0.6,
  "global": {
    "const": {
      "AccessionNumber": "A004147",
      "AcquisitionMatrix": [82, 0, 0, 82],
      "AngioFlag": "N",
      "BitsAllocated": 16,
      "BitsStored": 16,
      "BodyPartExamined": "BRAIN",
      "Columns": 656,
      "EchoNumbers": 1,
      "EchoTime": 27.2,
      "EchoTrainLength": 82,
      "FlipAngle": 44.0,
      "HighBit": 15,
      "ImageOrientationPatient": [0.99738880228304, 0.06738029468858, 0.0259898627948, -0.0671207441049, 0.99768711944773, -0.0107339367851],
      "ImagePositionPatient": [-820.42265256735, -947.73274690193, -93.167181456166],
      "ImageType": [
        "ORIGINAL",
        "PRIMARY",
        "M",
        "MB",
        "ND",
        "NORM",
        "MOSAIC"
],
      "ImagedNucleus": "1H",
      "ImagingFrequency": 123.25215,
      "InPlanePhaseEncodingDirection": "COL",
      "MRAcquisitionType": "2D",
      "MagneticFieldStrength": 3.0,
      "Manufacturer": "SIEMENS",
      "ManufacturerModelName": "Prisma",
      "Modality": "MR",
      "NumberOfAverages": 1.0,
      "NumberOfPhaseEncodingSteps": 82,
      "PercentPhaseFieldOfView": 100.0,
      "PercentSampling": 100.0,
      "PerformedProcedureStepStartTime": "113104.571000",
      "PhotometricInterpretation": "MONOCHROME2",
      "PixelBandwidth": 3050.0,
      "PixelRepresentation": 0,
      "PixelSpacing": [2.6829268932343, 2.6829268932343],
      "ProtocolName": "func_run-03_task-alignvideo_acq-ap-mb8",
      "RepetitionTime": 460.0,
      "Rows": 656,
      "SAR": 0.10833148316125,
      "SamplesPerPixel": 1,
      "ScanOptions": "FS",
      "ScanningSequence": "EP",
      "SequenceName": "epfid2d1_82",
      "SequenceVariant": [
        "SK",
        "SS"
],
      "SeriesDescription": "func_run-03_task-alignvideo_acq-ap-mb8",
      "SeriesNumber": 30,
      "SeriesTime": "133818.983000",
      "SliceLocation": -79.75666921309,
      "SliceThickness": 2.7000000476837,
      "SmallestImagePixelValue": 0,
      "SoftwareVersions": "syngo MR E11",
      "SpacingBetweenSlices": 2.6999999439672,
      "SpecificCharacterSet": "ISO_IR 100",
      "StudyID": "1",
      "StudyTime": "113104.518000",
      "TransmitCoilName": "Body",
      "VariableFlipAngleFlag": "N",
      "WindowCenterWidthExplanation": "Algo1"
    },
    "slices": {}
  },
  "time": {
    "samples": {
      "AcquisitionNumber": [1, 2, 3, 4, 5, 6, 7, 8, 9, 10, 11, 12, 13, 14, 15, 16, 17, 18, 19, 20, 21, 22, 23, 24, 25, 26, 27, 28, 29, 30, 31, 32, 33, 34, 35, 36, 37, 38, 39, 40, 41, 42, 43, 44, 45, 46, 47, 48, 49, 50, 51, 52, 53, 54, 55, 56, 57, 58, 59, 60, 61, 62, 63, 64, 65, 66, 67, 68, 69, 70, 71, 72, 73, 74, 75, 76, 77, 78, 79, 80, 81, 82, 83, 84, 85, 86, 87, 88, 89, 90, 91, 92, 93, 94, 95, 96, 97, 98, 99, 100, 101, 102, 103, 104, 105, 106, 107, 108, 109, 110, 111, 112, 113, 114, 115, 116, 117, 118, 119, 120, 121, 122, 123, 124, 125, 126, 127, 128, 129, 130, 131, 132, 133, 134, 135, 136, 137, 138, 139, 140, 141, 142, 143, 144, 145, 146, 147, 148, 149, 150, 151, 152, 153, 154, 155, 156, 157, 158, 159, 160, 161, 162, 163, 164, 165, 166, 167, 168, 169, 170, 171, 172, 173, 174, 175, 176, 177, 178, 179, 180, 181, 182, 183, 184, 185, 186, 187, 188, 189, 190, 191, 192, 193, 194, 195, 196, 197, 198, 199, 200, 201, 202, 203, 204, 205, 206, 207, 208, 209, 210, 211, 212, 213, 214, 215, 216, 217, 218, 219, 220, 221, 222, 223, 224, 225, 226, 227, 228, 229, 230, 231, 232, 233, 234, 235, 236, 237, 238, 239, 240, 241, 242, 243, 244, 245, 246, 247, 248, 249, 250, 251, 252, 253, 254, 255, 256, 257, 258, 259, 260, 261, 262, 263, 264, 265, 266, 267, 268, 269, 270, 271, 272, 273, 274, 275, 276, 277, 278, 279, 280, 281, 282, 283, 284, 285, 286, 287, 288, 289, 290, 291, 292, 293, 294, 295, 296, 297, 298, 299, 300, 301, 302, 303, 304, 305, 306, 307, 308, 309, 310, 311, 312, 313, 314, 315, 316, 317, 318, 319, 320, 321, 322, 323, 324, 325, 326, 327, 328, 329, 330, 331, 332, 333, 334, 335, 336, 337, 338, 339, 340, 341, 342, 343, 344, 345, 346, 347, 348, 349, 350, 351, 352, 353, 354, 355, 356, 357, 358, 359, 360, 361, 362, 363, 364, 365, 366, 367, 368, 369, 370, 371, 372, 373, 374, 375, 376, 377, 378, 379, 380, 381, 382, 383, 384, 385, 386, 387, 388, 389, 390, 391, 392, 393, 394, 395, 396, 397, 398, 399, 400, 401, 402, 403, 404, 405, 406, 407, 408, 409, 410, 411, 412, 413, 414, 415, 416, 417, 418, 419, 420, 421, 422, 423, 424, 425, 426, 427, 428, 429, 430, 431, 432, 433, 434, 435, 436, 437, 438, 439, 440, 441, 442, 443, 444, 445, 446, 447, 448, 449, 450, 451, 452, 453, 454, 455, 456, 457, 458, 459, 460, 461, 462, 463, 464, 465, 466, 467, 468, 469, 470, 471, 472, 473, 474, 475, 476, 477, 478, 479, 480, 481, 482, 483, 484, 485, 486, 487, 488, 489, 490, 491, 492, 493, 494, 495, 496, 497, 498, 499, 500, 501, 502, 503, 504, 505, 506, 507, 508, 509, 510, 511, 512, 513, 514, 515, 516, 517, 518, 519, 520, 521, 522, 523, 524, 525, 526, 527, 528, 529, 530, 531, 532, 533, 534, 535, 536, 537, 538, 539, 540, 541, 542, 543, 544, 545, 546, 547, 548, 549, 550, 551, 552, 553, 554, 555, 556, 557, 558, 559, 560, 561, 562, 563, 564, 565, 566, 567, 568, 569, 570, 571, 572, 573, 574, 575, 576, 577, 578, 579, 580, 581, 582, 583, 584, 585, 586, 587, 588, 589, 590, 591, 592, 593, 594, 595, 596, 597, 598, 599, 600, 601, 602, 603, 604, 605, 606, 607, 608, 609, 610, 611, 612, 613, 614, 615, 616, 617, 618, 619, 620, 621, 622, 623, 624, 625, 626, 627, 628, 629, 630, 631, 632, 633, 634, 635, 636, 637, 638, 639, 640, 641, 642, 643, 644, 645, 646, 647, 648, 649, 650, 651, 652, 653, 654, 655, 656, 657, 658, 659, 660, 661, 662, 663, 664, 665, 666, 667, 668, 669, 670, 671, 672, 673, 674, 675, 676, 677, 678, 679, 680, 681, 682, 683, 684, 685, 686, 687, 688, 689, 690, 691, 692, 693, 694, 695, 696, 697, 698, 699, 700, 701, 702, 703, 704, 705, 706, 707, 708, 709, 710, 711, 712, 713, 714, 715, 716, 717, 718, 719, 720, 721, 722, 723, 724, 725, 726, 727, 728, 729, 730, 731, 732, 733, 734, 735, 736, 737, 738, 739, 740, 741, 742, 743, 744, 745, 746, 747, 748, 749, 750, 751, 752, 753, 754, 755, 756, 757, 758, 759, 760, 761, 762, 763, 764, 765, 766, 767, 768, 769, 770, 771, 772, 773, 774, 775, 776, 777, 778, 779, 780, 781, 782, 783, 784, 785, 786, 787, 788, 789, 790, 791, 792, 793, 794, 795, 796, 797, 798, 799, 800, 801, 802, 803, 804, 805, 806, 807, 808, 809, 810, 811, 812, 813, 814, 815, 816, 817, 818, 819, 820, 821, 822, 823, 824, 825, 826, 827, 828, 829, 830, 831, 832, 833, 834, 835, 836, 837, 838, 839, 840, 841, 842, 843, 844, 845, 846, 847, 848, 849, 850, 851, 852, 853, 854, 855, 856, 857, 858, 859, 860, 861, 862, 863, 864, 865, 866, 867, 868, 869, 870, 871, 872, 873, 874, 875, 876, 877, 878, 879, 880, 881, 882, 883, 884, 885, 886, 887, 888, 889, 890, 891, 892, 893, 894, 895, 896, 897, 898, 899, 900, 901, 902, 903, 904, 905, 906, 907, 908, 909, 910, 911, 912, 913, 914, 915, 916, 917, 918, 919, 920, 921, 922, 923, 924, 925, 926, 927, 928, 929, 930, 931, 932, 933, 934, 935, 936, 937, 938, 939, 940, 941, 942, 943, 944, 945, 946, 947, 948, 949, 950, 951, 952, 953, 954, 955, 956, 957, 958, 959, 960, 961, 962, 963, 964, 965, 966, 967, 968, 969, 970, 971, 972, 973, 974, 975, 976, 977, 978, 979, 980, 981, 982, 983, 984, 985, 986, 987, 988, 989, 990, 991, 992, 993, 994, 995, 996, 997, 998, 999, 1000, 1001, 1002, 1003, 1004, 1005, 1006, 1007, 1008, 1009, 1010, 1011, 1012, 1013, 1014, 1015, 1016, 1017, 1018, 1019, 1020, 1021, 1022, 1023, 1024, 1025, 1026, 1027, 1028, 1029, 1030, 1031, 1032, 1033, 1034, 1035, 1036, 1037, 1038, 1039, 1040, 1041, 1042, 1043, 1044, 1045, 1046, 1047, 1048, 1049, 1050, 1051, 1052, 1053, 1054, 1055, 1056, 1057, 1058, 1059, 1060, 1061, 1062, 1063, 1064, 1065],
      "AcquisitionTime": ["133811.682500", "133812.142500", "133812.602500", "133813.062500", "133813.522500", "133813.982500", "133814.442500", "133814.902500", "133815.362500", "133815.822500", "133816.282500", "133816.742500", "133817.202500", "133817.662500", "133818.122500", "133818.582500", "133819.042500", "133819.502500", "133819.962500", "133820.422500", "133820.882500", "133821.342500", "133821.802500", "133822.262500", "133822.722500", "133823.182500", "133823.642500", "133824.102500", "133824.562500", "133825.022500", "133825.482500", "133825.942500", "133826.402500", "133826.862500", "133827.322500", "133827.782500", "133828.242500", "133828.702500", "133829.162500", "133829.622500", "133830.082500", "133830.542500", "133831.002500", "133831.462500", "133831.922500", "133832.382500", "133832.842500", "133833.302500", "133833.762500", "133834.222500", "133834.682500", "133835.142500", "133835.602500", "133836.062500", "133836.522500", "133836.982500", "133837.442500", "133837.902500", "133838.362500", "133838.822500", "133839.282500", "133839.742500", "133840.202500", "133840.662500", "133841.122500", "133841.582500", "133842.042500", "133842.502500", "133842.962500", "133843.422500", "133843.882500", "133844.342500", "133844.802500", "133845.262500", "133845.722500", "133846.182500", "133846.642500", "133847.102500", "133847.562500", "133848.022500", "133848.482500", "133848.942500", "133849.402500", "133849.862500", "133850.322500", "133850.782500", "133851.242500", "133851.702500", "133852.162500", "133852.622500", "133853.082500", "133853.542500", "133854.002500", "133854.462500", "133854.922500", "133855.382500", "133855.842500", "133856.302500", "133856.762500", "133857.222500", "133857.682500", "133858.142500", "133858.602500", "133859.062500", "133859.522500", "133859.982500", "133900.442500", "133900.902500", "133901.362500", "133901.822500", "133902.282500", "133902.742500", "133903.202500", "133903.662500", "133904.122500", "133904.582500", "133905.042500", "133905.502500", "133905.962500", "133906.422500", "133906.882500", "133907.342500", "133907.802500", "133908.262500", "133908.722500", "133909.182500", "133909.642500", "133910.102500", "133910.562500", "133911.022500", "133911.482500", "133911.942500", "133912.402500", "133912.862500", "133913.322500", "133913.782500", "133914.242500", "133914.702500", "133915.162500", "133915.622500", "133916.082500", "133916.542500", "133917.002500", "133917.462500", "133917.922500", "133918.382500", "133918.842500", "133919.302500", "133919.762500", "133920.222500", "133920.682500", "133921.142500", "133921.602500", "133922.062500", "133922.522500", "133922.982500", "133923.442500", "133923.902500", "133924.362500", "133924.822500", "133925.282500", "133925.742500", "133926.202500", "133926.662500", "133927.122500", "133927.582500", "133928.042500", "133928.502500", "133928.962500", "133929.422500", "133929.882500", "133930.342500", "133930.802500", "133931.262500", "133931.722500", "133932.182500", "133932.642500", "133933.102500", "133933.562500", "133934.022500", "133934.482500", "133934.942500", "133935.402500", "133935.862500", "133936.322500", "133936.782500", "133937.242500", "133937.702500", "133938.162500", "133938.622500", "133939.082500", "133939.542500", "133940.002500", "133940.462500", "133940.922500", "133941.382500", "133941.842500", "133942.302500", "133942.762500", "133943.222500", "133943.682500", "133944.142500", "133944.602500", "133945.062500", "133945.522500", "133945.982500", "133946.442500", "133946.902500", "133947.362500", "133947.822500", "133948.282500", "133948.742500", "133949.202500", "133949.662500", "133950.122500", "133950.582500", "133951.042500", "133951.502500", "133951.962500", "133952.422500", "133952.882500", "133953.342500", "133953.802500", "133954.262500", "133954.722500", "133955.182500", "133955.642500", "133956.102500", "133956.562500", "133957.022500", "133957.482500", "133957.942500", "133958.402500", "133958.862500", "133959.322500", "133959.782500", "134000.242500", "134000.702500", "134001.162500", "134001.622500", "134002.082500", "134002.542500", "134003.002500", "134003.462500", "134003.922500", "134004.382500", "134004.842500", "134005.302500", "134005.762500", "134006.222500", "134006.682500", "134007.142500", "134007.602500", "134008.062500", "134008.522500", "134008.982500", "134009.442500", "134009.902500", "134010.362500", "134010.822500", "134011.282500", "134011.742500", "134012.202500", "134012.662500", "134013.122500", "134013.582500", "134014.042500", "134014.502500", "134014.962500", "134015.422500", "134015.882500", "134016.342500", "134016.802500", "134017.262500", "134017.722500", "134018.182500", "134018.642500", "134019.102500", "134019.562500", "134020.022500", "134020.482500", "134020.942500", "134021.402500", "134021.862500", "134022.322500", "134022.782500", "134023.242500", "134023.702500", "134024.162500", "134024.622500", "134025.082500", "134025.542500", "134026.002500", "134026.462500", "134026.922500", "134027.382500", "134027.842500", "134028.302500", "134028.762500", "134029.222500", "134029.682500", "134030.142500", "134030.602500", "134031.062500", "134031.522500", "134031.982500", "134032.442500", "134032.902500", "134033.362500", "134033.822500", "134034.282500", "134034.742500", "134035.202500", "134035.662500", "134036.122500", "134036.582500", "134037.042500", "134037.502500", "134037.962500", "134038.422500", "134038.882500", "134039.342500", "134039.802500", "134040.262500", "134040.722500", "134041.182500", "134041.642500", "134042.102500", "134042.562500", "134043.022500", "134043.482500", "134043.942500", "134044.402500", "134044.862500", "134045.322500", "134045.782500", "134046.242500", "134046.702500", "134047.162500", "134047.622500", "134048.082500", "134048.542500", "134049.002500", "134049.462500", "134049.922500", "134050.382500", "134050.842500", "134051.302500", "134051.762500", "134052.222500", "134052.682500", "134053.142500", "134053.602500", "134054.062500", "134054.522500", "134054.982500", "134055.442500", "134055.902500", "134056.362500", "134056.822500", "134057.282500", "134057.742500", "134058.202500", "134058.662500", "134059.122500", "134059.582500", "134100.042500", "134100.502500", "134100.962500", "134101.422500", "134101.882500", "134102.342500", "134102.802500", "134103.262500", "134103.722500", "134104.182500", "134104.642500", "134105.102500", "134105.562500", "134106.022500", "134106.482500", "134106.942500", "134107.402500", "134107.862500", "134108.322500", "134108.782500", "134109.242500", "134109.702500", "134110.162500", "134110.622500", "134111.082500", "134111.542500", "134112.002500", "134112.462500", "134112.922500", "134113.382500", "134113.842500", "134114.302500", "134114.762500", "134115.222500", "134115.682500", "134116.142500", "134116.602500", "134117.062500", "134117.522500", "134117.982500", "134118.442500", "134118.902500", "134119.362500", "134119.822500", "134120.282500", "134120.742500", "134121.202500", "134121.662500", "134122.122500", "134122.582500", "134123.042500", "134123.502500", "134123.962500", "134124.422500", "134124.882500", "134125.342500", "134125.802500", "134126.262500", "134126.722500", "134127.182500", "134127.642500", "134128.102500", "134128.562500", "134129.022500", "134129.482500", "134129.942500", "134130.402500", "134130.862500", "134131.322500", "134131.782500", "134132.242500", "134132.702500", "134133.162500", "134133.622500", "134134.082500", "134134.542500", "134135.002500", "134135.462500", "134135.922500", "134136.382500", "134136.842500", "134137.302500", "134137.762500", "134138.222500", "134138.682500", "134139.142500", "134139.602500", "134140.062500", "134140.522500", "134140.982500", "134141.442500", "134141.902500", "134142.362500", "134142.822500", "134143.282500", "134143.742500", "134144.202500", "134144.662500", "134145.122500", "134145.582500", "134146.042500", "134146.502500", "134146.962500", "134147.422500", "134147.882500", "134148.342500", "134148.802500", "134149.262500", "134149.722500", "134150.182500", "134150.642500", "134151.102500", "134151.562500", "134152.022500", "134152.482500", "134152.942500", "134153.402500", "134153.862500", "134154.322500", "134154.782500", "134155.242500", "134155.702500", "134156.162500", "134156.622500", "134157.082500", "134157.542500", "134158.002500", "134158.462500", "134158.922500", "134159.382500", "134159.842500", "134200.302500", "134200.762500", "134201.222500", "134201.682500", "134202.142500", "134202.602500", "134203.062500", "134203.522500", "134203.982500", "134204.442500", "134204.902500", "134205.362500", "134205.822500", "134206.282500", "134206.742500", "134207.202500", "134207.662500", "134208.122500", "134208.582500", "134209.042500", "134209.502500", "134209.962500", "134210.422500", "134210.882500", "134211.342500", "134211.802500", "134212.262500", "134212.722500", "134213.182500", "134213.642500", "134214.102500", "134214.562500", "134215.022500", "134215.482500", "134215.942500", "134216.402500", "134216.862500", "134217.322500", "134217.782500", "134218.242500", "134218.702500", "134219.162500", "134219.622500", "134220.082500", "134220.542500", "134221.002500", "134221.462500", "134221.922500", "134222.382500", "134222.842500", "134223.302500", "134223.762500", "134224.222500", "134224.682500", "134225.142500", "134225.602500", "134226.062500", "134226.522500", "134226.982500", "134227.442500", "134227.902500", "134228.362500", "134228.822500", "134229.282500", "134229.742500", "134230.202500", "134230.662500", "134231.122500", "134231.582500", "134232.042500", "134232.502500", "134232.962500", "134233.422500", "134233.882500", "134234.342500", "134234.802500", "134235.262500", "134235.722500", "134236.182500", "134236.642500", "134237.102500", "134237.562500", "134238.022500", "134238.482500", "134238.942500", "134239.402500", "134239.862500", "134240.322500", "134240.782500", "134241.242500", "134241.702500", "134242.162500", "134242.622500", "134243.082500", "134243.542500", "134244.002500", "134244.462500", "134244.922500", "134245.382500", "134245.842500", "134246.302500", "134246.762500", "134247.222500", "134247.682500", "134248.142500", "134248.602500", "134249.062500", "134249.522500", "134249.982500", "134250.442500", "134250.902500", "134251.362500", "134251.822500", "134252.282500", "134252.742500", "134253.202500", "134253.662500", "134254.122500", "134254.582500", "134255.042500", "134255.502500", "134255.962500", "134256.422500", "134256.882500", "134257.342500", "134257.802500", "134258.262500", "134258.722500", "134259.182500", "134259.642500", "134300.102500", "134300.562500", "134301.022500", "134301.482500", "134301.942500", "134302.402500", "134302.862500", "134303.322500", "134303.782500", "134304.242500", "134304.702500", "134305.162500", "134305.622500", "134306.082500", "134306.542500", "134307.002500", "134307.462500", "134307.922500", "134308.382500", "134308.842500", "134309.302500", "134309.762500", "134310.222500", "134310.682500", "134311.142500", "134311.602500", "134312.062500", "134312.522500", "134312.982500", "134313.442500", "134313.902500", "134314.362500", "134314.822500", "134315.282500", "134315.742500", "134316.202500", "134316.662500", "134317.122500", "134317.582500", "134318.042500", "134318.502500", "134318.962500", "134319.422500", "134319.882500", "134320.342500", "134320.802500", "134321.262500", "134321.722500", "134322.182500", "134322.642500", "134323.102500", "134323.562500", "134324.022500", "134324.482500", "134324.942500", "134325.402500", "134325.862500", "134326.322500", "134326.782500", "134327.242500", "134327.702500", "134328.162500", "134328.622500", "134329.082500", "134329.542500", "134330.002500", "134330.462500", "134330.922500", "134331.382500", "134331.842500", "134332.302500", "134332.762500", "134333.222500", "134333.682500", "134334.142500", "134334.602500", "134335.062500", "134335.522500", "134335.982500", "134336.442500", "134336.902500", "134337.362500", "134337.822500", "134338.282500", "134338.742500", "134339.202500", "134339.662500", "134340.122500", "134340.582500", "134341.042500", "134341.502500", "134341.962500", "134342.422500", "134342.882500", "134343.342500", "134343.802500", "134344.262500", "134344.722500", "134345.182500", "134345.642500", "134346.102500", "134346.562500", "134347.022500", "134347.482500", "134347.942500", "134348.402500", "134348.862500", "134349.322500", "134349.782500", "134350.242500", "134350.702500", "134351.162500", "134351.622500", "134352.082500", "134352.542500", "134353.002500", "134353.462500", "134353.922500", "134354.382500", "134354.842500", "134355.302500", "134355.762500", "134356.222500", "134356.682500", "134357.142500", "134357.602500", "134358.062500", "134358.522500", "134358.982500", "134359.442500", "134359.902500", "134400.362500", "134400.822500", "134401.282500", "134401.742500", "134402.202500", "134402.662500", "134403.122500", "134403.582500", "134404.042500", "134404.502500", "134404.962500", "134405.422500", "134405.882500", "134406.342500", "134406.802500", "134407.262500", "134407.722500", "134408.182500", "134408.642500", "134409.102500", "134409.562500", "134410.022500", "134410.482500", "134410.942500", "134411.402500", "134411.862500", "134412.322500", "134412.782500", "134413.242500", "134413.702500", "134414.162500", "134414.622500", "134415.082500", "134415.542500", "134416.002500", "134416.462500", "134416.922500", "134417.382500", "134417.842500", "134418.302500", "134418.762500", "134419.222500", "134419.682500", "134420.142500", "134420.602500", "134421.062500", "134421.522500", "134421.982500", "134422.442500", "134422.902500", "134423.362500", "134423.822500", "134424.282500", "134424.742500", "134425.202500", "134425.662500", "134426.122500", "134426.582500", "134427.042500", "134427.502500", "134427.962500", "134428.422500", "134428.882500", "134429.342500", "134429.802500", "134430.262500", "134430.722500", "134431.182500", "134431.642500", "134432.102500", "134432.562500", "134433.022500", "134433.482500", "134433.942500", "134434.402500", "134434.862500", "134435.322500", "134435.782500", "134436.242500", "134436.702500", "134437.162500", "134437.622500", "134438.082500", "134438.542500", "134439.002500", "134439.462500", "134439.922500", "134440.382500", "134440.842500", "134441.302500", "134441.762500", "134442.222500", "134442.682500", "134443.142500", "134443.602500", "134444.062500", "134444.522500", "134444.982500", "134445.442500", "134445.902500", "134446.362500", "134446.822500", "134447.282500", "134447.742500", "134448.202500", "134448.662500", "134449.122500", "134449.582500", "134450.042500", "134450.502500", "134450.962500", "134451.422500", "134451.882500", "134452.342500", "134452.802500", "134453.262500", "134453.722500", "134454.182500", "134454.642500", "134455.102500", "134455.562500", "134456.022500", "134456.482500", "134456.942500", "134457.402500", "134457.862500", "134458.322500", "134458.782500", "134459.242500", "134459.702500", "134500.162500", "134500.622500", "134501.082500", "134501.542500", "134502.002500", "134502.462500", "134502.922500", "134503.382500", "134503.842500", "134504.302500", "134504.762500", "134505.222500", "134505.682500", "134506.142500", "134506.602500", "134507.062500", "134507.522500", "134507.982500", "134508.442500", "134508.902500", "134509.362500", "134509.822500", "134510.282500", "134510.742500", "134511.202500", "134511.662500", "134512.122500", "134512.582500", "134513.042500", "134513.502500", "134513.962500", "134514.422500", "134514.882500", "134515.342500", "134515.802500", "134516.262500", "134516.722500", "134517.182500", "134517.642500", "134518.102500", "134518.562500", "134519.022500", "134519.482500", "134519.942500", "134520.402500", "134520.862500", "134521.322500", "134521.782500", "134522.242500", "134522.702500", "134523.162500", "134523.622500", "134524.082500", "134524.542500", "134525.002500", "134525.462500", "134525.922500", "134526.382500", "134526.842500", "134527.302500", "134527.762500", "134528.222500", "134528.682500", "134529.142500", "134529.602500", "134530.062500", "134530.522500", "134530.982500", "134531.442500", "134531.902500", "134532.362500", "134532.822500", "134533.282500", "134533.742500", "134534.202500", "134534.662500", "134535.122500", "134535.582500", "134536.042500", "134536.502500", "134536.962500", "134537.422500", "134537.882500", "134538.342500", "134538.802500", "134539.262500", "134539.722500", "134540.182500", "134540.642500", "134541.102500", "134541.562500", "134542.022500", "134542.482500", "134542.942500", "134543.402500", "134543.862500", "134544.322500", "134544.782500", "134545.242500", "134545.702500", "134546.162500", "134546.622500", "134547.082500", "134547.542500", "134548.002500", "134548.462500", "134548.922500", "134549.382500", "134549.842500", "134550.302500", "134550.762500", "134551.222500", "134551.682500", "134552.142500", "134552.602500", "134553.062500", "134553.522500", "134553.982500", "134554.442500", "134554.902500", "134555.362500", "134555.822500", "134556.282500", "134556.742500", "134557.202500", "134557.662500", "134558.122500", "134558.582500", "134559.042500", "134559.502500", "134559.962500", "134600.422500", "134600.882500", "134601.342500", "134601.802500", "134602.262500", "134602.722500", "134603.182500", "134603.642500", "134604.102500", "134604.562500", "134605.022500", "134605.482500", "134605.942500", "134606.402500", "134606.862500", "134607.322500", "134607.782500", "134608.242500", "134608.702500", "134609.162500", "134609.622500", "134610.082500", "134610.542500", "134611.002500", "134611.462500", "134611.922500", "134612.382500", "134612.842500", "134613.302500", "134613.762500", "134614.222500", "134614.682500", "134615.142500", "134615.602500", "134616.062500", "134616.522500", "134616.982500", "134617.442500", "134617.902500", "134618.362500", "134618.822500", "134619.282500", "134619.742500", "134620.202500", "134620.662500", "134621.122500"],
