{
  "AcquisitionMatrixPE": 82,
  "AcquisitionNumber": 1,
  "AcquisitionTime": "19:42:53.505000",
  "BandwidthPerPixelPhaseEncode": 24.888,
  "BaseResolution": 82,
  "BodyPartExamined": "BRAIN",
  "ConsistencyInfo": "N4_VE11E_LATEST_20181129",
  "ConversionSoftware": "dcm2niix",
  "ConversionSoftwareVersion": "v1.0.20201102",
  "DerivedVendorReportedEchoSpacing": 0.00049,
  "DeviceSerialNumber": "66112",
  "DwellTime": 2e-06,
  "EchoTime": 0.0272,
  "EchoTrainLength": 82,
  "EffectiveEchoSpacing": 0.00049,
  "FlipAngle": 44,
  "ImageComments": "Unaliased MB8/PE3",
  "ImageOrientationPatientDICOM": [0.999589, -0.0282534, 0.0049166, 0.0286194, 0.993725, -0.108124],
  "ImageType": [
    "ORIGINAL",
    "PRIMARY",
    "M",
    "MB",
    "ND",
    "NORM",
    "MOSAIC"
],
  "ImagingFrequency": 123.259,
  "InPlanePhaseEncodingDirectionDICOM": "COL",
  "InstitutionAddress": "Maynard 3,Hanover,NH,US,03755",
  "InstitutionName": "Dartmouth College - PBS",
  "InstitutionalDepartmentName": "Department",
  "MRAcquisitionType": "2D",
  "MagneticFieldStrength": 3,
  "Manufacturer": "Siemens",
  "ManufacturersModelName": "Prisma",
  "Modality": "MR",
  "MultibandAccelerationFactor": 8,
  "PartialFourier": 1,
  "PatientPosition": "HFS",
  "PercentPhaseFOV": 100,
  "PercentSampling": 100,
  "PhaseEncodingDirection": "j-",
  "PhaseEncodingSteps": 82,
  "PhaseResolution": 1,
  "PixelBandwidth": 3050,
  "ProcedureStepDescription": "Wager_Wager^1076_spacetop",
  "ProtocolName": "func_run-01_task-alignvideo_acq-ap-mb8",
  "PulseSequenceDetails": "%CustomerSeq%\\cmrr_mbep2d_bold",
  "ReceiveCoilActiveElements": "HEA;HEP",
  "ReceiveCoilName": "Head_32",
  "ReconMatrixPE": 82,
  "RepetitionTime": 0.46,
  "SAR": 0.105005,
  "ScanOptions": "FS",
  "ScanningSequence": "EP",
  "SequenceName": "epfid2d1_82",
  "SequenceVariant": "SK\\SS",
  "SeriesDescription": "func_run-01_task-alignvideo_acq-ap-mb8",
  "SeriesNumber": 46,
  "ShimSetting": [4236, -7748, -7277, 201, -77, -90, -38, 55],
  "SliceThickness": 2.7,
  "SliceTiming": [0, 0.25, 0.0625, 0.3125, 0.125, 0.375, 0.1875, 0, 0.25, 0.0625, 0.3125, 0.125, 0.375, 0.1875, 0, 0.25, 0.0625, 0.3125, 0.125, 0.375, 0.1875, 0, 0.25, 0.0625, 0.3125, 0.125, 0.375, 0.1875, 0, 0.25, 0.0625, 0.3125, 0.125, 0.375, 0.1875, 0, 0.25, 0.0625, 0.3125, 0.125, 0.375, 0.1875, 0, 0.25, 0.0625, 0.3125, 0.125, 0.375, 0.1875, 0, 0.25, 0.0625, 0.3125, 0.125, 0.375, 0.1875],
  "SoftwareVersions": "syngo MR E11",
  "SpacingBetweenSlices": 2.7,
  "StationName": "AWP66112",
  "TaskName": "alignvideo",
  "TotalReadoutTime": 0.03969,
  "TxRefAmp": 250.16,
  "WipMemBlock": "91fb40d5-b7dd-4e56-937a-734f7e055aab||Sequence: R016 ve11e/master r/434b28f1; Aug  7 2019 18:53:46 by eja",
  "dcmmeta_affine": [
    [-2.681823492050171, 0.07678388804197311, 0.004943410400301218, 107.77877044677734],
    [0.07580168545246124, 2.66609263420105, -0.292193740606308, -104.63568878173828],
    [0.013190874829888344, 0.29008787870407104, 2.684138298034668, -91.58489227294922],
    [0.0, 0.0, 0.0, 1.0]
],
  "dcmmeta_reorient_transform": [
    [0.0, -1.0, 0.0, 81.0],
    [1.0, 0.0, 0.0, 0.0],
    [0.0, 0.0, 1.0, 0.0],
    [0.0, 0.0, 0.0, 1.0]
],
  "dcmmeta_shape": [82, 82, 56, 839],
  "dcmmeta_slice_dim": 2,
  "dcmmeta_version": 0.6,
  "global": {
    "const": {
      "AccessionNumber": "A004525",
      "AcquisitionMatrix": [82, 0, 0, 82],
      "AngioFlag": "N",
      "BitsAllocated": 16,
      "BitsStored": 16,
      "BodyPartExamined": "BRAIN",
      "Columns": 656,
      "EchoNumbers": 1,
      "EchoTime": 27.2,
      "EchoTrainLength": 82,
      "FlipAngle": 44.0,
      "HighBit": 15,
      "ImageOrientationPatient": [0.99958870289381, -0.0282533556414, 0.00491659862773, 0.02861944931511, 0.99372541495631, -0.1081236643424],
      "ImagePositionPatient": [-905.71856474822, -854.7313148502, 11.381668236431],
      "ImageType": [
        "ORIGINAL",
        "PRIMARY",
        "M",
        "MB",
        "ND",
        "NORM",
        "MOSAIC"
],
      "ImagedNucleus": "1H",
      "ImagingFrequency": 123.259113,
      "InPlanePhaseEncodingDirection": "COL",
      "MRAcquisitionType": "2D",
      "MagneticFieldStrength": 3.0,
      "Manufacturer": "SIEMENS",
      "ManufacturerModelName": "Prisma",
      "Modality": "MR",
      "NumberOfAverages": 1.0,
      "NumberOfPhaseEncodingSteps": 82,
      "PercentPhaseFieldOfView": 100.0,
      "PercentSampling": 100.0,
      "PerformedProcedureStepStartTime": "181807.520000",
      "PhotometricInterpretation": "MONOCHROME2",
      "PixelBandwidth": 3050.0,
      "PixelRepresentation": 0,
      "PixelSpacing": [2.6829268932343, 2.6829268932343],
      "ProtocolName": "func_run-01_task-alignvideo_acq-ap-mb8",
      "RepetitionTime": 460.0,
      "Rows": 656,
      "SAR": 0.10500479924635,
      "SamplesPerPixel": 1,
      "ScanOptions": "FS",
      "ScanningSequence": "EP",
      "SequenceName": "epfid2d1_82",
      "SequenceVariant": [
        "SK",
        "SS"
],
      "SeriesDescription": "func_run-01_task-alignvideo_acq-ap-mb8",
      "SeriesNumber": 46,
      "SeriesTime": "194312.082000",
      "SliceLocation": -79.525862851154,
      "SliceThickness": 2.7000000476837,
      "SmallestImagePixelValue": 0,
      "SoftwareVersions": "syngo MR E11",
      "SpacingBetweenSlices": 2.7000000550753,
      "SpecificCharacterSet": "ISO_IR 100",
      "StudyID": "1",
      "StudyTime": "181807.471000",
      "TransmitCoilName": "Body",
      "VariableFlipAngleFlag": "N",
      "WindowCenterWidthExplanation": "Algo1"
    },
    "slices": {}
  },
  "time": {
    "samples": {
      "AcquisitionNumber": [1, 2, 3, 4, 5, 6, 7, 8, 9, 10, 11, 12, 13, 14, 15, 16, 17, 18, 19, 20, 21, 22, 23, 24, 25, 26, 27, 28, 29, 30, 31, 32, 33, 34, 35, 36, 37, 38, 39, 40, 41, 42, 43, 44, 45, 46, 47, 48, 49, 50, 51, 52, 53, 54, 55, 56, 57, 58, 59, 60, 61, 62, 63, 64, 65, 66, 67, 68, 69, 70, 71, 72, 73, 74, 75, 76, 77, 78, 79, 80, 81, 82, 83, 84, 85, 86, 87, 88, 89, 90, 91, 92, 93, 94, 95, 96, 97, 98, 99, 100, 101, 102, 103, 104, 105, 106, 107, 108, 109, 110, 111, 112, 113, 114, 115, 116, 117, 118, 119, 120, 121, 122, 123, 124, 125, 126, 127, 128, 129, 130, 131, 132, 133, 134, 135, 136, 137, 138, 139, 140, 141, 142, 143, 144, 145, 146, 147, 148, 149, 150, 151, 152, 153, 154, 155, 156, 157, 158, 159, 160, 161, 162, 163, 164, 165, 166, 167, 168, 169, 170, 171, 172, 173, 174, 175, 176, 177, 178, 179, 180, 181, 182, 183, 184, 185, 186, 187, 188, 189, 190, 191, 192, 193, 194, 195, 196, 197, 198, 199, 200, 201, 202, 203, 204, 205, 206, 207, 208, 209, 210, 211, 212, 213, 214, 215, 216, 217, 218, 219, 220, 221, 222, 223, 224, 225, 226, 227, 228, 229, 230, 231, 232, 233, 234, 235, 236, 237, 238, 239, 240, 241, 242, 243, 244, 245, 246, 247, 248, 249, 250, 251, 252, 253, 254, 255, 256, 257, 258, 259, 260, 261, 262, 263, 264, 265, 266, 267, 268, 269, 270, 271, 272, 273, 274, 275, 276, 277, 278, 279, 280, 281, 282, 283, 284, 285, 286, 287, 288, 289, 290, 291, 292, 293, 294, 295, 296, 297, 298, 299, 300, 301, 302, 303, 304, 305, 306, 307, 308, 309, 310, 311, 312, 313, 314, 315, 316, 317, 318, 319, 320, 321, 322, 323, 324, 325, 326, 327, 328, 329, 330, 331, 332, 333, 334, 335, 336, 337, 338, 339, 340, 341, 342, 343, 344, 345, 346, 347, 348, 349, 350, 351, 352, 353, 354, 355, 356, 357, 358, 359, 360, 361, 362, 363, 364, 365, 366, 367, 368, 369, 370, 371, 372, 373, 374, 375, 376, 377, 378, 379, 380, 381, 382, 383, 384, 385, 386, 387, 388, 389, 390, 391, 392, 393, 394, 395, 396, 397, 398, 399, 400, 401, 402, 403, 404, 405, 406, 407, 408, 409, 410, 411, 412, 413, 414, 415, 416, 417, 418, 419, 420, 421, 422, 423, 424, 425, 426, 427, 428, 429, 430, 431, 432, 433, 434, 435, 436, 437, 438, 439, 440, 441, 442, 443, 444, 445, 446, 447, 448, 449, 450, 451, 452, 453, 454, 455, 456, 457, 458, 459, 460, 461, 462, 463, 464, 465, 466, 467, 468, 469, 470, 471, 472, 473, 474, 475, 476, 477, 478, 479, 480, 481, 482, 483, 484, 485, 486, 487, 488, 489, 490, 491, 492, 493, 494, 495, 496, 497, 498, 499, 500, 501, 502, 503, 504, 505, 506, 507, 508, 509, 510, 511, 512, 513, 514, 515, 516, 517, 518, 519, 520, 521, 522, 523, 524, 525, 526, 527, 528, 529, 530, 531, 532, 533, 534, 535, 536, 537, 538, 539, 540, 541, 542, 543, 544, 545, 546, 547, 548, 549, 550, 551, 552, 553, 554, 555, 556, 557, 558, 559, 560, 561, 562, 563, 564, 565, 566, 567, 568, 569, 570, 571, 572, 573, 574, 575, 576, 577, 578, 579, 580, 581, 582, 583, 584, 585, 586, 587, 588, 589, 590, 591, 592, 593, 594, 595, 596, 597, 598, 599, 600, 601, 602, 603, 604, 605, 606, 607, 608, 609, 610, 611, 612, 613, 614, 615, 616, 617, 618, 619, 620, 621, 622, 623, 624, 625, 626, 627, 628, 629, 630, 631, 632, 633, 634, 635, 636, 637, 638, 639, 640, 641, 642, 643, 644, 645, 646, 647, 648, 649, 650, 651, 652, 653, 654, 655, 656, 657, 658, 659, 660, 661, 662, 663, 664, 665, 666, 667, 668, 669, 670, 671, 672, 673, 674, 675, 676, 677, 678, 679, 680, 681, 682, 683, 684, 685, 686, 687, 688, 689, 690, 691, 692, 693, 694, 695, 696, 697, 698, 699, 700, 701, 702, 703, 704, 705, 706, 707, 708, 709, 710, 711, 712, 713, 714, 715, 716, 717, 718, 719, 720, 721, 722, 723, 724, 725, 726, 727, 728, 729, 730, 731, 732, 733, 734, 735, 736, 737, 738, 739, 740, 741, 742, 743, 744, 745, 746, 747, 748, 749, 750, 751, 752, 753, 754, 755, 756, 757, 758, 759, 760, 761, 762, 763, 764, 765, 766, 767, 768, 769, 770, 771, 772, 773, 774, 775, 776, 777, 778, 779, 780, 781, 782, 783, 784, 785, 786, 787, 788, 789, 790, 791, 792, 793, 794, 795, 796, 797, 798, 799, 800, 801, 802, 803, 804, 805, 806, 807, 808, 809, 810, 811, 812, 813, 814, 815, 816, 817, 818, 819, 820, 821, 822, 823, 824, 825, 826, 827, 828, 829, 830, 831, 832, 833, 834, 835, 836, 837, 838, 839],
      "AcquisitionTime": ["194253.505000", "194253.965000", "194254.425000", "194254.885000", "194255.345000", "194255.805000", "194256.265000", "194256.725000", "194257.185000", "194257.645000", "194258.105000", "194258.565000", "194259.025000", "194259.485000", "194259.945000", "194300.405000", "194300.865000", "194301.325000", "194301.785000", "194302.245000", "194302.705000", "194303.165000", "194303.625000", "194304.085000", "194304.545000", "194305.005000", "194305.465000", "194305.925000", "194306.385000", "194306.845000", "194307.305000", "194307.765000", "194308.225000", "194308.685000", "194309.145000", "194309.605000", "194310.065000", "194310.525000", "194310.985000", "194311.445000", "194311.905000", "194312.365000", "194312.825000", "194313.285000", "194313.745000", "194314.205000", "194314.665000", "194315.125000", "194315.585000", "194316.045000", "194316.505000", "194316.965000", "194317.425000", "194317.885000", "194318.345000", "194318.805000", "194319.265000", "194319.725000", "194320.185000", "194320.645000", "194321.105000", "194321.565000", "194322.025000", "194322.485000", "194322.945000", "194323.405000", "194323.865000", "194324.325000", "194324.785000", "194325.245000", "194325.705000", "194326.165000", "194326.625000", "194327.085000", "194327.545000", "194328.005000", "194328.465000", "194328.925000", "194329.385000", "194329.845000", "194330.305000", "194330.765000", "194331.225000", "194331.685000", "194332.145000", "194332.605000", "194333.065000", "194333.525000", "194333.985000", "194334.445000", "194334.905000", "194335.365000", "194335.825000", "194336.285000", "194336.745000", "194337.205000", "194337.665000", "194338.125000", "194338.585000", "194339.045000", "194339.505000", "194339.965000", "194340.425000", "194340.885000", "194341.345000", "194341.805000", "194342.265000", "194342.725000", "194343.185000", "194343.645000", "194344.105000", "194344.565000", "194345.025000", "194345.485000", "194345.945000", "194346.405000", "194346.865000", "194347.325000", "194347.785000", "194348.245000", "194348.705000", "194349.165000", "194349.625000", "194350.085000", "194350.545000", "194351.005000", "194351.465000", "194351.925000", "194352.385000", "194352.845000", "194353.305000", "194353.765000", "194354.225000", "194354.685000", "194355.145000", "194355.605000", "194356.065000", "194356.525000", "194356.985000", "194357.445000", "194357.905000", "194358.365000", "194358.825000", "194359.285000", "194359.745000", "194400.205000", "194400.665000", "194401.125000", "194401.585000", "194402.045000", "194402.505000", "194402.965000", "194403.425000", "194403.885000", "194404.345000", "194404.805000", "194405.265000", "194405.725000", "194406.185000", "194406.645000", "194407.105000", "194407.565000", "194408.025000", "194408.485000", "194408.945000", "194409.405000", "194409.865000", "194410.325000", "194410.785000", "194411.245000", "194411.705000", "194412.165000", "194412.625000", "194413.085000", "194413.545000", "194414.005000", "194414.465000", "194414.925000", "194415.385000", "194415.845000", "194416.305000", "194416.765000", "194417.225000", "194417.685000", "194418.145000", "194418.605000", "194419.065000", "194419.525000", "194419.985000", "194420.445000", "194420.905000", "194421.365000", "194421.825000", "194422.285000", "194422.745000", "194423.205000", "194423.665000", "194424.125000", "194424.585000", "194425.045000", "194425.505000", "194425.965000", "194426.425000", "194426.885000", "194427.345000", "194427.805000", "194428.265000", "194428.725000", "194429.185000", "194429.645000", "194430.105000", "194430.565000", "194431.025000", "194431.485000", "194431.945000", "194432.405000", "194432.865000", "194433.325000", "194433.785000", "194434.245000", "194434.705000", "194435.165000", "194435.625000", "194436.085000", "194436.545000", "194437.005000", "194437.465000", "194437.925000", "194438.385000", "194438.845000", "194439.305000", "194439.765000", "194440.225000", "194440.685000", "194441.145000", "194441.605000", "194442.065000", "194442.525000", "194442.985000", "194443.445000", "194443.905000", "194444.365000", "194444.825000", "194445.285000", "194445.745000", "194446.205000", "194446.665000", "194447.125000", "194447.585000", "194448.045000", "194448.505000", "194448.965000", "194449.425000", "194449.885000", "194450.345000", "194450.805000", "194451.265000", "194451.725000", "194452.185000", "194452.645000", "194453.105000", "194453.565000", "194454.025000", "194454.485000", "194454.945000", "194455.405000", "194455.865000", "194456.325000", "194456.785000", "194457.245000", "194457.705000", "194458.165000", "194458.625000", "194459.085000", "194459.545000", "194500.005000", "194500.465000", "194500.925000", "194501.385000", "194501.845000", "194502.305000", "194502.765000", "194503.225000", "194503.685000", "194504.145000", "194504.605000", "194505.065000", "194505.525000", "194505.985000", "194506.445000", "194506.905000", "194507.365000", "194507.825000", "194508.285000", "194508.745000", "194509.205000", "194509.665000", "194510.125000", "194510.585000", "194511.045000", "194511.505000", "194511.965000", "194512.425000", "194512.885000", "194513.345000", "194513.805000", "194514.265000", "194514.725000", "194515.185000", "194515.645000", "194516.105000", "194516.565000", "194517.025000", "194517.485000", "194517.945000", "194518.405000", "194518.865000", "194519.325000", "194519.785000", "194520.245000", "194520.705000", "194521.165000", "194521.625000", "194522.085000", "194522.545000", "194523.005000", "194523.465000", "194523.925000", "194524.385000", "194524.845000", "194525.305000", "194525.765000", "194526.225000", "194526.685000", "194527.145000", "194527.605000", "194528.065000", "194528.525000", "194528.985000", "194529.445000", "194529.905000", "194530.365000", "194530.825000", "194531.285000", "194531.745000", "194532.205000", "194532.665000", "194533.125000", "194533.585000", "194534.045000", "194534.505000", "194534.965000", "194535.425000", "194535.885000", "194536.345000", "194536.805000", "194537.265000", "194537.725000", "194538.185000", "194538.645000", "194539.105000", "194539.565000", "194540.025000", "194540.485000", "194540.945000", "194541.405000", "194541.865000", "194542.325000", "194542.785000", "194543.245000", "194543.705000", "194544.165000", "194544.625000", "194545.085000", "194545.545000", "194546.005000", "194546.465000", "194546.925000", "194547.385000", "194547.845000", "194548.305000", "194548.765000", "194549.225000", "194549.685000", "194550.145000", "194550.605000", "194551.065000", "194551.525000", "194551.985000", "194552.445000", "194552.905000", "194553.365000", "194553.825000", "194554.285000", "194554.745000", "194555.205000", "194555.665000", "194556.125000", "194556.585000", "194557.045000", "194557.505000", "194557.965000", "194558.425000", "194558.885000", "194559.345000", "194559.805000", "194600.265000", "194600.725000", "194601.185000", "194601.645000", "194602.105000", "194602.565000", "194603.025000", "194603.485000", "194603.945000", "194604.405000", "194604.865000", "194605.325000", "194605.785000", "194606.245000", "194606.705000", "194607.165000", "194607.625000", "194608.085000", "194608.545000", "194609.005000", "194609.465000", "194609.925000", "194610.385000", "194610.845000", "194611.305000", "194611.765000", "194612.225000", "194612.685000", "194613.145000", "194613.605000", "194614.065000", "194614.525000", "194614.985000", "194615.445000", "194615.905000", "194616.365000", "194616.825000", "194617.285000", "194617.745000", "194618.205000", "194618.665000", "194619.125000", "194619.585000", "194620.045000", "194620.505000", "194620.965000", "194621.425000", "194621.885000", "194622.345000", "194622.805000", "194623.265000", "194623.725000", "194624.185000", "194624.645000", "194625.105000", "194625.565000", "194626.025000", "194626.485000", "194626.945000", "194627.405000", "194627.865000", "194628.325000", "194628.785000", "194629.245000", "194629.705000", "194630.165000", "194630.625000", "194631.085000", "194631.545000", "194632.005000", "194632.465000", "194632.925000", "194633.385000", "194633.845000", "194634.305000", "194634.765000", "194635.225000", "194635.685000", "194636.145000", "194636.605000", "194637.065000", "194637.525000", "194637.985000", "194638.445000", "194638.905000", "194639.365000", "194639.825000", "194640.285000", "194640.745000", "194641.205000", "194641.665000", "194642.125000", "194642.585000", "194643.045000", "194643.505000", "194643.965000", "194644.425000", "194644.885000", "194645.345000", "194645.805000", "194646.265000", "194646.725000", "194647.185000", "194647.645000", "194648.105000", "194648.565000", "194649.025000", "194649.485000", "194649.945000", "194650.405000", "194650.865000", "194651.325000", "194651.785000", "194652.245000", "194652.705000", "194653.165000", "194653.625000", "194654.085000", "194654.545000", "194655.005000", "194655.465000", "194655.925000", "194656.385000", "194656.845000", "194657.305000", "194657.765000", "194658.225000", "194658.685000", "194659.145000", "194659.605000", "194700.065000", "194700.525000", "194700.985000", "194701.445000", "194701.905000", "194702.365000", "194702.825000", "194703.285000", "194703.745000", "194704.205000", "194704.665000", "194705.125000", "194705.585000", "194706.045000", "194706.505000", "194706.965000", "194707.425000", "194707.885000", "194708.345000", "194708.805000", "194709.265000", "194709.725000", "194710.185000", "194710.645000", "194711.105000", "194711.565000", "194712.025000", "194712.485000", "194712.945000", "194713.405000", "194713.865000", "194714.325000", "194714.785000", "194715.245000", "194715.705000", "194716.165000", "194716.625000", "194717.085000", "194717.545000", "194718.005000", "194718.465000", "194718.925000", "194719.385000", "194719.845000", "194720.305000", "194720.765000", "194721.225000", "194721.685000", "194722.145000", "194722.605000", "194723.065000", "194723.525000", "194723.985000", "194724.445000", "194724.905000", "194725.365000", "194725.825000", "194726.285000", "194726.745000", "194727.205000", "194727.665000", "194728.125000", "194728.585000", "194729.045000", "194729.505000", "194729.965000", "194730.425000", "194730.885000", "194731.345000", "194731.805000", "194732.265000", "194732.725000", "194733.185000", "194733.645000", "194734.105000", "194734.565000", "194735.025000", "194735.485000", "194735.945000", "194736.405000", "194736.865000", "194737.325000", "194737.785000", "194738.245000", "194738.705000", "194739.165000", "194739.625000", "194740.085000", "194740.545000", "194741.005000", "194741.465000", "194741.925000", "194742.385000", "194742.845000", "194743.305000", "194743.765000", "194744.225000", "194744.685000", "194745.145000", "194745.605000", "194746.065000", "194746.525000", "194746.985000", "194747.445000", "194747.905000", "194748.365000", "194748.825000", "194749.285000", "194749.745000", "194750.205000", "194750.665000", "194751.125000", "194751.585000", "194752.045000", "194752.505000", "194752.965000", "194753.425000", "194753.885000", "194754.345000", "194754.805000", "194755.265000", "194755.725000", "194756.185000", "194756.645000", "194757.105000", "194757.565000", "194758.025000", "194758.485000", "194758.945000", "194759.405000", "194759.865000", "194800.325000", "194800.785000", "194801.245000", "194801.705000", "194802.165000", "194802.625000", "194803.085000", "194803.545000", "194804.005000", "194804.465000", "194804.925000", "194805.385000", "194805.845000", "194806.305000", "194806.765000", "194807.225000", "194807.685000", "194808.145000", "194808.605000", "194809.065000", "194809.525000", "194809.985000", "194810.445000", "194810.905000", "194811.365000", "194811.825000", "194812.285000", "194812.745000", "194813.205000", "194813.665000", "194814.125000", "194814.585000", "194815.045000", "194815.505000", "194815.965000", "194816.425000", "194816.885000", "194817.345000", "194817.805000", "194818.265000", "194818.725000", "194819.185000", "194819.645000", "194820.105000", "194820.565000", "194821.025000", "194821.485000", "194821.945000", "194822.405000", "194822.865000", "194823.325000", "194823.785000", "194824.245000", "194824.705000", "194825.165000", "194825.625000", "194826.085000", "194826.545000", "194827.005000", "194827.465000", "194827.925000", "194828.385000", "194828.845000", "194829.305000", "194829.765000", "194830.225000", "194830.685000", "194831.145000", "194831.605000", "194832.065000", "194832.525000", "194832.985000", "194833.445000", "194833.905000", "194834.365000", "194834.825000", "194835.285000", "194835.745000", "194836.205000", "194836.665000", "194837.125000", "194837.585000", "194838.045000", "194838.505000", "194838.965000", "194839.425000", "194839.885000", "194840.345000", "194840.805000", "194841.265000", "194841.725000", "194842.185000", "194842.645000", "194843.105000", "194843.565000", "194844.025000", "194844.485000", "194844.945000", "194845.405000", "194845.865000", "194846.325000", "194846.785000", "194847.245000", "194847.705000", "194848.165000", "194848.625000", "194849.085000", "194849.545000", "194850.005000", "194850.465000", "194850.925000", "194851.385000", "194851.845000", "194852.305000", "194852.765000", "194853.225000", "194853.685000", "194854.145000", "194854.605000", "194855.065000", "194855.525000", "194855.985000", "194856.445000", "194856.905000", "194857.365000", "194857.825000", "194858.285000", "194858.745000", "194859.205000", "194859.665000", "194900.125000", "194900.585000", "194901.045000", "194901.505000", "194901.965000", "194902.425000", "194902.885000", "194903.345000", "194903.805000", "194904.265000", "194904.725000", "194905.185000", "194905.645000", "194906.105000", "194906.565000", "194907.025000", "194907.485000", "194907.945000", "194908.405000", "194908.865000", "194909.325000", "194909.785000", "194910.245000", "194910.705000", "194911.165000", "194911.625000", "194912.085000", "194912.545000", "194913.005000", "194913.465000", "194913.925000", "194914.385000", "194914.845000", "194915.305000", "194915.765000", "194916.225000", "194916.685000", "194917.145000", "194917.605000", "194918.065000", "194918.525000", "194918.985000"],
