{
  "AcquisitionMatrixPE": 82,
  "AcquisitionNumber": 1,
  "AcquisitionTime": "19:23:31.922500",
  "BandwidthPerPixelPhaseEncode": 24.888,
  "BaseResolution": 82,
  "BodyPartExamined": "BRAIN",
  "ConsistencyInfo": "N4_VE11E_LATEST_20181129",
  "ConversionSoftware": "dcm2niix",
  "ConversionSoftwareVersion": "v1.0.20201102",
  "DerivedVendorReportedEchoSpacing": 0.00049,
  "DeviceSerialNumber": "66112",
  "DwellTime": 2e-06,
  "EchoTime": 0.0272,
  "EchoTrainLength": 82,
  "EffectiveEchoSpacing": 0.00049,
  "FlipAngle": 44,
  "ImageComments": "Unaliased MB8/PE3",
  "ImageOrientationPatientDICOM": [0.999346, -0.0361508, -0.000530828, 0.0359457, 0.99504, -0.0927522],
  "ImageType": [
    "ORIGINAL",
    "PRIMARY",
    "M",
    "MB",
    "ND",
    "NORM",
    "MOSAIC"
],
  "ImagingFrequency": 123.259,
  "InPlanePhaseEncodingDirectionDICOM": "COL",
  "InstitutionAddress": "Maynard 3,Hanover,NH,US,03755",
  "InstitutionName": "Dartmouth College - PBS",
  "InstitutionalDepartmentName": "Department",
  "MRAcquisitionType": "2D",
  "MagneticFieldStrength": 3,
  "Manufacturer": "Siemens",
  "ManufacturersModelName": "Prisma",
  "Modality": "MR",
  "MultibandAccelerationFactor": 8,
  "PartialFourier": 1,
  "PatientPosition": "HFS",
  "PercentPhaseFOV": 100,
  "PercentSampling": 100,
  "PhaseEncodingDirection": "j-",
  "PhaseEncodingSteps": 82,
  "PhaseResolution": 1,
  "PixelBandwidth": 3050,
  "ProcedureStepDescription": "Wager_Wager^1076_spacetop",
  "ProtocolName": "func_run-02_task-faces_acq-ap-mb8",
  "PulseSequenceDetails": "%CustomerSeq%\\cmrr_mbep2d_bold",
  "ReceiveCoilActiveElements": "HEA;HEP",
  "ReceiveCoilName": "Head_32",
  "ReconMatrixPE": 82,
  "RepetitionTime": 0.46,
  "SAR": 0.10506,
  "ScanOptions": "FS",
  "ScanningSequence": "EP",
  "SequenceName": "epfid2d1_82",
  "SequenceVariant": "SK\\SS",
  "SeriesDescription": "func_run-02_task-faces_acq-ap-mb8",
  "SeriesNumber": 34,
  "ShimSetting": [4236, -7749, -7279, 204, -80, -103, -37, 55],
  "SliceThickness": 2.7,
  "SliceTiming": [0, 0.2525, 0.0625, 0.315, 0.125, 0.3775, 0.1875, 0, 0.2525, 0.0625, 0.315, 0.125, 0.3775, 0.1875, 0, 0.2525, 0.0625, 0.315, 0.125, 0.3775, 0.1875, 0, 0.2525, 0.0625, 0.315, 0.125, 0.3775, 0.1875, 0, 0.2525, 0.0625, 0.315, 0.125, 0.3775, 0.1875, 0, 0.2525, 0.0625, 0.315, 0.125, 0.3775, 0.1875, 0, 0.2525, 0.0625, 0.315, 0.125, 0.3775, 0.1875, 0, 0.2525, 0.0625, 0.315, 0.125, 0.3775, 0.1875],
  "SoftwareVersions": "syngo MR E11",
  "SpacingBetweenSlices": 2.7,
  "StationName": "AWP66112",
  "TaskName": "faces",
  "TotalReadoutTime": 0.03969,
  "TxRefAmp": 250.16,
  "WipMemBlock": "f019e34a-ab05-4f3a-be30-bffc97b01b8b||Sequence: R016 ve11e/master r/434b28f1; Aug  7 2019 18:53:46 by eja",
  "dcmmeta_affine": [
    [-2.6811728477478027, 0.09643974155187607, -0.010479394346475601, 107.71952819824219],
    [0.09698984026908875, 2.6696200370788574, -0.25021564960479736, -106.14610290527344],
    [-0.0014241734752431512, 0.24884732067584991, 2.6883606910705566, -91.89774322509766],
    [0.0, 0.0, 0.0, 1.0]
],
  "dcmmeta_reorient_transform": [
    [0.0, -1.0, 0.0, 81.0],
    [1.0, 0.0, 0.0, 0.0],
    [0.0, 0.0, 1.0, 0.0],
    [0.0, 0.0, 0.0, 1.0]
],
  "dcmmeta_shape": [82, 82, 56, 914],
  "dcmmeta_slice_dim": 2,
  "dcmmeta_version": 0.6,
  "global": {
    "const": {
      "AccessionNumber": "A004525",
      "AcquisitionMatrix": [82, 0, 0, 82],
      "AngioFlag": "N",
      "BitsAllocated": 16,
      "BitsStored": 16,
      "BodyPartExamined": "BRAIN",
      "Columns": 656,
      "EchoNumbers": 1,
      "EchoTime": 27.2,
      "EchoTrainLength": 82,
      "FlipAngle": 44.0,
      "HighBit": 15,
      "ImageOrientationPatient": [0.99934620674637, -0.0361507577093, -0.0005308283011, 0.03594572164041, 0.99504016882102, -0.0927521834158],
      "ImagePositionPatient": [-912.70595272494, -848.437982048, 0.08680922601945],
      "ImageType": [
        "ORIGINAL",
        "PRIMARY",
        "M",
        "MB",
        "ND",
        "NORM",
        "MOSAIC"
],
      "ImagedNucleus": "1H",
      "ImagingFrequency": 123.259116,
      "InPlanePhaseEncodingDirection": "COL",
      "MRAcquisitionType": "2D",
      "MagneticFieldStrength": 3.0,
      "Manufacturer": "SIEMENS",
      "ManufacturerModelName": "Prisma",
      "Modality": "MR",
      "NumberOfAverages": 1.0,
      "NumberOfPhaseEncodingSteps": 82,
      "PercentPhaseFieldOfView": 100.0,
      "PercentSampling": 100.0,
      "PerformedProcedureStepStartTime": "181807.520000",
      "PhotometricInterpretation": "MONOCHROME2",
      "PixelBandwidth": 3050.0,
      "PixelRepresentation": 0,
      "PixelSpacing": [2.6829268932343, 2.6829268932343],
      "ProtocolName": "func_run-02_task-faces_acq-ap-mb8",
      "RepetitionTime": 460.0,
      "Rows": 656,
      "SAR": 0.10506039444935,
      "SamplesPerPixel": 1,
      "ScanOptions": "FS",
      "ScanningSequence": "EP",
      "SequenceName": "epfid2d1_82",
      "SequenceVariant": [
        "SK",
        "SS"
],
      "SeriesDescription": "func_run-02_task-faces_acq-ap-mb8",
      "SeriesNumber": 34,
      "SeriesTime": "192352.064000",
      "SliceLocation": -82.082847904766,
      "SliceThickness": 2.7000000476837,
      "SmallestImagePixelValue": 0,
      "SoftwareVersions": "syngo MR E11",
      "SpacingBetweenSlices": 2.7000000708886,
      "SpecificCharacterSet": "ISO_IR 100",
      "StudyID": "1",
      "StudyTime": "181807.471000",
      "TransmitCoilName": "Body",
      "VariableFlipAngleFlag": "N",
      "WindowCenterWidthExplanation": "Algo1"
    },
    "slices": {}
  },
  "time": {
    "samples": {
      "AcquisitionNumber": [1, 2, 3, 4, 5, 6, 7, 8, 9, 10, 11, 12, 13, 14, 15, 16, 17, 18, 19, 20, 21, 22, 23, 24, 25, 26, 27, 28, 29, 30, 31, 32, 33, 34, 35, 36, 37, 38, 39, 40, 41, 42, 43, 44, 45, 46, 47, 48, 49, 50, 51, 52, 53, 54, 55, 56, 57, 58, 59, 60, 61, 62, 63, 64, 65, 66, 67, 68, 69, 70, 71, 72, 73, 74, 75, 76, 77, 78, 79, 80, 81, 82, 83, 84, 85, 86, 87, 88, 89, 90, 91, 92, 93, 94, 95, 96, 97, 98, 99, 100, 101, 102, 103, 104, 105, 106, 107, 108, 109, 110, 111, 112, 113, 114, 115, 116, 117, 118, 119, 120, 121, 122, 123, 124, 125, 126, 127, 128, 129, 130, 131, 132, 133, 134, 135, 136, 137, 138, 139, 140, 141, 142, 143, 144, 145, 146, 147, 148, 149, 150, 151, 152, 153, 154, 155, 156, 157, 158, 159, 160, 161, 162, 163, 164, 165, 166, 167, 168, 169, 170, 171, 172, 173, 174, 175, 176, 177, 178, 179, 180, 181, 182, 183, 184, 185, 186, 187, 188, 189, 190, 191, 192, 193, 194, 195, 196, 197, 198, 199, 200, 201, 202, 203, 204, 205, 206, 207, 208, 209, 210, 211, 212, 213, 214, 215, 216, 217, 218, 219, 220, 221, 222, 223, 224, 225, 226, 227, 228, 229, 230, 231, 232, 233, 234, 235, 236, 237, 238, 239, 240, 241, 242, 243, 244, 245, 246, 247, 248, 249, 250, 251, 252, 253, 254, 255, 256, 257, 258, 259, 260, 261, 262, 263, 264, 265, 266, 267, 268, 269, 270, 271, 272, 273, 274, 275, 276, 277, 278, 279, 280, 281, 282, 283, 284, 285, 286, 287, 288, 289, 290, 291, 292, 293, 294, 295, 296, 297, 298, 299, 300, 301, 302, 303, 304, 305, 306, 307, 308, 309, 310, 311, 312, 313, 314, 315, 316, 317, 318, 319, 320, 321, 322, 323, 324, 325, 326, 327, 328, 329, 330, 331, 332, 333, 334, 335, 336, 337, 338, 339, 340, 341, 342, 343, 344, 345, 346, 347, 348, 349, 350, 351, 352, 353, 354, 355, 356, 357, 358, 359, 360, 361, 362, 363, 364, 365, 366, 367, 368, 369, 370, 371, 372, 373, 374, 375, 376, 377, 378, 379, 380, 381, 382, 383, 384, 385, 386, 387, 388, 389, 390, 391, 392, 393, 394, 395, 396, 397, 398, 399, 400, 401, 402, 403, 404, 405, 406, 407, 408, 409, 410, 411, 412, 413, 414, 415, 416, 417, 418, 419, 420, 421, 422, 423, 424, 425, 426, 427, 428, 429, 430, 431, 432, 433, 434, 435, 436, 437, 438, 439, 440, 441, 442, 443, 444, 445, 446, 447, 448, 449, 450, 451, 452, 453, 454, 455, 456, 457, 458, 459, 460, 461, 462, 463, 464, 465, 466, 467, 468, 469, 470, 471, 472, 473, 474, 475, 476, 477, 478, 479, 480, 481, 482, 483, 484, 485, 486, 487, 488, 489, 490, 491, 492, 493, 494, 495, 496, 497, 498, 499, 500, 501, 502, 503, 504, 505, 506, 507, 508, 509, 510, 511, 512, 513, 514, 515, 516, 517, 518, 519, 520, 521, 522, 523, 524, 525, 526, 527, 528, 529, 530, 531, 532, 533, 534, 535, 536, 537, 538, 539, 540, 541, 542, 543, 544, 545, 546, 547, 548, 549, 550, 551, 552, 553, 554, 555, 556, 557, 558, 559, 560, 561, 562, 563, 564, 565, 566, 567, 568, 569, 570, 571, 572, 573, 574, 575, 576, 577, 578, 579, 580, 581, 582, 583, 584, 585, 586, 587, 588, 589, 590, 591, 592, 593, 594, 595, 596, 597, 598, 599, 600, 601, 602, 603, 604, 605, 606, 607, 608, 609, 610, 611, 612, 613, 614, 615, 616, 617, 618, 619, 620, 621, 622, 623, 624, 625, 626, 627, 628, 629, 630, 631, 632, 633, 634, 635, 636, 637, 638, 639, 640, 641, 642, 643, 644, 645, 646, 647, 648, 649, 650, 651, 652, 653, 654, 655, 656, 657, 658, 659, 660, 661, 662, 663, 664, 665, 666, 667, 668, 669, 670, 671, 672, 673, 674, 675, 676, 677, 678, 679, 680, 681, 682, 683, 684, 685, 686, 687, 688, 689, 690, 691, 692, 693, 694, 695, 696, 697, 698, 699, 700, 701, 702, 703, 704, 705, 706, 707, 708, 709, 710, 711, 712, 713, 714, 715, 716, 717, 718, 719, 720, 721, 722, 723, 724, 725, 726, 727, 728, 729, 730, 731, 732, 733, 734, 735, 736, 737, 738, 739, 740, 741, 742, 743, 744, 745, 746, 747, 748, 749, 750, 751, 752, 753, 754, 755, 756, 757, 758, 759, 760, 761, 762, 763, 764, 765, 766, 767, 768, 769, 770, 771, 772, 773, 774, 775, 776, 777, 778, 779, 780, 781, 782, 783, 784, 785, 786, 787, 788, 789, 790, 791, 792, 793, 794, 795, 796, 797, 798, 799, 800, 801, 802, 803, 804, 805, 806, 807, 808, 809, 810, 811, 812, 813, 814, 815, 816, 817, 818, 819, 820, 821, 822, 823, 824, 825, 826, 827, 828, 829, 830, 831, 832, 833, 834, 835, 836, 837, 838, 839, 840, 841, 842, 843, 844, 845, 846, 847, 848, 849, 850, 851, 852, 853, 854, 855, 856, 857, 858, 859, 860, 861, 862, 863, 864, 865, 866, 867, 868, 869, 870, 871, 872, 873, 874, 875, 876, 877, 878, 879, 880, 881, 882, 883, 884, 885, 886, 887, 888, 889, 890, 891, 892, 893, 894, 895, 896, 897, 898, 899, 900, 901, 902, 903, 904, 905, 906, 907, 908, 909, 910, 911, 912, 913, 914],
      "AcquisitionTime": ["192331.922500", "192332.382500", "192332.842500", "192333.302500", "192333.762500", "192334.222500", "192334.682500", "192335.142500", "192335.602500", "192336.062500", "192336.522500", "192336.982500", "192337.442500", "192337.902500", "192338.362500", "192338.822500", "192339.282500", "192339.742500", "192340.202500", "192340.662500", "192341.122500", "192341.582500", "192342.042500", "192342.502500", "192342.962500", "192343.422500", "192343.882500", "192344.342500", "192344.802500", "192345.262500", "192345.722500", "192346.182500", "192346.642500", "192347.102500", "192347.562500", "192348.022500", "192348.482500", "192348.942500", "192349.402500", "192349.862500", "192350.322500", "192350.782500", "192351.242500", "192351.702500", "192352.162500", "192352.622500", "192353.082500", "192353.542500", "192354.002500", "192354.462500", "192354.922500", "192355.382500", "192355.842500", "192356.302500", "192356.762500", "192357.222500", "192357.682500", "192358.142500", "192358.602500", "192359.062500", "192359.522500", "192359.982500", "192400.442500", "192400.902500", "192401.362500", "192401.822500", "192402.282500", "192402.742500", "192403.202500", "192403.662500", "192404.122500", "192404.582500", "192405.042500", "192405.502500", "192405.962500", "192406.422500", "192406.882500", "192407.342500", "192407.802500", "192408.262500", "192408.722500", "192409.182500", "192409.642500", "192410.102500", "192410.562500", "192411.022500", "192411.482500", "192411.942500", "192412.402500", "192412.862500", "192413.322500", "192413.782500", "192414.242500", "192414.702500", "192415.162500", "192415.622500", "192416.082500", "192416.542500", "192417.002500", "192417.462500", "192417.922500", "192418.382500", "192418.842500", "192419.302500", "192419.762500", "192420.222500", "192420.682500", "192421.142500", "192421.602500", "192422.062500", "192422.522500", "192422.982500", "192423.442500", "192423.902500", "192424.362500", "192424.822500", "192425.282500", "192425.742500", "192426.202500", "192426.662500", "192427.122500", "192427.582500", "192428.042500", "192428.502500", "192428.962500", "192429.422500", "192429.882500", "192430.342500", "192430.802500", "192431.262500", "192431.722500", "192432.182500", "192432.642500", "192433.102500", "192433.562500", "192434.022500", "192434.482500", "192434.942500", "192435.402500", "192435.862500", "192436.322500", "192436.782500", "192437.242500", "192437.702500", "192438.162500", "192438.622500", "192439.082500", "192439.542500", "192440.002500", "192440.462500", "192440.922500", "192441.382500", "192441.842500", "192442.302500", "192442.762500", "192443.222500", "192443.682500", "192444.142500", "192444.602500", "192445.062500", "192445.522500", "192445.982500", "192446.442500", "192446.902500", "192447.362500", "192447.822500", "192448.282500", "192448.742500", "192449.202500", "192449.662500", "192450.122500", "192450.582500", "192451.042500", "192451.502500", "192451.962500", "192452.422500", "192452.882500", "192453.342500", "192453.802500", "192454.262500", "192454.722500", "192455.182500", "192455.642500", "192456.102500", "192456.562500", "192457.022500", "192457.482500", "192457.942500", "192458.402500", "192458.862500", "192459.322500", "192459.782500", "192500.242500", "192500.702500", "192501.162500", "192501.622500", "192502.082500", "192502.542500", "192503.002500", "192503.462500", "192503.922500", "192504.382500", "192504.842500", "192505.302500", "192505.762500", "192506.222500", "192506.682500", "192507.142500", "192507.602500", "192508.062500", "192508.522500", "192508.982500", "192509.442500", "192509.902500", "192510.362500", "192510.822500", "192511.282500", "192511.742500", "192512.202500", "192512.662500", "192513.122500", "192513.582500", "192514.042500", "192514.502500", "192514.962500", "192515.422500", "192515.882500", "192516.342500", "192516.802500", "192517.262500", "192517.722500", "192518.182500", "192518.642500", "192519.102500", "192519.562500", "192520.022500", "192520.482500", "192520.942500", "192521.402500", "192521.862500", "192522.322500", "192522.782500", "192523.242500", "192523.702500", "192524.162500", "192524.622500", "192525.082500", "192525.542500", "192526.002500", "192526.462500", "192526.922500", "192527.382500", "192527.842500", "192528.302500", "192528.762500", "192529.222500", "192529.682500", "192530.142500", "192530.602500", "192531.062500", "192531.522500", "192531.982500", "192532.442500", "192532.902500", "192533.362500", "192533.822500", "192534.282500", "192534.742500", "192535.202500", "192535.662500", "192536.122500", "192536.582500", "192537.042500", "192537.502500", "192537.962500", "192538.422500", "192538.882500", "192539.342500", "192539.802500", "192540.262500", "192540.722500", "192541.182500", "192541.642500", "192542.102500", "192542.562500", "192543.022500", "192543.482500", "192543.942500", "192544.402500", "192544.862500", "192545.322500", "192545.782500", "192546.242500", "192546.702500", "192547.162500", "192547.622500", "192548.082500", "192548.542500", "192549.002500", "192549.462500", "192549.922500", "192550.382500", "192550.842500", "192551.302500", "192551.762500", "192552.222500", "192552.682500", "192553.142500", "192553.602500", "192554.062500", "192554.522500", "192554.982500", "192555.442500", "192555.902500", "192556.362500", "192556.822500", "192557.282500", "192557.742500", "192558.202500", "192558.662500", "192559.122500", "192559.582500", "192600.042500", "192600.502500", "192600.962500", "192601.422500", "192601.882500", "192602.342500", "192602.802500", "192603.262500", "192603.722500", "192604.182500", "192604.642500", "192605.102500", "192605.562500", "192606.022500", "192606.482500", "192606.942500", "192607.402500", "192607.862500", "192608.322500", "192608.782500", "192609.242500", "192609.702500", "192610.162500", "192610.622500", "192611.082500", "192611.542500", "192612.002500", "192612.462500", "192612.922500", "192613.382500", "192613.842500", "192614.302500", "192614.762500", "192615.222500", "192615.682500", "192616.142500", "192616.602500", "192617.062500", "192617.522500", "192617.982500", "192618.442500", "192618.902500", "192619.362500", "192619.822500", "192620.282500", "192620.742500", "192621.202500", "192621.662500", "192622.122500", "192622.582500", "192623.042500", "192623.502500", "192623.962500", "192624.422500", "192624.882500", "192625.342500", "192625.802500", "192626.262500", "192626.722500", "192627.182500", "192627.642500", "192628.102500", "192628.562500", "192629.022500", "192629.482500", "192629.942500", "192630.402500", "192630.862500", "192631.322500", "192631.782500", "192632.242500", "192632.702500", "192633.162500", "192633.622500", "192634.082500", "192634.542500", "192635.002500", "192635.462500", "192635.922500", "192636.382500", "192636.842500", "192637.302500", "192637.762500", "192638.222500", "192638.682500", "192639.142500", "192639.602500", "192640.062500", "192640.522500", "192640.982500", "192641.442500", "192641.902500", "192642.362500", "192642.822500", "192643.282500", "192643.742500", "192644.202500", "192644.662500", "192645.122500", "192645.582500", "192646.042500", "192646.502500", "192646.962500", "192647.422500", "192647.882500", "192648.342500", "192648.802500", "192649.262500", "192649.722500", "192650.182500", "192650.642500", "192651.102500", "192651.562500", "192652.022500", "192652.482500", "192652.942500", "192653.402500", "192653.862500", "192654.322500", "192654.782500", "192655.242500", "192655.702500", "192656.162500", "192656.622500", "192657.082500", "192657.542500", "192658.002500", "192658.462500", "192658.922500", "192659.382500", "192659.842500", "192700.302500", "192700.762500", "192701.222500", "192701.682500", "192702.142500", "192702.602500", "192703.062500", "192703.522500", "192703.982500", "192704.442500", "192704.902500", "192705.362500", "192705.822500", "192706.282500", "192706.742500", "192707.202500", "192707.662500", "192708.122500", "192708.582500", "192709.042500", "192709.502500", "192709.962500", "192710.422500", "192710.882500", "192711.342500", "192711.802500", "192712.262500", "192712.722500", "192713.182500", "192713.642500", "192714.102500", "192714.562500", "192715.022500", "192715.482500", "192715.942500", "192716.402500", "192716.862500", "192717.322500", "192717.782500", "192718.242500", "192718.702500", "192719.162500", "192719.622500", "192720.082500", "192720.542500", "192721.002500", "192721.462500", "192721.922500", "192722.382500", "192722.842500", "192723.302500", "192723.762500", "192724.222500", "192724.682500", "192725.142500", "192725.602500", "192726.062500", "192726.522500", "192726.982500", "192727.442500", "192727.902500", "192728.362500", "192728.822500", "192729.282500", "192729.742500", "192730.202500", "192730.662500", "192731.122500", "192731.582500", "192732.042500", "192732.502500", "192732.962500", "192733.422500", "192733.882500", "192734.342500", "192734.802500", "192735.262500", "192735.722500", "192736.182500", "192736.642500", "192737.102500", "192737.562500", "192738.022500", "192738.482500", "192738.942500", "192739.402500", "192739.862500", "192740.322500", "192740.782500", "192741.242500", "192741.702500", "192742.162500", "192742.622500", "192743.082500", "192743.542500", "192744.002500", "192744.462500", "192744.922500", "192745.382500", "192745.842500", "192746.302500", "192746.762500", "192747.222500", "192747.682500", "192748.142500", "192748.602500", "192749.062500", "192749.522500", "192749.982500", "192750.442500", "192750.902500", "192751.362500", "192751.822500", "192752.282500", "192752.742500", "192753.202500", "192753.662500", "192754.122500", "192754.582500", "192755.042500", "192755.502500", "192755.962500", "192756.422500", "192756.882500", "192757.342500", "192757.802500", "192758.262500", "192758.722500", "192759.182500", "192759.642500", "192800.102500", "192800.562500", "192801.022500", "192801.482500", "192801.942500", "192802.402500", "192802.862500", "192803.322500", "192803.782500", "192804.242500", "192804.702500", "192805.162500", "192805.622500", "192806.082500", "192806.542500", "192807.002500", "192807.462500", "192807.922500", "192808.382500", "192808.842500", "192809.302500", "192809.762500", "192810.222500", "192810.682500", "192811.142500", "192811.602500", "192812.062500", "192812.522500", "192812.982500", "192813.442500", "192813.902500", "192814.362500", "192814.822500", "192815.282500", "192815.742500", "192816.202500", "192816.662500", "192817.122500", "192817.582500", "192818.042500", "192818.502500", "192818.962500", "192819.422500", "192819.882500", "192820.342500", "192820.802500", "192821.262500", "192821.722500", "192822.182500", "192822.642500", "192823.102500", "192823.562500", "192824.022500", "192824.482500", "192824.942500", "192825.402500", "192825.862500", "192826.322500", "192826.782500", "192827.242500", "192827.702500", "192828.162500", "192828.622500", "192829.082500", "192829.542500", "192830.002500", "192830.462500", "192830.922500", "192831.382500", "192831.842500", "192832.302500", "192832.762500", "192833.222500", "192833.682500", "192834.142500", "192834.602500", "192835.062500", "192835.522500", "192835.982500", "192836.442500", "192836.902500", "192837.362500", "192837.822500", "192838.282500", "192838.742500", "192839.202500", "192839.662500", "192840.122500", "192840.582500", "192841.042500", "192841.502500", "192841.962500", "192842.422500", "192842.882500", "192843.342500", "192843.802500", "192844.262500", "192844.722500", "192845.182500", "192845.642500", "192846.102500", "192846.562500", "192847.022500", "192847.482500", "192847.942500", "192848.402500", "192848.862500", "192849.322500", "192849.782500", "192850.242500", "192850.702500", "192851.162500", "192851.622500", "192852.082500", "192852.542500", "192853.002500", "192853.462500", "192853.922500", "192854.382500", "192854.842500", "192855.302500", "192855.762500", "192856.222500", "192856.682500", "192857.142500", "192857.602500", "192858.062500", "192858.522500", "192858.982500", "192859.442500", "192859.902500", "192900.362500", "192900.822500", "192901.282500", "192901.742500", "192902.202500", "192902.662500", "192903.122500", "192903.582500", "192904.042500", "192904.502500", "192904.962500", "192905.422500", "192905.882500", "192906.342500", "192906.802500", "192907.262500", "192907.722500", "192908.182500", "192908.642500", "192909.102500", "192909.562500", "192910.022500", "192910.482500", "192910.942500", "192911.402500", "192911.862500", "192912.322500", "192912.782500", "192913.242500", "192913.702500", "192914.162500", "192914.622500", "192915.082500", "192915.542500", "192916.002500", "192916.462500", "192916.922500", "192917.382500", "192917.842500", "192918.302500", "192918.762500", "192919.222500", "192919.682500", "192920.142500", "192920.602500", "192921.062500", "192921.522500", "192921.982500", "192922.442500", "192922.902500", "192923.362500", "192923.822500", "192924.282500", "192924.742500", "192925.202500", "192925.662500", "192926.122500", "192926.582500", "192927.042500", "192927.502500", "192927.962500", "192928.422500", "192928.882500", "192929.342500", "192929.802500", "192930.262500", "192930.722500", "192931.182500", "192931.642500", "192932.102500", "192932.562500", "192933.022500", "192933.482500", "192933.942500", "192934.402500", "192934.862500", "192935.322500", "192935.782500", "192936.242500", "192936.702500", "192937.162500", "192937.622500", "192938.082500", "192938.542500", "192939.002500", "192939.462500", "192939.922500", "192940.382500", "192940.842500", "192941.302500", "192941.762500", "192942.222500", "192942.682500", "192943.142500", "192943.602500", "192944.062500", "192944.522500", "192944.982500", "192945.442500", "192945.902500", "192946.362500", "192946.822500", "192947.282500", "192947.742500", "192948.202500", "192948.662500", "192949.122500", "192949.582500", "192950.042500", "192950.502500", "192950.962500", "192951.422500", "192951.882500", "192952.342500", "192952.802500", "192953.262500", "192953.722500", "192954.182500", "192954.642500", "192955.102500", "192955.562500", "192956.022500", "192956.482500", "192956.942500", "192957.402500", "192957.862500", "192958.322500", "192958.782500", "192959.242500", "192959.702500", "193000.162500", "193000.622500", "193001.082500", "193001.542500", "193002.002500", "193002.462500", "193002.922500", "193003.382500", "193003.842500", "193004.302500", "193004.762500", "193005.222500", "193005.682500", "193006.142500", "193006.602500", "193007.062500", "193007.522500", "193007.982500", "193008.442500", "193008.902500", "193009.362500", "193009.822500", "193010.282500", "193010.742500", "193011.202500", "193011.662500", "193012.122500", "193012.582500", "193013.042500", "193013.502500", "193013.962500", "193014.422500", "193014.882500", "193015.342500", "193015.802500", "193016.262500", "193016.722500", "193017.182500", "193017.642500", "193018.102500", "193018.562500", "193019.022500", "193019.482500", "193019.942500", "193020.402500", "193020.862500", "193021.322500", "193021.782500", "193022.242500", "193022.702500", "193023.162500", "193023.622500", "193024.082500", "193024.542500", "193025.002500", "193025.462500", "193025.922500", "193026.382500", "193026.842500", "193027.302500", "193027.762500", "193028.222500", "193028.682500", "193029.142500", "193029.602500", "193030.062500", "193030.522500", "193030.982500", "193031.442500", "193031.902500"],
