{
  "AcquisitionMatrixPE": 82,
  "AcquisitionNumber": 1,
  "AcquisitionTime": "18:46:3.975000",
  "BandwidthPerPixelPhaseEncode": 24.888,
  "BaseResolution": 82,
  "BodyPartExamined": "BRAIN",
  "ConsistencyInfo": "N4_VE11E_LATEST_20181129",
  "ConversionSoftware": "dcm2niix",
  "ConversionSoftwareVersion": "v1.0.20201102",
  "DerivedVendorReportedEchoSpacing": 0.00049,
  "DeviceSerialNumber": "66112",
  "DwellTime": 2e-06,
  "EchoTime": 0.0272,
  "EchoTrainLength": 82,
  "EffectiveEchoSpacing": 0.00049,
  "FlipAngle": 44,
  "ImageComments": "Unaliased MB8/PE3",
  "ImageOrientationPatientDICOM": [0.999347, -0.0357968, 0.00484332, 0.0361205, 0.988674, -0.145669],
  "ImageType": [
    "ORIGINAL",
    "PRIMARY",
    "M",
    "MB",
    "ND",
    "NORM",
    "MOSAIC"
],
  "ImagingFrequency": 123.259,
  "InPlanePhaseEncodingDirectionDICOM": "COL",
  "InstitutionAddress": "Maynard 3,Hanover,NH,US,03755",
  "InstitutionName": "Dartmouth College - PBS",
  "InstitutionalDepartmentName": "Department",
  "MRAcquisitionType": "2D",
  "MagneticFieldStrength": 3,
  "Manufacturer": "Siemens",
  "ManufacturersModelName": "Prisma",
  "Modality": "MR",
  "MultibandAccelerationFactor": 8,
  "PartialFourier": 1,
  "PatientPosition": "HFS",
  "PercentPhaseFOV": 100,
  "PercentSampling": 100,
  "PhaseEncodingDirection": "j-",
  "PhaseEncodingSteps": 82,
  "PhaseResolution": 1,
  "PixelBandwidth": 3050,
  "ProcedureStepDescription": "Wager_Wager^1076_spacetop",
  "ProtocolName": "func_run-02_task-narratives_acq-ap-mb8",
  "PulseSequenceDetails": "%CustomerSeq%\\cmrr_mbep2d_bold",
  "ReceiveCoilActiveElements": "HEA;HEP",
  "ReceiveCoilName": "Head_32",
  "ReconMatrixPE": 82,
  "RepetitionTime": 0.46,
  "SAR": 0.105165,
  "ScanOptions": "FS",
  "ScanningSequence": "EP",
  "SequenceName": "epfid2d1_82",
  "SequenceVariant": "SK\\SS",
  "SeriesDescription": "func_run-02_task-narratives_acq-ap-mb8",
  "SeriesNumber": 26,
  "ShimSetting": [4236, -7750, -7277, 211, -78, -101, -38, 55],
  "SliceThickness": 2.7,
  "SliceTiming": [0, 0.2525, 0.0625, 0.315, 0.125, 0.3775, 0.1875, 0, 0.2525, 0.0625, 0.315, 0.125, 0.3775, 0.1875, 0, 0.2525, 0.0625, 0.315, 0.125, 0.3775, 0.1875, 0, 0.2525, 0.0625, 0.315, 0.125, 0.3775, 0.1875, 0, 0.2525, 0.0625, 0.315, 0.125, 0.3775, 0.1875, 0, 0.2525, 0.0625, 0.315, 0.125, 0.3775, 0.1875, 0, 0.2525, 0.0625, 0.315, 0.125, 0.3775, 0.1875, 0, 0.2525, 0.0625, 0.315, 0.125, 0.3775, 0.1875],
  "SoftwareVersions": "syngo MR E11",
  "SpacingBetweenSlices": 2.7,
  "StationName": "AWP66112",
  "TaskName": "narratives",
  "TotalReadoutTime": 0.03969,
  "TxRefAmp": 250.16,
  "WipMemBlock": "c496ae35-8704-4ddb-a438-bab633daf847||Sequence: R016 ve11e/master r/434b28f1; Aug  7 2019 18:53:46 by eja",
  "dcmmeta_affine": [
    [-2.681175947189331, 0.09690860658884048, -0.0011502864072099328, 107.21641540527344],
    [0.0960402637720108, 2.6525392532348633, -0.3935227692127228, -101.85558319091797],
    [0.012994281947612762, 0.39082005620002747, 2.671168088912964, -97.86311340332031],
    [0.0, 0.0, 0.0, 1.0]
],
  "dcmmeta_reorient_transform": [
    [0.0, -1.0, 0.0, 81.0],
    [1.0, 0.0, 0.0, 0.0],
    [0.0, 0.0, 1.0, 0.0],
    [0.0, 0.0, 0.0, 1.0]
],
  "dcmmeta_shape": [82, 82, 56, 1098],
  "dcmmeta_slice_dim": 2,
  "dcmmeta_version": 0.6,
  "global": {
    "const": {
      "AccessionNumber": "A004525",
      "AcquisitionMatrix": [82, 0, 0, 82],
      "AngioFlag": "N",
      "BitsAllocated": 16,
      "BitsStored": 16,
      "BodyPartExamined": "BRAIN",
      "Columns": 656,
      "EchoNumbers": 1,
      "EchoTime": 27.2,
      "EchoTrainLength": 82,
      "FlipAngle": 44.0,
      "HighBit": 15,
      "ImageOrientationPatient": [0.99934735178151, -0.0357968254009, 0.00484332308461, 0.03612047873504, 0.98867374167789, -0.145669295092],
      "ImagePositionPatient": [-912.37626121503, -846.71535251798, 42.229310408543],
      "ImageType": [
        "ORIGINAL",
        "PRIMARY",
        "M",
        "MB",
        "ND",
        "NORM",
        "MOSAIC"
],
      "ImagedNucleus": "1H",
      "ImagingFrequency": 123.259108,
      "InPlanePhaseEncodingDirection": "COL",
      "MRAcquisitionType": "2D",
      "MagneticFieldStrength": 3.0,
      "Manufacturer": "SIEMENS",
      "ManufacturerModelName": "Prisma",
      "Modality": "MR",
      "NumberOfAverages": 1.0,
      "NumberOfPhaseEncodingSteps": 82,
      "PercentPhaseFieldOfView": 100.0,
      "PercentSampling": 100.0,
      "PerformedProcedureStepStartTime": "181807.520000",
      "PhotometricInterpretation": "MONOCHROME2",
      "PixelBandwidth": 3050.0,
      "PixelRepresentation": 0,
      "PixelSpacing": [2.6829268932343, 2.6829268932343],
      "ProtocolName": "func_run-02_task-narratives_acq-ap-mb8",
      "RepetitionTime": 460.0,
      "Rows": 656,
      "SAR": 0.10516504026898,
      "SamplesPerPixel": 1,
      "ScanOptions": "FS",
      "ScanningSequence": "EP",
      "SequenceName": "epfid2d1_82",
      "SequenceVariant": [
        "SK",
        "SS"
],
      "SeriesDescription": "func_run-02_task-narratives_acq-ap-mb8",
      "SeriesNumber": 26,
      "SeriesTime": "184631.962000",
      "SliceLocation": -82.018395094909,
      "SliceThickness": 2.7000000476837,
      "SmallestImagePixelValue": 0,
      "SoftwareVersions": "syngo MR E11",
      "SpacingBetweenSlices": 2.7000000935379,
      "SpecificCharacterSet": "ISO_IR 100",
      "StudyID": "1",
      "StudyTime": "181807.471000",
      "TransmitCoilName": "Body",
      "VariableFlipAngleFlag": "N",
      "WindowCenterWidthExplanation": "Algo1"
    },
    "slices": {}
  },
  "time": {
    "samples": {
      "AcquisitionNumber": [1, 2, 3, 4, 5, 6, 7, 8, 9, 10, 11, 12, 13, 14, 15, 16, 17, 18, 19, 20, 21, 22, 23, 24, 25, 26, 27, 28, 29, 30, 31, 32, 33, 34, 35, 36, 37, 38, 39, 40, 41, 42, 43, 44, 45, 46, 47, 48, 49, 50, 51, 52, 53, 54, 55, 56, 57, 58, 59, 60, 61, 62, 63, 64, 65, 66, 67, 68, 69, 70, 71, 72, 73, 74, 75, 76, 77, 78, 79, 80, 81, 82, 83, 84, 85, 86, 87, 88, 89, 90, 91, 92, 93, 94, 95, 96, 97, 98, 99, 100, 101, 102, 103, 104, 105, 106, 107, 108, 109, 110, 111, 112, 113, 114, 115, 116, 117, 118, 119, 120, 121, 122, 123, 124, 125, 126, 127, 128, 129, 130, 131, 132, 133, 134, 135, 136, 137, 138, 139, 140, 141, 142, 143, 144, 145, 146, 147, 148, 149, 150, 151, 152, 153, 154, 155, 156, 157, 158, 159, 160, 161, 162, 163, 164, 165, 166, 167, 168, 169, 170, 171, 172, 173, 174, 175, 176, 177, 178, 179, 180, 181, 182, 183, 184, 185, 186, 187, 188, 189, 190, 191, 192, 193, 194, 195, 196, 197, 198, 199, 200, 201, 202, 203, 204, 205, 206, 207, 208, 209, 210, 211, 212, 213, 214, 215, 216, 217, 218, 219, 220, 221, 222, 223, 224, 225, 226, 227, 228, 229, 230, 231, 232, 233, 234, 235, 236, 237, 238, 239, 240, 241, 242, 243, 244, 245, 246, 247, 248, 249, 250, 251, 252, 253, 254, 255, 256, 257, 258, 259, 260, 261, 262, 263, 264, 265, 266, 267, 268, 269, 270, 271, 272, 273, 274, 275, 276, 277, 278, 279, 280, 281, 282, 283, 284, 285, 286, 287, 288, 289, 290, 291, 292, 293, 294, 295, 296, 297, 298, 299, 300, 301, 302, 303, 304, 305, 306, 307, 308, 309, 310, 311, 312, 313, 314, 315, 316, 317, 318, 319, 320, 321, 322, 323, 324, 325, 326, 327, 328, 329, 330, 331, 332, 333, 334, 335, 336, 337, 338, 339, 340, 341, 342, 343, 344, 345, 346, 347, 348, 349, 350, 351, 352, 353, 354, 355, 356, 357, 358, 359, 360, 361, 362, 363, 364, 365, 366, 367, 368, 369, 370, 371, 372, 373, 374, 375, 376, 377, 378, 379, 380, 381, 382, 383, 384, 385, 386, 387, 388, 389, 390, 391, 392, 393, 394, 395, 396, 397, 398, 399, 400, 401, 402, 403, 404, 405, 406, 407, 408, 409, 410, 411, 412, 413, 414, 415, 416, 417, 418, 419, 420, 421, 422, 423, 424, 425, 426, 427, 428, 429, 430, 431, 432, 433, 434, 435, 436, 437, 438, 439, 440, 441, 442, 443, 444, 445, 446, 447, 448, 449, 450, 451, 452, 453, 454, 455, 456, 457, 458, 459, 460, 461, 462, 463, 464, 465, 466, 467, 468, 469, 470, 471, 472, 473, 474, 475, 476, 477, 478, 479, 480, 481, 482, 483, 484, 485, 486, 487, 488, 489, 490, 491, 492, 493, 494, 495, 496, 497, 498, 499, 500, 501, 502, 503, 504, 505, 506, 507, 508, 509, 510, 511, 512, 513, 514, 515, 516, 517, 518, 519, 520, 521, 522, 523, 524, 525, 526, 527, 528, 529, 530, 531, 532, 533, 534, 535, 536, 537, 538, 539, 540, 541, 542, 543, 544, 545, 546, 547, 548, 549, 550, 551, 552, 553, 554, 555, 556, 557, 558, 559, 560, 561, 562, 563, 564, 565, 566, 567, 568, 569, 570, 571, 572, 573, 574, 575, 576, 577, 578, 579, 580, 581, 582, 583, 584, 585, 586, 587, 588, 589, 590, 591, 592, 593, 594, 595, 596, 597, 598, 599, 600, 601, 602, 603, 604, 605, 606, 607, 608, 609, 610, 611, 612, 613, 614, 615, 616, 617, 618, 619, 620, 621, 622, 623, 624, 625, 626, 627, 628, 629, 630, 631, 632, 633, 634, 635, 636, 637, 638, 639, 640, 641, 642, 643, 644, 645, 646, 647, 648, 649, 650, 651, 652, 653, 654, 655, 656, 657, 658, 659, 660, 661, 662, 663, 664, 665, 666, 667, 668, 669, 670, 671, 672, 673, 674, 675, 676, 677, 678, 679, 680, 681, 682, 683, 684, 685, 686, 687, 688, 689, 690, 691, 692, 693, 694, 695, 696, 697, 698, 699, 700, 701, 702, 703, 704, 705, 706, 707, 708, 709, 710, 711, 712, 713, 714, 715, 716, 717, 718, 719, 720, 721, 722, 723, 724, 725, 726, 727, 728, 729, 730, 731, 732, 733, 734, 735, 736, 737, 738, 739, 740, 741, 742, 743, 744, 745, 746, 747, 748, 749, 750, 751, 752, 753, 754, 755, 756, 757, 758, 759, 760, 761, 762, 763, 764, 765, 766, 767, 768, 769, 770, 771, 772, 773, 774, 775, 776, 777, 778, 779, 780, 781, 782, 783, 784, 785, 786, 787, 788, 789, 790, 791, 792, 793, 794, 795, 796, 797, 798, 799, 800, 801, 802, 803, 804, 805, 806, 807, 808, 809, 810, 811, 812, 813, 814, 815, 816, 817, 818, 819, 820, 821, 822, 823, 824, 825, 826, 827, 828, 829, 830, 831, 832, 833, 834, 835, 836, 837, 838, 839, 840, 841, 842, 843, 844, 845, 846, 847, 848, 849, 850, 851, 852, 853, 854, 855, 856, 857, 858, 859, 860, 861, 862, 863, 864, 865, 866, 867, 868, 869, 870, 871, 872, 873, 874, 875, 876, 877, 878, 879, 880, 881, 882, 883, 884, 885, 886, 887, 888, 889, 890, 891, 892, 893, 894, 895, 896, 897, 898, 899, 900, 901, 902, 903, 904, 905, 906, 907, 908, 909, 910, 911, 912, 913, 914, 915, 916, 917, 918, 919, 920, 921, 922, 923, 924, 925, 926, 927, 928, 929, 930, 931, 932, 933, 934, 935, 936, 937, 938, 939, 940, 941, 942, 943, 944, 945, 946, 947, 948, 949, 950, 951, 952, 953, 954, 955, 956, 957, 958, 959, 960, 961, 962, 963, 964, 965, 966, 967, 968, 969, 970, 971, 972, 973, 974, 975, 976, 977, 978, 979, 980, 981, 982, 983, 984, 985, 986, 987, 988, 989, 990, 991, 992, 993, 994, 995, 996, 997, 998, 999, 1000, 1001, 1002, 1003, 1004, 1005, 1006, 1007, 1008, 1009, 1010, 1011, 1012, 1013, 1014, 1015, 1016, 1017, 1018, 1019, 1020, 1021, 1022, 1023, 1024, 1025, 1026, 1027, 1028, 1029, 1030, 1031, 1032, 1033, 1034, 1035, 1036, 1037, 1038, 1039, 1040, 1041, 1042, 1043, 1044, 1045, 1046, 1047, 1048, 1049, 1050, 1051, 1052, 1053, 1054, 1055, 1056, 1057, 1058, 1059, 1060, 1061, 1062, 1063, 1064, 1065, 1066, 1067, 1068, 1069, 1070, 1071, 1072, 1073, 1074, 1075, 1076, 1077, 1078, 1079, 1080, 1081, 1082, 1083, 1084, 1085, 1086, 1087, 1088, 1089, 1090, 1091, 1092, 1093, 1094, 1095, 1096, 1097, 1098],
      "AcquisitionTime": ["184603.975000", "184604.435000", "184604.895000", "184605.355000", "184605.815000", "184606.275000", "184606.735000", "184607.195000", "184607.655000", "184608.115000", "184608.575000", "184609.035000", "184609.495000", "184609.955000", "184610.415000", "184610.875000", "184611.335000", "184611.795000", "184612.255000", "184612.715000", "184613.175000", "184613.635000", "184614.095000", "184614.555000", "184615.015000", "184615.475000", "184615.935000", "184616.395000", "184616.855000", "184617.315000", "184617.775000", "184618.235000", "184618.695000", "184619.155000", "184619.615000", "184620.075000", "184620.535000", "184620.995000", "184621.455000", "184621.915000", "184622.375000", "184622.835000", "184623.295000", "184623.755000", "184624.215000", "184624.675000", "184625.135000", "184625.595000", "184626.055000", "184626.515000", "184626.975000", "184627.435000", "184627.895000", "184628.355000", "184628.815000", "184629.275000", "184629.735000", "184630.195000", "184630.655000", "184631.115000", "184631.575000", "184632.035000", "184632.495000", "184632.955000", "184633.415000", "184633.875000", "184634.335000", "184634.795000", "184635.255000", "184635.715000", "184636.175000", "184636.635000", "184637.095000", "184637.555000", "184638.015000", "184638.475000", "184638.935000", "184639.395000", "184639.855000", "184640.315000", "184640.775000", "184641.235000", "184641.695000", "184642.155000", "184642.615000", "184643.075000", "184643.535000", "184643.995000", "184644.455000", "184644.915000", "184645.375000", "184645.835000", "184646.295000", "184646.755000", "184647.215000", "184647.675000", "184648.135000", "184648.595000", "184649.055000", "184649.515000", "184649.975000", "184650.435000", "184650.895000", "184651.355000", "184651.815000", "184652.275000", "184652.735000", "184653.195000", "184653.655000", "184654.115000", "184654.575000", "184655.035000", "184655.495000", "184655.955000", "184656.415000", "184656.875000", "184657.335000", "184657.795000", "184658.255000", "184658.715000", "184659.175000", "184659.635000", "184700.095000", "184700.555000", "184701.015000", "184701.475000", "184701.935000", "184702.395000", "184702.855000", "184703.315000", "184703.775000", "184704.235000", "184704.695000", "184705.155000", "184705.615000", "184706.075000", "184706.535000", "184706.995000", "184707.455000", "184707.915000", "184708.375000", "184708.835000", "184709.295000", "184709.755000", "184710.215000", "184710.675000", "184711.135000", "184711.595000", "184712.055000", "184712.515000", "184712.975000", "184713.435000", "184713.895000", "184714.355000", "184714.815000", "184715.275000", "184715.735000", "184716.195000", "184716.655000", "184717.115000", "184717.575000", "184718.035000", "184718.495000", "184718.955000", "184719.415000", "184719.875000", "184720.335000", "184720.795000", "184721.255000", "184721.715000", "184722.175000", "184722.635000", "184723.095000", "184723.555000", "184724.015000", "184724.475000", "184724.935000", "184725.395000", "184725.855000", "184726.315000", "184726.775000", "184727.235000", "184727.695000", "184728.155000", "184728.615000", "184729.075000", "184729.535000", "184729.995000", "184730.455000", "184730.915000", "184731.375000", "184731.835000", "184732.295000", "184732.755000", "184733.215000", "184733.675000", "184734.135000", "184734.595000", "184735.055000", "184735.515000", "184735.975000", "184736.435000", "184736.895000", "184737.355000", "184737.815000", "184738.275000", "184738.735000", "184739.195000", "184739.655000", "184740.115000", "184740.575000", "184741.035000", "184741.495000", "184741.955000", "184742.415000", "184742.875000", "184743.335000", "184743.795000", "184744.255000", "184744.715000", "184745.175000", "184745.635000", "184746.095000", "184746.555000", "184747.015000", "184747.475000", "184747.935000", "184748.395000", "184748.855000", "184749.315000", "184749.775000", "184750.235000", "184750.695000", "184751.155000", "184751.615000", "184752.075000", "184752.535000", "184752.995000", "184753.455000", "184753.915000", "184754.375000", "184754.835000", "184755.295000", "184755.755000", "184756.215000", "184756.675000", "184757.135000", "184757.595000", "184758.055000", "184758.515000", "184758.975000", "184759.435000", "184759.895000", "184800.355000", "184800.815000", "184801.275000", "184801.735000", "184802.195000", "184802.655000", "184803.115000", "184803.575000", "184804.035000", "184804.495000", "184804.955000", "184805.415000", "184805.875000", "184806.335000", "184806.795000", "184807.255000", "184807.715000", "184808.175000", "184808.635000", "184809.095000", "184809.555000", "184810.015000", "184810.475000", "184810.935000", "184811.395000", "184811.855000", "184812.315000", "184812.775000", "184813.235000", "184813.695000", "184814.155000", "184814.615000", "184815.075000", "184815.535000", "184815.995000", "184816.455000", "184816.915000", "184817.375000", "184817.835000", "184818.295000", "184818.755000", "184819.215000", "184819.675000", "184820.135000", "184820.595000", "184821.055000", "184821.515000", "184821.975000", "184822.435000", "184822.895000", "184823.355000", "184823.815000", "184824.275000", "184824.735000", "184825.195000", "184825.655000", "184826.115000", "184826.575000", "184827.035000", "184827.495000", "184827.955000", "184828.415000", "184828.875000", "184829.335000", "184829.795000", "184830.255000", "184830.715000", "184831.175000", "184831.635000", "184832.095000", "184832.555000", "184833.015000", "184833.475000", "184833.935000", "184834.395000", "184834.855000", "184835.315000", "184835.775000", "184836.235000", "184836.695000", "184837.155000", "184837.615000", "184838.075000", "184838.535000", "184838.995000", "184839.455000", "184839.915000", "184840.375000", "184840.835000", "184841.295000", "184841.755000", "184842.215000", "184842.675000", "184843.135000", "184843.595000", "184844.055000", "184844.515000", "184844.975000", "184845.435000", "184845.895000", "184846.355000", "184846.815000", "184847.275000", "184847.735000", "184848.195000", "184848.655000", "184849.115000", "184849.575000", "184850.035000", "184850.495000", "184850.955000", "184851.415000", "184851.875000", "184852.335000", "184852.795000", "184853.255000", "184853.715000", "184854.175000", "184854.635000", "184855.095000", "184855.555000", "184856.015000", "184856.475000", "184856.935000", "184857.395000", "184857.855000", "184858.315000", "184858.775000", "184859.235000", "184859.695000", "184900.155000", "184900.615000", "184901.075000", "184901.535000", "184901.995000", "184902.455000", "184902.915000", "184903.375000", "184903.835000", "184904.295000", "184904.755000", "184905.215000", "184905.675000", "184906.135000", "184906.595000", "184907.055000", "184907.515000", "184907.975000", "184908.435000", "184908.895000", "184909.355000", "184909.815000", "184910.275000", "184910.735000", "184911.195000", "184911.655000", "184912.115000", "184912.575000", "184913.035000", "184913.495000", "184913.955000", "184914.415000", "184914.875000", "184915.335000", "184915.795000", "184916.255000", "184916.715000", "184917.175000", "184917.635000", "184918.095000", "184918.555000", "184919.015000", "184919.475000", "184919.935000", "184920.395000", "184920.855000", "184921.315000", "184921.775000", "184922.235000", "184922.695000", "184923.155000", "184923.615000", "184924.075000", "184924.535000", "184924.995000", "184925.455000", "184925.915000", "184926.375000", "184926.835000", "184927.295000", "184927.755000", "184928.215000", "184928.675000", "184929.135000", "184929.595000", "184930.055000", "184930.515000", "184930.975000", "184931.435000", "184931.895000", "184932.355000", "184932.815000", "184933.275000", "184933.735000", "184934.195000", "184934.655000", "184935.115000", "184935.575000", "184936.035000", "184936.495000", "184936.955000", "184937.415000", "184937.875000", "184938.335000", "184938.795000", "184939.255000", "184939.715000", "184940.175000", "184940.635000", "184941.095000", "184941.555000", "184942.015000", "184942.475000", "184942.935000", "184943.395000", "184943.855000", "184944.315000", "184944.775000", "184945.235000", "184945.695000", "184946.155000", "184946.615000", "184947.075000", "184947.535000", "184947.995000", "184948.455000", "184948.915000", "184949.375000", "184949.835000", "184950.295000", "184950.755000", "184951.215000", "184951.675000", "184952.135000", "184952.595000", "184953.055000", "184953.515000", "184953.975000", "184954.435000", "184954.895000", "184955.355000", "184955.815000", "184956.275000", "184956.735000", "184957.195000", "184957.655000", "184958.115000", "184958.575000", "184959.035000", "184959.495000", "184959.955000", "185000.415000", "185000.875000", "185001.335000", "185001.795000", "185002.255000", "185002.715000", "185003.175000", "185003.635000", "185004.095000", "185004.555000", "185005.015000", "185005.475000", "185005.935000", "185006.395000", "185006.855000", "185007.315000", "185007.775000", "185008.235000", "185008.695000", "185009.155000", "185009.615000", "185010.075000", "185010.535000", "185010.995000", "185011.455000", "185011.915000", "185012.375000", "185012.835000", "185013.295000", "185013.755000", "185014.215000", "185014.675000", "185015.135000", "185015.595000", "185016.055000", "185016.515000", "185016.975000", "185017.435000", "185017.895000", "185018.355000", "185018.815000", "185019.275000", "185019.735000", "185020.195000", "185020.655000", "185021.115000", "185021.575000", "185022.035000", "185022.495000", "185022.955000", "185023.415000", "185023.875000", "185024.335000", "185024.795000", "185025.255000", "185025.715000", "185026.175000", "185026.635000", "185027.095000", "185027.555000", "185028.015000", "185028.475000", "185028.935000", "185029.395000", "185029.855000", "185030.315000", "185030.775000", "185031.235000", "185031.695000", "185032.155000", "185032.615000", "185033.075000", "185033.535000", "185033.995000", "185034.455000", "185034.915000", "185035.375000", "185035.835000", "185036.295000", "185036.755000", "185037.215000", "185037.675000", "185038.135000", "185038.595000", "185039.055000", "185039.515000", "185039.975000", "185040.435000", "185040.895000", "185041.355000", "185041.815000", "185042.275000", "185042.735000", "185043.195000", "185043.655000", "185044.115000", "185044.575000", "185045.035000", "185045.495000", "185045.955000", "185046.415000", "185046.875000", "185047.335000", "185047.795000", "185048.255000", "185048.715000", "185049.175000", "185049.635000", "185050.095000", "185050.555000", "185051.015000", "185051.475000", "185051.935000", "185052.395000", "185052.855000", "185053.315000", "185053.775000", "185054.235000", "185054.695000", "185055.155000", "185055.615000", "185056.075000", "185056.535000", "185056.995000", "185057.455000", "185057.915000", "185058.375000", "185058.835000", "185059.295000", "185059.755000", "185100.215000", "185100.675000", "185101.135000", "185101.595000", "185102.055000", "185102.515000", "185102.975000", "185103.435000", "185103.895000", "185104.355000", "185104.815000", "185105.275000", "185105.735000", "185106.195000", "185106.655000", "185107.115000", "185107.575000", "185108.035000", "185108.495000", "185108.955000", "185109.415000", "185109.875000", "185110.335000", "185110.795000", "185111.255000", "185111.715000", "185112.175000", "185112.635000", "185113.095000", "185113.555000", "185114.015000", "185114.475000", "185114.935000", "185115.395000", "185115.855000", "185116.315000", "185116.775000", "185117.235000", "185117.695000", "185118.155000", "185118.615000", "185119.075000", "185119.535000", "185119.995000", "185120.455000", "185120.915000", "185121.375000", "185121.835000", "185122.295000", "185122.755000", "185123.215000", "185123.675000", "185124.135000", "185124.595000", "185125.055000", "185125.515000", "185125.975000", "185126.435000", "185126.895000", "185127.355000", "185127.815000", "185128.275000", "185128.735000", "185129.195000", "185129.655000", "185130.115000", "185130.575000", "185131.035000", "185131.495000", "185131.955000", "185132.415000", "185132.875000", "185133.335000", "185133.795000", "185134.255000", "185134.715000", "185135.175000", "185135.635000", "185136.095000", "185136.555000", "185137.015000", "185137.475000", "185137.935000", "185138.395000", "185138.855000", "185139.315000", "185139.775000", "185140.235000", "185140.695000", "185141.155000", "185141.615000", "185142.075000", "185142.535000", "185142.995000", "185143.455000", "185143.915000", "185144.375000", "185144.835000", "185145.295000", "185145.755000", "185146.215000", "185146.675000", "185147.135000", "185147.595000", "185148.055000", "185148.515000", "185148.975000", "185149.435000", "185149.895000", "185150.355000", "185150.815000", "185151.275000", "185151.735000", "185152.195000", "185152.655000", "185153.115000", "185153.575000", "185154.035000", "185154.495000", "185154.955000", "185155.415000", "185155.875000", "185156.335000", "185156.795000", "185157.255000", "185157.715000", "185158.175000", "185158.635000", "185159.095000", "185159.555000", "185200.015000", "185200.475000", "185200.935000", "185201.395000", "185201.855000", "185202.315000", "185202.775000", "185203.235000", "185203.695000", "185204.155000", "185204.615000", "185205.075000", "185205.535000", "185205.995000", "185206.455000", "185206.915000", "185207.375000", "185207.835000", "185208.295000", "185208.755000", "185209.215000", "185209.675000", "185210.135000", "185210.595000", "185211.055000", "185211.515000", "185211.975000", "185212.435000", "185212.895000", "185213.355000", "185213.815000", "185214.275000", "185214.735000", "185215.195000", "185215.655000", "185216.115000", "185216.575000", "185217.035000", "185217.495000", "185217.955000", "185218.415000", "185218.875000", "185219.335000", "185219.795000", "185220.255000", "185220.715000", "185221.175000", "185221.635000", "185222.095000", "185222.555000", "185223.015000", "185223.475000", "185223.935000", "185224.395000", "185224.855000", "185225.315000", "185225.775000", "185226.235000", "185226.695000", "185227.155000", "185227.615000", "185228.075000", "185228.535000", "185228.995000", "185229.455000", "185229.915000", "185230.375000", "185230.835000", "185231.295000", "185231.755000", "185232.215000", "185232.675000", "185233.135000", "185233.595000", "185234.055000", "185234.515000", "185234.975000", "185235.435000", "185235.895000", "185236.355000", "185236.815000", "185237.275000", "185237.735000", "185238.195000", "185238.655000", "185239.115000", "185239.575000", "185240.035000", "185240.495000", "185240.955000", "185241.415000", "185241.875000", "185242.335000", "185242.795000", "185243.255000", "185243.715000", "185244.175000", "185244.635000", "185245.095000", "185245.555000", "185246.015000", "185246.475000", "185246.935000", "185247.395000", "185247.855000", "185248.315000", "185248.775000", "185249.235000", "185249.695000", "185250.155000", "185250.615000", "185251.075000", "185251.535000", "185251.995000", "185252.455000", "185252.915000", "185253.375000", "185253.835000", "185254.295000", "185254.755000", "185255.215000", "185255.675000", "185256.135000", "185256.595000", "185257.055000", "185257.515000", "185257.975000", "185258.435000", "185258.895000", "185259.355000", "185259.815000", "185300.275000", "185300.735000", "185301.195000", "185301.655000", "185302.115000", "185302.575000", "185303.035000", "185303.495000", "185303.955000", "185304.415000", "185304.875000", "185305.335000", "185305.795000", "185306.255000", "185306.715000", "185307.175000", "185307.635000", "185308.095000", "185308.555000", "185309.015000", "185309.475000", "185309.935000", "185310.395000", "185310.855000", "185311.315000", "185311.775000", "185312.235000", "185312.695000", "185313.155000", "185313.615000", "185314.075000", "185314.535000", "185314.995000", "185315.455000", "185315.915000", "185316.375000", "185316.835000", "185317.295000", "185317.755000", "185318.215000", "185318.675000", "185319.135000", "185319.595000", "185320.055000", "185320.515000", "185320.975000", "185321.435000", "185321.895000", "185322.355000", "185322.815000", "185323.275000", "185323.735000", "185324.195000", "185324.655000", "185325.115000", "185325.575000", "185326.035000", "185326.495000", "185326.955000", "185327.415000", "185327.875000", "185328.335000", "185328.795000", "185329.255000", "185329.715000", "185330.175000", "185330.635000", "185331.095000", "185331.555000", "185332.015000", "185332.475000", "185332.935000", "185333.395000", "185333.855000", "185334.315000", "185334.775000", "185335.235000", "185335.695000", "185336.155000", "185336.615000", "185337.075000", "185337.535000", "185337.995000", "185338.455000", "185338.915000", "185339.375000", "185339.835000", "185340.295000", "185340.755000", "185341.215000", "185341.675000", "185342.135000", "185342.595000", "185343.055000", "185343.515000", "185343.975000", "185344.435000", "185344.895000", "185345.355000", "185345.815000", "185346.275000", "185346.735000", "185347.195000", "185347.655000", "185348.115000", "185348.575000", "185349.035000", "185349.495000", "185349.955000", "185350.415000", "185350.875000", "185351.335000", "185351.795000", "185352.255000", "185352.715000", "185353.175000", "185353.635000", "185354.095000", "185354.555000", "185355.015000", "185355.475000", "185355.935000", "185356.395000", "185356.855000", "185357.315000", "185357.775000", "185358.235000", "185358.695000", "185359.155000", "185359.615000", "185400.075000", "185400.535000", "185400.995000", "185401.455000", "185401.915000", "185402.375000", "185402.835000", "185403.295000", "185403.755000", "185404.215000", "185404.675000", "185405.135000", "185405.595000", "185406.055000", "185406.515000", "185406.975000", "185407.435000", "185407.895000", "185408.355000", "185408.815000", "185409.275000", "185409.735000", "185410.195000", "185410.655000", "185411.115000", "185411.575000", "185412.035000", "185412.495000", "185412.955000", "185413.415000", "185413.875000", "185414.335000", "185414.795000", "185415.255000", "185415.715000", "185416.175000", "185416.635000", "185417.095000", "185417.555000", "185418.015000", "185418.475000", "185418.935000", "185419.395000", "185419.855000", "185420.315000", "185420.775000", "185421.235000", "185421.695000", "185422.155000", "185422.615000", "185423.075000", "185423.535000", "185423.995000", "185424.455000", "185424.915000", "185425.375000", "185425.835000", "185426.295000", "185426.755000", "185427.215000", "185427.675000", "185428.135000", "185428.595000"],
