{
  "AcquisitionMatrixPE": 82,
  "AcquisitionNumber": 1,
  "AcquisitionTime": "18:38:10.777500",
  "BandwidthPerPixelPhaseEncode": 24.888,
  "BaseResolution": 82,
  "BodyPartExamined": "BRAIN",
  "ConsistencyInfo": "N4_VE11E_LATEST_20181129",
  "ConversionSoftware": "dcm2niix",
  "ConversionSoftwareVersion": "v1.0.20201102",
  "DerivedVendorReportedEchoSpacing": 0.00049,
  "DeviceSerialNumber": "66112",
  "DwellTime": 2e-06,
  "EchoTime": 0.0272,
  "EchoTrainLength": 82,
  "EffectiveEchoSpacing": 0.00049,
  "FlipAngle": 44,
  "ImageComments": "Unaliased MB8/PE3",
  "ImageOrientationPatientDICOM": [0.999347, -0.0357968, 0.00484332, 0.0361205, 0.988674, -0.145669],
  "ImageType": [
    "ORIGINAL",
    "PRIMARY",
    "M",
    "MB",
    "ND",
    "NORM",
    "MOSAIC"
],
  "ImagingFrequency": 123.259,
  "InPlanePhaseEncodingDirectionDICOM": "COL",
  "InstitutionAddress": "Maynard 3,Hanover,NH,US,03755",
  "InstitutionName": "Dartmouth College - PBS",
  "InstitutionalDepartmentName": "Department",
  "MRAcquisitionType": "2D",
  "MagneticFieldStrength": 3,
  "Manufacturer": "Siemens",
  "ManufacturersModelName": "Prisma",
  "Modality": "MR",
  "MultibandAccelerationFactor": 8,
  "PartialFourier": 1,
  "PatientPosition": "HFS",
  "PercentPhaseFOV": 100,
  "PercentSampling": 100,
  "PhaseEncodingDirection": "j-",
  "PhaseEncodingSteps": 82,
  "PhaseResolution": 1,
  "PixelBandwidth": 3050,
  "ProcedureStepDescription": "Wager_Wager^1076_spacetop",
  "ProtocolName": "func_run-01_task-narratives_acq-ap-mb8",
  "PulseSequenceDetails": "%CustomerSeq%\\cmrr_mbep2d_bold",
  "ReceiveCoilActiveElements": "HEA;HEP",
  "ReceiveCoilName": "Head_32",
  "ReconMatrixPE": 82,
  "RepetitionTime": 0.46,
  "SAR": 0.105095,
  "ScanOptions": "FS",
  "ScanningSequence": "EP",
  "SequenceName": "epfid2d1_82",
  "SequenceVariant": "SK\\SS",
  "SeriesDescription": "func_run-01_task-narratives_acq-ap-mb8",
  "SeriesNumber": 24,
  "ShimSetting": [4236, -7750, -7277, 211, -78, -101, -38, 55],
  "SliceThickness": 2.7,
  "SliceTiming": [0, 0.2525, 0.065, 0.315, 0.1275, 0.3775, 0.19, 0, 0.2525, 0.065, 0.315, 0.1275, 0.3775, 0.19, 0, 0.2525, 0.065, 0.315, 0.1275, 0.3775, 0.19, 0, 0.2525, 0.065, 0.315, 0.1275, 0.3775, 0.19, 0, 0.2525, 0.065, 0.315, 0.1275, 0.3775, 0.19, 0, 0.2525, 0.065, 0.315, 0.1275, 0.3775, 0.19, 0, 0.2525, 0.065, 0.315, 0.1275, 0.3775, 0.19, 0, 0.2525, 0.065, 0.315, 0.1275, 0.3775, 0.19],
  "SoftwareVersions": "syngo MR E11",
  "SpacingBetweenSlices": 2.7,
  "StationName": "AWP66112",
  "TaskName": "narratives",
  "TotalReadoutTime": 0.03969,
  "TxRefAmp": 250.16,
  "WipMemBlock": "79345be7-469e-4884-8047-4586ecc0ff97||Sequence: R016 ve11e/master r/434b28f1; Aug  7 2019 18:53:46 by eja",
  "dcmmeta_affine": [
    [-2.681175947189331, 0.09690860658884048, -0.0011502864072099328, 107.21641540527344],
    [0.0960402637720108, 2.6525392532348633, -0.3935227692127228, -101.85558319091797],
    [0.012994281947612762, 0.39082005620002747, 2.671168088912964, -97.86311340332031],
    [0.0, 0.0, 0.0, 1.0]
],
  "dcmmeta_reorient_transform": [
    [0.0, -1.0, 0.0, 81.0],
    [1.0, 0.0, 0.0, 0.0],
    [0.0, 0.0, 1.0, 0.0],
    [0.0, 0.0, 0.0, 1.0]
],
  "dcmmeta_shape": [82, 82, 56, 967],
  "dcmmeta_slice_dim": 2,
  "dcmmeta_version": 0.6,
  "global": {
    "const": {
      "AccessionNumber": "A004525",
      "AcquisitionMatrix": [82, 0, 0, 82],
      "AngioFlag": "N",
      "BitsAllocated": 16,
      "BitsStored": 16,
      "BodyPartExamined": "BRAIN",
      "Columns": 656,
      "EchoNumbers": 1,
      "EchoTime": 27.2,
      "EchoTrainLength": 82,
      "FlipAngle": 44.0,
      "HighBit": 15,
      "ImageOrientationPatient": [0.99934735178151, -0.0357968254009, 0.00484332308461, 0.03612047873504, 0.98867374167789, -0.145669295092],
      "ImagePositionPatient": [-912.37626121503, -846.71535251798, 42.229310408543],
      "ImageType": [
        "ORIGINAL",
        "PRIMARY",
        "M",
        "MB",
        "ND",
        "NORM",
        "MOSAIC"
],
      "ImagedNucleus": "1H",
      "ImagingFrequency": 123.259104,
      "InPlanePhaseEncodingDirection": "COL",
      "MRAcquisitionType": "2D",
      "MagneticFieldStrength": 3.0,
      "Manufacturer": "SIEMENS",
      "ManufacturerModelName": "Prisma",
      "Modality": "MR",
      "NumberOfAverages": 1.0,
      "NumberOfPhaseEncodingSteps": 82,
      "PercentPhaseFieldOfView": 100.0,
      "PercentSampling": 100.0,
      "PerformedProcedureStepStartTime": "181807.520000",
      "PhotometricInterpretation": "MONOCHROME2",
      "PixelBandwidth": 3050.0,
      "PixelRepresentation": 0,
      "PixelSpacing": [2.6829268932343, 2.6829268932343],
      "ProtocolName": "func_run-01_task-narratives_acq-ap-mb8",
      "RepetitionTime": 460.0,
      "Rows": 656,
      "SAR": 0.10509455908785,
      "SamplesPerPixel": 1,
      "ScanOptions": "FS",
      "ScanningSequence": "EP",
      "SequenceName": "epfid2d1_82",
      "SequenceVariant": [
        "SK",
        "SS"
],
      "SeriesDescription": "func_run-01_task-narratives_acq-ap-mb8",
      "SeriesNumber": 24,
      "SeriesTime": "183831.881000",
      "SliceLocation": -82.018395094909,
      "SliceThickness": 2.7000000476837,
      "SmallestImagePixelValue": 0,
      "SoftwareVersions": "syngo MR E11",
      "SpacingBetweenSlices": 2.7000000935379,
      "SpecificCharacterSet": "ISO_IR 100",
      "StudyID": "1",
      "StudyTime": "181807.471000",
      "TransmitCoilName": "Body",
      "VariableFlipAngleFlag": "N",
      "WindowCenterWidthExplanation": "Algo1"
    },
    "slices": {}
  },
  "time": {
    "samples": {
      "AcquisitionNumber": [1, 2, 3, 4, 5, 6, 7, 8, 9, 10, 11, 12, 13, 14, 15, 16, 17, 18, 19, 20, 21, 22, 23, 24, 25, 26, 27, 28, 29, 30, 31, 32, 33, 34, 35, 36, 37, 38, 39, 40, 41, 42, 43, 44, 45, 46, 47, 48, 49, 50, 51, 52, 53, 54, 55, 56, 57, 58, 59, 60, 61, 62, 63, 64, 65, 66, 67, 68, 69, 70, 71, 72, 73, 74, 75, 76, 77, 78, 79, 80, 81, 82, 83, 84, 85, 86, 87, 88, 89, 90, 91, 92, 93, 94, 95, 96, 97, 98, 99, 100, 101, 102, 103, 104, 105, 106, 107, 108, 109, 110, 111, 112, 113, 114, 115, 116, 117, 118, 119, 120, 121, 122, 123, 124, 125, 126, 127, 128, 129, 130, 131, 132, 133, 134, 135, 136, 137, 138, 139, 140, 141, 142, 143, 144, 145, 146, 147, 148, 149, 150, 151, 152, 153, 154, 155, 156, 157, 158, 159, 160, 161, 162, 163, 164, 165, 166, 167, 168, 169, 170, 171, 172, 173, 174, 175, 176, 177, 178, 179, 180, 181, 182, 183, 184, 185, 186, 187, 188, 189, 190, 191, 192, 193, 194, 195, 196, 197, 198, 199, 200, 201, 202, 203, 204, 205, 206, 207, 208, 209, 210, 211, 212, 213, 214, 215, 216, 217, 218, 219, 220, 221, 222, 223, 224, 225, 226, 227, 228, 229, 230, 231, 232, 233, 234, 235, 236, 237, 238, 239, 240, 241, 242, 243, 244, 245, 246, 247, 248, 249, 250, 251, 252, 253, 254, 255, 256, 257, 258, 259, 260, 261, 262, 263, 264, 265, 266, 267, 268, 269, 270, 271, 272, 273, 274, 275, 276, 277, 278, 279, 280, 281, 282, 283, 284, 285, 286, 287, 288, 289, 290, 291, 292, 293, 294, 295, 296, 297, 298, 299, 300, 301, 302, 303, 304, 305, 306, 307, 308, 309, 310, 311, 312, 313, 314, 315, 316, 317, 318, 319, 320, 321, 322, 323, 324, 325, 326, 327, 328, 329, 330, 331, 332, 333, 334, 335, 336, 337, 338, 339, 340, 341, 342, 343, 344, 345, 346, 347, 348, 349, 350, 351, 352, 353, 354, 355, 356, 357, 358, 359, 360, 361, 362, 363, 364, 365, 366, 367, 368, 369, 370, 371, 372, 373, 374, 375, 376, 377, 378, 379, 380, 381, 382, 383, 384, 385, 386, 387, 388, 389, 390, 391, 392, 393, 394, 395, 396, 397, 398, 399, 400, 401, 402, 403, 404, 405, 406, 407, 408, 409, 410, 411, 412, 413, 414, 415, 416, 417, 418, 419, 420, 421, 422, 423, 424, 425, 426, 427, 428, 429, 430, 431, 432, 433, 434, 435, 436, 437, 438, 439, 440, 441, 442, 443, 444, 445, 446, 447, 448, 449, 450, 451, 452, 453, 454, 455, 456, 457, 458, 459, 460, 461, 462, 463, 464, 465, 466, 467, 468, 469, 470, 471, 472, 473, 474, 475, 476, 477, 478, 479, 480, 481, 482, 483, 484, 485, 486, 487, 488, 489, 490, 491, 492, 493, 494, 495, 496, 497, 498, 499, 500, 501, 502, 503, 504, 505, 506, 507, 508, 509, 510, 511, 512, 513, 514, 515, 516, 517, 518, 519, 520, 521, 522, 523, 524, 525, 526, 527, 528, 529, 530, 531, 532, 533, 534, 535, 536, 537, 538, 539, 540, 541, 542, 543, 544, 545, 546, 547, 548, 549, 550, 551, 552, 553, 554, 555, 556, 557, 558, 559, 560, 561, 562, 563, 564, 565, 566, 567, 568, 569, 570, 571, 572, 573, 574, 575, 576, 577, 578, 579, 580, 581, 582, 583, 584, 585, 586, 587, 588, 589, 590, 591, 592, 593, 594, 595, 596, 597, 598, 599, 600, 601, 602, 603, 604, 605, 606, 607, 608, 609, 610, 611, 612, 613, 614, 615, 616, 617, 618, 619, 620, 621, 622, 623, 624, 625, 626, 627, 628, 629, 630, 631, 632, 633, 634, 635, 636, 637, 638, 639, 640, 641, 642, 643, 644, 645, 646, 647, 648, 649, 650, 651, 652, 653, 654, 655, 656, 657, 658, 659, 660, 661, 662, 663, 664, 665, 666, 667, 668, 669, 670, 671, 672, 673, 674, 675, 676, 677, 678, 679, 680, 681, 682, 683, 684, 685, 686, 687, 688, 689, 690, 691, 692, 693, 694, 695, 696, 697, 698, 699, 700, 701, 702, 703, 704, 705, 706, 707, 708, 709, 710, 711, 712, 713, 714, 715, 716, 717, 718, 719, 720, 721, 722, 723, 724, 725, 726, 727, 728, 729, 730, 731, 732, 733, 734, 735, 736, 737, 738, 739, 740, 741, 742, 743, 744, 745, 746, 747, 748, 749, 750, 751, 752, 753, 754, 755, 756, 757, 758, 759, 760, 761, 762, 763, 764, 765, 766, 767, 768, 769, 770, 771, 772, 773, 774, 775, 776, 777, 778, 779, 780, 781, 782, 783, 784, 785, 786, 787, 788, 789, 790, 791, 792, 793, 794, 795, 796, 797, 798, 799, 800, 801, 802, 803, 804, 805, 806, 807, 808, 809, 810, 811, 812, 813, 814, 815, 816, 817, 818, 819, 820, 821, 822, 823, 824, 825, 826, 827, 828, 829, 830, 831, 832, 833, 834, 835, 836, 837, 838, 839, 840, 841, 842, 843, 844, 845, 846, 847, 848, 849, 850, 851, 852, 853, 854, 855, 856, 857, 858, 859, 860, 861, 862, 863, 864, 865, 866, 867, 868, 869, 870, 871, 872, 873, 874, 875, 876, 877, 878, 879, 880, 881, 882, 883, 884, 885, 886, 887, 888, 889, 890, 891, 892, 893, 894, 895, 896, 897, 898, 899, 900, 901, 902, 903, 904, 905, 906, 907, 908, 909, 910, 911, 912, 913, 914, 915, 916, 917, 918, 919, 920, 921, 922, 923, 924, 925, 926, 927, 928, 929, 930, 931, 932, 933, 934, 935, 936, 937, 938, 939, 940, 941, 942, 943, 944, 945, 946, 947, 948, 949, 950, 951, 952, 953, 954, 955, 956, 957, 958, 959, 960, 961, 962, 963, 964, 965, 966, 967],
      "AcquisitionTime": ["183810.777500", "183811.237500", "183811.697500", "183812.157500", "183812.617500", "183813.077500", "183813.537500", "183813.997500", "183814.457500", "183814.917500", "183815.377500", "183815.837500", "183816.297500", "183816.757500", "183817.217500", "183817.677500", "183818.137500", "183818.597500", "183819.057500", "183819.517500", "183819.977500", "183820.437500", "183820.897500", "183821.357500", "183821.817500", "183822.277500", "183822.737500", "183823.197500", "183823.657500", "183824.117500", "183824.577500", "183825.037500", "183825.497500", "183825.957500", "183826.417500", "183826.877500", "183827.337500", "183827.797500", "183828.257500", "183828.717500", "183829.177500", "183829.637500", "183830.097500", "183830.557500", "183831.017500", "183831.477500", "183831.937500", "183832.397500", "183832.857500", "183833.317500", "183833.777500", "183834.237500", "183834.697500", "183835.157500", "183835.617500", "183836.077500", "183836.537500", "183836.997500", "183837.457500", "183837.917500", "183838.377500", "183838.837500", "183839.297500", "183839.757500", "183840.217500", "183840.677500", "183841.137500", "183841.597500", "183842.057500", "183842.517500", "183842.977500", "183843.437500", "183843.897500", "183844.357500", "183844.817500", "183845.277500", "183845.737500", "183846.197500", "183846.657500", "183847.117500", "183847.577500", "183848.037500", "183848.497500", "183848.957500", "183849.417500", "183849.877500", "183850.337500", "183850.797500", "183851.257500", "183851.717500", "183852.177500", "183852.637500", "183853.097500", "183853.557500", "183854.017500", "183854.477500", "183854.937500", "183855.397500", "183855.857500", "183856.317500", "183856.777500", "183857.237500", "183857.697500", "183858.157500", "183858.617500", "183859.077500", "183859.537500", "183859.997500", "183900.457500", "183900.917500", "183901.377500", "183901.837500", "183902.297500", "183902.757500", "183903.217500", "183903.677500", "183904.137500", "183904.597500", "183905.057500", "183905.517500", "183905.977500", "183906.437500", "183906.897500", "183907.357500", "183907.817500", "183908.277500", "183908.737500", "183909.197500", "183909.657500", "183910.117500", "183910.577500", "183911.037500", "183911.497500", "183911.957500", "183912.417500", "183912.877500", "183913.337500", "183913.797500", "183914.257500", "183914.717500", "183915.177500", "183915.637500", "183916.097500", "183916.557500", "183917.017500", "183917.477500", "183917.937500", "183918.397500", "183918.857500", "183919.317500", "183919.777500", "183920.237500", "183920.697500", "183921.157500", "183921.617500", "183922.077500", "183922.537500", "183922.997500", "183923.457500", "183923.917500", "183924.377500", "183924.837500", "183925.297500", "183925.757500", "183926.217500", "183926.677500", "183927.137500", "183927.597500", "183928.057500", "183928.517500", "183928.977500", "183929.437500", "183929.897500", "183930.357500", "183930.817500", "183931.277500", "183931.737500", "183932.197500", "183932.657500", "183933.117500", "183933.577500", "183934.037500", "183934.497500", "183934.957500", "183935.417500", "183935.877500", "183936.337500", "183936.797500", "183937.257500", "183937.717500", "183938.177500", "183938.637500", "183939.097500", "183939.557500", "183940.017500", "183940.477500", "183940.937500", "183941.397500", "183941.857500", "183942.317500", "183942.777500", "183943.237500", "183943.697500", "183944.157500", "183944.617500", "183945.077500", "183945.537500", "183945.997500", "183946.457500", "183946.917500", "183947.377500", "183947.837500", "183948.297500", "183948.757500", "183949.217500", "183949.677500", "183950.137500", "183950.597500", "183951.057500", "183951.517500", "183951.977500", "183952.437500", "183952.897500", "183953.357500", "183953.817500", "183954.277500", "183954.737500", "183955.197500", "183955.657500", "183956.117500", "183956.577500", "183957.037500", "183957.497500", "183957.957500", "183958.417500", "183958.877500", "183959.337500", "183959.797500", "184000.257500", "184000.717500", "184001.177500", "184001.637500", "184002.097500", "184002.557500", "184003.017500", "184003.477500", "184003.937500", "184004.397500", "184004.857500", "184005.317500", "184005.777500", "184006.237500", "184006.697500", "184007.157500", "184007.617500", "184008.077500", "184008.537500", "184008.997500", "184009.457500", "184009.917500", "184010.377500", "184010.837500", "184011.297500", "184011.757500", "184012.217500", "184012.677500", "184013.137500", "184013.597500", "184014.057500", "184014.517500", "184014.977500", "184015.437500", "184015.897500", "184016.357500", "184016.817500", "184017.277500", "184017.737500", "184018.197500", "184018.657500", "184019.117500", "184019.577500", "184020.037500", "184020.497500", "184020.957500", "184021.417500", "184021.877500", "184022.337500", "184022.797500", "184023.257500", "184023.717500", "184024.177500", "184024.637500", "184025.097500", "184025.557500", "184026.017500", "184026.477500", "184026.937500", "184027.397500", "184027.857500", "184028.317500", "184028.777500", "184029.237500", "184029.697500", "184030.157500", "184030.617500", "184031.077500", "184031.537500", "184031.997500", "184032.457500", "184032.917500", "184033.377500", "184033.837500", "184034.297500", "184034.757500", "184035.217500", "184035.677500", "184036.137500", "184036.597500", "184037.057500", "184037.517500", "184037.977500", "184038.437500", "184038.897500", "184039.357500", "184039.817500", "184040.277500", "184040.737500", "184041.197500", "184041.657500", "184042.117500", "184042.577500", "184043.037500", "184043.497500", "184043.957500", "184044.417500", "184044.877500", "184045.337500", "184045.797500", "184046.257500", "184046.717500", "184047.177500", "184047.637500", "184048.097500", "184048.557500", "184049.017500", "184049.477500", "184049.937500", "184050.397500", "184050.857500", "184051.317500", "184051.777500", "184052.237500", "184052.697500", "184053.157500", "184053.617500", "184054.077500", "184054.537500", "184054.997500", "184055.457500", "184055.917500", "184056.377500", "184056.837500", "184057.297500", "184057.757500", "184058.217500", "184058.677500", "184059.137500", "184059.597500", "184100.057500", "184100.517500", "184100.977500", "184101.437500", "184101.897500", "184102.357500", "184102.817500", "184103.277500", "184103.737500", "184104.197500", "184104.657500", "184105.117500", "184105.577500", "184106.037500", "184106.497500", "184106.957500", "184107.417500", "184107.877500", "184108.337500", "184108.797500", "184109.257500", "184109.717500", "184110.177500", "184110.637500", "184111.097500", "184111.557500", "184112.017500", "184112.477500", "184112.937500", "184113.397500", "184113.857500", "184114.317500", "184114.777500", "184115.237500", "184115.697500", "184116.157500", "184116.617500", "184117.077500", "184117.537500", "184117.997500", "184118.457500", "184118.917500", "184119.377500", "184119.837500", "184120.297500", "184120.757500", "184121.217500", "184121.677500", "184122.137500", "184122.597500", "184123.057500", "184123.517500", "184123.977500", "184124.437500", "184124.897500", "184125.357500", "184125.817500", "184126.277500", "184126.737500", "184127.197500", "184127.657500", "184128.117500", "184128.577500", "184129.037500", "184129.497500", "184129.957500", "184130.417500", "184130.877500", "184131.337500", "184131.797500", "184132.257500", "184132.717500", "184133.177500", "184133.637500", "184134.097500", "184134.557500", "184135.017500", "184135.477500", "184135.937500", "184136.397500", "184136.857500", "184137.317500", "184137.777500", "184138.237500", "184138.697500", "184139.157500", "184139.617500", "184140.077500", "184140.537500", "184140.997500", "184141.457500", "184141.917500", "184142.377500", "184142.837500", "184143.297500", "184143.757500", "184144.217500", "184144.677500", "184145.137500", "184145.597500", "184146.057500", "184146.517500", "184146.977500", "184147.437500", "184147.897500", "184148.357500", "184148.817500", "184149.277500", "184149.737500", "184150.197500", "184150.657500", "184151.117500", "184151.577500", "184152.037500", "184152.497500", "184152.957500", "184153.417500", "184153.877500", "184154.337500", "184154.797500", "184155.257500", "184155.717500", "184156.177500", "184156.637500", "184157.097500", "184157.557500", "184158.017500", "184158.477500", "184158.937500", "184159.397500", "184159.857500", "184200.317500", "184200.777500", "184201.237500", "184201.697500", "184202.157500", "184202.617500", "184203.077500", "184203.537500", "184203.997500", "184204.457500", "184204.917500", "184205.377500", "184205.837500", "184206.297500", "184206.757500", "184207.217500", "184207.677500", "184208.137500", "184208.597500", "184209.057500", "184209.517500", "184209.977500", "184210.437500", "184210.897500", "184211.357500", "184211.817500", "184212.277500", "184212.737500", "184213.197500", "184213.657500", "184214.117500", "184214.577500", "184215.037500", "184215.497500", "184215.957500", "184216.417500", "184216.877500", "184217.337500", "184217.797500", "184218.257500", "184218.717500", "184219.177500", "184219.637500", "184220.097500", "184220.557500", "184221.017500", "184221.477500", "184221.937500", "184222.397500", "184222.857500", "184223.317500", "184223.777500", "184224.237500", "184224.697500", "184225.157500", "184225.617500", "184226.077500", "184226.537500", "184226.997500", "184227.457500", "184227.917500", "184228.377500", "184228.837500", "184229.297500", "184229.757500", "184230.217500", "184230.677500", "184231.137500", "184231.597500", "184232.057500", "184232.517500", "184232.977500", "184233.437500", "184233.897500", "184234.357500", "184234.817500", "184235.277500", "184235.737500", "184236.197500", "184236.657500", "184237.117500", "184237.577500", "184238.037500", "184238.497500", "184238.957500", "184239.417500", "184239.877500", "184240.337500", "184240.797500", "184241.257500", "184241.717500", "184242.177500", "184242.637500", "184243.097500", "184243.557500", "184244.017500", "184244.477500", "184244.937500", "184245.397500", "184245.857500", "184246.317500", "184246.777500", "184247.237500", "184247.697500", "184248.157500", "184248.617500", "184249.077500", "184249.537500", "184249.997500", "184250.457500", "184250.917500", "184251.377500", "184251.837500", "184252.297500", "184252.757500", "184253.217500", "184253.677500", "184254.137500", "184254.597500", "184255.057500", "184255.517500", "184255.977500", "184256.437500", "184256.897500", "184257.357500", "184257.817500", "184258.277500", "184258.737500", "184259.197500", "184259.657500", "184300.117500", "184300.577500", "184301.037500", "184301.497500", "184301.957500", "184302.417500", "184302.877500", "184303.337500", "184303.797500", "184304.257500", "184304.717500", "184305.177500", "184305.637500", "184306.097500", "184306.557500", "184307.017500", "184307.477500", "184307.937500", "184308.397500", "184308.857500", "184309.317500", "184309.777500", "184310.237500", "184310.697500", "184311.157500", "184311.617500", "184312.077500", "184312.537500", "184312.997500", "184313.457500", "184313.917500", "184314.377500", "184314.837500", "184315.297500", "184315.757500", "184316.217500", "184316.677500", "184317.137500", "184317.597500", "184318.057500", "184318.517500", "184318.977500", "184319.437500", "184319.897500", "184320.357500", "184320.817500", "184321.277500", "184321.737500", "184322.197500", "184322.657500", "184323.117500", "184323.577500", "184324.037500", "184324.497500", "184324.957500", "184325.417500", "184325.877500", "184326.337500", "184326.797500", "184327.257500", "184327.717500", "184328.177500", "184328.637500", "184329.097500", "184329.557500", "184330.017500", "184330.477500", "184330.937500", "184331.397500", "184331.857500", "184332.317500", "184332.777500", "184333.237500", "184333.697500", "184334.157500", "184334.617500", "184335.077500", "184335.537500", "184335.997500", "184336.457500", "184336.917500", "184337.377500", "184337.837500", "184338.297500", "184338.757500", "184339.217500", "184339.677500", "184340.137500", "184340.597500", "184341.057500", "184341.517500", "184341.977500", "184342.437500", "184342.897500", "184343.357500", "184343.817500", "184344.277500", "184344.737500", "184345.197500", "184345.657500", "184346.117500", "184346.577500", "184347.037500", "184347.497500", "184347.957500", "184348.417500", "184348.877500", "184349.337500", "184349.797500", "184350.257500", "184350.717500", "184351.177500", "184351.637500", "184352.097500", "184352.557500", "184353.017500", "184353.477500", "184353.937500", "184354.397500", "184354.857500", "184355.317500", "184355.777500", "184356.237500", "184356.697500", "184357.157500", "184357.617500", "184358.077500", "184358.537500", "184358.997500", "184359.457500", "184359.917500", "184400.377500", "184400.837500", "184401.297500", "184401.757500", "184402.217500", "184402.677500", "184403.137500", "184403.597500", "184404.057500", "184404.517500", "184404.977500", "184405.437500", "184405.897500", "184406.357500", "184406.817500", "184407.277500", "184407.737500", "184408.197500", "184408.657500", "184409.117500", "184409.577500", "184410.037500", "184410.497500", "184410.957500", "184411.417500", "184411.877500", "184412.337500", "184412.797500", "184413.257500", "184413.717500", "184414.177500", "184414.637500", "184415.097500", "184415.557500", "184416.017500", "184416.477500", "184416.937500", "184417.397500", "184417.857500", "184418.317500", "184418.777500", "184419.237500", "184419.697500", "184420.157500", "184420.617500", "184421.077500", "184421.537500", "184421.997500", "184422.457500", "184422.917500", "184423.377500", "184423.837500", "184424.297500", "184424.757500", "184425.217500", "184425.677500", "184426.137500", "184426.597500", "184427.057500", "184427.517500", "184427.977500", "184428.437500", "184428.897500", "184429.357500", "184429.817500", "184430.277500", "184430.737500", "184431.197500", "184431.657500", "184432.117500", "184432.577500", "184433.037500", "184433.497500", "184433.957500", "184434.417500", "184434.877500", "184435.337500", "184435.797500", "184436.257500", "184436.717500", "184437.177500", "184437.637500", "184438.097500", "184438.557500", "184439.017500", "184439.477500", "184439.937500", "184440.397500", "184440.857500", "184441.317500", "184441.777500", "184442.237500", "184442.697500", "184443.157500", "184443.617500", "184444.077500", "184444.537500", "184444.997500", "184445.457500", "184445.917500", "184446.377500", "184446.837500", "184447.297500", "184447.757500", "184448.217500", "184448.677500", "184449.137500", "184449.597500", "184450.057500", "184450.517500", "184450.977500", "184451.437500", "184451.897500", "184452.357500", "184452.817500", "184453.277500", "184453.737500", "184454.197500", "184454.657500", "184455.117500", "184455.577500", "184456.037500", "184456.497500", "184456.957500", "184457.417500", "184457.877500", "184458.337500", "184458.797500", "184459.257500", "184459.717500", "184500.177500", "184500.637500", "184501.097500", "184501.557500", "184502.017500", "184502.477500", "184502.937500", "184503.397500", "184503.857500", "184504.317500", "184504.777500", "184505.237500", "184505.697500", "184506.157500", "184506.617500", "184507.077500", "184507.537500", "184507.997500", "184508.457500", "184508.917500", "184509.377500", "184509.837500", "184510.297500", "184510.757500", "184511.217500", "184511.677500", "184512.137500", "184512.597500", "184513.057500", "184513.517500", "184513.977500", "184514.437500", "184514.897500", "184515.357500", "184515.817500", "184516.277500", "184516.737500", "184517.197500", "184517.657500", "184518.117500", "184518.577500", "184519.037500", "184519.497500", "184519.957500", "184520.417500", "184520.877500", "184521.337500", "184521.797500", "184522.257500", "184522.717500", "184523.177500", "184523.637500", "184524.097500", "184524.557500", "184525.017500", "184525.477500", "184525.937500", "184526.397500", "184526.857500", "184527.317500", "184527.777500", "184528.237500", "184528.697500", "184529.157500", "184529.617500", "184530.077500", "184530.537500", "184530.997500", "184531.457500", "184531.917500", "184532.377500", "184532.837500", "184533.297500", "184533.757500", "184534.217500", "184534.677500", "184535.137500"],
