{
  "AcquisitionMatrixPE": 140,
  "AcquisitionNumber": 1,
  "AcquisitionTime": "09:37:53.430000",
  "BandwidthPerPixelPhaseEncode": 10.352,
  "BaseResolution": 140,
  "BodyPartExamined": "BRAIN",
  "ConsistencyInfo": "N4_VE11C_LATEST_20160120",
  "ConversionSoftware": "dcm2niix",
  "ConversionSoftwareVersion": "v1.0.20201102",
  "DerivedVendorReportedEchoSpacing": 0.000689998,
  "DeviceSerialNumber": "66112",
  "DiffusionScheme": "Monopolar",
  "DwellTime": 2.1e-06,
  "EchoTime": 0.088,
  "EchoTrainLength": 105,
  "EffectiveEchoSpacing": 0.000689998,
  "FlipAngle": 90,
  "ImageComments": "Unaliased MB3/PE3",
  "ImageOrientationPatientDICOM": [0.99521, -0.0153511, 0.0965447, -0.0142441, 0.954282, 0.298569],
  "ImageType": [
    "ORIGINAL",
    "PRIMARY",
    "DIFFUSION",
    "NONE",
    "MB",
    "ND"
],
  "ImagingFrequency": 123.252,
  "InPlanePhaseEncodingDirectionDICOM": "COL",
  "InstitutionAddress": "Maynard 3,Hanover,NH,US,03755",
  "InstitutionName": "Dartmouth College - PBS",
  "InstitutionalDepartmentName": "Department",
  "MRAcquisitionType": "2D",
  "MagneticFieldStrength": 3,
  "Manufacturer": "Siemens",
  "ManufacturersModelName": "Prisma",
  "Modality": "MR",
  "MultibandAccelerationFactor": 3,
  "PartialFourier": 0.75,
  "PatientPosition": "HFS",
  "PercentPhaseFOV": 100,
  "PercentSampling": 100,
  "PhaseEncodingDirection": "j",
  "PhaseEncodingSteps": 105,
  "PhaseResolution": 1,
  "PixelBandwidth": 1700,
  "ProcedureStepDescription": "Wager_Wager^1076_spacetop",
  "ProtocolName": "dwi_acq-discorr-PA",
  "PulseSequenceDetails": "%CustomerSeq%\\cmrr_mbep2d_diff",
  "ReceiveCoilActiveElements": "HEA;HEP",
  "ReceiveCoilName": "Head_32",
  "ReconMatrixPE": 140,
  "RepetitionTime": 4.1,
  "SAR": 0.115976,
  "ScanOptions": "PFP\\FS",
  "ScanningSequence": "EP",
  "SequenceName": "ep_b0",
  "SequenceVariant": "SK\\SS",
  "SeriesDescription": "dwi_acq-discorr-PA",
  "SeriesNumber": 6,
  "ShimSetting": [4156, -7776, -7283, 515, -92, -277, 68, 74],
  "SliceThickness": 1.7,
  "SliceTiming": [0, 2.11719, 0.15625, 2.26562, 0.30469, 2.41406, 0.45312, 2.57031, 0.60156, 2.71875, 0.75781, 2.875, 0.90625, 3.02344, 1.05469, 3.17188, 1.21094, 3.32812, 1.35938, 3.47656, 1.51562, 3.625, 1.66406, 3.78125, 1.8125, 3.92969, 1.96875, 0, 2.11719, 0.15625, 2.26562, 0.30469, 2.41406, 0.45312, 2.57031, 0.60156, 2.71875, 0.75781, 2.875, 0.90625, 3.02344, 1.05469, 3.17188, 1.21094, 3.32812, 1.35938, 3.47656, 1.51562, 3.625, 1.66406, 3.78125, 1.8125, 3.92969, 1.96875, 0, 2.11719, 0.15625, 2.26562, 0.30469, 2.41406, 0.45312, 2.57031, 0.60156, 2.71875, 0.75781, 2.875, 0.90625, 3.02344, 1.05469, 3.17188, 1.21094, 3.32812, 1.35938, 3.47656, 1.51562, 3.625, 1.66406, 3.78125, 1.8125, 3.92969, 1.96875],
  "SoftwareVersions": "syngo MR E11",
  "SpacingBetweenSlices": 1.7,
  "StationName": "AWP66112",
  "TotalReadoutTime": 0.0959097,
  "TxRefAmp": 233.707,
  "WipMemBlock": "c3a1a3b1-a156-43a3-bee3-56e6fdc062bc||Sequence: R016 ve11c/master r/e634e98; Dec 19 2017 11:11:25 by eja",
  "dcmmeta_affine": [
    [-1.7060747146606445, -0.02441849373281002, 0.1644134521484375, 123.74850463867188],
    [0.02631625160574913, 1.6359117031097412, 0.5074729919433594, -112.34931182861328],
    [0.16550512611865997, -0.5118321180343628, 1.6141357421875, -23.995372772216797],
    [0.0, 0.0, 0.0, 1.0]
],
  "dcmmeta_reorient_transform": [
    [0.0, -1.0, 0.0, 139.0],
    [1.0, 0.0, 0.0, 0.0],
    [0.0, 0.0, -1.0, 80.0],
    [0.0, 0.0, 0.0, 1.0]
],
  "dcmmeta_shape": [140, 140, 81],
  "dcmmeta_slice_dim": 2,
  "dcmmeta_version": 0.6,
  "global": {
    "const": {
      "AccessionNumber": "A003466",
      "AcquisitionMatrix": [140, 0, 0, 140],
      "AcquisitionNumber": 1,
      "AngioFlag": "N",
      "BitsAllocated": 16,
      "BitsStored": 16,
      "BodyPartExamined": "BRAIN",
      "Columns": 140,
      "EchoNumbers": 1,
      "EchoTime": 88.0,
      "EchoTrainLength": 105,
      "FlipAngle": 90.0,
      "HighBit": 15,
      "ImageOrientationPatient": [0.99521026532682, -0.0153511470884, 0.09654465325011, -0.014244121141, 0.95428182812052, 0.29856874841799],
      "ImageType": [
        "ORIGINAL",
        "PRIMARY",
        "DIFFUSION",
        "NONE",
        "MB",
        "ND"
],
      "ImagedNucleus": "1H",
      "ImagingFrequency": 123.252114,
      "InPlanePhaseEncodingDirection": "COL",
      "MRAcquisitionType": "2D",
      "MagneticFieldStrength": 3.0,
      "Manufacturer": "SIEMENS",
      "ManufacturerModelName": "Prisma",
      "Modality": "MR",
      "NumberOfAverages": 1.0,
      "NumberOfPhaseEncodingSteps": 105,
      "PercentPhaseFieldOfView": 100.0,
      "PercentSampling": 100.0,
      "PerformedProcedureStepStartTime": "085422.745000",
      "PhotometricInterpretation": "MONOCHROME2",
      "PixelBandwidth": 1700.0,
      "PixelRepresentation": 0,
      "PixelSpacing": [1.7142857313156, 1.7142857313156],
      "ProtocolName": "dwi_acq-discorr-PA",
      "RepetitionTime": 4100.0,
      "Rows": 140,
      "SAR": 0.11597570753298,
      "SamplesPerPixel": 1,
      "ScanOptions": [
        "PFP",
        "FS"
],
      "ScanningSequence": "EP",
      "SequenceName": "ep_b0",
      "SequenceVariant": [
        "SK",
        "SS"
],
      "SeriesDescription": "dwi_acq-discorr-PA",
      "SeriesNumber": 6,
      "SeriesTime": "093758.814000",
      "SliceThickness": 1.7000000476837,
      "SmallestImagePixelValue": 0,
      "SoftwareVersions": "syngo MR E11",
      "SpacingBetweenSlices": 1.7,
      "SpecificCharacterSet": "ISO_IR 100",
      "StudyID": "1",
      "StudyTime": "085422.620000",
      "TransmitCoilName": "Body",
      "VariableFlipAngleFlag": "N",
      "WindowCenterWidthExplanation": "Algo1",
      "dBdt": 0.0},
    "slices": {
      "AcquisitionTime": ["093753.430000", "093755.545000", "093753.582500", "093755.697500", "093753.732500", "093755.847500", "093753.885000", "093756.000000", "093754.035000", "093756.150000", "093754.185000", "093756.302500", "093754.337500", "093756.452500", "093754.487500", "093756.605000", "093754.640000", "093756.755000", "093754.790000", "093756.905000", "093754.942500", "093757.057500", "093755.092500", "093757.207500", "093755.245000", "093757.360000", "093755.395000", "093753.430000", "093755.545000", "093753.582500", "093755.697500", "093753.732500", "093755.847500", "093753.885000", "093756.000000", "093754.035000", "093756.150000", "093754.185000", "093756.302500", "093754.337500", "093756.452500", "093754.487500", "093756.605000", "093754.640000", "093756.755000", "093754.790000", "093756.905000", "093754.942500", "093757.057500", "093755.092500", "093757.207500", "093755.245000", "093757.360000", "093755.395000", "093753.430000", "093755.545000", "093753.582500", "093755.697500", "093753.732500", "093755.847500", "093753.885000", "093756.000000", "093754.035000", "093756.150000", "093754.185000", "093756.302500", "093754.337500", "093756.452500", "093754.487500", "093756.605000", "093754.640000", "093756.755000", "093754.790000", "093756.905000", "093754.942500", "093757.057500", "093755.092500", "093757.207500", "093755.245000", "093757.360000", "093755.395000"],
      "ContentTime": ["093758.818000", "093759.111000", "093758.825000", "093759.117000", "093758.833000", "093759.124000", "093758.839000", "093759.135000", "093758.846000", "093759.142000", "093758.852000", "093759.148000", "093758.859000", "093759.155000", "093759.065000", "093759.161000", "093759.071000", "093759.168000", "093759.078000", "093759.174000", "093759.084000", "093759.180000", "093759.091000", "093759.187000", "093759.097000", "093759.193000", "093759.104000", "093758.821000", "093759.113000", "093758.828000", "093759.119000", "093758.835000", "093759.126000", "093758.842000", "093759.137000", "093758.848000", "093759.144000", "093758.854000", "093759.150000", "093758.861000", "093759.157000", "093759.067000", "093759.163000", "093759.073000", "093759.170000", "093759.080000", "093759.176000", "093759.087000", "093759.183000", "093759.093000", "093759.189000", "093759.100000", "093759.195000", "093759.106000", "093758.823000", "093759.115000", "093758.830000", "093759.121000", "093758.837000", "093759.128000", "093758.844000", "093759.139000", "093758.850000", "093759.146000", "093758.856000", "093759.153000", "093758.863000", "093759.159000", "093759.069000", "093759.165000", "093759.076000", "093759.172000", "093759.082000", "093759.178000", "093759.089000", "093759.185000", "093759.095000", "093759.191000", "093759.102000", "093759.198000", "093759.108000"],
      "CsaImage.ICE_Dims": [
        "X_1_1_1_1_1_1_1_1_1_1_1_23",
        "X_1_1_1_1_1_1_42_1_1_2_1_23",
        "X_1_1_1_1_1_1_2_1_1_3_1_23",
        "X_1_1_1_1_1_1_43_1_1_4_1_23",
        "X_1_1_1_1_1_1_3_1_1_5_1_23",
        "X_1_1_1_1_1_1_44_1_1_6_1_23",
        "X_1_1_1_1_1_1_4_1_1_7_1_23",
        "X_1_1_1_1_1_1_45_1_1_8_1_23",
        "X_1_1_1_1_1_1_5_1_1_9_1_23",
        "X_1_1_1_1_1_1_46_1_1_10_1_23",
        "X_1_1_1_1_1_1_6_1_1_11_1_23",
        "X_1_1_1_1_1_1_47_1_1_12_1_23",
        "X_1_1_1_1_1_1_7_1_1_13_1_23",
        "X_1_1_1_1_1_1_48_1_1_14_1_23",
        "X_1_1_1_1_1_1_8_1_1_15_1_23",
        "X_1_1_1_1_1_1_49_1_1_16_1_23",
        "X_1_1_1_1_1_1_9_1_1_17_1_23",
        "X_1_1_1_1_1_1_50_1_1_18_1_23",
        "X_1_1_1_1_1_1_10_1_1_19_1_23",
        "X_1_1_1_1_1_1_51_1_1_20_1_23",
        "X_1_1_1_1_1_1_11_1_1_21_1_23",
        "X_1_1_1_1_1_1_52_1_1_22_1_23",
        "X_1_1_1_1_1_1_12_1_1_23_1_23",
        "X_1_1_1_1_1_1_53_1_1_24_1_23",
        "X_1_1_1_1_1_1_13_1_1_25_1_23",
        "X_1_1_1_1_1_1_54_1_1_26_1_23",
        "X_1_1_1_1_1_1_14_1_1_27_1_23",
        "X_1_1_1_1_1_1_55_1_1_28_1_23",
        "X_1_1_1_1_1_1_15_1_1_29_1_23",
        "X_1_1_1_1_1_1_56_1_1_30_1_23",
        "X_1_1_1_1_1_1_16_1_1_31_1_23",
        "X_1_1_1_1_1_1_57_1_1_32_1_23",
        "X_1_1_1_1_1_1_17_1_1_33_1_23",
        "X_1_1_1_1_1_1_58_1_1_34_1_23",
        "X_1_1_1_1_1_1_18_1_1_35_1_23",
        "X_1_1_1_1_1_1_59_1_1_36_1_23",
        "X_1_1_1_1_1_1_19_1_1_37_1_23",
        "X_1_1_1_1_1_1_60_1_1_38_1_23",
        "X_1_1_1_1_1_1_20_1_1_39_1_23",
        "X_1_1_1_1_1_1_61_1_1_40_1_23",
        "X_1_1_1_1_1_1_21_1_1_41_1_23",
        "X_1_1_1_1_1_1_62_1_1_42_1_23",
        "X_1_1_1_1_1_1_22_1_1_43_1_23",
        "X_1_1_1_1_1_1_63_1_1_44_1_23",
        "X_1_1_1_1_1_1_23_1_1_45_1_23",
        "X_1_1_1_1_1_1_64_1_1_46_1_23",
        "X_1_1_1_1_1_1_24_1_1_47_1_23",
        "X_1_1_1_1_1_1_65_1_1_48_1_23",
        "X_1_1_1_1_1_1_25_1_1_49_1_23",
        "X_1_1_1_1_1_1_66_1_1_50_1_23",
        "X_1_1_1_1_1_1_26_1_1_51_1_23",
        "X_1_1_1_1_1_1_67_1_1_52_1_23",
        "X_1_1_1_1_1_1_27_1_1_53_1_23",
        "X_1_1_1_1_1_1_68_1_1_54_1_23",
        "X_1_1_1_1_1_1_28_1_1_55_1_23",
        "X_1_1_1_1_1_1_69_1_1_56_1_23",
        "X_1_1_1_1_1_1_29_1_1_57_1_23",
        "X_1_1_1_1_1_1_70_1_1_58_1_23",
        "X_1_1_1_1_1_1_30_1_1_59_1_23",
        "X_1_1_1_1_1_1_71_1_1_60_1_23",
        "X_1_1_1_1_1_1_31_1_1_61_1_23",
        "X_1_1_1_1_1_1_72_1_1_62_1_23",
        "X_1_1_1_1_1_1_32_1_1_63_1_23",
        "X_1_1_1_1_1_1_73_1_1_64_1_23",
        "X_1_1_1_1_1_1_33_1_1_65_1_23",
        "X_1_1_1_1_1_1_74_1_1_66_1_23",
        "X_1_1_1_1_1_1_34_1_1_67_1_23",
        "X_1_1_1_1_1_1_75_1_1_68_1_23",
        "X_1_1_1_1_1_1_35_1_1_69_1_23",
        "X_1_1_1_1_1_1_76_1_1_70_1_23",
        "X_1_1_1_1_1_1_36_1_1_71_1_23",
        "X_1_1_1_1_1_1_77_1_1_72_1_23",
        "X_1_1_1_1_1_1_37_1_1_73_1_23",
        "X_1_1_1_1_1_1_78_1_1_74_1_23",
        "X_1_1_1_1_1_1_38_1_1_75_1_23",
        "X_1_1_1_1_1_1_79_1_1_76_1_23",
        "X_1_1_1_1_1_1_39_1_1_77_1_23",
        "X_1_1_1_1_1_1_80_1_1_78_1_23",
        "X_1_1_1_1_1_1_40_1_1_79_1_23",
        "X_1_1_1_1_1_1_81_1_1_80_1_23",
        "X_1_1_1_1_1_1_41_1_1_81_1_23"
],
      "CsaImage.ProtocolSliceNumber": [0, 1, 2, 3, 4, 5, 6, 7, 8, 9, 10, 11, 12, 13, 14, 15, 16, 17, 18, 19, 20, 21, 22, 23, 24, 25, 26, 27, 28, 29, 30, 31, 32, 33, 34, 35, 36, 37, 38, 39, 40, 41, 42, 43, 44, 45, 46, 47, 48, 49, 50, 51, 52, 53, 54, 55, 56, 57, 58, 59, 60, 61, 62, 63, 64, 65, 66, 67, 68, 69, 70, 71, 72, 73, 74, 75, 76, 77, 78, 79, 80],
      "CsaImage.SlicePosition_PCS": [
        [-120.354283, -115.04236604, -95.1401521],
        [-120.51869693, -115.54983974, -93.52601636],
        [-120.68311109, -116.05731321, -91.9118768],
        [-120.84752526, -116.56478692, -90.29774106],
        [-121.01193919, -117.07226039, -88.68360531],
        [-121.17635336, -117.57973433, -87.06946576],
        [-121.34076753, -118.0872078, -85.45533002],
        [-121.50518169, -118.59468127, -83.84119046],
        [-121.66959562, -119.10215474, -82.22705472],
        [-121.83401003, -119.60962869, -80.61291897],
        [-121.99842396, -120.11710215, -78.99878132],
        [-122.16283789, -120.62457562, -77.38464367],
        [-122.32725229, -121.13204909, -75.77050603],
        [-122.49166622, -121.63952304, -74.15637028],
        [-122.65608015, -122.14699603, -72.54223263],
        [-122.82049456, -122.65446998, -70.92809498],
        [-122.98490848, -123.16194392, -69.31395924],
        [-123.14932241, -123.66941691, -67.69982159],
        [-123.31373682, -124.17689086, -66.08568394],
        [-123.47815075, -124.6843648, -64.47154629],
        [-123.64256515, -125.1918378, -62.8574096],
        [-123.80697908, -125.69931174, -61.2432729],
        [-123.97139301, -126.20678569, -59.62913621],
        [-124.13580742, -126.71425868, -58.01499856],
        [-124.30022135, -127.22173262, -56.40086186],
        [-124.46463528, -127.72920562, -54.78672469],
        [-124.62904968, -128.23667956, -53.17258751],
        [-124.79346361, -128.74415255, -51.55845034],
        [-124.95787754, -129.25162745, -49.94431341],
        [-125.12229195, -129.75910045, -48.33017618],
        [-125.28670587, -130.26657344, -46.71603912],
        [-125.45112028, -130.77404834, -45.10190213],
        [-125.61553421, -131.28152133, -43.48776496],
        [-125.77994814, -131.78899432, -41.87362778],
        [-125.94436254, -132.29646922, -40.25949061],
        [-126.10877695, -132.80394221, -38.64535344],
        [-126.2731904, -133.3114152, -37.03121674],
        [-126.43760481, -133.8188901, -35.41707909],
        [-126.60201921, -134.3263631, -33.8029424],
        [-126.76643267, -134.83383609, -32.1888057],
        [-126.93084707, -135.34130908, -30.574669],
        [-127.09526148, -135.84878398, -28.96053135],
        [-127.25967493, -136.35625697, -27.34639371],
        [-127.42408934, -136.86372996, -25.73225606],
        [-127.58850374, -137.37120486, -24.11812031],
        [-127.75291719, -137.87867785, -22.50398266],
        [-127.9173316, -138.38615085, -20.88984501],
        [-128.081746, -138.89362574, -19.27570927],
        [-128.24615946, -139.40109874, -17.66157162],
        [-128.41057386, -139.90857173, -16.04743397],
        [-128.57498827, -140.41604663, -14.43329632],
        [-128.73940172, -140.92351962, -12.81916058],
        [-128.90381613, -141.43099261, -11.20502484],
        [-129.06823053, -141.93846751, -9.59088528],
        [-129.23264398, -142.4459405, -7.97674954],
        [-129.39705839, -142.9534135, -6.36260998],
        [-129.5614728, -143.46088839, -4.74847424],
        [-129.7258872, -143.96836139, -3.1343385],
        [-129.89030065, -144.47583438, -1.52019894],
        [-130.05471506, -144.98330928, 0.0939368],
        [-130.21912947, -145.49078227, 1.70807254],
        [-130.38354292, -145.99825526, 3.3222121],
        [-130.54795732, -146.50572825, 4.93634784],
        [-130.71237173, -147.01320125, 6.55048358],
        [-130.87678518, -147.52067805, 8.16462314],
        [-131.04119959, -148.02815104, 9.77875888],
        [-131.20561399, -148.53562404, 11.39289462],
        [-131.37002745, -149.04309703, 13.00703418],
        [-131.53444185, -149.55057002, 14.62116992],
        [-131.69885626, -150.05804301, 16.23530567],
        [-131.86326971, -150.565516, 17.84944522],
        [-132.02768412, -151.07299281, 19.46358097],
        [-132.19209852, -151.5804658, 21.07771671],
        [-132.35651197, -152.08793879, 22.69185245],
        [-132.52092638, -152.59541179, 24.30599582],
        [-132.68534078, -153.10288478, 25.92013156],
        [-132.84975519, -153.61035777, 27.53426731],
        [-133.01416864, -154.11783458, 29.14840305],
        [-133.17858305, -154.62530757, 30.76253879],
        [-133.34299745, -155.13278056, 32.37668216],
        [-133.50741091, -155.64025355, 33.9908179]
],
      "CsaImage.TimeAfterStart": [16.4, 18.515, 16.55, 18.6675, 16.7025, 18.8175, 16.8525, 18.97, 17.005, 19.12, 17.155, 19.27, 17.3075, 19.4225, 17.4575, 19.5725, 17.61, 19.725, 17.76, 19.875, 17.91, 20.0275, 18.0625, 20.1775, 18.2125, 20.33, 18.365, 16.4, 18.515, 16.55, 18.6675, 16.7025, 18.8175, 16.8525, 18.97, 17.005, 19.12, 17.155, 19.27, 17.3075, 19.4225, 17.4575, 19.5725, 17.61, 19.725, 17.76, 19.875, 17.91, 20.0275, 18.0625, 20.1775, 18.2125, 20.33, 18.365, 16.4, 18.515, 16.55, 18.6675, 16.7025, 18.8175, 16.8525, 18.97, 17.005, 19.12, 17.155, 19.27, 17.3075, 19.4225, 17.4575, 19.5725, 17.61, 19.725, 17.76, 19.875, 17.91, 20.0275, 18.0625, 20.1775, 18.2125, 20.33, 18.365],
      "ImagePositionPatient": [
        [-120.35428299799, -115.04236603636, -95.140152097697],
        [-120.51869692698, -115.54983974356, -93.52601635551],
        [-120.68311109438, -116.05731321234, -91.911876798625],
        [-120.84752526178, -116.56478691954, -90.297741056438],
        [-121.01193919077, -117.07226038832, -88.68360531425],
        [-121.17635335817, -117.57973433393, -87.069465757365],
        [-121.34076752558, -118.08720780271, -85.455330015178],
        [-121.50518169298, -118.59468127149, -83.841190458293],
        [-121.66959562197, -119.10215474028, -82.227054716106],
        [-121.83401002779, -119.60962868589, -80.612918973918],
        [-121.99842395678, -120.11710215467, -78.998781324382],
        [-122.16283788576, -120.62457562345, -77.384643674846],
        [-122.32725229159, -121.13204909223, -75.77050602531],
        [-122.49166622057, -121.63952303785, -74.156370283122],
        [-122.65608014956, -122.1469960298, -72.542232633586],
        [-122.82049455538, -122.65446997541, -70.92809498405],
        [-122.98490848436, -123.16194392103, -69.313959241862],
        [-123.14932241335, -123.66941691297, -67.699821592326],
        [-123.31373681917, -124.17689085859, -66.08568394279],
        [-123.47815074816, -124.68436480421, -64.471546293254],
        [-123.64256515398, -125.19183779615, -62.857409597392],
        [-123.80697908297, -125.69931174177, -61.24327290153],
        [-123.97139301195, -126.20678568739, -59.629136205669],
        [-124.13580741778, -126.71425867933, -58.014998556132],
        [-124.30022134676, -127.22173262495, -56.400861860271],
        [-124.46463527575, -127.72920561689, -54.786724687572],
        [-124.62904968157, -128.23667956251, -53.172587514873],
        [-124.79346361055, -128.74415255445, -51.558450342174],
        [-124.95787753954, -129.25162745375, -49.944313407893],
        [-125.12229194536, -129.75910044569, -48.33017617559],
        [-125.28670587435, -130.26657343763, -46.7160391221],
        [-125.45112028017, -130.77404833692, -45.101902128215],
        [-125.61553420916, -131.28152132887, -43.487764955516],
        [-125.77994813814, -131.78899432081, -41.873627782817],
        [-125.94436254397, -132.2964692201, -40.259490610118],
        [-126.10877694979, -132.80394221205, -38.645353437419],
        [-126.27319040194, -133.31141520399, -37.031216741557],
        [-126.43760480776, -133.81889010328, -35.417079092021],
        [-126.60201921358, -134.32636309523, -33.802942396159],
        [-126.76643266573, -134.83383608717, -32.188805700298],
        [-126.93084707155, -135.34130907911, -30.574669004436],
        [-127.09526147738, -135.8487839784, -28.9605313549],
        [-127.25967492952, -136.35625697035, -27.346393705363],
        [-127.42408933535, -136.86372996229, -25.732256055827],
        [-127.58850374117, -137.37120486158, -24.11812031364],
        [-127.75291719332, -137.87867785353, -22.503982664104],
        [-127.91733159914, -138.38615084547, -20.889845014568],
        [-128.08174600496, -138.89362574476, -19.27570927238],
        [-128.24615945711, -139.4010987367, -17.661571622844],
        [-128.41057386294, -139.90857172865, -16.047433973308],
        [-128.57498826876, -140.41604662794, -14.433296323772],
        [-128.73940172091, -140.92351961988, -12.819160581584],
        [-128.90381612673, -141.43099261183, -11.205024839397],
        [-129.06823053255, -141.93846751112, -9.5908852825119],
        [-129.2326439847, -142.44594050306, -7.9767495403244],
        [-129.39705839052, -142.95341349501, -6.3626099834396],
        [-129.56147279635, -143.4608883943, -4.7484742412521],
        [-129.72588720217, -143.96836138624, -3.1343384990646],
        [-129.89030065432, -144.47583437818, -1.5201989421799],
        [-130.05471506014, -144.98330927748, 0.09393680000765],
        [-130.21912946596, -145.49078226942, 1.7080725421951],
        [-130.38354291811, -145.99825526136, 3.3222120990799],
        [-130.54795732393, -146.50572825331, 4.9363478412674],
        [-130.71237172976, -147.01320124525, 6.5504835834549],
        [-130.87678518191, -147.52067805189, 8.1646231403397],
        [-131.04119958773, -148.02815104383, 9.7787588825272],
        [-131.20561399355, -148.53562403578, 11.392894624715],
        [-131.3700274457, -149.04309702772, 13.007034181599],
        [-131.53444185152, -149.55057001966, 14.621169923787],
        [-131.69885625734, -150.05804301161, 16.235305665974],
        [-131.86326970949, -150.56551600355, 17.849445222859],
        [-132.02768411532, -151.07299281019, 19.463580965047],
        [-132.19209852114, -151.58046580213, 21.077716707234],
        [-132.35651197329, -152.08793879408, 22.691852449422],
        [-132.52092637911, -152.59541178602, 24.305995821004],
        [-132.68534078493, -153.10288477796, 25.920131563191],
        [-132.84975519076, -153.61035776991, 27.534267305379],
        [-133.0141686429, -154.11783457655, 29.148403047566],
        [-133.17858304873, -154.62530756849, 30.762538789754],
        [-133.34299745455, -155.13278056044, 32.376682161336],
        [-133.5074109067, -155.64025355238, 33.990817903523]
],
      "InstanceCreationTime": ["093758.818000", "093759.111000", "093758.825000", "093759.117000", "093758.833000", "093759.124000", "093758.839000", "093759.135000", "093758.846000", "093759.142000", "093758.852000", "093759.148000", "093758.859000", "093759.155000", "093759.065000", "093759.161000", "093759.071000", "093759.168000", "093759.078000", "093759.174000", "093759.084000", "093759.180000", "093759.091000", "093759.187000", "093759.097000", "093759.193000", "093759.104000", "093758.821000", "093759.113000", "093758.828000", "093759.119000", "093758.835000", "093759.126000", "093758.842000", "093759.137000", "093758.848000", "093759.144000", "093758.854000", "093759.150000", "093758.861000", "093759.157000", "093759.067000", "093759.163000", "093759.073000", "093759.170000", "093759.080000", "093759.176000", "093759.087000", "093759.183000", "093759.093000", "093759.189000", "093759.100000", "093759.195000", "093759.106000", "093758.823000", "093759.115000", "093758.830000", "093759.121000", "093758.837000", "093759.128000", "093758.844000", "093759.139000", "093758.850000", "093759.146000", "093758.856000", "093759.153000", "093758.863000", "093759.159000", "093759.069000", "093759.165000", "093759.076000", "093759.172000", "093759.082000", "093759.178000", "093759.089000", "093759.185000", "093759.095000", "093759.191000", "093759.102000", "093759.198000", "093759.108000"],
      "InstanceNumber": [1, 2, 3, 4, 5, 6, 7, 8, 9, 10, 11, 12, 13, 14, 15, 16, 17, 18, 19, 20, 21, 22, 23, 24, 25, 26, 27, 28, 29, 30, 31, 32, 33, 34, 35, 36, 37, 38, 39, 40, 41, 42, 43, 44, 45, 46, 47, 48, 49, 50, 51, 52, 53, 54, 55, 56, 57, 58, 59, 60, 61, 62, 63, 64, 65, 66, 67, 68, 69, 70, 71, 72, 73, 74, 75, 76, 77, 78, 79, 80, 81],
      "LargestImagePixelValue": [42808, 34527, 31898, 29346, 26558, 38525, 51601, 53591, 52583, 46272, 33450, 34156, 33897, 46156, 31442, 35065, 36445, 31926, 39789, 42944, 65535, 65535, 65535, 65535, 65535, 65535, 65535, 65535, 65535, 45735, 57477, 58424, 43980, 36932, 37128, 37359, 35127, 43589, 41811, 39894, 55731, 38503, 42700, 42258, 39889, 47595, 49577, 50556, 57804, 46212, 50010, 56038, 47364, 46153, 59416, 55070, 49571, 41752, 47014, 48497, 46858, 43591, 49264, 50716, 53025, 49714, 47817, 40475, 43627, 50519, 54886, 65535, 51315, 35910, 25689, 9368, 9761, 9556, 6875, 7813, 4785],
      "SliceLocation": [-44.353143470894, -42.653144736262, -40.953142427717, -39.253143670027, -37.553145006566, -35.853142555679, -34.15314386916, -32.453141560615, -30.753142897154, -29.053144045234, -27.35314357076, -25.653143096287, -23.953142575696, -22.253143769893, -20.553143437762, -18.853142774829, -17.153143969026, -15.453143636895, -13.753142973962, -12.053142357146, -10.353142884404, -8.6531431730947, -6.9531434617851, -5.2531430835371, -3.5531433722275, -1.8531434928496, -0.1531432826699, 1.546856596708, 3.2468568190792, 4.9468568011682, 6.6468565673577, 8.34685689244, 10.046856771818, 11.746856651196, 13.44685714606, 15.146857071555, 16.846856452063, 18.546857399681, 20.246856872422, 21.94685625293, 23.646855725672, 25.34685667329, 27.046856959304, 28.746857337552, 30.446856474157, 32.146856760171, 33.846857138419, 35.546856275024, 37.246856561038, 38.946856939286, 40.646857886904, 42.346856361906, 44.046854929141, 45.746857687772, 47.446856162773, 49.146858352034, 50.846857488639, 52.546856055874, 54.246858152901, 55.946857289506, 57.646855856741, 59.346857953768, 61.046856521003, 62.746855088238, 64.446858324006, 66.14685689124, 67.846855458475, 69.546857555503, 71.246856122738, 72.946854689973, 74.646856787, 76.346856492975, 78.04685506021, 79.746853535211, 81.446859346498, 83.146857913733, 84.846856480968, 86.546856094709, 88.246854661944, 89.946860473231, 91.646858948233],
      "WindowCenter": [7781.0, 7030.0, 6853.0, 6886.0, 6549.0, 7405.0, 8441.0, 8487.0, 8204.0, 7788.0, 7554.0, 7989.0, 8116.0, 8648.0, 7894.0, 7930.0, 7700.0, 7813.0, 8311.0, 8432.0, 8815.0, 8762.0, 8572.0, 8759.0, 8554.0, 8863.0, 8938.0, 9055.0, 9150.0, 8782.0, 8973.0, 8831.0, 8451.0, 8483.0, 8482.0, 8506.0, 8514.0, 8916.0, 9005.0, 9134.0, 9299.0, 9203.0, 9422.0, 9366.0, 9503.0, 9697.0, 9858.0, 9880.0, 10171.0, 10227.0, 10397.0, 10494.0, 10603.0, 10438.0, 10129.0, 10106.0, 10217.0, 10197.0, 10236.0, 10279.0, 10255.0, 10115.0, 10260.0, 10307.0, 10279.0, 10048.0, 9913.0, 10011.0, 10083.0, 10313.0, 10177.0, 10263.0, 9833.0, 7022.0, 4523.0, 1536.0, 1501.0, 1505.0, 1467.0, 1437.0, 1349.0],
      "WindowWidth": [16653.0, 15123.0, 14807.0, 14766.0, 14454.0, 16239.0, 18478.0, 18528.0, 17919.0, 16869.0, 16352.0, 17187.0, 17495.0, 18534.0, 16930.0, 16981.0, 16481.0, 16750.0, 17894.0, 18574.0, 20091.0, 20476.0, 19885.0, 20737.0, 19702.0, 21282.0, 21357.0, 21778.0, 21816.0, 19342.0, 20151.0, 19555.0, 18152.0, 18261.0, 18394.0, 18411.0, 18402.0, 19248.0, 19444.0, 19690.0, 20018.0, 19745.0, 20228.0, 20072.0, 20354.0, 20846.0, 21269.0, 21350.0, 22056.0, 22231.0, 22720.0, 23139.0, 23425.0, 22973.0, 22159.0, 22105.0, 22344.0, 22301.0, 22507.0, 22672.0, 22638.0, 22209.0, 22599.0, 22888.0, 22934.0, 22220.0, 21737.0, 22000.0, 22370.0, 23291.0, 23003.0, 24374.0, 21991.0, 15138.0, 10445.0, 4486.0, 4331.0, 4342.0, 4162.0, 4078.0, 3725.0]
    }
  }
}