{
  "AcquisitionMatrixPE": 82,
  "AcquisitionNumber": 1,
  "AcquisitionTime": "21:58:7.590000",
  "BandwidthPerPixelPhaseEncode": 24.888,
  "BaseResolution": 82,
  "BodyPartExamined": "BRAIN",
  "ConsistencyInfo": "N4_VE11E_LATEST_20181129",
  "ConversionSoftware": "dcm2niix",
  "ConversionSoftwareVersion": "v1.0.20201102",
  "DerivedVendorReportedEchoSpacing": 0.00049,
  "DeviceSerialNumber": "66112",
  "DwellTime": 2e-06,
  "EchoTime": 0.0272,
  "EchoTrainLength": 82,
  "EffectiveEchoSpacing": 0.00049,
  "FlipAngle": 44,
  "ImageComments": "Unaliased MB8/PE3",
  "ImageOrientationPatientDICOM": [0.995515, 0.0921222, -0.0215058, -0.0904238, 0.993455, 0.0697938],
  "ImageType": [
    "ORIGINAL",
    "PRIMARY",
    "M",
    "MB",
    "ND",
    "NORM",
    "MOSAIC"
],
  "ImagingFrequency": 123.252,
  "InPlanePhaseEncodingDirectionDICOM": "COL",
  "InstitutionAddress": "Maynard 3,Hanover,NH,US,03755",
  "InstitutionName": "Dartmouth College - PBS",
  "InstitutionalDepartmentName": "Department",
  "MRAcquisitionType": "2D",
  "MagneticFieldStrength": 3,
  "Manufacturer": "Siemens",
  "ManufacturersModelName": "Prisma",
  "Modality": "MR",
  "MultibandAccelerationFactor": 8,
  "PartialFourier": 1,
  "PatientPosition": "HFS",
  "PercentPhaseFOV": 100,
  "PercentSampling": 100,
  "PhaseEncodingDirection": "j-",
  "PhaseEncodingSteps": 82,
  "PhaseResolution": 1,
  "PixelBandwidth": 3050,
  "ProcedureStepDescription": "Wager_Wager^1076_spacetop",
  "ProtocolName": "func_run-03_task-alignvideo_acq-ap-mb8",
  "PulseSequenceDetails": "%CustomerSeq%\\cmrr_mbep2d_bold",
  "ReceiveCoilActiveElements": "HEA;HEP",
  "ReceiveCoilName": "Head_32",
  "ReconMatrixPE": 82,
  "RepetitionTime": 0.46,
  "SAR": 0.0770687,
  "ScanOptions": "FS",
  "ScanningSequence": "EP",
  "SequenceName": "epfid2d1_82",
  "SequenceVariant": "SK\\SS",
  "SeriesDescription": "func_run-03_task-alignvideo_acq-ap-mb8",
  "SeriesNumber": 34,
  "ShimSetting": [4144, -7754, -7332, 804, -81, -243, -83, 132],
  "SliceThickness": 2.7,
  "SliceTiming": [0, 0.2525, 0.0625, 0.315, 0.125, 0.3775, 0.19, 0, 0.2525, 0.0625, 0.315, 0.125, 0.3775, 0.19, 0, 0.2525, 0.0625, 0.315, 0.125, 0.3775, 0.19, 0, 0.2525, 0.0625, 0.315, 0.125, 0.3775, 0.19, 0, 0.2525, 0.0625, 0.315, 0.125, 0.3775, 0.19, 0, 0.2525, 0.0625, 0.315, 0.125, 0.3775, 0.19, 0, 0.2525, 0.0625, 0.315, 0.125, 0.3775, 0.19, 0, 0.2525, 0.0625, 0.315, 0.125, 0.3775, 0.19],
  "SoftwareVersions": "syngo MR E11",
  "SpacingBetweenSlices": 2.7,
  "StationName": "AWP66112",
  "TaskName": "alignvideo",
  "TotalReadoutTime": 0.03969,
  "TxRefAmp": 234.052,
  "WipMemBlock": "fe308eab-c066-420e-8caa-aece738a9944||Sequence: R016 ve11e/master r/434b28f1; Aug  7 2019 18:53:46 by eja",
  "dcmmeta_affine": [
    [-2.6708950996398926, -0.24260053038597107, -0.07504529505968094, 120.90858459472656],
    [-0.2471572607755661, 2.6653664112091064, 0.18234755098819733, -101.50504302978516],
    [-0.05769836902618408, -0.18725155293941498, 2.6927900314331055, -80.87049102783203],
    [0.0, 0.0, 0.0, 1.0]
],
  "dcmmeta_reorient_transform": [
    [0.0, -1.0, 0.0, 81.0],
    [1.0, 0.0, 0.0, 0.0],
    [0.0, 0.0, 1.0, 0.0],
    [0.0, 0.0, 0.0, 1.0]
],
  "dcmmeta_shape": [82, 82, 56, 1016],
  "dcmmeta_slice_dim": 2,
  "dcmmeta_version": 0.6,
  "global": {
    "const": {
      "AccessionNumber": "A004045",
      "AcquisitionMatrix": [82, 0, 0, 82],
      "AngioFlag": "N",
      "BitsAllocated": 16,
      "BitsStored": 16,
      "BodyPartExamined": "BRAIN",
      "Columns": 656,
      "EchoNumbers": 1,
      "EchoTime": 27.2,
      "EchoTrainLength": 82,
      "FlipAngle": 44.0,
      "HighBit": 15,
      "ImageOrientationPatient": [0.99551544125368, 0.09212224874003, -0.0215057553361, -0.090423830096, 0.9934547610462, 0.06979375835563],
      "ImagePositionPatient": [-798.17849669164, -950.28396383539, -133.21963232996],
      "ImageType": [
        "ORIGINAL",
        "PRIMARY",
        "M",
        "MB",
        "ND",
        "NORM",
        "MOSAIC"
],
      "ImagedNucleus": "1H",
      "ImagingFrequency": 123.252247,
      "InPlanePhaseEncodingDirection": "COL",
      "MRAcquisitionType": "2D",
      "MagneticFieldStrength": 3.0,
      "Manufacturer": "SIEMENS",
      "ManufacturerModelName": "Prisma",
      "Modality": "MR",
      "NumberOfAverages": 1.0,
      "NumberOfPhaseEncodingSteps": 82,
      "PercentPhaseFieldOfView": 100.0,
      "PercentSampling": 100.0,
      "PerformedProcedureStepStartTime": "202754.427000",
      "PhotometricInterpretation": "MONOCHROME2",
      "PixelBandwidth": 3050.0,
      "PixelRepresentation": 0,
      "PixelSpacing": [2.6829268932343, 2.6829268932343],
      "ProtocolName": "func_run-03_task-alignvideo_acq-ap-mb8",
      "RepetitionTime": 460.0,
      "Rows": 656,
      "SAR": 0.07706871434884,
      "SamplesPerPixel": 1,
      "ScanOptions": "FS",
      "ScanningSequence": "EP",
      "SequenceName": "epfid2d1_82",
      "SequenceVariant": [
        "SK",
        "SS"
],
      "SeriesDescription": "func_run-03_task-alignvideo_acq-ap-mb8",
      "SeriesNumber": 34,
      "SeriesTime": "215832.635000",
      "SliceLocation": -90.870394704506,
      "SliceThickness": 2.7000000476837,
      "SmallestImagePixelValue": 0,
      "SoftwareVersions": "syngo MR E11",
      "SpacingBetweenSlices": 2.7000000218718,
      "SpecificCharacterSet": "ISO_IR 100",
      "StudyID": "1",
      "StudyTime": "202754.374000",
      "TransmitCoilName": "Body",
      "VariableFlipAngleFlag": "N",
      "WindowCenterWidthExplanation": "Algo1"
    },
    "slices": {}
  },
  "time": {
    "samples": {
      "AcquisitionNumber": [1, 2, 3, 4, 5, 6, 7, 8, 9, 10, 11, 12, 13, 14, 15, 16, 17, 18, 19, 20, 21, 22, 23, 24, 25, 26, 27, 28, 29, 30, 31, 32, 33, 34, 35, 36, 37, 38, 39, 40, 41, 42, 43, 44, 45, 46, 47, 48, 49, 50, 51, 52, 53, 54, 55, 56, 57, 58, 59, 60, 61, 62, 63, 64, 65, 66, 67, 68, 69, 70, 71, 72, 73, 74, 75, 76, 77, 78, 79, 80, 81, 82, 83, 84, 85, 86, 87, 88, 89, 90, 91, 92, 93, 94, 95, 96, 97, 98, 99, 100, 101, 102, 103, 104, 105, 106, 107, 108, 109, 110, 111, 112, 113, 114, 115, 116, 117, 118, 119, 120, 121, 122, 123, 124, 125, 126, 127, 128, 129, 130, 131, 132, 133, 134, 135, 136, 137, 138, 139, 140, 141, 142, 143, 144, 145, 146, 147, 148, 149, 150, 151, 152, 153, 154, 155, 156, 157, 158, 159, 160, 161, 162, 163, 164, 165, 166, 167, 168, 169, 170, 171, 172, 173, 174, 175, 176, 177, 178, 179, 180, 181, 182, 183, 184, 185, 186, 187, 188, 189, 190, 191, 192, 193, 194, 195, 196, 197, 198, 199, 200, 201, 202, 203, 204, 205, 206, 207, 208, 209, 210, 211, 212, 213, 214, 215, 216, 217, 218, 219, 220, 221, 222, 223, 224, 225, 226, 227, 228, 229, 230, 231, 232, 233, 234, 235, 236, 237, 238, 239, 240, 241, 242, 243, 244, 245, 246, 247, 248, 249, 250, 251, 252, 253, 254, 255, 256, 257, 258, 259, 260, 261, 262, 263, 264, 265, 266, 267, 268, 269, 270, 271, 272, 273, 274, 275, 276, 277, 278, 279, 280, 281, 282, 283, 284, 285, 286, 287, 288, 289, 290, 291, 292, 293, 294, 295, 296, 297, 298, 299, 300, 301, 302, 303, 304, 305, 306, 307, 308, 309, 310, 311, 312, 313, 314, 315, 316, 317, 318, 319, 320, 321, 322, 323, 324, 325, 326, 327, 328, 329, 330, 331, 332, 333, 334, 335, 336, 337, 338, 339, 340, 341, 342, 343, 344, 345, 346, 347, 348, 349, 350, 351, 352, 353, 354, 355, 356, 357, 358, 359, 360, 361, 362, 363, 364, 365, 366, 367, 368, 369, 370, 371, 372, 373, 374, 375, 376, 377, 378, 379, 380, 381, 382, 383, 384, 385, 386, 387, 388, 389, 390, 391, 392, 393, 394, 395, 396, 397, 398, 399, 400, 401, 402, 403, 404, 405, 406, 407, 408, 409, 410, 411, 412, 413, 414, 415, 416, 417, 418, 419, 420, 421, 422, 423, 424, 425, 426, 427, 428, 429, 430, 431, 432, 433, 434, 435, 436, 437, 438, 439, 440, 441, 442, 443, 444, 445, 446, 447, 448, 449, 450, 451, 452, 453, 454, 455, 456, 457, 458, 459, 460, 461, 462, 463, 464, 465, 466, 467, 468, 469, 470, 471, 472, 473, 474, 475, 476, 477, 478, 479, 480, 481, 482, 483, 484, 485, 486, 487, 488, 489, 490, 491, 492, 493, 494, 495, 496, 497, 498, 499, 500, 501, 502, 503, 504, 505, 506, 507, 508, 509, 510, 511, 512, 513, 514, 515, 516, 517, 518, 519, 520, 521, 522, 523, 524, 525, 526, 527, 528, 529, 530, 531, 532, 533, 534, 535, 536, 537, 538, 539, 540, 541, 542, 543, 544, 545, 546, 547, 548, 549, 550, 551, 552, 553, 554, 555, 556, 557, 558, 559, 560, 561, 562, 563, 564, 565, 566, 567, 568, 569, 570, 571, 572, 573, 574, 575, 576, 577, 578, 579, 580, 581, 582, 583, 584, 585, 586, 587, 588, 589, 590, 591, 592, 593, 594, 595, 596, 597, 598, 599, 600, 601, 602, 603, 604, 605, 606, 607, 608, 609, 610, 611, 612, 613, 614, 615, 616, 617, 618, 619, 620, 621, 622, 623, 624, 625, 626, 627, 628, 629, 630, 631, 632, 633, 634, 635, 636, 637, 638, 639, 640, 641, 642, 643, 644, 645, 646, 647, 648, 649, 650, 651, 652, 653, 654, 655, 656, 657, 658, 659, 660, 661, 662, 663, 664, 665, 666, 667, 668, 669, 670, 671, 672, 673, 674, 675, 676, 677, 678, 679, 680, 681, 682, 683, 684, 685, 686, 687, 688, 689, 690, 691, 692, 693, 694, 695, 696, 697, 698, 699, 700, 701, 702, 703, 704, 705, 706, 707, 708, 709, 710, 711, 712, 713, 714, 715, 716, 717, 718, 719, 720, 721, 722, 723, 724, 725, 726, 727, 728, 729, 730, 731, 732, 733, 734, 735, 736, 737, 738, 739, 740, 741, 742, 743, 744, 745, 746, 747, 748, 749, 750, 751, 752, 753, 754, 755, 756, 757, 758, 759, 760, 761, 762, 763, 764, 765, 766, 767, 768, 769, 770, 771, 772, 773, 774, 775, 776, 777, 778, 779, 780, 781, 782, 783, 784, 785, 786, 787, 788, 789, 790, 791, 792, 793, 794, 795, 796, 797, 798, 799, 800, 801, 802, 803, 804, 805, 806, 807, 808, 809, 810, 811, 812, 813, 814, 815, 816, 817, 818, 819, 820, 821, 822, 823, 824, 825, 826, 827, 828, 829, 830, 831, 832, 833, 834, 835, 836, 837, 838, 839, 840, 841, 842, 843, 844, 845, 846, 847, 848, 849, 850, 851, 852, 853, 854, 855, 856, 857, 858, 859, 860, 861, 862, 863, 864, 865, 866, 867, 868, 869, 870, 871, 872, 873, 874, 875, 876, 877, 878, 879, 880, 881, 882, 883, 884, 885, 886, 887, 888, 889, 890, 891, 892, 893, 894, 895, 896, 897, 898, 899, 900, 901, 902, 903, 904, 905, 906, 907, 908, 909, 910, 911, 912, 913, 914, 915, 916, 917, 918, 919, 920, 921, 922, 923, 924, 925, 926, 927, 928, 929, 930, 931, 932, 933, 934, 935, 936, 937, 938, 939, 940, 941, 942, 943, 944, 945, 946, 947, 948, 949, 950, 951, 952, 953, 954, 955, 956, 957, 958, 959, 960, 961, 962, 963, 964, 965, 966, 967, 968, 969, 970, 971, 972, 973, 974, 975, 976, 977, 978, 979, 980, 981, 982, 983, 984, 985, 986, 987, 988, 989, 990, 991, 992, 993, 994, 995, 996, 997, 998, 999, 1000, 1001, 1002, 1003, 1004, 1005, 1006, 1007, 1008, 1009, 1010, 1011, 1012, 1013, 1014, 1015, 1016],
      "AcquisitionTime": ["215807.590000", "215808.050000", "215808.510000", "215808.970000", "215809.430000", "215809.890000", "215810.350000", "215810.810000", "215811.270000", "215811.730000", "215812.190000", "215812.650000", "215813.110000", "215813.570000", "215814.030000", "215814.490000", "215814.950000", "215815.410000", "215815.870000", "215816.330000", "215816.790000", "215817.250000", "215817.710000", "215818.170000", "215818.630000", "215819.090000", "215819.550000", "215820.010000", "215820.470000", "215820.930000", "215821.390000", "215821.850000", "215822.310000", "215822.770000", "215823.230000", "215823.690000", "215824.150000", "215824.610000", "215825.070000", "215825.530000", "215825.990000", "215826.450000", "215826.910000", "215827.370000", "215827.830000", "215828.290000", "215828.750000", "215829.210000", "215829.670000", "215830.130000", "215830.590000", "215831.050000", "215831.510000", "215831.970000", "215832.430000", "215832.890000", "215833.350000", "215833.810000", "215834.270000", "215834.730000", "215835.190000", "215835.650000", "215836.110000", "215836.570000", "215837.030000", "215837.490000", "215837.950000", "215838.410000", "215838.870000", "215839.330000", "215839.790000", "215840.250000", "215840.710000", "215841.170000", "215841.630000", "215842.090000", "215842.550000", "215843.010000", "215843.470000", "215843.930000", "215844.390000", "215844.850000", "215845.310000", "215845.770000", "215846.230000", "215846.690000", "215847.150000", "215847.610000", "215848.070000", "215848.530000", "215848.990000", "215849.450000", "215849.910000", "215850.370000", "215850.830000", "215851.290000", "215851.750000", "215852.210000", "215852.670000", "215853.130000", "215853.590000", "215854.050000", "215854.510000", "215854.970000", "215855.430000", "215855.890000", "215856.350000", "215856.810000", "215857.270000", "215857.730000", "215858.190000", "215858.650000", "215859.110000", "215859.570000", "215900.030000", "215900.490000", "215900.950000", "215901.410000", "215901.870000", "215902.330000", "215902.790000", "215903.250000", "215903.710000", "215904.170000", "215904.630000", "215905.090000", "215905.550000", "215906.010000", "215906.470000", "215906.930000", "215907.390000", "215907.850000", "215908.310000", "215908.770000", "215909.230000", "215909.690000", "215910.150000", "215910.610000", "215911.070000", "215911.530000", "215911.990000", "215912.450000", "215912.910000", "215913.370000", "215913.830000", "215914.290000", "215914.750000", "215915.210000", "215915.670000", "215916.130000", "215916.590000", "215917.050000", "215917.510000", "215917.970000", "215918.430000", "215918.890000", "215919.350000", "215919.810000", "215920.270000", "215920.730000", "215921.190000", "215921.650000", "215922.110000", "215922.570000", "215923.030000", "215923.490000", "215923.950000", "215924.410000", "215924.870000", "215925.330000", "215925.790000", "215926.250000", "215926.710000", "215927.170000", "215927.630000", "215928.090000", "215928.550000", "215929.010000", "215929.470000", "215929.930000", "215930.390000", "215930.850000", "215931.310000", "215931.770000", "215932.230000", "215932.690000", "215933.150000", "215933.610000", "215934.070000", "215934.530000", "215934.990000", "215935.450000", "215935.910000", "215936.370000", "215936.830000", "215937.290000", "215937.750000", "215938.210000", "215938.670000", "215939.130000", "215939.590000", "215940.050000", "215940.510000", "215940.970000", "215941.430000", "215941.890000", "215942.350000", "215942.810000", "215943.270000", "215943.730000", "215944.190000", "215944.650000", "215945.110000", "215945.570000", "215946.030000", "215946.490000", "215946.950000", "215947.410000", "215947.870000", "215948.330000", "215948.790000", "215949.250000", "215949.710000", "215950.170000", "215950.630000", "215951.090000", "215951.550000", "215952.010000", "215952.470000", "215952.930000", "215953.390000", "215953.850000", "215954.310000", "215954.770000", "215955.230000", "215955.690000", "215956.150000", "215956.610000", "215957.070000", "215957.530000", "215957.990000", "215958.450000", "215958.910000", "215959.370000", "215959.830000", "220000.290000", "220000.750000", "220001.210000", "220001.670000", "220002.130000", "220002.590000", "220003.050000", "220003.510000", "220003.970000", "220004.430000", "220004.890000", "220005.350000", "220005.810000", "220006.270000", "220006.730000", "220007.190000", "220007.650000", "220008.110000", "220008.570000", "220009.030000", "220009.490000", "220009.950000", "220010.410000", "220010.870000", "220011.330000", "220011.790000", "220012.250000", "220012.710000", "220013.170000", "220013.630000", "220014.090000", "220014.550000", "220015.010000", "220015.470000", "220015.930000", "220016.390000", "220016.850000", "220017.310000", "220017.770000", "220018.230000", "220018.690000", "220019.150000", "220019.610000", "220020.070000", "220020.530000", "220020.990000", "220021.450000", "220021.910000", "220022.370000", "220022.830000", "220023.290000", "220023.750000", "220024.210000", "220024.670000", "220025.130000", "220025.590000", "220026.050000", "220026.510000", "220026.970000", "220027.430000", "220027.890000", "220028.350000", "220028.810000", "220029.270000", "220029.730000", "220030.190000", "220030.650000", "220031.110000", "220031.570000", "220032.030000", "220032.490000", "220032.950000", "220033.410000", "220033.870000", "220034.330000", "220034.790000", "220035.250000", "220035.710000", "220036.170000", "220036.630000", "220037.090000", "220037.550000", "220038.010000", "220038.470000", "220038.930000", "220039.390000", "220039.850000", "220040.310000", "220040.770000", "220041.230000", "220041.690000", "220042.150000", "220042.610000", "220043.070000", "220043.530000", "220043.990000", "220044.450000", "220044.910000", "220045.370000", "220045.830000", "220046.290000", "220046.750000", "220047.210000", "220047.670000", "220048.130000", "220048.590000", "220049.050000", "220049.510000", "220049.970000", "220050.430000", "220050.890000", "220051.350000", "220051.810000", "220052.270000", "220052.730000", "220053.190000", "220053.650000", "220054.110000", "220054.570000", "220055.030000", "220055.490000", "220055.950000", "220056.410000", "220056.870000", "220057.330000", "220057.790000", "220058.250000", "220058.710000", "220059.170000", "220059.630000", "220100.090000", "220100.550000", "220101.010000", "220101.470000", "220101.930000", "220102.390000", "220102.850000", "220103.310000", "220103.770000", "220104.230000", "220104.690000", "220105.150000", "220105.610000", "220106.070000", "220106.530000", "220106.990000", "220107.450000", "220107.910000", "220108.370000", "220108.830000", "220109.290000", "220109.750000", "220110.210000", "220110.670000", "220111.130000", "220111.590000", "220112.050000", "220112.510000", "220112.970000", "220113.430000", "220113.890000", "220114.350000", "220114.810000", "220115.270000", "220115.730000", "220116.190000", "220116.650000", "220117.110000", "220117.570000", "220118.030000", "220118.490000", "220118.950000", "220119.410000", "220119.870000", "220120.330000", "220120.790000", "220121.250000", "220121.710000", "220122.170000", "220122.630000", "220123.090000", "220123.550000", "220124.010000", "220124.470000", "220124.930000", "220125.390000", "220125.850000", "220126.310000", "220126.770000", "220127.230000", "220127.690000", "220128.150000", "220128.610000", "220129.070000", "220129.530000", "220129.990000", "220130.450000", "220130.910000", "220131.370000", "220131.830000", "220132.290000", "220132.750000", "220133.210000", "220133.670000", "220134.130000", "220134.590000", "220135.050000", "220135.510000", "220135.970000", "220136.430000", "220136.890000", "220137.350000", "220137.810000", "220138.270000", "220138.730000", "220139.190000", "220139.650000", "220140.110000", "220140.570000", "220141.030000", "220141.490000", "220141.950000", "220142.410000", "220142.870000", "220143.330000", "220143.790000", "220144.250000", "220144.710000", "220145.170000", "220145.630000", "220146.090000", "220146.550000", "220147.010000", "220147.470000", "220147.930000", "220148.390000", "220148.850000", "220149.310000", "220149.770000", "220150.230000", "220150.690000", "220151.150000", "220151.610000", "220152.070000", "220152.530000", "220152.990000", "220153.450000", "220153.910000", "220154.370000", "220154.830000", "220155.290000", "220155.750000", "220156.210000", "220156.670000", "220157.130000", "220157.590000", "220158.050000", "220158.510000", "220158.970000", "220159.430000", "220159.890000", "220200.350000", "220200.810000", "220201.270000", "220201.730000", "220202.190000", "220202.650000", "220203.110000", "220203.570000", "220204.030000", "220204.490000", "220204.950000", "220205.410000", "220205.870000", "220206.330000", "220206.790000", "220207.250000", "220207.710000", "220208.170000", "220208.630000", "220209.090000", "220209.550000", "220210.010000", "220210.470000", "220210.930000", "220211.390000", "220211.850000", "220212.310000", "220212.770000", "220213.230000", "220213.690000", "220214.150000", "220214.610000", "220215.070000", "220215.530000", "220215.990000", "220216.450000", "220216.910000", "220217.370000", "220217.830000", "220218.290000", "220218.750000", "220219.210000", "220219.670000", "220220.130000", "220220.590000", "220221.050000", "220221.510000", "220221.970000", "220222.430000", "220222.890000", "220223.350000", "220223.810000", "220224.270000", "220224.730000", "220225.190000", "220225.650000", "220226.110000", "220226.570000", "220227.030000", "220227.490000", "220227.950000", "220228.410000", "220228.870000", "220229.330000", "220229.790000", "220230.250000", "220230.710000", "220231.170000", "220231.630000", "220232.090000", "220232.550000", "220233.010000", "220233.470000", "220233.930000", "220234.390000", "220234.850000", "220235.310000", "220235.770000", "220236.230000", "220236.690000", "220237.150000", "220237.610000", "220238.070000", "220238.530000", "220238.990000", "220239.450000", "220239.910000", "220240.370000", "220240.830000", "220241.290000", "220241.750000", "220242.210000", "220242.670000", "220243.130000", "220243.590000", "220244.050000", "220244.510000", "220244.970000", "220245.430000", "220245.890000", "220246.350000", "220246.810000", "220247.270000", "220247.730000", "220248.190000", "220248.650000", "220249.110000", "220249.570000", "220250.030000", "220250.490000", "220250.950000", "220251.410000", "220251.870000", "220252.330000", "220252.790000", "220253.250000", "220253.710000", "220254.170000", "220254.630000", "220255.090000", "220255.550000", "220256.010000", "220256.470000", "220256.930000", "220257.390000", "220257.850000", "220258.310000", "220258.770000", "220259.230000", "220259.690000", "220300.150000", "220300.610000", "220301.070000", "220301.530000", "220301.990000", "220302.450000", "220302.910000", "220303.370000", "220303.830000", "220304.290000", "220304.750000", "220305.210000", "220305.670000", "220306.130000", "220306.590000", "220307.050000", "220307.510000", "220307.970000", "220308.430000", "220308.890000", "220309.350000", "220309.810000", "220310.270000", "220310.730000", "220311.190000", "220311.650000", "220312.110000", "220312.570000", "220313.030000", "220313.490000", "220313.950000", "220314.410000", "220314.870000", "220315.330000", "220315.790000", "220316.250000", "220316.710000", "220317.170000", "220317.630000", "220318.090000", "220318.550000", "220319.010000", "220319.470000", "220319.930000", "220320.390000", "220320.850000", "220321.310000", "220321.770000", "220322.230000", "220322.690000", "220323.150000", "220323.610000", "220324.070000", "220324.530000", "220324.990000", "220325.450000", "220325.910000", "220326.370000", "220326.830000", "220327.290000", "220327.750000", "220328.210000", "220328.670000", "220329.130000", "220329.590000", "220330.050000", "220330.510000", "220330.970000", "220331.430000", "220331.890000", "220332.350000", "220332.810000", "220333.270000", "220333.730000", "220334.190000", "220334.650000", "220335.110000", "220335.570000", "220336.030000", "220336.490000", "220336.950000", "220337.410000", "220337.870000", "220338.330000", "220338.790000", "220339.250000", "220339.710000", "220340.170000", "220340.630000", "220341.090000", "220341.550000", "220342.010000", "220342.470000", "220342.930000", "220343.390000", "220343.850000", "220344.310000", "220344.770000", "220345.230000", "220345.690000", "220346.150000", "220346.610000", "220347.070000", "220347.530000", "220347.990000", "220348.450000", "220348.910000", "220349.370000", "220349.830000", "220350.290000", "220350.750000", "220351.210000", "220351.670000", "220352.130000", "220352.590000", "220353.050000", "220353.510000", "220353.970000", "220354.430000", "220354.890000", "220355.350000", "220355.810000", "220356.270000", "220356.730000", "220357.190000", "220357.650000", "220358.110000", "220358.570000", "220359.030000", "220359.490000", "220359.950000", "220400.410000", "220400.870000", "220401.330000", "220401.790000", "220402.250000", "220402.710000", "220403.170000", "220403.630000", "220404.090000", "220404.550000", "220405.010000", "220405.470000", "220405.930000", "220406.390000", "220406.850000", "220407.310000", "220407.770000", "220408.230000", "220408.690000", "220409.150000", "220409.610000", "220410.070000", "220410.530000", "220410.990000", "220411.450000", "220411.910000", "220412.370000", "220412.830000", "220413.290000", "220413.750000", "220414.210000", "220414.670000", "220415.130000", "220415.590000", "220416.050000", "220416.510000", "220416.970000", "220417.430000", "220417.890000", "220418.350000", "220418.810000", "220419.270000", "220419.730000", "220420.190000", "220420.650000", "220421.110000", "220421.570000", "220422.030000", "220422.490000", "220422.950000", "220423.410000", "220423.870000", "220424.330000", "220424.790000", "220425.250000", "220425.710000", "220426.170000", "220426.630000", "220427.090000", "220427.550000", "220428.010000", "220428.470000", "220428.930000", "220429.390000", "220429.850000", "220430.310000", "220430.770000", "220431.230000", "220431.690000", "220432.150000", "220432.610000", "220433.070000", "220433.530000", "220433.990000", "220434.450000", "220434.910000", "220435.370000", "220435.830000", "220436.290000", "220436.750000", "220437.210000", "220437.670000", "220438.130000", "220438.590000", "220439.050000", "220439.510000", "220439.970000", "220440.430000", "220440.890000", "220441.350000", "220441.810000", "220442.270000", "220442.730000", "220443.190000", "220443.650000", "220444.110000", "220444.570000", "220445.030000", "220445.490000", "220445.950000", "220446.410000", "220446.870000", "220447.330000", "220447.790000", "220448.250000", "220448.710000", "220449.170000", "220449.630000", "220450.090000", "220450.550000", "220451.010000", "220451.470000", "220451.930000", "220452.390000", "220452.850000", "220453.310000", "220453.770000", "220454.230000", "220454.690000", "220455.150000", "220455.610000", "220456.070000", "220456.530000", "220456.990000", "220457.450000", "220457.910000", "220458.370000", "220458.830000", "220459.290000", "220459.750000", "220500.210000", "220500.670000", "220501.130000", "220501.590000", "220502.050000", "220502.510000", "220502.970000", "220503.430000", "220503.890000", "220504.350000", "220504.810000", "220505.270000", "220505.730000", "220506.190000", "220506.650000", "220507.110000", "220507.570000", "220508.030000", "220508.490000", "220508.950000", "220509.410000", "220509.870000", "220510.330000", "220510.790000", "220511.250000", "220511.710000", "220512.170000", "220512.630000", "220513.090000", "220513.550000", "220514.010000", "220514.470000", "220514.930000", "220515.390000", "220515.850000", "220516.310000", "220516.770000", "220517.230000", "220517.690000", "220518.150000", "220518.610000", "220519.070000", "220519.530000", "220519.990000", "220520.450000", "220520.910000", "220521.370000", "220521.830000", "220522.290000", "220522.750000", "220523.210000", "220523.670000", "220524.130000", "220524.590000", "220525.050000", "220525.510000", "220525.970000", "220526.430000", "220526.890000", "220527.350000", "220527.810000", "220528.270000", "220528.730000", "220529.190000", "220529.650000", "220530.110000", "220530.570000", "220531.030000", "220531.490000", "220531.950000", "220532.410000", "220532.870000", "220533.330000", "220533.790000", "220534.250000", "220534.710000", "220535.170000", "220535.630000", "220536.090000", "220536.550000", "220537.010000", "220537.470000", "220537.930000", "220538.390000", "220538.850000", "220539.310000", "220539.770000", "220540.230000", "220540.690000", "220541.150000", "220541.610000", "220542.070000", "220542.530000", "220542.990000", "220543.450000", "220543.910000", "220544.370000", "220544.830000", "220545.290000", "220545.750000", "220546.210000", "220546.670000", "220547.130000", "220547.590000", "220548.050000", "220548.510000", "220548.970000", "220549.430000", "220549.890000", "220550.350000", "220550.810000", "220551.270000", "220551.730000", "220552.190000", "220552.650000", "220553.110000", "220553.570000", "220554.030000", "220554.490000"],
