{
  "AcquisitionMatrixPE": 82,
  "AcquisitionNumber": 1,
  "AcquisitionTime": "21:28:47.582500",
  "BandwidthPerPixelPhaseEncode": 24.888,
  "BaseResolution": 82,
  "BodyPartExamined": "BRAIN",
  "ConsistencyInfo": "N4_VE11E_LATEST_20181129",
  "ConversionSoftware": "dcm2niix",
  "ConversionSoftwareVersion": "v1.0.20201102",
  "DerivedVendorReportedEchoSpacing": 0.00049,
  "DeviceSerialNumber": "66112",
  "DwellTime": 2e-06,
  "EchoTime": 0.0272,
  "EchoTrainLength": 82,
  "EffectiveEchoSpacing": 0.00049,
  "FlipAngle": 44,
  "ImageComments": "Unaliased MB8/PE3",
  "ImageOrientationPatientDICOM": [0.993328, 0.113962, -0.0176507, -0.112473, 0.991189, 0.0699636],
  "ImageType": [
    "ORIGINAL",
    "PRIMARY",
    "M",
    "MB",
    "ND",
    "NORM",
    "MOSAIC"
],
  "ImagingFrequency": 123.252,
  "InPlanePhaseEncodingDirectionDICOM": "COL",
  "InstitutionAddress": "Maynard 3,Hanover,NH,US,03755",
  "InstitutionName": "Dartmouth College - PBS",
  "InstitutionalDepartmentName": "Department",
  "MRAcquisitionType": "2D",
  "MagneticFieldStrength": 3,
  "Manufacturer": "Siemens",
  "ManufacturersModelName": "Prisma",
  "Modality": "MR",
  "MultibandAccelerationFactor": 8,
  "PartialFourier": 1,
  "PatientPosition": "HFS",
  "PercentPhaseFOV": 100,
  "PercentSampling": 100,
  "PhaseEncodingDirection": "j-",
  "PhaseEncodingSteps": 82,
  "PhaseResolution": 1,
  "PixelBandwidth": 3050,
  "ProcedureStepDescription": "Wager_Wager^1076_spacetop",
  "ProtocolName": "func_run-06_task-social_acq-ap-mb8",
  "PulseSequenceDetails": "%CustomerSeq%\\cmrr_mbep2d_bold",
  "ReceiveCoilActiveElements": "HEA;HEP",
  "ReceiveCoilName": "Head_32",
  "ReconMatrixPE": 82,
  "RepetitionTime": 0.46,
  "SAR": 0.0770008,
  "ScanOptions": "FS",
  "ScanningSequence": "EP",
  "SequenceName": "epfid2d1_82",
  "SequenceVariant": "SK\\SS",
  "SeriesDescription": "func_run-06_task-social_acq-ap-mb8",
  "SeriesNumber": 22,
  "ShimSetting": [4144, -7754, -7331, 799, -83, -238, -83, 131],
  "SliceThickness": 2.7,
  "SliceTiming": [0, 0.25, 0.0625, 0.315, 0.125, 0.3775, 0.1875, 0, 0.25, 0.0625, 0.315, 0.125, 0.3775, 0.1875, 0, 0.25, 0.0625, 0.315, 0.125, 0.3775, 0.1875, 0, 0.25, 0.0625, 0.315, 0.125, 0.3775, 0.1875, 0, 0.25, 0.0625, 0.315, 0.125, 0.3775, 0.1875, 0, 0.25, 0.0625, 0.315, 0.125, 0.3775, 0.1875, 0, 0.25, 0.0625, 0.315, 0.125, 0.3775, 0.1875, 0, 0.25, 0.0625, 0.315, 0.125, 0.3775, 0.1875],
  "SoftwareVersions": "syngo MR E11",
  "SpacingBetweenSlices": 2.7,
  "StationName": "AWP66112",
  "TaskName": "social",
  "TotalReadoutTime": 0.03969,
  "TxRefAmp": 234.052,
  "WipMemBlock": "b466f45d-7af0-4281-a85d-cf013ddf05ae||Sequence: R016 ve11e/master r/434b28f1; Aug  7 2019 18:53:46 by eja",
  "dcmmeta_affine": [
    [-2.665027379989624, -0.301756888628006, -0.06876460462808609, 122.1244888305664],
    [-0.30575090646743774, 2.6592867374420166, 0.18228138983249664, -97.98878479003906],
    [-0.04735560342669487, -0.1877073049545288, 2.692962169647217, -80.58750915527344],
    [0.0, 0.0, 0.0, 1.0]
],
  "dcmmeta_reorient_transform": [
    [0.0, -1.0, 0.0, 81.0],
    [1.0, 0.0, 0.0, 0.0],
    [0.0, 0.0, 1.0, 0.0],
    [0.0, 0.0, 0.0, 1.0]
],
  "dcmmeta_shape": [82, 82, 56, 872],
  "dcmmeta_slice_dim": 2,
  "dcmmeta_version": 0.6,
  "global": {
    "const": {
      "AccessionNumber": "A004045",
      "AcquisitionMatrix": [82, 0, 0, 82],
      "AngioFlag": "N",
      "BitsAllocated": 16,
      "BitsStored": 16,
      "BodyPartExamined": "BRAIN",
      "Columns": 656,
      "EchoNumbers": 1,
      "EchoTime": 27.2,
      "EchoTrainLength": 82,
      "FlipAngle": 44.0,
      "HighBit": 15,
      "ImageOrientationPatient": [0.99332833601072, 0.11396169876037, -0.0176507250227, -0.1124730140409, 0.99118863561172, 0.06996363160067],
      "ImagePositionPatient": [-775.94079514304, -968.37921217547, -136.07274291937],
      "ImageType": [
        "ORIGINAL",
        "PRIMARY",
        "M",
        "MB",
        "ND",
        "NORM",
        "MOSAIC"
],
      "ImagedNucleus": "1H",
      "ImagingFrequency": 123.252245,
      "InPlanePhaseEncodingDirection": "COL",
      "MRAcquisitionType": "2D",
      "MagneticFieldStrength": 3.0,
      "Manufacturer": "SIEMENS",
      "ManufacturerModelName": "Prisma",
      "Modality": "MR",
      "NumberOfAverages": 1.0,
      "NumberOfPhaseEncodingSteps": 82,
      "PercentPhaseFieldOfView": 100.0,
      "PercentSampling": 100.0,
      "PerformedProcedureStepStartTime": "202754.427000",
      "PhotometricInterpretation": "MONOCHROME2",
      "PixelBandwidth": 3050.0,
      "PixelRepresentation": 0,
      "PixelSpacing": [2.6829268932343, 2.6829268932343],
      "ProtocolName": "func_run-06_task-social_acq-ap-mb8",
      "RepetitionTime": 460.0,
      "Rows": 656,
      "SAR": 0.07700082614075,
      "SamplesPerPixel": 1,
      "ScanOptions": "FS",
      "ScanningSequence": "EP",
      "SequenceName": "epfid2d1_82",
      "SequenceVariant": [
        "SK",
        "SS"
],
      "SeriesDescription": "func_run-06_task-social_acq-ap-mb8",
      "SeriesNumber": 22,
      "SeriesTime": "212912.638000",
      "SliceLocation": -90.103144581299,
      "SliceThickness": 2.7000000476837,
      "SmallestImagePixelValue": 0,
      "SoftwareVersions": "syngo MR E11",
      "SpacingBetweenSlices": 2.6999999821235,
      "SpecificCharacterSet": "ISO_IR 100",
      "StudyID": "1",
      "StudyTime": "202754.374000",
      "TransmitCoilName": "Body",
      "VariableFlipAngleFlag": "N",
      "WindowCenterWidthExplanation": "Algo1"
    },
    "slices": {}
  },
  "time": {
    "samples": {
      "AcquisitionNumber": [1, 2, 3, 4, 5, 6, 7, 8, 9, 10, 11, 12, 13, 14, 15, 16, 17, 18, 19, 20, 21, 22, 23, 24, 25, 26, 27, 28, 29, 30, 31, 32, 33, 34, 35, 36, 37, 38, 39, 40, 41, 42, 43, 44, 45, 46, 47, 48, 49, 50, 51, 52, 53, 54, 55, 56, 57, 58, 59, 60, 61, 62, 63, 64, 65, 66, 67, 68, 69, 70, 71, 72, 73, 74, 75, 76, 77, 78, 79, 80, 81, 82, 83, 84, 85, 86, 87, 88, 89, 90, 91, 92, 93, 94, 95, 96, 97, 98, 99, 100, 101, 102, 103, 104, 105, 106, 107, 108, 109, 110, 111, 112, 113, 114, 115, 116, 117, 118, 119, 120, 121, 122, 123, 124, 125, 126, 127, 128, 129, 130, 131, 132, 133, 134, 135, 136, 137, 138, 139, 140, 141, 142, 143, 144, 145, 146, 147, 148, 149, 150, 151, 152, 153, 154, 155, 156, 157, 158, 159, 160, 161, 162, 163, 164, 165, 166, 167, 168, 169, 170, 171, 172, 173, 174, 175, 176, 177, 178, 179, 180, 181, 182, 183, 184, 185, 186, 187, 188, 189, 190, 191, 192, 193, 194, 195, 196, 197, 198, 199, 200, 201, 202, 203, 204, 205, 206, 207, 208, 209, 210, 211, 212, 213, 214, 215, 216, 217, 218, 219, 220, 221, 222, 223, 224, 225, 226, 227, 228, 229, 230, 231, 232, 233, 234, 235, 236, 237, 238, 239, 240, 241, 242, 243, 244, 245, 246, 247, 248, 249, 250, 251, 252, 253, 254, 255, 256, 257, 258, 259, 260, 261, 262, 263, 264, 265, 266, 267, 268, 269, 270, 271, 272, 273, 274, 275, 276, 277, 278, 279, 280, 281, 282, 283, 284, 285, 286, 287, 288, 289, 290, 291, 292, 293, 294, 295, 296, 297, 298, 299, 300, 301, 302, 303, 304, 305, 306, 307, 308, 309, 310, 311, 312, 313, 314, 315, 316, 317, 318, 319, 320, 321, 322, 323, 324, 325, 326, 327, 328, 329, 330, 331, 332, 333, 334, 335, 336, 337, 338, 339, 340, 341, 342, 343, 344, 345, 346, 347, 348, 349, 350, 351, 352, 353, 354, 355, 356, 357, 358, 359, 360, 361, 362, 363, 364, 365, 366, 367, 368, 369, 370, 371, 372, 373, 374, 375, 376, 377, 378, 379, 380, 381, 382, 383, 384, 385, 386, 387, 388, 389, 390, 391, 392, 393, 394, 395, 396, 397, 398, 399, 400, 401, 402, 403, 404, 405, 406, 407, 408, 409, 410, 411, 412, 413, 414, 415, 416, 417, 418, 419, 420, 421, 422, 423, 424, 425, 426, 427, 428, 429, 430, 431, 432, 433, 434, 435, 436, 437, 438, 439, 440, 441, 442, 443, 444, 445, 446, 447, 448, 449, 450, 451, 452, 453, 454, 455, 456, 457, 458, 459, 460, 461, 462, 463, 464, 465, 466, 467, 468, 469, 470, 471, 472, 473, 474, 475, 476, 477, 478, 479, 480, 481, 482, 483, 484, 485, 486, 487, 488, 489, 490, 491, 492, 493, 494, 495, 496, 497, 498, 499, 500, 501, 502, 503, 504, 505, 506, 507, 508, 509, 510, 511, 512, 513, 514, 515, 516, 517, 518, 519, 520, 521, 522, 523, 524, 525, 526, 527, 528, 529, 530, 531, 532, 533, 534, 535, 536, 537, 538, 539, 540, 541, 542, 543, 544, 545, 546, 547, 548, 549, 550, 551, 552, 553, 554, 555, 556, 557, 558, 559, 560, 561, 562, 563, 564, 565, 566, 567, 568, 569, 570, 571, 572, 573, 574, 575, 576, 577, 578, 579, 580, 581, 582, 583, 584, 585, 586, 587, 588, 589, 590, 591, 592, 593, 594, 595, 596, 597, 598, 599, 600, 601, 602, 603, 604, 605, 606, 607, 608, 609, 610, 611, 612, 613, 614, 615, 616, 617, 618, 619, 620, 621, 622, 623, 624, 625, 626, 627, 628, 629, 630, 631, 632, 633, 634, 635, 636, 637, 638, 639, 640, 641, 642, 643, 644, 645, 646, 647, 648, 649, 650, 651, 652, 653, 654, 655, 656, 657, 658, 659, 660, 661, 662, 663, 664, 665, 666, 667, 668, 669, 670, 671, 672, 673, 674, 675, 676, 677, 678, 679, 680, 681, 682, 683, 684, 685, 686, 687, 688, 689, 690, 691, 692, 693, 694, 695, 696, 697, 698, 699, 700, 701, 702, 703, 704, 705, 706, 707, 708, 709, 710, 711, 712, 713, 714, 715, 716, 717, 718, 719, 720, 721, 722, 723, 724, 725, 726, 727, 728, 729, 730, 731, 732, 733, 734, 735, 736, 737, 738, 739, 740, 741, 742, 743, 744, 745, 746, 747, 748, 749, 750, 751, 752, 753, 754, 755, 756, 757, 758, 759, 760, 761, 762, 763, 764, 765, 766, 767, 768, 769, 770, 771, 772, 773, 774, 775, 776, 777, 778, 779, 780, 781, 782, 783, 784, 785, 786, 787, 788, 789, 790, 791, 792, 793, 794, 795, 796, 797, 798, 799, 800, 801, 802, 803, 804, 805, 806, 807, 808, 809, 810, 811, 812, 813, 814, 815, 816, 817, 818, 819, 820, 821, 822, 823, 824, 825, 826, 827, 828, 829, 830, 831, 832, 833, 834, 835, 836, 837, 838, 839, 840, 841, 842, 843, 844, 845, 846, 847, 848, 849, 850, 851, 852, 853, 854, 855, 856, 857, 858, 859, 860, 861, 862, 863, 864, 865, 866, 867, 868, 869, 870, 871, 872],
      "AcquisitionTime": ["212847.582500", "212848.042500", "212848.502500", "212848.962500", "212849.422500", "212849.882500", "212850.342500", "212850.802500", "212851.262500", "212851.722500", "212852.182500", "212852.642500", "212853.102500", "212853.562500", "212854.022500", "212854.482500", "212854.942500", "212855.402500", "212855.862500", "212856.322500", "212856.782500", "212857.242500", "212857.702500", "212858.162500", "212858.622500", "212859.082500", "212859.542500", "212900.002500", "212900.462500", "212900.922500", "212901.382500", "212901.842500", "212902.302500", "212902.762500", "212903.222500", "212903.682500", "212904.142500", "212904.602500", "212905.062500", "212905.522500", "212905.982500", "212906.442500", "212906.902500", "212907.362500", "212907.822500", "212908.282500", "212908.742500", "212909.202500", "212909.662500", "212910.122500", "212910.582500", "212911.042500", "212911.502500", "212911.962500", "212912.422500", "212912.882500", "212913.342500", "212913.802500", "212914.262500", "212914.722500", "212915.182500", "212915.642500", "212916.102500", "212916.562500", "212917.022500", "212917.482500", "212917.942500", "212918.402500", "212918.862500", "212919.322500", "212919.782500", "212920.242500", "212920.702500", "212921.162500", "212921.622500", "212922.082500", "212922.542500", "212923.002500", "212923.462500", "212923.922500", "212924.382500", "212924.842500", "212925.302500", "212925.762500", "212926.222500", "212926.682500", "212927.142500", "212927.602500", "212928.062500", "212928.522500", "212928.982500", "212929.442500", "212929.902500", "212930.362500", "212930.822500", "212931.282500", "212931.742500", "212932.202500", "212932.662500", "212933.122500", "212933.582500", "212934.042500", "212934.502500", "212934.962500", "212935.422500", "212935.882500", "212936.342500", "212936.802500", "212937.262500", "212937.722500", "212938.182500", "212938.642500", "212939.102500", "212939.562500", "212940.022500", "212940.482500", "212940.942500", "212941.402500", "212941.862500", "212942.322500", "212942.782500", "212943.242500", "212943.702500", "212944.162500", "212944.622500", "212945.082500", "212945.542500", "212946.002500", "212946.462500", "212946.922500", "212947.382500", "212947.842500", "212948.302500", "212948.762500", "212949.222500", "212949.682500", "212950.142500", "212950.602500", "212951.062500", "212951.522500", "212951.982500", "212952.442500", "212952.902500", "212953.362500", "212953.822500", "212954.282500", "212954.742500", "212955.202500", "212955.662500", "212956.122500", "212956.582500", "212957.042500", "212957.502500", "212957.962500", "212958.422500", "212958.882500", "212959.342500", "212959.802500", "213000.262500", "213000.722500", "213001.182500", "213001.642500", "213002.102500", "213002.562500", "213003.022500", "213003.482500", "213003.942500", "213004.402500", "213004.862500", "213005.322500", "213005.782500", "213006.242500", "213006.702500", "213007.162500", "213007.622500", "213008.082500", "213008.542500", "213009.002500", "213009.462500", "213009.922500", "213010.382500", "213010.842500", "213011.302500", "213011.762500", "213012.222500", "213012.682500", "213013.142500", "213013.602500", "213014.062500", "213014.522500", "213014.982500", "213015.442500", "213015.902500", "213016.362500", "213016.822500", "213017.282500", "213017.742500", "213018.202500", "213018.662500", "213019.122500", "213019.582500", "213020.042500", "213020.502500", "213020.962500", "213021.422500", "213021.882500", "213022.342500", "213022.802500", "213023.262500", "213023.722500", "213024.182500", "213024.642500", "213025.102500", "213025.562500", "213026.022500", "213026.482500", "213026.942500", "213027.402500", "213027.862500", "213028.322500", "213028.782500", "213029.242500", "213029.702500", "213030.162500", "213030.622500", "213031.082500", "213031.542500", "213032.002500", "213032.462500", "213032.922500", "213033.382500", "213033.842500", "213034.302500", "213034.762500", "213035.222500", "213035.682500", "213036.142500", "213036.602500", "213037.062500", "213037.522500", "213037.982500", "213038.442500", "213038.902500", "213039.362500", "213039.822500", "213040.282500", "213040.742500", "213041.202500", "213041.662500", "213042.122500", "213042.582500", "213043.042500", "213043.502500", "213043.962500", "213044.422500", "213044.882500", "213045.342500", "213045.802500", "213046.262500", "213046.722500", "213047.182500", "213047.642500", "213048.102500", "213048.562500", "213049.022500", "213049.482500", "213049.942500", "213050.402500", "213050.862500", "213051.322500", "213051.782500", "213052.242500", "213052.702500", "213053.162500", "213053.622500", "213054.082500", "213054.542500", "213055.002500", "213055.462500", "213055.922500", "213056.382500", "213056.842500", "213057.302500", "213057.762500", "213058.222500", "213058.682500", "213059.142500", "213059.602500", "213100.062500", "213100.522500", "213100.982500", "213101.442500", "213101.902500", "213102.362500", "213102.822500", "213103.282500", "213103.742500", "213104.202500", "213104.662500", "213105.122500", "213105.582500", "213106.042500", "213106.502500", "213106.962500", "213107.422500", "213107.882500", "213108.342500", "213108.802500", "213109.262500", "213109.722500", "213110.182500", "213110.642500", "213111.102500", "213111.562500", "213112.022500", "213112.482500", "213112.942500", "213113.402500", "213113.862500", "213114.322500", "213114.782500", "213115.242500", "213115.702500", "213116.162500", "213116.622500", "213117.082500", "213117.542500", "213118.002500", "213118.462500", "213118.922500", "213119.382500", "213119.842500", "213120.302500", "213120.762500", "213121.222500", "213121.682500", "213122.142500", "213122.602500", "213123.062500", "213123.522500", "213123.982500", "213124.442500", "213124.902500", "213125.362500", "213125.822500", "213126.282500", "213126.742500", "213127.202500", "213127.662500", "213128.122500", "213128.582500", "213129.042500", "213129.502500", "213129.962500", "213130.422500", "213130.882500", "213131.342500", "213131.802500", "213132.262500", "213132.722500", "213133.182500", "213133.642500", "213134.102500", "213134.562500", "213135.022500", "213135.482500", "213135.942500", "213136.402500", "213136.862500", "213137.322500", "213137.782500", "213138.242500", "213138.702500", "213139.162500", "213139.622500", "213140.082500", "213140.542500", "213141.002500", "213141.462500", "213141.922500", "213142.382500", "213142.842500", "213143.302500", "213143.762500", "213144.222500", "213144.682500", "213145.142500", "213145.602500", "213146.062500", "213146.522500", "213146.982500", "213147.442500", "213147.902500", "213148.362500", "213148.822500", "213149.282500", "213149.742500", "213150.202500", "213150.662500", "213151.122500", "213151.582500", "213152.042500", "213152.502500", "213152.962500", "213153.422500", "213153.882500", "213154.342500", "213154.802500", "213155.262500", "213155.722500", "213156.182500", "213156.642500", "213157.102500", "213157.562500", "213158.022500", "213158.482500", "213158.942500", "213159.402500", "213159.862500", "213200.322500", "213200.782500", "213201.242500", "213201.702500", "213202.162500", "213202.622500", "213203.082500", "213203.542500", "213204.002500", "213204.462500", "213204.922500", "213205.382500", "213205.842500", "213206.302500", "213206.762500", "213207.222500", "213207.682500", "213208.142500", "213208.602500", "213209.062500", "213209.522500", "213209.982500", "213210.442500", "213210.902500", "213211.362500", "213211.822500", "213212.282500", "213212.742500", "213213.202500", "213213.662500", "213214.122500", "213214.582500", "213215.042500", "213215.502500", "213215.962500", "213216.422500", "213216.882500", "213217.342500", "213217.802500", "213218.262500", "213218.722500", "213219.182500", "213219.642500", "213220.102500", "213220.562500", "213221.022500", "213221.482500", "213221.942500", "213222.402500", "213222.862500", "213223.322500", "213223.782500", "213224.242500", "213224.702500", "213225.162500", "213225.622500", "213226.082500", "213226.542500", "213227.002500", "213227.462500", "213227.922500", "213228.382500", "213228.842500", "213229.302500", "213229.762500", "213230.222500", "213230.682500", "213231.142500", "213231.602500", "213232.062500", "213232.522500", "213232.982500", "213233.442500", "213233.902500", "213234.362500", "213234.822500", "213235.282500", "213235.742500", "213236.202500", "213236.662500", "213237.122500", "213237.582500", "213238.042500", "213238.502500", "213238.962500", "213239.422500", "213239.882500", "213240.342500", "213240.802500", "213241.262500", "213241.722500", "213242.182500", "213242.642500", "213243.102500", "213243.562500", "213244.022500", "213244.482500", "213244.942500", "213245.402500", "213245.862500", "213246.322500", "213246.782500", "213247.242500", "213247.702500", "213248.162500", "213248.622500", "213249.082500", "213249.542500", "213250.002500", "213250.462500", "213250.922500", "213251.382500", "213251.842500", "213252.302500", "213252.762500", "213253.222500", "213253.682500", "213254.142500", "213254.602500", "213255.062500", "213255.522500", "213255.982500", "213256.442500", "213256.902500", "213257.362500", "213257.822500", "213258.282500", "213258.742500", "213259.202500", "213259.662500", "213300.122500", "213300.582500", "213301.042500", "213301.502500", "213301.962500", "213302.422500", "213302.882500", "213303.342500", "213303.802500", "213304.262500", "213304.722500", "213305.182500", "213305.642500", "213306.102500", "213306.562500", "213307.022500", "213307.482500", "213307.942500", "213308.402500", "213308.862500", "213309.322500", "213309.782500", "213310.242500", "213310.702500", "213311.162500", "213311.622500", "213312.082500", "213312.542500", "213313.002500", "213313.462500", "213313.922500", "213314.382500", "213314.842500", "213315.302500", "213315.762500", "213316.222500", "213316.682500", "213317.142500", "213317.602500", "213318.062500", "213318.522500", "213318.982500", "213319.442500", "213319.902500", "213320.362500", "213320.822500", "213321.282500", "213321.742500", "213322.202500", "213322.662500", "213323.122500", "213323.582500", "213324.042500", "213324.502500", "213324.962500", "213325.422500", "213325.882500", "213326.342500", "213326.802500", "213327.262500", "213327.722500", "213328.182500", "213328.642500", "213329.102500", "213329.562500", "213330.022500", "213330.482500", "213330.942500", "213331.402500", "213331.862500", "213332.322500", "213332.782500", "213333.242500", "213333.702500", "213334.162500", "213334.622500", "213335.082500", "213335.542500", "213336.002500", "213336.462500", "213336.922500", "213337.382500", "213337.842500", "213338.302500", "213338.762500", "213339.222500", "213339.682500", "213340.142500", "213340.602500", "213341.062500", "213341.522500", "213341.982500", "213342.442500", "213342.902500", "213343.362500", "213343.822500", "213344.282500", "213344.742500", "213345.202500", "213345.662500", "213346.122500", "213346.582500", "213347.042500", "213347.502500", "213347.962500", "213348.422500", "213348.882500", "213349.342500", "213349.802500", "213350.262500", "213350.722500", "213351.182500", "213351.642500", "213352.102500", "213352.562500", "213353.022500", "213353.482500", "213353.942500", "213354.402500", "213354.862500", "213355.322500", "213355.782500", "213356.242500", "213356.702500", "213357.162500", "213357.622500", "213358.082500", "213358.542500", "213359.002500", "213359.462500", "213359.922500", "213400.382500", "213400.842500", "213401.302500", "213401.762500", "213402.222500", "213402.682500", "213403.142500", "213403.602500", "213404.062500", "213404.522500", "213404.982500", "213405.442500", "213405.902500", "213406.362500", "213406.822500", "213407.282500", "213407.742500", "213408.202500", "213408.662500", "213409.122500", "213409.582500", "213410.042500", "213410.502500", "213410.962500", "213411.422500", "213411.882500", "213412.342500", "213412.802500", "213413.262500", "213413.722500", "213414.182500", "213414.642500", "213415.102500", "213415.562500", "213416.022500", "213416.482500", "213416.942500", "213417.402500", "213417.862500", "213418.322500", "213418.782500", "213419.242500", "213419.702500", "213420.162500", "213420.622500", "213421.082500", "213421.542500", "213422.002500", "213422.462500", "213422.922500", "213423.382500", "213423.842500", "213424.302500", "213424.762500", "213425.222500", "213425.682500", "213426.142500", "213426.602500", "213427.062500", "213427.522500", "213427.982500", "213428.442500", "213428.902500", "213429.362500", "213429.822500", "213430.282500", "213430.742500", "213431.202500", "213431.662500", "213432.122500", "213432.582500", "213433.042500", "213433.502500", "213433.962500", "213434.422500", "213434.882500", "213435.342500", "213435.802500", "213436.262500", "213436.722500", "213437.182500", "213437.642500", "213438.102500", "213438.562500", "213439.022500", "213439.482500", "213439.942500", "213440.402500", "213440.862500", "213441.322500", "213441.782500", "213442.242500", "213442.702500", "213443.162500", "213443.622500", "213444.082500", "213444.542500", "213445.002500", "213445.462500", "213445.922500", "213446.382500", "213446.842500", "213447.302500", "213447.762500", "213448.222500", "213448.682500", "213449.142500", "213449.602500", "213450.062500", "213450.522500", "213450.982500", "213451.442500", "213451.902500", "213452.362500", "213452.822500", "213453.282500", "213453.742500", "213454.202500", "213454.662500", "213455.122500", "213455.582500", "213456.042500", "213456.502500", "213456.962500", "213457.422500", "213457.882500", "213458.342500", "213458.802500", "213459.262500", "213459.722500", "213500.182500", "213500.642500", "213501.102500", "213501.562500", "213502.022500", "213502.482500", "213502.942500", "213503.402500", "213503.862500", "213504.322500", "213504.782500", "213505.242500", "213505.702500", "213506.162500", "213506.622500", "213507.082500", "213507.542500", "213508.002500", "213508.462500", "213508.922500", "213509.382500", "213509.842500", "213510.302500", "213510.762500", "213511.222500", "213511.682500", "213512.142500", "213512.602500", "213513.062500", "213513.522500", "213513.982500", "213514.442500", "213514.902500", "213515.362500", "213515.822500", "213516.282500", "213516.742500", "213517.202500", "213517.662500", "213518.122500", "213518.582500", "213519.042500", "213519.502500", "213519.962500", "213520.422500", "213520.882500", "213521.342500", "213521.802500", "213522.262500", "213522.722500", "213523.182500", "213523.642500", "213524.102500", "213524.562500", "213525.022500", "213525.482500", "213525.942500", "213526.402500", "213526.862500", "213527.322500", "213527.782500", "213528.242500"],
